Data from hue_310_FLMS001491_78.txt Node
Date: Mon Feb 06 15:50:09 GMT 2017
User: dcchb
Spectrometer: FLMS00149
Trigger mode: 0
Integration Time (sec): 2.000000E-2
Scans to average: 10
Electric dark correction enabled: true
Nonlinearity correction enabled: false
Boxcar width: 0
XAxis mode: Wavelengths
Number of Pixels in Spectrum: 2048
>>>>>Begin Spectral Data<<<<<
341.393	-14.62
341.776	-14.62
342.16	-14.62
342.543	-62.75
342.927	-84.67
343.31	-82.87
343.693	-76.54
344.077	-65.24
344.46	-55.75
344.843	-58.68
345.226	-36.99
345.61	-31.34
345.993	-11.45
346.376	-17.33
346.759	15.89
347.142	28.32
347.525	63.57
347.908	38.26
348.291	76.68
348.674	100.41
349.057	113.06
349.44	134.76
349.823	155.32
350.206	145.6
350.588	186.96
350.971	210.01
351.354	231.25
351.737	234.41
352.119	247.52
352.502	259.95
352.884	287.07
353.267	269.67
353.65	288.2
354.032	308.31
354.414	317.58
354.797	312.6
355.179	320.29
355.562	306.96
355.944	309.22
356.326	312.15
356.709	321.87
357.091	331.59
357.473	337.01
357.855	339.72
358.238	337.91
358.62	324.58
359.002	346.05
359.384	348.99
359.766	336.56
360.148	342.66
360.53	335.88
360.912	313.51
361.294	322.1
361.676	315.54
362.057	347.41
362.439	328.65
362.821	323.23
363.203	333.62
363.584	338.37
363.966	334.3
364.348	336.11
364.729	315.09
365.111	322.32
365.493	328.88
365.874	317.35
366.256	338.37
366.637	329.1
367.019	323.9
367.4	310.57
367.781	315.77
368.163	287.29
368.544	305.37
368.925	320.06
369.306	323.23
369.688	317.12
370.069	300.63
370.45	329.55
370.831	303.11
371.212	314.64
371.593	326.16
371.974	308.09
372.355	310.34
372.736	317.58
373.117	316.22
373.498	304.02
373.879	309.67
374.26	312.38
374.641	308.99
375.021	339.27
375.402	314.86
375.783	334.3
376.163	324.36
376.544	327.75
376.925	327.07
377.305	320.74
377.686	341.53
378.066	332.72
378.447	323.23
378.827	338.14
379.208	318.25
379.588	336.33
379.968	331.59
380.349	327.29
380.729	346.05
381.109	325.49
381.489	336.78
381.87	348.99
382.25	334.75
382.63	342.43
383.01	338.59
383.39	342.43
383.77	360.97
384.15	354.41
384.53	351.25
384.91	351.02
385.29	358.48
385.67	351.7
386.049	344.69
386.429	356.45
386.809	378.59
387.189	349.21
387.568	363.45
387.948	358.48
388.328	347.86
388.707	365.26
389.087	343.79
389.466	371.36
389.846	350.34
390.225	380.4
390.605	369.1
390.984	367.29
391.363	352.6
391.743	381.53
392.122	368.42
392.501	357.12
392.881	366.39
393.26	382.89
393.639	378.82
394.018	386.5
394.397	377.91
394.776	397.12
395.155	382.66
395.534	399.61
395.913	408.42
396.292	405.71
396.671	400.96
397.05	394.64
397.429	384.47
397.808	400.06
398.186	415.43
398.565	394.64
398.944	404.13
399.323	395.31
399.701	397.57
400.08	402.55
400.458	426.95
400.837	416.78
401.215	416.56
401.594	410.91
401.972	437.12
402.351	426.95
402.729	425.82
403.107	430.12
403.486	424.24
403.864	432.15
404.242	445.26
404.62	448.42
404.999	437.57
405.377	442.32
405.755	464.69
406.133	461.53
406.511	433.51
406.889	456.33
407.267	472.37
407.645	466.27
408.023	493.39
408.401	472.15
408.779	481.87
409.156	490.68
409.534	505.82
409.912	496.55
410.29	523.9
410.667	509.44
411.045	517.12
411.422	519.6
411.8	524.8
412.178	546.5
412.555	538.59
412.933	541.75
413.31	546.5
413.687	588.3
414.065	564.12
414.442	581.3
414.819	601.86
415.197	593.73
415.574	617.91
415.951	610.9
416.328	623.33
416.705	614.97
417.082	613.16
417.46	623.33
417.837	647.06
418.214	676.44
418.591	660.62
418.967	665.82
419.344	685.48
419.721	678.24
420.098	695.19
420.475	701.52
420.852	704.68
421.228	711.24
421.605	713.27
421.982	722.31
422.358	740.62
422.735	768.86
423.111	758.02
423.488	788.52
423.864	774.29
424.241	792.82
424.617	781.29
424.994	795.3
425.37	798.69
425.746	805.02
426.123	800.05
426.499	817.22
426.875	841.86
427.251	829.65
427.627	874.17
428.003	863.78
428.379	882.31
428.756	877.11
429.132	882.99
429.507	915.98
429.883	926.15
430.259	931.12
430.635	952.36
431.011	931.12
431.387	948.29
431.763	984.9
432.138	971.34
432.514	988.52
432.89	1004.79
433.265	1004.56
433.641	1020.16
434.016	1023.09
434.392	1017.22
434.767	1087.95
435.143	1057.9
435.518	1083.21
435.894	1102.41
436.269	1141.51
436.644	1123.43
437.02	1117.56
437.395	1089.08
437.77	1156.42
438.145	1136.54
438.52	1159.59
438.895	1171.34
439.271	1172.92
439.646	1222.64
440.021	1213.15
440.395	1237.1
440.77	1198.68
441.145	1213.15
441.52	1259.92
441.895	1210.89
442.27	1260.83
442.645	1234.84
443.019	1250.21
443.394	1270.55
443.769	1275.97
444.143	1260.6
444.518	1288.62
444.892	1249.3
445.267	1267.16
445.641	1286.82
446.016	1313.48
446.39	1301.73
446.764	1326.14
447.139	1311.67
447.513	1315.52
447.887	1315.97
448.262	1327.27
448.636	1343.76
449.01	1368.17
449.384	1360.49
449.758	1354.39
450.132	1379.47
450.506	1339.47
450.88	1369.75
451.254	1360.49
451.628	1406.36
452.002	1386.25
452.376	1427.83
452.75	1419.69
453.123	1412.91
453.497	1446.13
453.871	1490.65
454.244	1449.52
454.618	1479.13
454.992	1481.61
455.365	1495.62
455.739	1520.26
456.112	1520.71
456.486	1534.27
456.859	1568.62
457.232	1553.25
457.606	1536.53
457.979	1563.65
458.352	1604.1
458.725	1580.37
459.099	1610.42
459.472	1632.57
459.845	1628.05
460.218	1618.33
460.591	1646.58
460.964	1677.54
461.337	1681.83
461.71	1734.94
462.083	1738.33
462.456	1707.6
462.829	1693.59
463.201	1742.4
463.574	1750.08
463.947	1779.91
464.32	1801.83
464.692	1790.98
465.065	1795.73
465.438	1826.92
465.81	1806.12
466.183	1896.97
466.555	1869.63
466.928	1881.6
467.3	1883.18
467.672	1914.14
468.045	1976.74
468.417	1957.76
468.789	1968.83
469.161	1997.53
469.534	2003.41
469.906	2039.57
470.278	2049.06
470.65	2055.61
471.022	2082.95
471.394	2101.26
471.766	2089.06
472.138	2119.79
472.51	2157.08
472.882	2151.2
473.253	2184.87
473.625	2222.16
473.997	2238.88
474.369	2251.31
474.74	2251.08
475.112	2343.96
475.484	2327.92
475.855	2361.82
476.227	2377.18
476.598	2430.29
476.97	2437.52
477.341	2466.45
477.713	2486.78
478.084	2513.22
478.455	2563.62
478.827	2559.78
479.198	2640.91
479.569	2625.76
479.94	2683.39
480.311	2700.34
480.682	2691.3
481.053	2766.33
481.424	2768.36
481.795	2849.26
482.166	2831.63
482.537	2871.86
482.908	2872.31
483.279	2956.15
483.65	2982.37
484.021	3016.04
484.391	3053.78
484.762	3044.28
485.133	3065.07
485.503	3089.48
485.874	3147.56
486.244	3187.11
486.615	3218.07
486.985	3225.97
487.356	3298.74
487.726	3348.01
488.097	3355.24
488.467	3350.27
488.837	3420.55
489.207	3404.95
489.578	3472.75
489.948	3517.49
490.318	3590.71
490.688	3582.35
491.058	3589.58
491.428	3644.04
491.798	3680.65
492.168	3700.76
492.538	3707.09
492.908	3734.21
493.278	3799.52
493.648	3805.62
494.017	3807.65
494.387	3861.66
494.757	3877.71
495.126	3928.78
495.496	3928.55
495.866	3913.87
496.235	3994.99
496.605	3980.53
496.974	3983.02
497.344	4048.33
497.713	4023.92
498.082	4092.84
498.452	4096.69
498.821	4143.01
499.19	4147.53
499.559	4147.76
499.928	4158.38
500.298	4214.65
500.667	4203.58
501.036	4201.32
501.405	4216.23
501.774	4266.63
502.143	4255.55
502.512	4317.47
502.88	4328.77
503.249	4325.83
503.618	4359.73
503.987	4333.97
504.356	4383.91
504.724	4387.75
505.093	4371.93
505.462	4409.9
505.83	4413.51
506.199	4476.79
506.567	4512.04
506.936	4506.84
507.304	4508.88
507.672	4553.62
508.041	4578.48
508.409	4533.96
508.777	4593.17
509.145	4636.78
509.514	4623.9
509.882	4679.5
510.25	4685.15
510.618	4672.04
510.986	4699.83
511.354	4712.49
511.722	4719.27
512.09	4747.29
512.458	4772.6
512.826	4796.78
513.193	4807.63
513.561	4785.71
513.929	4790.91
514.297	4832.49
514.664	4872.26
515.032	4890.11
515.4	4910.68
515.767	4908.42
516.135	4948.87
516.502	4887.85
516.869	4988.64
517.237	4970.34
517.604	4924.23
517.972	4935.08
518.339	5058.47
518.706	5027.06
519.073	5053.95
519.44	5074.97
519.808	5104.8
520.175	5083.78
520.542	5115.87
520.909	5117.45
521.276	5146.83
521.643	5135.3
522.009	5203.55
522.376	5186.37
522.743	5270.67
523.11	5241.29
523.477	5324.68
523.843	5339.59
524.21	5342.3
524.577	5375.07
524.943	5420.27
525.31	5437.44
525.676	5438.8
526.043	5470.44
526.409	5488.29
526.776	5556.76
527.142	5564.67
527.508	5593.37
527.874	5618.91
528.241	5714.27
528.607	5637.66
528.973	5677.66
529.339	5678.79
529.705	5769.41
530.071	5771.9
530.437	5822.06
530.803	5858.67
531.169	5875.4
531.535	5839.92
531.901	5952.23
532.267	5903.87
532.632	5983.42
532.998	6007.82
533.364	5982.06
533.73	6004.43
534.095	6047.37
534.461	6091.89
534.826	6151.32
535.192	6134.82
535.557	6139.8
535.923	6166.91
536.288	6176.18
536.653	6240.36
537.019	6239
537.384	6256.4
537.749	6279.45
538.114	6330.53
538.479	6279.68
538.845	6389.73
539.21	6358.77
539.575	6394.25
539.94	6454.59
540.305	6467.25
540.67	6451.65
541.034	6533.23
541.399	6512.89
541.764	6540.69
542.129	6589.05
542.494	6595.15
542.858	6572.55
543.223	6617.52
543.587	6688.71
543.952	6688.93
544.316	6739.1
544.681	6785.65
545.045	6821.36
545.41	6781.14
545.774	6847.57
546.138	6782.49
546.503	6887.8
546.867	6880.34
547.231	6948.36
547.595	6931.64
547.959	6997.63
548.324	7036.72
548.688	7005.08
549.052	7066.1
549.416	7102.26
549.779	7076.95
550.143	7126.44
550.507	7159.66
550.871	7205.08
551.235	7146.1
551.599	7249.15
551.962	7260.67
552.326	7255.47
552.689	7302.7
553.053	7272.65
553.417	7294.79
553.78	7421.8
554.143	7377.05
554.507	7366.66
554.87	7368.24
555.234	7550.61
555.597	7460.67
555.96	7494.34
556.323	7474.45
556.686	7504.28
557.05	7665.63
557.413	7613.43
557.776	7565.07
558.139	7660.66
558.502	7627.44
558.865	7685.07
559.228	7725.74
559.59	7678.51
559.953	7820.88
560.316	7806.87
560.679	7805.74
561.041	7831.05
561.404	7882.8
561.767	7928.68
562.129	7881.45
562.492	7969.13
562.854	7944.95
563.217	8045.06
563.579	8036.02
563.941	8075.79
564.304	8142
564.666	8116.69
565.028	8102.46
565.39	8222
565.753	8167.31
566.115	8245.28
566.477	8298.16
566.839	8247.31
567.201	8365.05
567.563	8292.73
567.925	8334.54
568.287	8339.51
568.648	8368.44
569.01	8480.98
569.372	8542.67
569.734	8539.96
570.095	8593.52
570.457	8595.1
570.819	8631.26
571.18	8625.83
571.542	8724.36
571.903	8790.12
572.265	8737.24
572.626	8811.82
572.987	8856.79
573.349	8910.12
573.71	8964.81
574.071	9016.78
574.432	9123.67
574.794	9223.78
575.155	9204.35
575.516	9249.09
575.877	9318.24
576.238	9303.55
576.599	9457.22
576.96	9501.74
577.32	9547.16
577.681	9671.45
578.042	9744.45
578.403	9757.1
578.763	9954.61
579.124	10019.02
579.485	10092.01
579.845	10286.58
580.206	10250.42
580.566	10394.15
580.927	10508.95
581.287	10652.67
581.648	10805.44
582.008	10962.95
582.368	11092.89
582.728	11267.57
583.089	11355.7
583.449	11605.42
583.809	11649.03
584.169	11833.66
584.529	12099.87
584.889	12307.54
585.249	12375.79
585.609	12574.2
585.969	12853.52
586.329	13001.99
586.688	13343.67
587.048	13473.84
587.408	13698.24
587.768	13941.62
588.127	14124.44
588.487	14320.37
588.846	14650.98
589.206	14922.16
589.565	15116.06
589.925	15405.99
590.284	15672.88
590.643	16038.29
591.003	16332.75
591.362	16647.77
591.721	16879.63
592.08	17124.82
592.44	17420.18
592.799	17721.19
593.158	18021.52
593.517	18270.55
593.876	18628.73
594.235	18827.37
594.593	19186.68
594.952	19552.78
595.311	19703.73
595.67	20097.62
596.029	20553.43
596.387	20788
596.746	21116.13
597.104	21278.16
597.463	21574.42
597.822	22005.14
598.18	22151.8
598.538	22497.33
598.897	22836.76
599.255	23000.14
599.613	23602.39
599.972	23775.49
600.33	24102.49
600.688	24323.05
601.046	24697.27
601.404	25118.28
601.762	25155.57
602.12	25642.79
602.478	25868.32
602.836	26175.43
603.194	26281.41
603.552	26631.46
603.91	26869.87
604.268	27286.58
604.625	27316.19
604.983	27674.15
605.341	27965.44
605.698	28137.18
606.056	28499.66
606.413	28699.43
606.771	29056.03
607.128	29172.18
607.485	29381.9
607.843	29596.58
608.2	29939.17
608.557	30309.1
608.914	30413.96
609.272	30757.45
609.629	30961.52
609.986	31167.61
610.343	31449.41
610.7	31825.45
611.057	31868.16
611.414	31904.54
611.771	32128.27
612.127	32573.68
612.484	32635.14
612.841	32993.33
613.198	33003.95
613.554	33225.19
613.911	33561
614.267	33689.13
614.624	33817.94
614.98	33931.38
615.337	34371.14
615.693	34359.85
616.05	34446.62
616.406	34812.94
616.762	34848.19
617.118	34982.88
617.475	35075.53
617.831	35254.06
618.187	35426.94
618.543	35670.32
618.899	35981.5
619.255	35976.07
619.611	36012.68
619.967	36290.64
620.323	36443.18
620.678	36252.68
621.034	36511.2
621.39	36571.99
621.746	36560.47
622.101	37182.37
622.457	36880.68
622.812	37154.57
623.168	37306.21
623.523	37401.12
623.879	37621.23
624.234	37281.12
624.589	37621.45
624.945	37661.23
625.3	37923.14
625.655	37719.76
626.01	38024.61
626.365	38185.73
626.72	38018.73
627.075	38199.74
627.43	38238.84
627.785	38151.84
628.14	38389.8
628.495	38524.71
628.85	38503.92
629.205	38325.84
629.559	38565.38
629.914	38569
630.269	38595.21
630.623	38606.29
630.978	38631.82
631.332	38693.52
631.687	38768.09
632.041	38664.59
632.396	38815.1
632.75	38697.58
633.104	38745.04
633.459	38680.41
633.813	38686.51
634.167	38661.65
634.521	38908.65
634.875	38981.87
635.229	38844.02
635.583	38668.21
635.937	38684.48
636.291	38798.37
636.645	38756.57
636.999	38707.53
637.352	38912.04
637.706	38671.6
638.06	38817.13
638.413	38866.62
638.767	38793.63
639.121	38848.99
639.474	38688.77
639.828	38858.94
640.181	38803.12
640.534	38827.52
640.888	38847.41
641.241	38569.9
641.594	38751.82
641.947	38871.59
642.301	38743.46
642.654	38733.29
643.007	38816.9
643.36	38669.34
643.713	38653.07
644.066	38898.93
644.419	38627.98
644.771	38400.42
645.124	37854.22
645.477	37988.22
645.83	37737.61
646.182	37622.81
646.535	37592.75
646.888	37736.25
647.24	37511.17
647.593	37611.51
647.945	37595.69
648.298	37547.11
648.65	37443.83
649.002	37307.56
649.355	37480.44
649.707	37401.8
650.059	37577.84
650.411	37929.47
650.763	37959.3
651.115	38449.23
651.467	38141.67
651.819	38341.89
652.171	38313.41
652.523	38179.41
652.875	38036.36
653.227	38107.77
653.578	38279.52
653.93	38099.41
654.282	38190.25
654.633	37949.36
654.985	38016.7
655.337	37967.66
655.688	37981.44
656.039	38248.78
656.391	37919.07
656.742	37993.42
657.094	37937.83
657.445	38122.01
657.796	38027.09
658.147	37894.89
658.498	37881.33
658.849	38051.5
659.2	37918.4
659.551	37794.11
659.902	38047.66
660.253	37804.95
660.604	38004.5
660.955	37833.2
661.306	37908.9
661.656	37893.99
662.007	37832.52
662.358	37908
662.708	37750.94
663.059	37922.92
663.409	37599.99
663.76	37890.37
664.11	37856.02
664.461	37881.33
664.811	37827.78
665.161	37796.14
665.511	37728.12
665.862	37835.91
666.212	37813.54
666.562	37886.08
666.912	37709.36
667.262	37706.65
667.612	37871.39
667.962	37816.48
668.312	37647.22
668.662	37789.59
669.011	37849.47
669.361	37715.01
669.711	37558.63
670.06	37570.61
670.41	37656.71
670.76	37581.46
671.109	37686.09
671.459	37691.96
671.808	37651.96
672.157	37683.37
672.507	37388.69
672.856	37479.09
673.205	37514.11
673.554	37633.43
673.904	37392.76
674.253	37662.58
674.602	37487.9
674.951	37017.63
675.3	36873.45
675.649	37338.3
675.998	37383.72
676.346	37357.73
676.695	37539.42
677.044	37209.49
677.393	37324.74
677.741	37424.17
678.09	37358.18
678.438	37227.79
678.787	37354.34
679.135	37358.18
679.484	37021.02
679.832	37297.62
680.181	37028.7
680.529	37147.79
680.877	36968.36
681.225	36900.12
681.573	37165.65
681.922	36849.5
682.27	36778.31
682.618	36786
682.966	36716.85
683.314	36822.15
683.661	36766.11
684.009	36569.28
684.357	36401.37
684.705	36387.59
685.053	36455.16
685.4	36347.59
685.748	36248.61
686.095	36226.69
686.443	36030.99
686.79	36123.87
687.138	36139.46
687.485	35960.48
687.832	35845.91
688.18	35966.81
688.527	35804.55
688.874	35799.13
689.221	35787.38
689.568	35572.02
689.915	35493.15
690.262	35610.89
690.609	35505.35
690.956	35212.25
691.303	35398.46
691.65	35231.91
691.997	35083.44
692.344	34935.88
692.69	34983.78
693.037	34945.59
693.383	34670.57
693.73	34917.8
694.077	34629.89
694.423	34631.93
694.769	34490.46
695.116	34515.77
695.462	34352.61
695.808	34332.28
696.155	34372.5
696.501	34217.25
696.847	34099.96
697.193	33862.46
697.539	33997.37
697.885	33825.4
698.231	33584.5
698.577	33580.88
698.923	33668.79
699.269	33472.18
699.614	33271.96
699.96	33351.74
700.306	33145.87
700.651	33004.4
700.997	32808.25
701.342	32981.35
701.688	32892.54
702.033	32822.03
702.379	32825.2
702.724	32696.84
703.069	32758.98
703.415	32292.1
703.76	32412.78
704.105	32399.44
704.45	32386.11
704.795	32220.01
705.14	32076.74
705.485	32097.08
705.83	31881.72
706.175	32070.41
706.52	31897.76
706.865	31814.15
707.209	31707.94
707.554	31624.32
707.899	31732.12
708.243	31474.95
708.588	31415.97
708.932	31200.61
709.277	31362.18
709.621	31423.2
709.966	31010.55
710.31	31187.05
710.654	30911.57
710.998	31051.23
711.342	31027.28
711.687	30928.3
712.031	30719.26
712.375	30606.5
712.719	30468.42
713.063	30572.15
713.407	30651.69
713.75	30406.5
714.094	30472.04
714.438	30357.92
714.782	30361.76
715.125	30168.77
715.469	30237.69
715.812	30064.59
716.156	29866.4
716.499	29849.23
716.843	30049.68
717.186	29888.55
717.53	29918.15
717.873	29958.38
718.216	29772.4
718.559	29695.11
718.902	29434.55
719.246	29655.79
719.589	29512.29
719.932	29423.03
720.275	29428.22
720.617	29344.16
720.96	29250.37
721.303	29207.89
721.646	29263.26
721.989	28996.82
722.331	29102.13
722.674	29082.7
723.016	29136.48
723.359	28991.17
723.701	28964.73
724.044	28851.52
724.386	28675.47
724.729	28827.79
725.071	28714.57
725.413	28732.87
725.755	28716.15
726.097	28566.33
726.439	28493.33
726.782	28397.97
727.124	28645.42
727.465	28419.89
727.807	28292.43
728.149	28252.44
728.491	28281.36
728.833	28296.05
729.175	28233.9
729.516	28148.03
729.858	28153
730.199	28193.91
730.541	28017.41
730.882	27942.61
731.224	28110.07
731.565	27906
731.906	27849.06
732.248	27909.85
732.589	27772.9
732.93	27641.38
733.271	27795.5
733.612	27600.7
733.953	27782.39
734.294	27619.68
734.635	27550.98
734.976	27506.01
735.317	27351.89
735.658	27360.03
735.999	27377.66
736.339	27295.62
736.68	27456.07
737.021	27331.33
737.361	27192.35
737.702	27328.39
738.042	27198
738.383	27160.71
738.723	27121.84
739.063	26916.2
739.404	27095.4
739.744	27030.32
740.084	26844.79
740.424	26983.99
740.764	26862.19
741.104	26843.21
741.444	26718.46
741.784	26769.99
742.124	26800.72
742.464	26695.19
742.804	26579.94
743.143	26473.72
743.483	26574.74
743.823	26432.6
744.162	26429.43
744.502	26454.29
744.841	26355.31
745.181	26400.96
745.52	26313.95
745.86	26355.99
746.199	26329.77
746.538	26246.39
746.877	26203
747.216	26221.08
747.556	26182.88
747.895	26165.48
748.234	26013.4
748.573	25939.05
748.911	25956.68
749.25	25941.08
749.589	25865.15
749.928	25893.4
750.267	25829.67
750.605	25692.73
750.944	25677.36
751.283	25564.14
751.621	25715.55
751.96	25491.15
752.298	25462.9
752.636	25372.51
752.975	25393.98
753.313	25247.09
753.651	25303.13
753.989	25223.14
754.327	25097.04
754.666	25000.77
755.004	25102.01
755.342	25046.64
755.679	25023.82
756.017	24923.03
756.355	24908.34
756.693	24821.11
757.031	24879.19
757.368	24709.48
757.706	24613.89
758.044	24561.46
758.381	24539.99
758.719	24471.97
759.056	24464.29
759.394	24490.73
759.731	24231.3
760.068	24229.49
760.405	24099.78
760.743	24037.18
761.08	24069.72
761.417	23942.04
761.754	23965.09
762.091	23814.59
762.428	23769.39
762.765	23629.51
763.102	23729.62
763.438	23514.03
763.775	23477.42
764.112	23445.1
764.449	23423.18
764.785	23326.46
765.122	23272
765.458	23097.77
765.795	23069.75
766.131	23150.65
766.467	22936.87
766.804	22794.5
767.14	22721.96
767.476	22739.59
767.812	22498.01
768.148	22646.48
768.485	22547.5
768.821	22491.68
769.157	22408.29
769.492	22285.36
769.828	22300.95
770.164	22054.41
770.5	21955.65
770.836	21986.84
771.171	21866.39
771.507	21867.74
771.842	21772.15
772.178	21698.03
772.513	21578.26
772.849	21532.61
773.184	21378.94
773.519	21463.69
773.855	21247.42
774.19	21155.22
774.525	21277.48
774.86	21163.58
775.195	21105.5
775.53	21025.05
775.865	20852.4
776.2	20635.01
776.535	20514.79
776.87	20620.09
777.205	20531.96
777.539	20478.18
777.874	20385.75
778.209	20245.41
778.543	20301.91
778.878	20115.47
779.212	20081.8
779.547	19941.02
779.881	20010.17
780.215	19805.65
780.55	19929.94
780.884	19783.73
781.218	19741.47
781.552	19752.77
781.886	19611.31
782.22	19421.71
782.554	19452.67
782.888	19260.36
783.222	19137.87
783.556	19135.84
783.889	19148.04
784.223	18915.28
784.557	18988.95
784.89	18964.09
785.224	18830.08
785.557	18795.51
785.891	18732.23
786.224	18668.96
786.558	18588.06
786.891	18519.13
787.224	18358.46
787.557	18413.6
787.891	18279.14
788.224	18248.63
788.557	18254.96
788.89	18226.94
789.223	18190.1
789.556	17908.53
789.888	17883.89
790.221	17953.27
790.554	17857.68
790.887	17753.28
791.219	17750.34
791.552	17727.29
791.884	17526.39
792.217	17591.47
792.549	17484.58
792.882	17345.15
793.214	17261.09
793.546	17319.62
793.879	17164.37
794.211	17065.61
794.543	17160.75
794.875	17094.31
795.207	17113.74
795.539	17043.69
795.871	16972.73
796.203	16826.07
796.535	16781.32
796.867	16732.51
797.198	16682.12
797.53	16708.33
797.862	16452.29
798.193	16641.89
798.525	16491.39
798.856	16440.99
799.188	16253.2
799.519	16294.56
799.85	16089.59
800.182	16182.7
800.513	16181.34
800.844	15940.44
801.175	16047.11
801.506	16035.13
801.837	15935.24
802.168	15901.57
802.499	15843.04
802.83	15809.37
803.161	15742.48
803.491	15748.58
803.822	15766.21
804.153	15601.69
804.483	15474.24
804.814	15480.12
805.145	15425.65
805.475	15412.55
805.805	15365.54
806.136	15332.1
806.466	15281.02
806.796	15240.12
807.126	15100.92
807.457	15126
807.787	15079.67
808.117	15060.01
808.447	14962.84
808.777	15027.25
809.107	15036.29
809.436	14905.89
809.766	14864.76
810.096	14924.2
810.426	14774.37
810.755	14784.77
811.085	14718.1
811.414	14699.57
811.744	14582.74
812.073	14572.34
812.403	14584.32
812.732	14533.25
813.061	14505.68
813.39	14363.99
813.719	14323.31
814.049	14543.19
814.378	14348.85
814.707	14288.51
815.036	14246.48
815.365	14244.89
815.693	14058.91
816.022	14041.74
816.351	14091.23
816.68	13951.34
817.008	14004.9
817.337	13876.77
817.665	13883.55
817.994	14018.69
818.322	13890.33
818.651	13780.73
818.979	13736.66
819.307	13826.83
819.636	13810.78
819.964	13639.71
820.292	13762.19
820.62	13643.33
820.948	13576.89
821.276	13675.64
821.604	13663.67
821.932	13574.4
822.259	13673.61
822.587	13603.78
822.915	13519.26
823.243	13584.8
823.57	13533.27
823.898	13573.5
824.225	13623.89
824.553	13496.44
824.88	13540.05
825.207	13552.93
825.535	13535.99
825.862	13520.85
826.189	13571.24
826.516	13585.02
826.843	13590.45
827.17	13606.72
827.497	13567.17
827.824	13562.88
828.151	13580.28
828.478	13454.86
828.805	13646.72
829.131	13499.15
829.458	13594.97
829.785	13524.01
830.111	13496.21
830.438	13517.68
830.764	13486.72
831.09	13510.22
831.417	13393.39
831.743	13557.91
832.069	13456.89
832.395	13491.24
832.722	13542.09
833.048	13517.68
833.374	13321.98
833.7	13354.97
834.026	13347.97
834.351	13433.16
834.677	13399.27
835.003	13395.88
835.329	13299.83
835.654	13337.8
835.98	13237.46
836.306	13319.27
836.631	13201.08
836.956	13236.11
837.282	13219.84
837.607	13131.02
837.932	13211.25
838.258	13074.53
838.583	13167.63
838.908	13087.86
839.233	13091.25
839.558	13114.53
839.883	12947.98
840.208	12982.55
840.533	12973.06
840.858	12970.13
841.182	13013.74
841.507	12918.6
841.832	12819.17
842.156	12826.4
842.481	12895.55
842.805	12800.64
843.13	12780.98
843.454	12731.04
843.778	12741.2
844.103	12652.85
844.427	12627.08
844.751	12646.52
845.075	12638.83
845.399	12550.48
845.723	12457.6
846.047	12580.98
846.371	12364.04
846.695	12479.06
847.019	12309.13
847.343	12190.71
847.666	12133.08
847.99	12127.21
848.313	12189.13
848.637	12089.47
848.96	12027.32
849.284	12047.44
849.607	11900.32
849.931	11842.92
850.254	11908.23
850.577	11705.53
850.9	11656.49
851.223	11730.16
851.546	11568.58
851.869	11584.17
852.192	11572.2
852.515	11510.95
852.838	11436.15
853.161	11478.64
853.483	11361.81
853.806	11348.7
854.129	11368.59
854.451	11309.38
854.774	11213.56
855.096	11262.37
855.419	11185.09
855.741	11141.7
856.063	10970.63
856.385	11042.27
856.708	11002.95
857.03	10972.44
857.352	10986.9
857.674	10919.56
857.996	10890.86
858.318	10873.91
858.64	10836.4
858.961	10821.93
859.283	10780.13
859.605	10693.8
859.926	10709.62
860.248	10641.6
860.57	10673.24
860.891	10634.59
861.212	10635.5
861.534	10592.33
861.855	10477.54
862.176	10563.41
862.498	10487.93
862.819	10503.75
863.14	10497.65
863.461	10444.54
863.782	10406.12
864.103	10407.48
864.424	10453.81
864.745	10418.1
865.065	10388.72
865.386	10280.93
865.707	10289.52
866.027	10271.21
866.348	10277.99
866.668	10296.52
866.989	10216.98
867.309	10153.25
867.63	10208.39
867.95	10228.05
868.27	10081.39
868.59	10148.05
868.91	10117.54
869.23	10095.4
869.55	10058.11
869.87	10068.51
870.19	10043.87
870.51	10075.29
870.83	10040.94
871.15	10003.2
871.469	10000.03
871.789	10024.89
872.109	10019.47
872.428	9943.54
872.748	9988.28
873.067	9928.85
873.386	9914.16
873.706	9944.89
874.025	9861.96
874.344	9846.59
874.663	9907.61
874.982	9847.72
875.301	9823.99
875.62	9788.51
875.939	9734.28
876.258	9688.4
876.577	9731.79
876.896	9721.62
877.214	9703.32
877.533	9690.21
877.852	9698.35
878.17	9649.99
878.489	9650.66
878.807	9662.87
879.125	9619.7
879.444	9600.72
879.762	9575.86
880.08	9598.24
880.398	9549.65
880.716	9517.56
881.034	9556.88
881.352	9520.5
881.67	9447.28
881.988	9485.24
882.306	9439.82
882.624	9371.35
882.941	9421.74
883.259	9372.03
883.577	9340.62
883.894	9323.67
884.212	9283.89
884.529	9245.03
884.846	9244.35
885.164	9263.56
885.481	9189.21
885.798	9159.83
886.115	9179.49
886.432	9107.85
886.75	9101.53
887.067	9100.17
887.383	9038.48
887.7	9086.39
888.017	9024.69
888.334	9034.64
888.651	8981.76
888.967	8923.9
889.284	8899.5
889.6	8910.57
889.917	8807.75
890.233	8864.02
890.55	8833.28
890.866	8839.61
891.182	8817.92
891.498	8776.11
891.815	8766.62
892.131	8696.79
892.447	8699.73
892.763	8649.79
893.079	8597.81
893.395	8577.47
893.71	8589.22
894.026	8551.94
894.342	8538.83
894.657	8433.52
894.973	8477.14
895.289	8429.91
895.604	8415.89
895.92	8367.31
896.235	8363.24
896.55	8305.61
896.865	8305.84
897.181	8322.79
897.496	8342.9
897.811	8189.46
898.126	8211.83
898.441	8136.13
898.756	8202.11
899.071	8103.36
899.386	8097.03
899.7	8052.97
900.015	8014.78
900.33	7986.08
900.644	7941.56
900.959	7963.03
901.273	7889.81
901.588	7907.43
901.902	7818.85
902.216	7793.31
902.531	7820.43
902.845	7809.13
903.159	7756.02
903.473	7673.99
903.787	7615.24
904.101	7658.85
904.415	7662.47
904.729	7560.78
905.042	7582.92
905.356	7561.23
905.67	7476.03
905.984	7504.96
906.297	7485.75
906.611	7385.64
906.924	7419.54
907.237	7459.08
907.551	7370.95
907.864	7304.51
908.177	7283.04
908.491	7320.78
908.804	7245.53
909.117	7213.21
909.43	7157.62
909.743	7157.62
910.056	7132.31
910.368	7086.89
910.681	7046.66
910.994	6997.4
911.307	7022.94
911.619	6953.79
911.932	6939.1
912.244	6951.3
912.557	6906.78
912.869	6886.9
913.181	6830.63
913.494	6845.99
913.806	6817.97
914.118	6734.81
914.43	6746.33
914.742	6739.1
915.054	6698.88
915.366	6671.08
915.678	6638.31
915.99	6578.2
916.302	6527.81
916.613	6512.22
916.925	6509.73
917.236	6513.57
917.548	6472.89
917.859	6448.94
918.171	6401.94
918.482	6399.22
918.794	6361.49
919.105	6330.07
919.416	6317.19
919.727	6288.94
920.038	6217.76
920.349	6285.78
920.66	6175.05
920.971	6184.77
921.282	6175.05
921.593	6109.51
921.903	6074.71
922.214	6080.14
922.525	6047.37
922.835	5983.64
923.146	6031.55
923.456	5959.24
923.767	5980.7
924.077	5954.04
924.387	5887.37
924.697	5915.62
925.008	5838.56
925.318	5858.9
925.628	5897.99
925.938	5785.68
926.248	5735.74
926.558	5746.59
926.867	5654.84
927.177	5693.71
927.487	5674.05
927.796	5610.77
928.106	5597.66
928.416	5614.39
928.725	5568.96
929.034	5570.09
929.344	5557.21
929.653	5502.98
929.962	5508.85
930.271	5420.49
930.581	5415.3
930.89	5392.25
931.199	5349.08
931.508	5362.64
931.817	5337.11
932.125	5329.65
932.434	5304.34
932.743	5222.53
933.051	5186.6
933.36	5212.59
933.669	5200.61
933.977	5167.84
934.286	5132.37
934.594	5139.14
934.902	5093.5
935.21	5092.37
935.519	5075.42
935.827	5015.53
936.135	4988.19
936.443	5005.14
936.751	4992.26
937.059	4975.98
937.367	4920.62
937.674	4932.37
937.982	4883.56
938.29	4869.77
938.597	4909.77
938.905	4774.18
939.213	4765.6
939.52	4781.64
939.827	4784.8
940.135	4792.71
940.442	4699.83
940.749	4728.31
941.056	4725.6
941.363	4677.01
941.67	4654.19
941.977	4615.32
942.284	4606.96
942.591	4642.43
942.898	4546.62
943.205	4577.35
943.511	4505.49
943.818	4507.52
944.125	4455.55
944.431	4439.05
944.738	4455.77
945.044	4424.14
945.35	4480.86
945.657	4394.53
945.963	4366.74
946.269	4326.51
946.575	4326.96
946.881	4319.96
947.187	4284.7
947.493	4317.25
947.799	4251.03
948.105	4252.84
948.41	4205.16
948.716	4207.42
949.022	4247.19
949.327	4203.35
949.633	4142.79
949.938	4121.77
950.244	4122.9
950.549	4113.18
950.854	4100.98
951.16	4094.88
951.465	4032.73
951.77	4023.24
952.075	3999.74
952.38	4006.97
952.685	3989.57
952.99	3986.18
953.294	3929.23
953.599	3911.15
953.904	3902.57
954.209	3889.01
954.513	3866.86
954.818	3869.12
955.122	3880.65
955.426	3807.2
955.731	3799.97
956.035	3762.68
956.339	3783.47
956.643	3797.26
956.948	3697.15
957.252	3737.15
957.556	3731.95
957.86	3739.63
958.163	3715.68
958.467	3698.96
958.771	3669.35
959.075	3720.2
959.378	3601.11
959.682	3580.54
959.985	3590.94
960.289	3575.8
960.592	3572.41
960.896	3517.27
961.199	3509.58
961.502	3517.27
961.805	3497.61
962.108	3477.95
962.411	3455.8
962.714	3459.41
963.017	3455.12
963.32	3409.25
963.623	3414.22
963.926	3397.72
964.228	3402.24
964.531	3360.43
964.833	3364.28
965.136	3365.86
965.438	3316.37
965.741	3303.49
966.043	3300.1
966.345	3334.45
966.648	3289.02
966.95	3287.22
967.252	3228.91
967.554	3254.22
967.856	3210.61
968.158	3160.67
968.46	3177.61
968.761	3165.64
969.063	3144.85
969.365	3122.93
969.666	3102.14
969.968	3078.86
970.269	3079.76
970.571	3106.43
970.872	3076.83
971.174	3038.63
971.475	3074.34
971.776	3019.43
972.077	3015.36
972.378	3017.62
972.679	2995.92
972.98	2985.75
973.281	2959.99
973.582	2951.63
973.883	2972.87
974.183	2942.37
974.484	2898.75
974.785	2905.76
975.085	2898.3
975.386	2892.88
975.686	2874.57
975.986	2813.56
976.287	2849.49
976.587	2804.06
976.887	2809.26
977.187	2789.83
977.487	2823.27
977.787	2788.25
978.087	2770.17
978.387	2753.44
978.687	2764.07
978.987	2739.21
979.286	2712.32
979.586	2684.07
979.885	2729.26
980.185	2658.53
980.484	2654.69
980.784	2700.11
981.083	2615.14
981.382	2643.84
981.682	2661.47
981.981	2611.08
982.28	2613.34
982.579	2597.74
982.878	2596.61
983.177	2603.84
983.475	2601.81
983.774	2532.89
984.073	2531.76
984.372	2509.16
984.67	2512.77
984.969	2487.91
985.267	2482.04
985.566	2512.77
985.864	2482.72
986.162	2465.54
986.461	2453.79
986.759	2451.53
987.057	2469.16
987.355	2405.21
987.653	2420.35
987.951	2386
988.249	2414.24
988.547	2402.27
988.844	2359.1
989.142	2402.72
989.44	2344.42
989.737	2343.06
990.035	2337.18
990.332	2301.48
990.63	2305.32
990.927	2328.14
991.224	2282.72
991.521	2296.96
991.819	2251.76
992.116	2263.06
992.413	2214.48
992.71	2270.07
993.006	2226.23
993.303	2246.34
993.6	2180.8
993.897	2180.58
994.193	2192.56
994.49	2197.98
994.787	2169.51
995.083	2168.15
995.379	2184.19
995.676	2147.13
995.972	2097.19
996.268	2104.65
996.565	2088.15
996.861	2085.89
997.157	2081.6
997.453	2064.65
997.749	2073.46
998.044	2071.2
998.34	2018.55
998.636	2040.02
998.932	2023.29
999.227	2011.09
999.523	1990.75
999.818	1986.23
1000.114	1970.87
1000.409	1988.27
1000.704	1951.21
1001	1957.53
1001.295	1922.51
1001.59	1911.43
1001.885	1927.48
1002.18	1899.91
1002.475	1900.13
1002.77	1894.71
1003.065	1869.63
1003.359	1864.43
1003.654	1845.45
1003.949	1855.39
1004.243	1840.7
1004.538	1800.7
1004.832	1823.75
1005.127	1832.34
1005.421	1805.67
1005.715	1799.12
1006.009	1782.17
1006.304	1769.52
1006.598	1736.07
1006.892	1745.34
1007.186	1759.8
1007.48	1740.36
1007.773	1713.7
1008.067	1723.42
1008.361	1674.83
1008.655	1693.13
1008.948	1665.11
1009.242	1670.31
1009.535	1669.18
1009.829	1657.43
1010.122	1640.71
1010.415	1651.78
1010.708	1637.32
1011.001	1616.3
1011.295	1609.97
1011.588	1612.01
1011.881	1588.73
1012.173	1564.55
1012.466	1555.74
1012.759	1566.13
1013.052	1532.46
1013.344	1544.66
1013.637	1536.53
1013.93	1537.88
1014.222	1542.18
1014.514	1535.62
1014.807	1530.88
1015.099	1490.88
1015.391	1531.78
1015.683	1468.05
1015.976	1454.5
1016.268	1459.92
1016.56	1460.6
1016.851	1457.43
1017.143	1419.92
1017.435	1413.82
1017.727	1398.23
1018.018	1416.53
1018.31	1419.24
1018.602	1376.53
1018.893	1397.77
1019.185	1374.95
1019.476	1360.94
1019.767	1335.4
1020.058	1353.48
1020.35	1355.52
1020.641	1325.91
1020.932	1312.13
1021.223	1327.27
1021.514	1292.47
1021.804	1268.96
1022.095	1270.55
1022.386	1299.7
1022.677	1267.38
1022.967	1278
1023.258	1276.65
1023.548	1251.34
1023.839	1230.55
1024.129	1270.09
1024.419	1254.95
1024.709	1233.48
1025	1212.24
1025.29	1215.63
1025.58	1197.33
1025.87	1179.93
1026.16	1172.02
1026.449	1177.67
1026.739	1200.94
1027.029	1176.99
1027.319	1172.7
1027.608	1144.22
1027.898	1139.93
1028.187	1146.03
1028.477	1123.43
1028.766	1116.88
1029.055	1117.1
1029.344	1129.31
1029.634	1090.66
1029.923	1073.26
1030.212	1101.06
1030.501	1076.88
1030.79	1047.27
1031.078	1038.91
1031.367	1078.01
1031.656	1056.77
1031.945	1050.44
1032.233	1033.04
1032.522	1036.2
1032.81	1010.44
1033.099	1028.52
1033.387	1014.73
1033.675	998.01
1033.963	995.07
1034.251	1010.21
1034.54	983.1
1034.828	1007.5
1035.116	971.34
1035.403	966.82
1035.691	988.52
1035.979	943.32
1036.267	947.39
1036.554	934.06
1036.842	940.84
1037.129	933.61
1037.417	917.33
1037.704	922.31
1037.992	903.1
1038.279	920.5
1038.566	903.78
1038.853	903.78
1039.14	903.78
