Data from hue_270_FLMS001491_00081.txt Node
Date: Tue Feb 07 15:57:48 GMT 2017
User: dcchb
Spectrometer: FLMS00149
Trigger mode: 0
Integration Time (sec): 2.000000E-2
Scans to average: 10
Electric dark correction enabled: true
Nonlinearity correction enabled: false
Boxcar width: 0
XAxis mode: Wavelengths
Number of Pixels in Spectrum: 2048
>>>>>Begin Spectral Data<<<<<
341.393	-23.12
341.776	-23.12
342.16	-23.12
342.543	-49.79
342.927	-76.68
343.31	-52.05
343.693	-76.68
344.077	-54.31
344.46	-52.27
344.843	-46.62
345.226	-46.4
345.61	-43.46
345.993	-15.66
346.376	-10.24
346.759	16.65
347.142	24.34
347.525	29.76
347.908	55.52
348.291	89.19
348.674	87.38
349.057	94.84
349.44	121.06
349.823	134.84
350.206	163.31
350.588	196.31
350.971	208.29
351.354	220.94
351.737	224.1
352.119	273.59
352.502	260.49
352.884	274.5
353.267	260.49
353.65	292.13
354.032	301.62
354.414	301.62
354.797	297.77
355.179	338
355.562	323.31
355.944	310.2
356.326	314.95
356.709	320.15
357.091	329.64
357.473	349.75
357.855	344.55
358.238	315.85
358.62	330.54
359.002	351.33
359.384	337.32
359.766	332.8
360.148	344.1
360.53	310.2
360.912	323.76
361.294	330.99
361.676	345.23
362.057	319.02
362.439	341.16
362.821	314.95
363.203	319.69
363.584	342.75
363.966	320.37
364.348	314.72
364.729	319.92
365.111	313.14
365.493	334.38
365.874	327.15
366.256	308.62
366.637	312.01
367.019	302.97
367.4	312.24
367.781	318.34
368.163	326.25
368.544	309.98
368.925	334.38
369.306	307.72
369.688	304.55
370.069	313.37
370.45	307.94
370.831	326.02
371.212	328.51
371.593	324.21
371.974	301.62
372.355	298.23
372.736	303.2
373.117	313.37
373.498	333.48
373.879	328.73
374.26	312.24
374.641	320.82
375.021	295.29
375.402	317.44
375.783	320.82
376.163	329.41
376.544	317.44
376.925	310.43
377.305	334.61
377.686	312.24
378.066	339.36
378.447	324.67
378.827	322.41
379.208	321.5
379.588	341.39
379.968	338
380.349	344.33
380.729	335.74
381.109	338.68
381.489	342.07
381.87	341.62
382.25	360.82
382.63	349.98
383.01	330.77
383.39	357.43
383.77	365.34
384.15	333.03
384.53	357.66
384.91	355.63
385.29	341.62
385.67	344.1
386.049	356.3
386.429	340.71
386.809	357.43
387.189	348.62
387.568	359.02
387.948	359.24
388.328	358.11
388.707	349.52
389.087	358.11
389.466	360.82
389.846	354.72
390.225	370.99
390.605	367.38
390.984	381.61
391.363	366.02
391.743	368.06
392.122	389.07
392.501	386.36
392.881	395.63
393.26	380.71
393.639	380.48
394.018	382.74
394.397	382.07
394.776	413.03
395.155	393.82
395.534	390.88
395.913	387.49
396.292	422.97
396.671	416.19
397.05	405.34
397.429	406.02
397.808	394.5
398.186	384.78
398.565	396.53
398.944	437.21
399.323	401.05
399.701	416.19
400.08	432.69
400.458	398.34
400.837	408.51
401.215	411.67
401.594	423.65
401.972	434.27
402.351	440.82
402.729	428.39
403.107	431.56
403.486	429.52
403.864	438.56
404.242	423.2
404.62	434.95
404.999	447.83
405.377	458.45
405.755	463.42
406.133	471.78
406.511	447.15
406.889	476.75
407.267	478.33
407.645	458.67
408.023	492.35
408.401	509.75
408.779	488.05
409.156	487.15
409.534	531.21
409.912	499.8
410.29	513.36
410.667	533.47
411.045	535.28
411.422	523.31
411.8	529.18
412.178	535.73
412.555	536.64
412.933	562.63
413.31	534.83
413.687	572.12
414.065	582.51
414.442	582.06
414.819	585.68
415.197	622.06
415.574	612.57
415.951	608.95
416.328	603.08
416.705	613.92
417.082	625.9
417.46	622.51
417.837	649.63
418.214	634.49
418.591	668.84
418.967	677.88
419.344	662.74
419.721	674.71
420.098	676.3
420.475	694.6
420.852	659.12
421.228	714.03
421.605	709.06
421.982	737.31
422.358	741.6
422.735	724.66
423.111	742.96
423.488	765.33
423.864	783.86
424.241	808.27
424.617	789.51
424.994	805.33
425.37	804.65
425.746	824.77
426.123	837.87
426.499	837.42
426.875	878.78
427.251	868.83
427.627	894.6
428.003	903.86
428.379	914.93
428.756	909.06
429.132	918.55
429.507	915.84
429.883	934.14
430.259	943.63
430.635	959
431.011	959.68
431.387	1010.75
431.763	1001.26
432.138	1021.37
432.514	1060.92
432.89	1033.8
433.265	1066.34
433.641	1043.52
434.016	1073.8
434.392	1097.3
434.767	1121.03
435.143	1141.37
435.518	1161.25
435.894	1168.49
436.269	1188.82
436.644	1192.21
437.02	1205.77
437.395	1226.34
437.77	1246
438.145	1248.03
438.52	1269.73
438.895	1330.74
439.271	1306.34
439.646	1317.18
440.021	1323.06
440.395	1323.96
440.77	1349.5
441.145	1386.56
441.52	1422.49
441.895	1402.15
442.27	1391.31
442.645	1403.51
443.019	1454.13
443.394	1425.2
443.769	1454.58
444.143	1462.49
444.518	1497.74
444.892	1455.48
445.267	1479.44
445.641	1509.04
446.016	1523.05
446.39	1554.46
446.764	1542.94
447.139	1533.67
447.513	1548.36
447.887	1562.83
448.262	1568.7
448.636	1570.06
449.01	1559.89
449.384	1596.05
449.758	1616.16
450.132	1637.63
450.506	1614.12
450.88	1668.59
451.254	1636.95
451.628	1656.83
452.002	1694.8
452.376	1703.16
452.75	1709.49
453.123	1697.96
453.497	1747.91
453.871	1753.56
454.244	1761.92
454.618	1805.08
454.992	1820.45
455.365	1791.29
455.739	1836.04
456.112	1874.23
456.486	1877.17
456.859	1870.61
457.232	1927.34
457.606	1888.02
457.979	1988.58
458.352	1969.14
458.725	2003.04
459.099	1995.81
459.472	2048.46
459.845	2063.83
460.218	2055.92
460.591	2080.1
460.964	2096.37
461.337	2111.96
461.71	2146.31
462.083	2175.01
462.456	2173.66
462.829	2170.04
463.201	2227.22
463.574	2224.5
463.947	2248.23
464.32	2332.52
464.692	2289.13
465.065	2334.11
465.438	2339.53
465.81	2384.5
466.183	2381.34
466.555	2423.14
466.928	2441.67
467.3	2436.48
467.672	2463.37
468.045	2541.11
468.417	2559.41
468.789	2573.87
469.161	2592.4
469.534	2599.64
469.906	2629.69
470.278	2650.71
470.65	2675.34
471.022	2751.72
471.394	2739.07
471.766	2783.36
472.138	2802.12
472.51	2849.12
472.882	2918.27
473.253	2915.11
473.625	2926.63
473.997	3018.16
474.369	2999.4
474.74	3014.54
475.112	3077.14
475.484	3143.8
475.855	3177.7
476.227	3179.51
476.598	3259.05
476.97	3252.95
477.341	3346.51
477.713	3362.55
478.084	3397.13
478.455	3468.76
478.827	3459.5
479.198	3564.13
479.569	3522.77
479.94	3652.71
480.311	3628.08
480.682	3702.66
481.053	3763.22
481.424	3863.78
481.795	3857.23
482.166	3905.36
482.537	3915.98
482.908	4006.83
483.279	4055.64
483.65	4124.34
484.021	4181.06
484.391	4162.31
484.762	4205.47
485.133	4242.76
485.503	4309.65
485.874	4345.13
486.244	4374.05
486.615	4488.17
486.985	4527.04
487.356	4570.88
487.726	4584.89
488.097	4672.12
488.467	4689.75
488.837	4770.43
489.207	4806.81
489.578	4857.88
489.948	4864.89
490.318	4941.04
490.688	4958.67
491.058	5023.53
491.428	5058.55
491.798	5069.63
492.168	5183.75
492.538	5183.07
492.908	5209.06
493.278	5273.69
493.648	5278.89
494.017	5302.84
494.387	5359.56
494.757	5403.63
495.126	5432.33
495.496	5438.2
495.866	5475.04
496.235	5478.66
496.605	5571.31
496.974	5582.38
497.344	5608.82
497.713	5593
498.082	5680.23
498.452	5734.47
498.821	5757.52
499.19	5742.15
499.559	5773.79
499.928	5797.97
500.298	5860.34
500.667	5864.41
501.036	5935.37
501.405	5936.95
501.774	5920.68
502.143	5985.08
502.512	5977.17
502.88	6010.17
503.249	5991.86
503.618	6012.88
503.987	6020.56
504.356	6121.12
504.724	6051.97
505.093	6096.27
505.462	6106.44
505.83	6183.27
506.199	6239.09
506.567	6261.46
506.936	6210.84
507.304	6296.26
507.672	6297.16
508.041	6317.73
508.409	6306.88
508.777	6389.14
509.145	6392.53
509.514	6347.56
509.882	6389.59
510.25	6384.85
510.618	6378.52
510.986	6384.39
511.354	6392.08
511.722	6506.88
512.09	6599.08
512.458	6473.43
512.826	6567.67
513.193	6600.21
513.561	6590.26
513.929	6591.17
514.297	6665.97
514.664	6654.22
515.032	6682.69
515.4	6733.54
515.767	6646.53
516.135	6763.82
516.502	6680.66
516.869	6743.93
517.237	6755.68
517.604	6717.94
517.972	6790.71
518.339	6794.33
518.706	6806.76
519.073	6756.14
519.44	6798.85
519.808	6872.52
520.175	6864.38
520.542	6924.49
520.909	6875.45
521.276	6890.37
521.643	6972.63
522.009	6913.19
522.376	6914.78
522.743	6978.95
523.11	6965.85
523.477	7042.68
523.843	7099.4
524.21	7157.48
524.577	7180.76
524.943	7152.06
525.31	7127.43
525.676	7186.86
526.043	7225.28
526.409	7227.54
526.776	7331.49
527.142	7250.59
527.508	7312.28
527.874	7302.11
528.241	7401.99
528.607	7362.45
528.973	7442.67
529.339	7423.24
529.705	7466.63
530.071	7489.68
530.437	7500.75
530.803	7502.56
531.169	7582.78
531.535	7536.45
531.901	7521.77
532.267	7601.54
532.632	7593.63
532.998	7594.08
533.364	7585.49
533.73	7585.94
534.095	7645.83
534.461	7693.51
534.826	7663.46
535.192	7691.48
535.557	7686.73
535.923	7659.84
536.288	7710.01
536.653	7693.74
537.019	7692.38
537.384	7721.31
537.749	7763.57
538.114	7779.16
538.479	7703.46
538.845	7784.81
539.21	7797.24
539.575	7822.55
539.94	7820.06
540.305	7761.76
540.67	7779.84
541.034	7792.72
541.399	7853.51
541.764	7869.1
542.129	7830.91
542.494	7810.35
542.858	7924.47
543.223	7874.52
543.587	7930.57
543.952	7921.98
544.316	7895.77
544.681	7838.59
545.045	7954.52
545.41	7901.19
545.774	7966.5
546.138	7928.31
546.503	7967.86
546.867	7939.61
547.231	7957.69
547.595	8000.4
547.959	7970.34
548.324	7961.53
548.688	7988.19
549.052	8041.53
549.416	8016.44
549.779	8058.7
550.143	8037.46
550.507	8079.94
550.871	8078.14
551.235	8034.29
551.599	8054.86
551.962	8102.09
552.326	8135.31
552.689	8107.51
553.053	8110.45
553.417	8100.06
553.78	8174.18
554.143	8140.28
554.507	8186.15
554.87	8185.7
555.234	8255.53
555.597	8186.83
555.96	8202.65
556.323	8197.45
556.686	8268.64
557.05	8242.65
557.413	8321.74
557.776	8240.62
558.139	8325.13
558.502	8335.76
558.865	8303.89
559.228	8424.11
559.59	8396.77
559.953	8439.03
560.316	8498.91
560.679	8408.52
561.041	8512.47
561.404	8536.65
561.767	8569.87
562.129	8597.22
562.492	8653.04
562.854	8649.87
563.217	8617.56
563.579	8691.9
563.941	8693.26
564.304	8709.53
564.666	8768.06
565.028	8804.44
565.39	8831.79
565.753	8830.43
566.115	8907.04
566.477	8911.79
566.839	9023.87
567.201	8954.72
567.563	8937.55
567.925	9005.34
568.287	9023.65
568.648	9066.81
569.01	9071.56
569.372	9125.79
569.734	9130.54
570.095	9109.07
570.457	9231.55
570.819	9178.9
571.18	9236.75
571.542	9247.6
571.903	9226.35
572.265	9320.59
572.626	9303.41
572.987	9382.73
573.349	9399.68
573.71	9469.51
574.071	9488.95
574.432	9519.23
574.794	9579.34
575.155	9539.79
575.516	9567.14
575.877	9604.2
576.238	9719.67
576.599	9709.05
576.96	9717.87
577.32	9765.1
577.681	9827.02
578.042	9760.58
578.403	9851.87
578.763	9874.92
579.124	9882.83
579.485	9903.62
579.845	9962.15
580.206	9923.51
580.566	9936.17
580.927	10048.03
581.287	10086.9
581.648	10019.33
582.008	10154.69
582.368	10087.57
582.728	10220.23
583.089	10213.22
583.449	10236.5
583.809	10270.39
584.169	10242.82
584.529	10360.79
584.889	10408.02
585.249	10300.9
585.609	10300.22
585.969	10346.1
586.329	10330.96
586.688	10452.08
587.048	10518.75
587.408	10453.67
587.768	10573.66
588.127	10510.39
588.487	10483.72
588.846	10580.89
589.206	10592.42
589.565	10595.36
589.925	10665.41
590.284	10677.84
590.643	10713.55
591.003	10743.83
591.362	10745.18
591.721	10839.87
592.08	10817.95
592.44	10798.74
592.799	10814.79
593.158	10829.7
593.517	10852.53
593.876	10911.28
594.235	10875.8
594.593	10873.32
594.952	10892.75
595.311	10883.03
595.67	10942.92
596.029	11018.17
596.387	11027.66
596.746	11068.56
597.104	11097.26
597.463	11045.51
597.822	11092.07
598.18	11038.28
598.538	11126.64
598.897	11038.96
599.255	11111.95
599.613	11169.58
599.972	11122.35
600.33	11148.79
600.688	11183.14
601.046	11237.15
601.404	11242.57
601.762	11315.11
602.12	11277.37
602.478	11315.34
602.836	11347.88
603.194	11260.65
603.552	11305.85
603.91	11342.68
604.268	11312.63
604.625	11284.15
604.983	11364.15
605.341	11318.28
605.698	11420.19
606.056	11434.88
606.413	11373.42
606.771	11468.33
607.128	11449.57
607.485	11447.31
607.843	11422.68
608.2	11441.21
608.557	11497.48
608.914	11469.46
609.272	11559.17
609.629	11555.78
609.986	11634.43
610.343	11510.14
610.7	11635.56
611.057	11577.03
611.414	11550.36
611.771	11555.56
612.127	11629
612.484	11629
612.841	11606.18
613.198	11605.73
613.554	11683.69
613.911	11717.81
614.267	11750.13
614.624	11802.33
614.98	11709.23
615.337	11686.63
615.693	11746.97
616.05	11720.07
616.406	11874.42
616.762	11792.84
617.118	11828.77
617.475	11821.54
617.831	11822.9
618.187	11810.47
618.543	11867.87
618.899	11918.71
619.255	11858.6
619.611	11816.12
619.967	11846.4
620.323	11904.7
620.678	11914.64
621.034	11863.8
621.39	11890.69
621.746	11831.03
622.101	12000.29
622.457	11854.31
622.812	11864.93
623.168	11974.08
623.523	11900.86
623.879	11930.46
624.234	11885.94
624.589	11956
624.945	11873.29
625.3	11979.28
625.655	11938.37
626.01	11900.41
626.365	11909.9
626.72	11863.57
627.075	11852.05
627.43	11872.39
627.785	11922.33
628.14	11937.69
628.495	11904.25
628.85	11890.46
629.205	11843.69
629.559	11892.05
629.914	11864.02
630.269	11882.78
630.623	11881.2
630.978	11743.35
631.332	11842.33
631.687	11854.08
632.041	11724.37
632.396	11828.32
632.75	11753.52
633.104	11792.84
633.459	11709.45
633.813	11704.48
634.167	11712.39
634.521	11747.19
634.875	11777.7
635.229	11666.97
635.583	11659.74
635.937	11678.04
636.291	11678.94
636.645	11657.7
636.999	11595.56
637.352	11614.09
637.706	11480.53
638.06	11649.57
638.413	11570.25
638.767	11518.27
639.121	11612.96
639.474	11479.85
639.828	11530.93
640.181	11455.9
640.534	11595.33
640.888	11465.16
641.241	11456.35
641.594	11432.17
641.947	11493.41
642.301	11465.16
642.654	11431.49
643.007	11407.77
643.36	11442.57
643.713	11374.32
644.066	11497.71
644.419	11375.68
644.771	11300.2
645.124	11206.64
645.477	11166.19
645.83	11107.21
646.182	11019.3
646.535	10996.48
646.888	10977.27
647.24	10999.41
647.593	11085.29
647.945	11062.46
648.298	10931.39
648.65	10981.56
649.002	10923.94
649.355	10999.41
649.707	10972.07
650.059	11019.98
650.411	11220.65
650.763	11147.88
651.115	11269.69
651.467	11280.76
651.819	11262.01
652.171	11202.35
652.523	11235.79
652.875	11237.15
653.227	11176.81
653.578	11293.19
653.93	11239.18
654.282	11217.49
654.633	11136.13
654.985	11135.46
655.337	11212.06
655.688	11266.3
656.039	11304.26
656.391	11135.23
656.742	11178.17
657.094	11212.97
657.445	11203.25
657.796	11193.53
658.147	11188.11
658.498	11230.37
658.849	11281.21
659.2	11268.79
659.551	11231.5
659.902	11220.43
660.253	11230.59
660.604	11261.1
660.955	11174.1
661.306	11196.02
661.656	11193.99
662.007	11196.92
662.358	11211.16
662.708	11220.65
663.059	11229.46
663.409	11204.61
663.76	11249.58
664.11	11216.81
664.461	11299.07
664.811	11272.85
665.161	11222.01
665.511	11182.91
665.862	11215.45
666.212	11279.18
666.562	11240.31
666.912	11179.97
667.262	11225.17
667.612	11233.76
667.962	11287.09
668.312	11267.66
668.662	11223.36
669.011	11244.15
669.361	11216.13
669.711	11204.83
670.06	11198.5
670.41	11182.01
670.76	11109.69
671.109	11151.95
671.459	11210.48
671.808	11106.08
672.157	11092.52
672.507	11087.32
672.856	11074.21
673.205	11133.65
673.554	11142.24
673.904	11146.98
674.253	11155.79
674.602	11098.17
674.951	10929.13
675.3	10875.8
675.649	11068.11
675.998	11008.91
676.346	11116.02
676.695	11087.1
677.044	11030.6
677.393	11054.1
677.741	11101.11
678.09	10969.81
678.438	10992.86
678.787	10986.31
679.135	10999.87
679.484	10849.36
679.832	10917.38
680.181	10902.47
680.529	10930.94
680.877	10931.62
681.225	10892.52
681.573	10868.34
681.922	10823.6
682.27	10770.04
682.618	10799.19
682.966	10742.47
683.314	10785.86
683.661	10794.9
684.009	10737.95
684.357	10692.08
684.705	10628.8
685.053	10723.72
685.4	10684.85
685.748	10530.05
686.095	10581.57
686.443	10520.33
686.79	10497.05
687.138	10463.16
687.485	10493.44
687.832	10477.17
688.18	10506.09
688.527	10395.81
688.874	10424.97
689.221	10355.59
689.568	10332.77
689.915	10324.63
690.262	10275.82
690.609	10233.11
690.956	10285.31
691.303	10182.94
691.65	10170.96
691.997	10165.31
692.344	10108.36
692.69	10074.47
693.037	10051.64
693.383	9928.03
693.73	10060.46
694.077	9943.17
694.423	9931.87
694.769	9892.55
695.116	9855.26
695.462	9890.74
695.808	9828.37
696.155	9868.6
696.501	9780.69
696.847	9691.88
697.193	9627.92
697.539	9675.16
697.885	9533.92
698.231	9564.2
698.577	9653.91
698.923	9525.78
699.269	9428.61
699.614	9441.26
699.96	9455.5
700.306	9411.43
700.651	9431.77
700.997	9356.07
701.342	9291.44
701.688	9264.77
702.033	9227.94
702.379	9262.74
702.724	9144.32
703.069	9204.21
703.415	9120.59
703.76	9100.03
704.105	9088.73
704.45	9046.02
704.795	8989.75
705.14	8966.25
705.485	8916.98
705.83	8911.33
706.175	8954.72
706.52	8865.68
706.865	8830.88
707.209	8860.49
707.554	8761.96
707.899	8745.01
708.243	8813.26
708.588	8761.73
708.932	8676.09
709.277	8698.68
709.621	8682.41
709.966	8608.74
710.31	8622.3
710.654	8579.36
710.998	8517.9
711.342	8514.51
711.687	8513.38
712.031	8534.85
712.375	8434.96
712.719	8460.27
713.063	8455.07
713.407	8439.71
713.75	8406.71
714.094	8449.2
714.438	8387.96
714.782	8402.19
715.125	8369.2
715.469	8379.82
715.812	8321.29
716.156	8239.94
716.499	8294.17
716.843	8349.77
717.186	8225.02
717.53	8272.25
717.873	8308.41
718.216	8294.4
718.559	8186.83
718.902	8199.26
719.246	8253.27
719.589	8129.21
719.932	8168.3
720.275	8097.57
720.617	8182.99
720.96	8164.01
721.303	8111.58
721.646	8188.64
721.989	8082.65
722.331	8106.38
722.674	8111.81
723.016	8149.77
723.359	8036.78
723.701	8063.9
724.044	8030.23
724.386	8001.53
724.729	8026.39
725.071	7980.51
725.413	8033.39
725.755	8016.67
726.097	7982.09
726.439	7903.68
726.782	7955.88
727.124	7962.43
727.465	7972.83
727.807	7940.74
728.149	7884.92
728.491	7943
728.833	7936.44
729.175	7929.89
729.516	7926.5
729.858	7911.36
730.199	7869.55
730.541	7909.1
730.882	7886.28
731.224	7902.09
731.565	7852.15
731.906	7888.08
732.248	7853.28
732.589	7830.23
732.93	7818.25
733.271	7858.93
733.612	7874.75
733.953	7873.62
734.294	7862.55
734.635	7890.57
734.976	7878.14
735.317	7836.79
735.658	7802.44
735.999	7876.33
736.339	7837.69
736.68	7837.24
737.021	7863.45
737.361	7817.8
737.702	7871.13
738.042	7856.67
738.383	7860.74
738.723	7895.77
739.063	7866.84
739.404	7923.79
739.744	7849.67
740.084	7890.12
740.424	7905.03
740.764	7924.01
741.104	7925.82
741.444	7894.19
741.784	7961.3
742.124	7918.82
742.464	7892.6
742.804	7935.09
743.143	7980.28
743.483	7983.9
743.823	7954.07
744.162	8029.55
744.502	8015.31
744.841	7992.94
745.181	8105.93
745.52	8100.51
745.86	8152.03
746.199	8185.7
746.538	8239.49
746.877	8303.21
747.216	8224.8
747.556	8310.9
747.895	8286.04
748.234	8363.78
748.573	8397.45
748.911	8421.85
749.25	8522.87
749.589	8583.88
749.928	8588.86
750.267	8635.63
750.605	8712.02
750.944	8809.19
751.283	8771.68
751.621	8935.74
751.96	8937.77
752.298	9092.12
752.636	9150.88
752.975	9189.52
753.313	9226.35
753.651	9419.57
753.989	9463.41
754.327	9589.06
754.666	9601.71
755.004	9742.95
755.342	9881.25
755.679	10026.11
756.017	10091.64
756.355	10266.55
756.693	10334.57
757.031	10541.8
757.368	10661.12
757.706	10752.87
758.044	10969.36
758.381	11088.23
758.719	11132.74
759.056	11316.24
759.394	11412.74
759.731	11540.42
760.068	11713.07
760.405	11832.84
760.743	12039.84
761.08	12239.83
761.417	12332.71
761.754	12525.02
762.091	12627.39
762.428	12788.07
762.765	12859.93
763.102	13048.17
763.438	13222.41
763.775	13347.15
764.112	13499.91
764.449	13743.3
764.785	13788.49
765.122	13938.32
765.458	14111.65
765.795	14245.88
766.131	14420.12
766.467	14449.04
766.804	14595.7
767.14	14783.27
767.476	14903.04
767.812	14907.33
768.148	15180.1
768.485	15337.61
768.821	15380.32
769.157	15504.83
769.492	15539.63
769.828	15704.15
770.164	15849.46
770.5	15841.32
770.836	16062.78
771.171	16147.3
771.507	16260.97
771.842	16246.51
772.178	16381.65
772.513	16539.61
772.849	16589.32
773.184	16645.82
773.519	16730.34
773.855	16689.43
774.19	16841.52
774.525	17028.41
774.86	17006.71
775.195	17112.47
775.53	17215.3
775.865	17131.91
776.2	17141.85
776.535	17126.03
776.87	17281.73
777.205	17307.27
777.539	17315.41
777.874	17553.14
778.209	17414.84
778.543	17410.55
778.878	17466.81
779.212	17513.82
779.547	17463.2
779.881	17620.93
780.215	17554.5
780.55	17709.07
780.884	17606.25
781.218	17626.36
781.552	17586.36
781.886	17695.06
782.22	17650.99
782.554	17628.17
782.888	17458.68
783.222	17540.71
783.556	17554.72
783.889	17463.2
784.223	17422.52
784.557	17425.91
784.89	17575.06
785.224	17556.76
785.557	17466.14
785.891	17491.22
786.224	17456.65
786.558	17494.61
786.891	17352.47
787.224	17382.52
787.557	17363.54
787.891	17402.86
788.224	17368.29
788.557	17434.95
788.89	17433.82
789.223	17427.04
789.556	17305.92
789.888	17314.05
790.221	17353.15
790.554	17110.89
790.887	17235.41
791.219	17154.73
791.552	17246.26
791.884	17146.6
792.217	17100.27
792.549	17105.02
792.882	16954.06
793.214	17002.65
793.546	17009.88
793.879	16903.44
794.211	16855.53
794.543	16923.33
794.875	16860.95
795.207	16863.89
795.539	16924.46
795.871	16921.07
796.203	16696.67
796.535	16624.13
796.867	16672.71
797.198	16608.31
797.53	16558.36
797.862	16537.57
798.193	16532.38
798.525	16441.08
798.856	16414.19
799.188	16239.73
799.519	16267.75
799.85	16193.63
800.182	16279.28
800.513	16216.45
800.844	16143.46
801.175	16299.61
801.506	16196.79
801.837	16056.23
802.168	16107.98
802.499	15918.38
802.83	15991.15
803.161	15984.14
803.491	16027.98
803.822	15926.97
804.153	15912.96
804.483	15756.58
804.814	15722.23
805.145	15666.41
805.475	15681.32
805.805	15662.57
806.136	15678.61
806.466	15722.68
806.796	15613.3
807.126	15469.35
807.457	15519.75
807.787	15510.26
808.117	15451.73
808.447	15326.53
808.777	15432.52
809.107	15388.45
809.436	15260.55
809.766	15287.66
810.096	15311.62
810.426	15164.28
810.755	15163.15
811.085	15173.32
811.414	15180.32
811.744	15014.45
812.073	15129.93
812.403	15076.37
812.732	14988.24
813.061	15007.44
813.39	14853.78
813.719	14875.24
814.049	14961.34
814.378	14912.08
814.707	14830.73
815.036	14905.75
815.365	14796.38
815.693	14694.01
816.022	14669.37
816.351	14599.32
816.68	14541.47
817.008	14609.04
817.337	14530.17
817.665	14527.46
817.994	14425.54
818.322	14538.3
818.651	14414.69
818.979	14369.27
819.307	14437.52
819.636	14381.92
819.964	14342.6
820.292	14379.66
820.62	14407.01
820.948	14276.16
821.276	14390.51
821.604	14331.3
821.932	14250.63
822.259	14322.72
822.587	14371.08
822.915	14276.39
823.243	14412.66
823.57	14354.81
823.898	14368.14
824.225	14331.98
824.553	14261.25
824.88	14343.96
825.207	14408.59
825.535	14358.42
825.862	14328.37
826.189	14345.09
826.516	14428.02
826.843	14416.95
827.17	14378.31
827.497	14429.38
827.824	14425.09
828.151	14474.58
828.478	14382.38
828.805	14457.63
829.131	14399.78
829.458	14389.16
829.785	14316.84
830.111	14331.3
830.438	14506.21
830.764	14314.13
831.09	14369.27
831.417	14303.51
831.743	14329.04
832.069	14292.21
832.395	14234.81
832.722	14304.19
833.048	14286.33
833.374	14190.52
833.7	14245.88
834.026	14250.4
834.351	14303.96
834.677	14235.94
835.003	14226.45
835.329	14259.89
835.654	14155.94
835.98	14117.52
836.306	14106.9
836.631	14068.26
836.956	14150.29
837.282	14138.54
837.607	14136.96
837.932	14076.85
838.258	14046.11
838.583	14026.91
838.908	14019
839.233	14026.91
839.558	14003.18
839.883	13910.07
840.208	13883.41
840.533	13922.73
840.858	13952.1
841.182	13905.78
841.507	13917.3
841.832	13789.85
842.156	13700.81
842.481	13783.3
842.805	13745.56
843.13	13661.49
843.454	13757.53
843.778	13688.61
844.103	13678.44
844.427	13555.28
844.751	13586.46
845.075	13475.96
845.399	13514.83
845.723	13458.78
846.047	13393.48
846.371	13365.68
846.695	13264.44
847.019	13234.84
847.343	13193.03
847.666	13060.38
847.99	12964.56
848.313	13114.39
848.637	12896.77
848.96	12951.91
849.284	12889.31
849.607	12809.31
849.931	12836.2
850.254	12678.01
850.577	12649.99
850.9	12532.48
851.223	12534.97
851.546	12553.5
851.869	12334.97
852.192	12488.64
852.515	12310.79
852.838	12305.82
853.161	12257.01
853.483	12250.45
853.806	12185.37
854.129	12181.3
854.451	12071.48
854.774	12005.72
855.096	12064.24
855.419	11949.45
855.741	11905.15
856.063	11840.07
856.385	11859.05
856.708	11804.59
857.03	11830.58
857.352	11800.07
857.674	11730.47
857.996	11661.54
858.318	11565.95
858.64	11682.56
858.961	11584.71
859.283	11499.06
859.605	11549.46
859.926	11510.36
860.248	11425.39
860.57	11479.18
860.891	11451.61
861.212	11374.32
861.534	11327.54
861.855	11236.92
862.176	11324.83
862.498	11317.15
862.819	11325.96
863.14	11213.19
863.461	11267.43
863.782	11274.89
864.103	11218.62
864.424	11223.36
864.745	11204.15
865.065	11072.18
865.386	11017.04
865.707	11204.15
866.027	11158.51
866.348	11053.65
866.668	11036.7
866.989	10973.43
867.309	10853.43
867.63	10980.21
867.95	10951.51
868.27	10910.38
868.59	10937.27
868.91	10904.05
869.23	10937.27
869.55	10833.99
869.87	10918.96
870.19	10811.85
870.51	10910.83
870.83	10817.27
871.15	10730.04
871.469	10791.74
871.789	10716.26
872.109	10684.85
872.428	10648.91
872.748	10681.68
873.067	10685.75
873.386	10691.17
873.706	10620.44
874.025	10625.86
874.344	10508.13
874.663	10570.5
874.982	10499.31
875.301	10595.36
875.62	10524.85
875.939	10617.5
876.258	10527.34
876.577	10434.68
876.896	10474.23
877.214	10398.53
877.533	10401.46
877.852	10461.12
878.17	10391.07
878.489	10468.13
878.807	10421.12
879.125	10348.58
879.444	10331.41
879.762	10325.31
880.08	10382.48
880.398	10306.78
880.716	10297.29
881.034	10261.13
881.352	10264.07
881.67	10250.73
881.988	10166.89
882.306	10150.62
882.624	10074.69
882.941	10108.82
883.259	10022.49
883.577	10044.19
883.894	10003.73
884.212	10006.9
884.529	9976.84
884.846	10046.67
885.164	9925.77
885.481	9928.03
885.798	9898.2
886.115	9786.34
886.432	9843.06
886.75	9776.4
887.067	9834.7
887.383	9762.61
887.7	9775.49
888.017	9685.78
888.334	9688.49
888.651	9656.62
888.967	9645.1
889.284	9615.5
889.6	9643.74
889.917	9545.22
890.233	9596.29
890.55	9476.06
890.866	9514.93
891.182	9394.71
891.498	9409.4
891.815	9401.72
892.131	9409.17
892.447	9335.28
892.763	9313.36
893.079	9308.84
893.395	9226.35
893.71	9349.06
894.026	9220.03
894.342	9168.5
894.657	9142.74
894.973	9103.19
895.289	9098
895.604	9098.9
895.92	9018.45
896.235	8972.57
896.55	8973.48
896.865	8917.66
897.181	8881.73
897.496	8828.62
897.811	8816.87
898.126	8830.43
898.441	8764.22
898.756	8730.77
899.071	8681.28
899.386	8692.58
899.7	8632.24
900.015	8622.98
900.33	8511.34
900.644	8519.48
900.959	8518.8
901.273	8483.32
901.588	8462.76
901.902	8404.91
902.216	8342.76
902.531	8362.65
902.845	8299.15
903.159	8320.84
903.473	8262.54
903.787	8181.41
904.101	8189.54
904.415	8138.7
904.729	8109.55
905.042	8124.24
905.356	7998.59
905.67	8115.2
905.984	8098.7
906.297	7966.95
906.611	7956.78
906.924	7885.82
907.237	7909.78
907.551	7880.17
907.864	7831.81
908.177	7802.66
908.491	7844.92
908.804	7750.69
909.117	7667.07
909.43	7694.87
909.743	7688.77
910.056	7591.37
910.368	7634.3
910.681	7499.62
910.994	7503.69
911.307	7526.06
911.619	7381.88
911.932	7477.47
912.244	7321.77
912.557	7352.73
912.869	7333.3
913.181	7267.53
913.494	7274.99
913.806	7212.85
914.118	7197.25
914.43	7196.8
914.742	7131.72
915.054	7119.74
915.366	7100.31
915.678	7063.92
915.99	7099.4
916.302	6980.54
916.613	6905.96
916.925	6978.95
917.236	6959.75
917.548	6878.17
917.859	6897.38
918.171	6852.86
918.482	6811.73
918.794	6719.75
919.105	6797.49
919.416	6665.74
919.727	6690.83
920.038	6708.45
920.349	6666.87
920.66	6615.12
920.971	6627.78
921.282	6584.62
921.593	6515.69
921.903	6540.55
922.214	6476.37
922.525	6439.08
922.835	6418.74
923.146	6389.37
923.456	6373.77
923.767	6321.8
924.077	6335.13
924.387	6286.54
924.697	6274.79
925.008	6262.14
925.318	6266.88
925.628	6161.58
925.938	6227.79
926.248	6130.39
926.558	6161.12
926.867	6097.4
927.177	6123.38
927.487	6093.55
927.796	5991.86
928.106	5938.76
928.416	5988.92
928.725	5960.45
929.034	5943.95
929.344	5959.32
929.653	5931.3
929.962	5833.67
930.271	5835.48
930.581	5810.17
930.89	5742.6
931.199	5735.82
931.508	5719.1
931.817	5731.08
932.125	5713
932.434	5677.75
932.743	5664.87
933.051	5610.63
933.36	5607.01
933.669	5565.21
933.977	5528.6
934.286	5522.72
934.594	5552.1
934.902	5450.41
935.21	5470.75
935.519	5425.1
935.827	5410.63
936.135	5375.38
936.443	5317.08
936.751	5306
937.059	5311.88
937.367	5298.32
937.674	5325.67
937.982	5268.72
938.29	5251.54
938.597	5239.79
938.905	5167.03
939.213	5210.41
939.52	5134.03
939.827	5178.32
940.135	5069.85
940.442	5090.64
940.749	5068.95
941.056	5072.56
941.363	4986.01
941.67	5024.88
941.977	4973.81
942.284	4931.78
942.591	4912.34
942.898	4950.31
943.205	4919.57
943.511	4894.49
943.818	4800.48
944.125	4788.28
944.431	4811.78
944.738	4761.16
945.044	4727.26
945.35	4754.61
945.657	4713.48
945.963	4705.79
946.269	4659.24
946.575	4649.75
946.881	4656.53
947.187	4615.85
947.493	4592.8
947.799	4599.13
948.105	4575.4
948.41	4552.8
948.716	4529.75
949.022	4517.78
949.327	4489.3
949.633	4435.07
949.938	4463.99
950.244	4461.51
950.549	4421.28
950.854	4377.89
951.16	4402.53
951.465	4386.71
951.77	4306.71
952.075	4232.81
952.38	4296.09
952.685	4338.57
952.99	4274.62
953.294	4251.57
953.599	4225.81
953.904	4199.14
954.209	4176.54
954.513	4185.58
954.818	4153.72
955.122	4134.28
955.426	4166.37
955.731	4091.35
956.035	4073.72
956.339	4077.34
956.643	4061.29
956.948	4053.83
957.252	4047.51
957.556	3988.75
957.86	3974.74
958.163	3986.04
958.467	3938.13
958.771	3977
959.075	3942.65
959.378	3916.44
959.682	3858.58
959.985	3846.38
960.289	3880.73
960.592	3818.13
960.896	3789.21
961.199	3762.09
961.502	3774.97
961.805	3763.22
962.108	3740.17
962.411	3751.7
962.714	3719.61
963.017	3725.93
963.32	3666.05
963.623	3681.64
963.926	3657.69
964.228	3643.45
964.531	3624.69
964.833	3600.29
965.136	3591.7
965.438	3560.97
965.741	3541.08
966.043	3527.97
966.345	3522.55
966.648	3532.94
966.95	3510.8
967.252	3512.83
967.554	3471.25
967.856	3430.12
968.158	3392.16
968.46	3403.46
968.761	3377.69
969.063	3367.3
969.365	3357.36
969.666	3347.41
969.968	3320.75
970.269	3342.67
970.571	3336.34
970.872	3325.49
971.174	3236.45
971.475	3338.6
971.776	3225.38
972.077	3239.62
972.378	3219.28
972.679	3215.66
972.98	3215.21
973.281	3186.74
973.582	3200.75
973.883	3152.16
974.183	3154.42
974.484	3177.02
974.785	3115.78
975.085	3105.84
975.386	3107.64
975.686	3130.24
975.986	3063.35
976.287	3095.89
976.587	3035.78
976.887	3024.71
977.187	3009.34
977.487	3022
977.787	2956.69
978.087	2997.82
978.387	2935.22
978.687	2947.2
978.987	2920.53
979.286	2900.87
979.586	2903.36
979.885	2939.06
980.185	2858.16
980.484	2901.32
980.784	2851.61
981.083	2890.93
981.382	2832.62
981.682	2847.54
981.981	2815.9
982.28	2807.54
982.579	2777.71
982.878	2777.71
983.177	2777.26
983.475	2743.13
983.774	2728.22
984.073	2693.87
984.372	2692.51
984.67	2698.84
984.969	2699.52
985.267	2655.23
985.566	2661.55
985.864	2664.72
986.162	2679.18
986.461	2614.1
986.759	2616.58
987.057	2579.52
987.355	2598.05
987.653	2612.52
987.951	2578.84
988.249	2590.6
988.547	2549.47
988.844	2532.52
989.142	2507.66
989.44	2492.75
989.737	2478.51
990.035	2466.53
990.332	2476.93
990.63	2451.62
990.927	2434.67
991.224	2470.37
991.521	2390.6
991.819	2405.52
992.116	2396.02
992.413	2414.78
992.71	2381.79
993.006	2353.31
993.303	2367.55
993.6	2380.66
993.897	2358.51
994.193	2322.58
994.49	2322.81
994.787	2314.67
995.083	2310.6
995.379	2308.34
995.676	2269.93
995.972	2298.4
996.268	2271.28
996.565	2213.2
996.861	2205.07
997.157	2209.36
997.453	2251.4
997.749	2211.62
998.044	2163.04
998.34	2198.97
998.636	2162.36
998.932	2148.8
999.227	2120.33
999.523	2143.83
999.818	2092.76
1000.114	2114.45
1000.409	2094.11
1000.704	2061.12
1001	2072.64
1001.295	2086.2
1001.59	2033.1
1001.885	2039.2
1002.18	2005.3
1002.475	2044.17
1002.77	2027.45
1003.065	1984.74
1003.359	1976.6
1003.654	1966.43
1003.949	1978.41
1004.243	1933.21
1004.538	1923.72
1004.832	1942.93
1005.127	1932.99
1005.421	1921.46
1005.715	1885.53
1006.009	1892.76
1006.304	1884.63
1006.598	1852.99
1006.892	1835.36
1007.186	1829.03
1007.48	1814.34
1007.773	1813.44
1008.067	1771.18
1008.361	1795.14
1008.655	1763.5
1008.948	1765.98
1009.242	1767.57
1009.535	1774.57
1009.829	1751.52
1010.122	1711.52
1010.415	1724.63
1010.708	1718.75
1011.001	1718.98
1011.295	1720.34
1011.588	1698.19
1011.881	1666.78
1012.173	1679.89
1012.466	1676.27
1012.759	1657.51
1013.052	1634.24
1013.344	1632.43
1013.637	1605.76
1013.93	1620.45
1014.222	1610.96
1014.514	1611.19
1014.807	1579.32
1015.099	1569.83
1015.391	1557.63
1015.683	1561.92
1015.976	1563.05
1016.268	1537.97
1016.56	1534.35
1016.851	1530.51
1017.143	1540.45
1017.435	1515.6
1017.727	1486.22
1018.018	1505.65
1018.31	1488.03
1018.602	1482.6
1018.893	1469.95
1019.185	1436.95
1019.476	1444.86
1019.767	1442.6
1020.058	1445.09
1020.35	1411.64
1020.641	1388.59
1020.932	1399.21
1021.223	1406.9
1021.514	1365.32
1021.804	1351.98
1022.095	1349.72
1022.386	1345.88
1022.677	1328.48
1022.967	1349.95
1023.258	1314.7
1023.548	1283.29
1023.839	1324.41
1024.129	1316.5
1024.419	1320.57
1024.709	1259.11
1025	1293
1025.29	1252.78
1025.58	1269.95
1025.87	1251.2
1026.16	1236.73
1026.449	1235.6
1026.739	1206
1027.029	1210.52
1027.319	1215.94
1027.608	1204.19
1027.898	1186.56
1028.187	1171.65
1028.477	1178.43
1028.766	1156.06
1029.055	1201.25
1029.344	1169.39
1029.634	1165.1
1029.923	1156.06
1030.212	1150.86
1030.501	1127.13
1030.79	1136.4
1031.078	1134.14
1031.367	1083.74
1031.656	1117.19
1031.945	1090.52
1032.233	1095.27
1032.522	1063.63
1032.81	1059.34
1033.099	1078.32
1033.387	1060.24
1033.675	1064.53
1033.963	1035.83
1034.251	1023.18
1034.54	1013.24
1034.828	999.68
1035.116	1017.98
1035.403	1006.68
1035.691	990.64
1035.979	985.21
1036.267	1004.2
1036.554	1002.84
1036.842	991.99
1037.129	988.6
1037.417	981.15
1037.704	963.52
1037.992	961.03
1038.279	963.29
1038.566	957.87
1038.853	957.87
1039.14	957.87
