Data from hue_200_FLMS001491_00079.txt Node
Date: Tue Feb 07 16:43:56 GMT 2017
User: dcchb
Spectrometer: FLMS00149
Trigger mode: 0
Integration Time (sec): 2.000000E-2
Scans to average: 10
Electric dark correction enabled: true
Nonlinearity correction enabled: false
Boxcar width: 0
XAxis mode: Wavelengths
Number of Pixels in Spectrum: 2048
>>>>>Begin Spectral Data<<<<<
341.393	-13.33
341.776	-13.33
342.16	-13.33
342.543	-68.02
342.927	-72.54
343.31	-58.08
343.693	-82.48
344.077	-71.64
344.46	-63.05
344.843	-71.86
345.226	-51.98
345.61	-30.28
345.993	-11.75
346.376	-14.24
346.759	9.72
347.142	35.03
347.525	58.76
347.908	62.6
348.291	74.35
348.674	91.75
349.057	123.16
349.44	111.86
349.823	143.5
350.206	150.96
350.588	175.14
350.971	184.85
351.354	218.3
351.737	219.66
352.119	254.46
352.502	258.07
352.884	263.5
353.267	292.2
353.65	286.32
354.032	294.46
354.414	280.22
354.797	297.62
355.179	317.51
355.562	315.7
355.944	319.31
356.326	327.22
356.709	310.95
357.091	311.4
357.473	341.69
357.855	347.56
358.238	338.3
358.62	346.88
359.002	329.48
359.384	325.19
359.766	313.66
360.148	337.39
360.53	334.91
360.912	319.99
361.294	320.44
361.676	309.37
362.057	344.17
362.439	317.51
362.821	326.55
363.203	335.36
363.584	332.19
363.966	314.34
364.348	328.13
364.729	316.6
365.111	327.45
365.493	323.83
365.874	304.62
366.256	313.66
366.637	303.95
367.019	331.06
367.4	306.88
367.781	314.12
368.163	311.63
368.544	322.03
368.925	291.29
369.306	326.77
369.688	317.05
370.069	322.48
370.45	302.59
370.831	300.78
371.212	307.79
371.593	313.44
371.974	317.51
372.355	312.31
372.736	310.95
373.117	306.66
373.498	317.73
373.879	307.11
374.26	297.62
374.641	295.36
375.021	290.16
375.402	322.03
375.783	319.54
376.163	305.75
376.544	323.16
376.925	307.11
377.305	312.53
377.686	332.87
378.066	301.46
378.447	329.03
378.827	306.66
379.208	311.86
379.588	320.67
379.968	315.92
380.349	334.45
380.729	316.83
381.109	318.41
381.489	322.25
381.87	326.32
382.25	355.02
382.63	336.71
383.01	333.78
383.39	342.36
383.77	341.69
384.15	322.03
384.53	337.84
384.91	346.88
385.29	321.57
385.67	337.17
386.049	357.73
386.429	343.72
386.809	355.92
387.189	337.62
387.568	362.93
387.948	343.27
388.328	353.66
388.707	360.67
389.087	352.76
389.466	349.6
389.846	351.63
390.225	351.18
390.605	358.86
390.984	382.81
391.363	373.55
391.743	352.99
392.122	357.5
392.501	375.13
392.881	359.31
393.26	360.44
393.639	366.54
394.018	362.7
394.397	373.78
394.776	394.57
395.155	385.3
395.534	390.72
395.913	377.62
396.292	378.3
396.671	371.74
397.05	383.72
397.429	380.1
397.808	401.8
398.186	402.25
398.565	363.61
398.944	389.37
399.323	396.83
399.701	393.44
400.08	387.33
400.458	396.37
400.837	431.4
401.215	423.94
401.594	397.5
401.972	425.75
402.351	415.13
402.729	421.46
403.107	426.2
403.486	445.64
403.864	442.25
404.242	438.18
404.62	441.8
404.999	436.6
405.377	455.36
405.755	436.15
406.133	439.99
406.511	456.94
406.889	456.71
407.267	484.73
407.645	479.54
408.023	484.51
408.401	497.39
408.779	482.7
409.156	525.64
409.534	506.2
409.912	507.78
410.29	520.89
410.667	537.61
411.045	547.78
411.422	538.74
411.8	541.68
412.178	550.49
412.555	575.58
412.933	586.43
413.31	587.78
413.687	610.61
414.065	616.25
414.442	616.71
414.819	636.14
415.197	640.66
415.574	663.94
415.951	655.35
416.328	670.49
416.705	681.11
417.082	686.08
417.46	711.39
417.837	693.54
418.214	726.99
418.591	731.05
418.967	744.16
419.344	738.29
419.721	784.84
420.098	753.43
420.475	756.14
420.852	791.62
421.228	809.92
421.605	816.02
421.982	843.14
422.358	837.04
422.735	884.04
423.111	882.01
423.488	916.59
423.864	924.5
424.241	910.03
424.617	953.65
424.994	951.39
425.37	964.95
425.746	961.1
426.123	1013.53
426.499	1017.6
426.875	1011.27
427.251	1032.29
427.627	1095.11
428.003	1069.8
428.379	1085.85
428.756	1122.46
429.132	1101.44
429.507	1129.01
429.883	1121.1
430.259	1165.62
430.635	1143.47
431.011	1159.07
431.387	1201.78
431.763	1231.15
432.138	1231.38
432.514	1242.91
432.89	1284.94
433.265	1318.61
433.641	1336.24
434.016	1357.93
434.392	1386.86
434.767	1417.14
435.143	1415.1
435.518	1474.99
435.894	1474.99
436.269	1517.02
436.644	1541.88
437.02	1562.67
437.395	1561.09
437.77	1617.36
438.145	1657.81
438.52	1678.6
438.895	1687.19
439.271	1703.91
439.646	1753.17
440.021	1800.18
440.395	1795.21
440.77	1790.24
441.145	1831.82
441.52	1870.69
441.895	1880.4
442.27	1897.58
442.645	1936.22
443.019	1957.91
443.394	1954.98
443.769	2020.29
444.143	1981.42
444.518	2041.75
444.892	2053.28
445.267	2077.69
445.641	2063.9
446.016	2101.64
446.39	2124.92
446.764	2144.12
447.139	2138.47
447.513	2182.54
447.887	2182.54
448.262	2210.56
448.636	2195.65
449.01	2267.96
449.384	2262.09
449.758	2277.91
450.132	2325.14
450.506	2318.36
450.88	2359.26
451.254	2378.92
451.628	2380.5
452.002	2420.73
452.376	2431.12
452.75	2483.55
453.123	2484.45
453.497	2513.83
453.871	2540.5
454.244	2619.14
454.618	2609.87
454.992	2633.38
455.365	2647.84
455.739	2734.62
456.112	2728.06
456.486	2759.48
456.859	2767.38
457.232	2844.67
457.606	2861.85
457.979	2867.72
458.352	2923.54
458.725	2971.9
459.099	2987.94
459.472	3041.73
459.845	3055.96
460.218	3081.5
460.591	3087.6
460.964	3130.77
461.337	3183.19
461.71	3261.84
462.083	3323.75
462.456	3302.51
462.829	3327.6
463.201	3382.28
463.574	3380.02
463.947	3442.62
464.32	3495.28
464.692	3513.13
465.065	3580.7
465.438	3597.65
465.81	3664.76
466.183	3699.34
466.555	3829.73
466.928	3782.73
467.3	3786.57
467.672	3809.84
468.045	3950.18
468.417	3978.2
468.789	3992.89
469.161	4041.7
469.534	4083.51
469.906	4156.05
470.278	4232.66
470.65	4279.66
471.022	4369.38
471.394	4451.18
471.766	4444.85
472.138	4490.05
472.51	4570.28
472.882	4657.28
473.253	4688.92
473.625	4809.59
473.997	4830.83
474.369	4883.26
474.74	4948.8
475.112	4990.15
475.484	5145.18
475.855	5195.8
476.227	5172.07
476.598	5361.67
476.97	5393.76
477.341	5450.03
477.713	5558.27
478.084	5602.56
478.455	5719.85
478.827	5743.58
479.198	5979.96
479.569	5922.33
479.94	6072.38
480.311	6101.99
480.682	6250.91
481.053	6411.13
481.424	6481.64
481.795	6484.58
482.166	6603.67
482.537	6648.86
482.908	6790.33
483.279	6798.24
483.65	6928.41
484.021	7051.79
484.391	7119.13
484.762	7169.08
485.133	7243.2
485.503	7364.78
485.874	7503.08
486.244	7511.67
486.615	7698.78
486.985	7768.84
487.356	7900.81
487.726	8007.02
488.097	8110.3
488.467	8106.45
488.837	8305.77
489.207	8336.28
489.578	8485.2
489.948	8459.89
490.318	8622.6
490.688	8638.42
491.058	8740.79
491.428	8853.33
491.798	8959.99
492.168	9060.78
492.538	9042.02
492.908	9102.81
493.278	9259.64
493.648	9236.59
494.017	9292.86
494.387	9478.62
494.757	9536.92
495.126	9564.04
495.496	9550.94
495.866	9598.84
496.235	9728.78
496.605	9793.64
496.974	9773.75
497.344	9880.42
497.713	9876.8
498.082	9972.62
498.452	10042
498.821	10045.84
499.19	10052.84
499.559	10155.89
499.928	10132.84
500.298	10288.54
500.667	10298.26
501.036	10229.34
501.405	10407.86
501.774	10369.67
502.143	10423.91
502.512	10444.7
502.88	10468.65
503.249	10485.6
503.618	10536.67
503.987	10555.2
504.356	10592.94
504.724	10623
505.093	10614.41
505.462	10647.63
505.83	10705.71
506.199	10824.57
506.567	10888.98
506.936	10811.92
507.304	10818.92
507.672	10896.44
508.041	10870.45
508.409	10981.18
508.777	11080.39
509.145	11127.62
509.514	11085.36
509.882	11076.32
510.25	11095.08
510.618	11119.48
510.986	11086.71
511.354	11188.18
511.722	11233.83
512.09	11282.19
512.458	11220.27
512.826	11306.37
513.193	11232.7
513.561	11256.2
513.929	11324.45
514.297	11342.98
514.664	11426.14
515.032	11403.99
515.4	11475.18
515.767	11495.06
516.135	11434.05
516.502	11329.42
516.869	11458.23
517.237	11526.02
517.604	11403.32
517.972	11525.57
518.339	11557.66
518.706	11522.63
519.073	11508.4
519.44	11524.67
519.808	11613.71
520.175	11505.01
520.542	11665.68
520.909	11528.96
521.276	11496.42
521.643	11576.42
522.009	11715.4
522.376	11627.72
522.743	11663.87
523.11	11682.86
523.477	11777.54
523.843	11768.5
524.21	11817.32
524.577	11729.18
524.943	11785.23
525.31	11766.24
525.676	11817.32
526.043	11821.16
526.409	11787.71
526.776	11839.24
527.142	11851.89
527.508	11932.79
527.874	11895.05
528.241	11803.76
528.607	11797.2
528.973	11800.14
529.339	11738.9
529.705	11927.6
530.071	11810.99
530.437	11806.47
530.803	11808.73
531.169	11787.26
531.535	11736.41
531.901	11681.27
532.267	11721.5
532.632	11654.38
532.998	11596.08
533.364	11607.83
533.73	11610.99
534.095	11635.17
534.461	11604.89
534.826	11577.32
535.192	11534.61
535.557	11498.91
535.923	11464.78
536.288	11448.96
536.653	11439.7
537.019	11308.18
537.384	11264.56
537.749	11304.79
538.114	11269.31
538.479	11213.94
538.845	11133.27
539.21	11076.54
539.575	11147.73
539.94	11028.86
540.305	10997.9
540.67	10969.43
541.034	10926.94
541.399	10911.58
541.764	10818.7
542.129	10800.85
542.494	10764.69
542.858	10704.58
543.223	10725.82
543.587	10641.3
543.952	10535.32
544.316	10543.23
544.681	10449.44
545.045	10496.22
545.41	10479.27
545.774	10433.4
546.138	10341.42
546.503	10267.3
546.867	10205.16
547.231	10327.64
547.595	10217.81
547.959	10114.99
548.324	10119.51
548.688	10092.16
549.052	10001.32
549.416	9971.26
549.779	9919.97
550.143	9865.96
550.507	9838.39
550.871	9788.44
551.235	9744.83
551.599	9782.79
551.962	9759.52
552.326	9749.8
552.689	9641.55
553.053	9565.17
553.417	9504.16
553.78	9599.97
554.143	9515
554.507	9498.06
554.87	9437.94
555.234	9467.1
555.597	9266.42
555.96	9385.74
556.323	9382.13
556.686	9299.19
557.05	9328.34
557.413	9230.04
557.776	9237.27
558.139	9234.79
558.502	9224.62
558.865	9159.08
559.228	9185.75
559.59	9169.93
559.953	9027.56
560.316	9162.7
560.679	9078.41
561.041	9108.91
561.404	9079.76
561.767	9136.93
562.129	8990.5
562.492	9006.99
562.854	9054.45
563.217	9016.71
563.579	8977.62
563.941	9004.28
564.304	8978.29
564.666	9036.82
565.028	8971.06
565.39	8998.86
565.753	9042.93
566.115	8979.65
566.477	9015.81
566.839	8974.68
567.201	9019.2
567.563	8989.14
567.925	8980.1
568.287	8976.94
568.648	9002.02
569.01	8930.39
569.372	8988.92
569.734	8941.91
570.095	9039.31
570.457	8998.18
570.819	9022.81
571.18	8980.1
571.542	9008.58
571.903	8943.49
572.265	9006.32
572.626	8939.43
572.987	9026.43
573.349	9006.99
573.71	9030.95
574.071	9004.96
574.432	9050.38
574.794	8981.91
575.155	9048.58
575.516	9036.15
575.877	9021.68
576.238	9025.53
576.599	9007.45
576.96	8999.09
577.32	8977.62
577.681	8996.37
578.042	8988.69
578.403	9054.45
578.763	9037.05
579.124	8951.18
579.485	8969.26
579.845	9045.86
580.206	9066.43
580.566	8938.52
580.927	9045.86
581.287	8972.19
581.648	8914.79
582.008	9012.87
582.368	9003.15
582.728	8985.3
583.089	8980.78
583.449	8978.52
583.809	8943.04
584.169	8907.79
584.529	8900.33
584.889	8932.19
585.249	8938.97
585.609	8892.65
585.969	8975.13
586.329	8926.77
586.688	8950.73
587.048	8966.54
587.408	8930.16
587.768	8824.4
588.127	8873.44
588.487	8789.37
588.846	8889.71
589.206	8758.41
589.565	8863.72
589.925	8879.31
590.284	8863.72
590.643	8851.29
591.003	8860.78
591.362	8898.52
591.721	8863.27
592.08	8863.72
592.44	8835.93
592.799	8848.13
593.158	8785.76
593.517	8863.5
593.876	8839.99
594.235	8797.96
594.593	8787.34
594.952	8815.14
595.311	8788.7
595.67	8769.71
596.029	8771.75
596.387	8829.82
596.746	8820.79
597.104	8748.02
597.463	8770.62
597.822	8815.59
598.18	8724.29
598.538	8687
598.897	8764.52
599.255	8765.42
599.613	8778.75
599.972	8692.43
600.33	8710.05
600.688	8711.41
601.046	8673.9
601.404	8753.22
601.762	8712.54
602.12	8799.77
602.478	8700.11
602.836	8695.36
603.194	8677.51
603.552	8696.27
603.91	8686.78
604.268	8761.35
604.625	8654.24
604.983	8735.82
605.341	8641.58
605.698	8652.2
606.056	8676.61
606.413	8647.46
606.771	8788.47
607.128	8751.86
607.485	8657.4
607.843	8636.38
608.2	8736.72
608.557	8706.21
608.914	8655.59
609.272	8741.69
609.629	8764.29
609.986	8728.13
610.343	8735.36
610.7	8784.4
611.057	8752.09
611.414	8736.27
611.771	8758.19
612.127	8739.88
612.484	8780.79
612.841	8746.66
613.198	8788.47
613.554	8770.16
613.911	8770.84
614.267	8727.45
614.624	8763.39
614.98	8772.42
615.337	8821.91
615.693	8859.65
616.05	8791.86
616.406	8815.14
616.762	8723.61
617.118	8788.02
617.475	8818.53
617.831	8792.76
618.187	8793.89
618.543	8791.86
618.899	8894.68
619.255	8880.67
619.611	8832.76
619.967	8896.04
620.323	8879.54
620.678	8783.27
621.034	8847
621.39	8830.28
621.746	8851.07
622.101	8916.38
622.457	8887.45
622.812	8919.77
623.168	8897.85
623.523	8864.85
623.879	8958.41
624.234	8852.2
624.589	8852.2
624.945	8860.56
625.3	8810.39
625.655	8779.88
626.01	8910.5
626.365	8880.22
626.72	8827.11
627.075	8764.52
627.43	8844.74
627.785	8833.67
628.14	8835.25
628.495	8834.8
628.85	8799.09
629.205	8778.53
629.559	8795.7
629.914	8794.12
630.269	8851.52
630.623	8710.73
630.978	8709.83
631.332	8731.97
631.687	8769.71
632.041	8734.23
632.396	8735.14
632.75	8687
633.104	8716.38
633.459	8690.84
633.813	8687
634.167	8697.4
634.521	8659.43
634.875	8681.35
635.229	8652.65
635.583	8602.94
635.937	8602.03
636.291	8630.28
636.645	8584.86
636.999	8555.48
637.352	8622.82
637.706	8601.81
638.06	8552.77
638.413	8570.17
638.767	8501.25
639.121	8574.46
639.474	8482.26
639.828	8445.43
640.181	8577.4
640.534	8492.43
640.888	8481.81
641.241	8455.82
641.594	8477.07
641.947	8463.05
642.301	8478.2
642.654	8463.28
643.007	8527.23
643.36	8380.34
643.713	8407.69
644.066	8465.54
644.419	8388.93
644.771	8386.22
645.124	8268.03
645.477	8265.77
645.83	8221.7
646.182	8278.88
646.535	8160.46
646.888	8181.93
647.24	8141.48
647.593	8183.97
647.945	8113.46
648.298	8062.39
648.65	8079.56
649.002	8087.92
649.355	8183.29
649.707	8123.85
650.059	8187.13
650.411	8293.79
650.763	8297.18
651.115	8329.5
651.467	8265.09
651.819	8338.99
652.171	8300.8
652.523	8323.17
652.875	8304.87
653.227	8301.93
653.578	8339.67
653.93	8358.2
654.282	8330.63
654.633	8266.45
654.985	8281.82
655.337	8293.12
655.688	8376.05
656.039	8386.67
656.391	8325.2
656.742	8334.02
657.094	8327.69
657.445	8290.4
657.796	8371.53
658.147	8348.48
658.498	8346.67
658.849	8401.14
659.2	8353.45
659.551	8290.63
659.902	8407.69
660.253	8412.21
660.604	8392.32
660.955	8322.27
661.306	8365.66
661.656	8354.13
662.007	8426.22
662.358	8388.93
662.708	8328.82
663.059	8352.77
663.409	8353.45
663.76	8431.87
664.11	8411.08
664.461	8436.39
664.811	8470.06
665.161	8383.96
665.511	8383.96
665.862	8427.35
666.212	8447.91
666.562	8418.08
666.912	8441.36
667.262	8391.64
667.612	8429.38
667.962	8442.72
668.312	8434.13
668.662	8435.94
669.011	8402.04
669.361	8369.72
669.711	8439.1
670.06	8362.49
670.41	8371.31
670.76	8326.33
671.109	8392.77
671.459	8345.54
671.808	8376.28
672.157	8435.71
672.507	8351.64
672.856	8336.5
673.205	8297.63
673.554	8325.88
673.904	8312.32
674.253	8308.26
674.602	8274.58
674.951	8211.54
675.3	8148.94
675.649	8270.52
675.998	8259.67
676.346	8267.13
676.695	8292.21
677.044	8217.41
677.393	8250.18
677.741	8286.11
678.09	8249.5
678.438	8193
678.787	8225.77
679.135	8187.36
679.484	8106.23
679.832	8190.52
680.181	8151.42
680.529	8152.1
680.877	8204.3
681.225	8104.65
681.573	8177.19
681.922	8056.96
682.27	8099.45
682.618	8080.69
682.966	8042.5
683.314	8012.44
683.661	8118.88
684.009	7997.3
684.357	8004.76
684.705	8001.37
685.053	7952.11
685.4	7920.02
685.748	7894.03
686.095	7893.8
686.443	7804.31
686.79	7869.4
687.138	7846.12
687.485	7841.15
687.832	7800.25
688.18	7808.38
688.527	7706.69
688.874	7727.93
689.221	7670.98
689.568	7650.42
689.915	7637.54
690.262	7654.26
690.609	7643.19
690.956	7557.54
691.303	7628.05
691.65	7508.5
691.997	7540.14
692.344	7487.26
692.69	7487.26
693.037	7423.76
693.383	7398.9
693.73	7376.98
694.077	7370.65
694.423	7333.82
694.769	7324.33
695.116	7305.34
695.462	7250.43
695.808	7233.48
696.155	7283.65
696.501	7192.13
696.847	7163.65
697.193	7133.15
697.539	7193.94
697.885	7103.99
698.231	7077.78
698.577	7019.02
698.923	7055.18
699.269	7033.94
699.614	7012.92
699.96	6899.48
700.306	6950.78
700.651	6893.15
700.997	6874.17
701.342	6779.93
701.688	6807.73
702.033	6829.2
702.379	6771.12
702.724	6775.64
703.069	6708.75
703.415	6604.12
703.76	6655.19
704.105	6690.9
704.45	6660.84
704.795	6617.68
705.14	6574.29
705.485	6566.16
705.83	6487.74
706.175	6557.12
706.52	6485.25
706.865	6423.79
707.209	6408.65
707.554	6440.73
707.899	6454.97
708.243	6425.59
708.588	6393.96
708.932	6349.66
709.277	6366.39
709.621	6280.74
709.966	6299.72
710.31	6307.63
710.654	6283.9
710.998	6303.79
711.342	6261.76
711.687	6222.44
712.031	6225.15
712.375	6158.48
712.719	6116.45
713.063	6183.11
713.407	6187.63
713.75	6172.04
714.094	6128.2
714.438	6099.5
714.782	6145.6
715.125	6096.34
715.469	6115.09
715.812	6076.9
716.156	6054.3
716.499	6064.93
716.843	6051.82
717.186	5945.38
717.53	6089.56
717.873	6039.16
718.216	5994.87
718.559	5962.78
718.902	5961.2
719.246	5975.44
719.589	5917.58
719.932	5900.18
720.275	5920.52
720.617	5949.67
720.96	5914.65
721.303	5937.02
721.646	5908.77
721.989	5894.53
722.331	5926.4
722.674	5920.07
723.016	5917.36
723.359	5957.36
723.701	5939.73
724.044	5869.68
724.386	5845.04
724.729	5861.09
725.071	5867.64
725.413	5902.67
725.755	5880.3
726.097	5827.87
726.439	5855.44
726.782	5798.27
727.124	5841.65
727.465	5802.79
727.807	5836.91
728.149	5801.88
728.491	5853.41
728.833	5857.25
729.175	5842.33
729.516	5764.59
729.858	5787.19
730.199	5861.99
730.541	5810.24
730.882	5791.71
731.224	5776.8
731.565	5784.48
731.906	5803.01
732.248	5809.56
732.589	5796.68
732.93	5820.64
733.271	5826.06
733.612	5821.77
733.953	5833.29
734.294	5802.56
734.635	5811.6
734.976	5829.23
735.317	5818.83
735.658	5866.06
735.999	5838.49
736.339	5843.46
736.68	5872.16
737.021	5844.59
737.361	5819.96
737.702	5839.62
738.042	5838.94
738.383	5899.05
738.723	5906.51
739.063	5838.49
739.404	5902.67
739.744	5924.59
740.084	5910.35
740.424	5945.15
740.764	5923.69
741.104	5951.26
741.444	6006.62
741.784	5947.41
742.124	6039.39
742.464	6035.55
742.804	6035.55
743.143	6037.13
743.483	6070.57
743.823	6033.06
744.162	6147.41
744.502	6174.07
744.841	6196
745.181	6218.59
745.52	6216.11
745.86	6294.98
746.199	6340.17
746.538	6370.45
746.877	6431.47
747.216	6401.19
747.556	6517.34
747.895	6542.65
748.234	6559.83
748.573	6580.84
748.911	6706.72
749.25	6691.58
749.589	6780.39
749.928	6855.41
750.267	6917.78
750.605	7001.4
750.944	7026.93
751.283	7158.91
751.621	7218.79
751.96	7375.17
752.298	7401.61
752.636	7521.38
752.975	7575.85
753.313	7612
753.651	7791.43
753.989	7890.64
754.327	8011.09
754.666	8127.7
755.004	8249.73
755.342	8374.02
755.679	8510.06
756.017	8607.01
756.355	8797.51
756.693	8985.3
757.031	9039.08
757.368	9151.4
757.706	9277.27
758.044	9498.96
758.381	9685.4
758.719	9870.7
759.056	9997.03
759.394	10133.74
759.731	10278.15
760.068	10428.43
760.405	10586.84
760.743	10808.08
761.08	11002.42
761.417	11057.11
761.754	11364.67
762.091	11473.14
762.428	11693.03
762.765	11823.42
763.102	12001.49
763.438	12274.71
763.775	12314.7
764.112	12572.55
764.449	12775.71
764.785	12944.74
765.122	13045.08
765.458	13194
765.795	13313.77
766.131	13577.95
766.467	13705.85
766.804	13840.54
767.14	14025.17
767.476	14188.33
767.812	14298.61
768.148	14457.25
768.485	14572.72
768.821	14662.44
769.157	14813.85
769.492	14978.82
769.828	15111.02
770.164	15214.52
770.5	15351.01
770.836	15524.11
771.171	15589.19
771.507	15693.82
771.842	15702.86
772.178	15896.53
772.513	16016.08
772.849	16109.18
773.184	16223.98
773.519	16235.96
773.855	16378.1
774.19	16463.97
774.525	16477.98
774.86	16704.87
775.195	16661.93
775.53	16747.13
775.865	16747.36
776.2	16782.38
776.535	16719.56
776.87	16891.99
777.205	16861.25
777.539	16947.13
777.874	17122.94
778.209	16989.84
778.543	17129.49
778.878	17156.39
779.212	17216.95
779.547	17141.24
779.881	17220.34
780.215	17228.02
780.55	17392.76
780.884	17331.75
781.218	17266.44
781.552	17350.5
781.886	17371.07
782.22	17410.16
782.554	17357.74
782.888	17274.8
783.222	17413.78
783.556	17366.1
783.889	17309.83
784.223	17286.78
784.557	17366.1
784.89	17385.53
785.224	17282.71
785.557	17286.55
785.891	17338.53
786.224	17280
786.558	17311.41
786.891	17183.28
787.224	17308.7
787.557	17174.01
787.891	17330.39
788.224	17271.64
788.557	17282.71
788.89	17296.49
789.223	17341.01
789.556	17200.9
789.888	17169.27
790.221	17175.59
790.554	17029.16
790.887	17039.33
791.219	17028.48
791.552	17130.4
791.884	16929.72
792.217	16922.27
792.549	16956.39
792.882	16865.09
793.214	16822.61
793.546	16836.17
793.879	16728.6
794.211	16674.59
794.543	16767.69
794.875	16776.51
795.207	16711.65
795.539	16644.53
795.871	16750.97
796.203	16572.22
796.535	16535.38
796.867	16550.53
797.198	16495.61
797.53	16478.66
797.862	16376.07
798.193	16424.2
798.525	16449.06
798.856	16376.52
799.188	16279.57
799.519	16165
799.85	16026.7
800.182	16121.61
800.513	16136.75
800.844	16016.75
801.175	16084.1
801.506	16115.51
801.837	16043.65
802.168	15963.87
802.499	15956.19
802.83	15936.98
803.161	15856.98
803.491	15839.81
803.822	15887.27
804.153	15745.8
804.483	15707.84
804.814	15600.72
805.145	15634.84
805.475	15606.82
805.805	15604.34
806.136	15496.09
806.466	15499.25
806.796	15536.09
807.126	15355.98
807.457	15324.57
807.787	15477.79
808.117	15317.56
808.447	15249.32
808.777	15325.7
809.107	15250.9
809.436	15111.02
809.766	15203.89
810.096	15206.38
810.426	15118.47
810.755	15100.39
811.085	15125.48
811.414	15056.33
811.744	15076.21
812.073	14990.79
812.403	14968.42
812.732	14933.17
813.061	14880.06
813.39	14843.9
813.719	14810.46
814.049	14888.2
814.378	14749.44
814.707	14781.76
815.036	14771.14
815.365	14697.92
815.693	14497.92
816.022	14576.57
816.351	14561.2
816.68	14505.38
817.008	14600.07
817.337	14391.26
817.665	14401.66
817.994	14440.3
818.322	14367.98
818.651	14312.62
818.979	14381.32
819.307	14518.94
819.636	14436
819.964	14284.6
820.292	14399.62
820.62	14302.22
820.948	14272.39
821.276	14400.07
821.604	14221.1
821.932	14303.58
822.259	14290.25
822.587	14269.91
822.915	14165.05
823.243	14321.21
823.57	14241.21
823.898	14229.46
824.225	14189.46
824.553	14226.97
824.88	14308.55
825.207	14296.35
825.535	14232.17
825.862	14315.1
826.189	14217.71
826.516	14244.15
826.843	14263.58
827.17	14315.56
827.497	14304.71
827.824	14269
828.151	14277.59
828.478	14234.65
828.805	14406.63
829.131	14329.57
829.458	14294.77
829.785	14235.11
830.111	14222.68
830.438	14382.22
830.764	14301.77
831.09	14271.49
831.417	14260.64
831.743	14280.98
832.069	14300.64
832.395	14233.07
832.722	14332.05
833.048	14163.92
833.374	14289.79
833.7	14163.47
834.026	14127.99
834.351	14222.22
834.677	14152.4
835.003	14182.68
835.329	14217.93
835.654	14156.92
835.98	14155.79
836.306	14178.61
836.631	14098.16
836.956	14084.38
837.282	14164.37
837.607	14094.32
837.932	14085.73
838.258	14061.1
838.583	14138.84
838.908	13948.56
839.233	13940.65
839.558	13922.8
839.883	13855.45
840.208	13823.59
840.533	13842.12
840.858	13811.16
841.182	13909.46
841.507	13798.28
841.832	13721.9
842.156	13710.37
842.481	13735.91
842.805	13736.14
843.13	13715.57
843.454	13618.17
843.778	13604.16
844.103	13565.75
844.427	13583.15
844.751	13571.39
845.075	13539.08
845.399	13450.27
845.723	13367.11
846.047	13377.05
846.371	13294.79
846.695	13277.84
847.019	13224.51
847.343	13150.84
847.666	13043.95
847.99	13085.31
848.313	13074.01
848.637	12925.31
848.96	12888.47
849.284	12824.75
849.607	12815.03
849.931	12758.76
850.254	12659.33
850.577	12614.13
850.9	12511.76
851.223	12558.99
851.546	12506.11
851.869	12460.46
852.192	12507.24
852.515	12335.95
852.838	12255.5
853.161	12288.72
853.483	12120.36
853.806	12191.09
854.129	12156.74
854.451	12027.03
854.774	12022.96
855.096	12023.64
855.419	11992
855.741	11994.03
856.063	11906.35
856.385	11820.93
856.708	11792.68
857.03	11751.56
857.352	11692.35
857.674	11667.26
857.996	11698.9
858.318	11575.74
858.64	11626.36
858.961	11538.45
859.283	11490.09
859.605	11524.89
859.926	11594.5
860.248	11536.65
860.57	11422.07
860.891	11432.24
861.212	11441.96
861.534	11364.9
861.855	11228.63
862.176	11365.35
862.498	11342.3
862.819	11284.22
863.14	11235.64
863.461	11265.92
863.782	11246.48
864.103	11213.04
864.424	11154.28
864.745	11103.66
865.065	11107.73
865.386	11058.69
865.707	11078.35
866.027	11084
866.348	11067.05
866.668	10972.59
866.989	11062.31
867.309	10955.64
867.63	10938.7
867.95	10979.15
868.27	10867.28
868.59	10966.27
868.91	10849.21
869.23	10854.18
869.55	10820.05
869.87	10881.07
870.19	10825.48
870.51	10772.15
870.83	10831.58
871.15	10721.53
871.469	10698.93
871.789	10750.45
872.109	10731.92
872.428	10719.04
872.748	10663.67
873.067	10679.72
873.386	10660.74
873.706	10654.18
874.025	10616.67
874.344	10597.46
874.663	10564.69
874.982	10626.61
875.301	10579.83
875.62	10498.26
875.939	10458.71
876.258	10518.14
876.577	10423.91
876.896	10474.07
877.214	10423
877.533	10472.04
877.852	10404.02
878.17	10395.66
878.489	10346.39
878.807	10407.18
879.125	10367.64
879.444	10370.57
879.762	10293.97
880.08	10317.24
880.398	10237.47
880.716	10292.61
881.034	10220.52
881.352	10207.19
881.67	10141.2
881.988	10166.96
882.306	10156.12
882.624	10132.16
882.941	10092.16
883.259	10037.93
883.577	9989.57
883.894	10066.63
884.212	10026.18
884.529	10022.56
884.846	9919.74
885.164	9995.9
885.481	9897.14
885.798	9858.72
886.115	9793.64
886.432	9797.48
886.75	9805.62
887.067	9837.26
887.383	9804.71
887.7	9786.86
888.017	9677.94
888.334	9748.9
888.651	9722.68
888.967	9720.2
889.284	9634.55
889.6	9484.04
889.917	9514.1
890.233	9474.78
890.55	9514.55
890.866	9528.56
891.182	9426.64
891.498	9385.97
891.815	9347.55
892.131	9375.57
892.447	9387.55
892.763	9253.54
893.079	9263.26
893.395	9253.77
893.71	9264.16
894.026	9186.88
894.342	9235.01
894.657	9126.77
894.973	9103.26
895.289	9039.08
895.604	9112.08
895.92	8986.66
896.235	8973.78
896.55	8952.53
896.865	8981.91
897.181	8916.15
897.496	8893.55
897.811	8820.56
898.126	8786.89
898.441	8811.29
898.756	8723.16
899.071	8658.3
899.386	8703.27
899.7	8608.14
900.015	8539.66
900.33	8536.72
900.644	8595.71
900.959	8558.87
901.273	8526.56
901.588	8473.9
901.902	8430.96
902.216	8358.88
902.531	8355.26
902.845	8287.24
903.159	8326.79
903.473	8227.13
903.787	8282.95
904.101	8258.09
904.415	8184.87
904.729	8171.54
905.042	8127.7
905.356	8171.54
905.67	8068.26
905.984	8063.74
906.297	8030.98
906.611	7920.47
906.924	7952.56
907.237	7924.09
907.551	7915.95
907.864	7832.79
908.177	7857.19
908.491	7805.22
908.804	7712.34
909.117	7690.19
909.43	7656.52
909.743	7621.49
910.056	7642.74
910.368	7541.72
910.681	7541.72
910.994	7496.3
911.307	7516.86
911.619	7419.69
911.932	7497.43
912.244	7356.87
912.557	7338.34
912.869	7300.82
913.181	7296.08
913.494	7296.08
913.806	7198
914.118	7179.7
914.43	7155.07
914.742	7189.42
915.054	7155.07
915.366	7109.42
915.678	7066.25
915.99	7076.65
916.302	7019.93
916.613	6983.77
916.925	6970.21
917.236	6846.83
917.548	6884.56
917.859	6871.68
918.171	6805.7
918.482	6782.19
918.794	6772.03
919.105	6783.55
919.416	6686.38
919.727	6672.82
920.038	6673.5
920.349	6687.51
920.66	6563.22
920.971	6617.45
921.282	6634.4
921.593	6520.96
921.903	6551.01
922.214	6532.71
922.525	6480.51
922.835	6451.58
923.146	6384.01
923.456	6383.79
923.767	6396.89
924.077	6327.97
924.387	6298.82
924.697	6269.21
925.008	6212.72
925.318	6204.81
925.628	6206.62
925.938	6181.98
926.248	6135.88
926.558	6127.52
926.867	6139.27
927.177	6067.86
927.487	6075.09
927.796	6004.36
928.106	6025.83
928.416	6022.67
928.725	6010.69
929.034	5943.8
929.344	5923.69
929.653	5857.02
929.962	5853.41
930.271	5850.69
930.581	5774.76
930.89	5763.46
931.199	5795.55
931.508	5724.37
931.817	5737.25
932.125	5716.46
932.434	5684.6
932.743	5680.75
933.051	5644.82
933.36	5567.76
933.669	5561.21
933.977	5538.16
934.286	5520.31
934.594	5530.48
934.902	5475.56
935.21	5452.06
935.519	5462
935.827	5407.54
936.135	5350.37
936.443	5367.54
936.751	5345.85
937.059	5335.23
937.367	5320.99
937.674	5335
937.982	5268.11
938.29	5252.07
938.597	5269.47
938.905	5217.49
939.213	5101.79
939.52	5143.82
939.827	5145.85
940.135	5085.74
940.442	5093.88
940.749	5095.91
941.056	5121.67
941.363	5024.95
941.67	5014.78
941.977	5003.26
942.284	4969.59
942.591	4893.2
942.898	4964.84
943.205	4933.66
943.511	4902.7
943.818	4891.4
944.125	4803.49
944.431	4816.14
944.738	4833.55
945.044	4777.5
945.35	4726.66
945.657	4708.58
945.963	4700.22
946.269	4691.85
946.575	4737.73
946.881	4643.72
947.187	4655.92
947.493	4603.95
947.799	4594.46
948.105	4541.58
948.41	4528.47
948.716	4544.51
949.022	4519.88
949.327	4506.55
949.633	4455.48
949.938	4453.44
950.244	4473.1
950.549	4399.21
950.854	4419.32
951.16	4370.28
951.465	4348.36
951.77	4333.67
952.075	4329.38
952.38	4355.82
952.685	4307.68
952.99	4244.41
953.294	4302.03
953.599	4258.87
953.904	4191.75
954.209	4204.64
954.513	4200.12
954.818	4156.73
955.122	4171.64
955.426	4101.36
955.731	4129.61
956.035	4113.56
956.339	4053.68
956.643	4078.99
956.948	4038.76
957.252	4041.7
957.556	4011.42
957.86	3978.88
958.163	3961.25
958.467	3999.22
958.771	3928.71
959.075	3941.37
959.378	3913.34
959.682	3911.31
959.985	3862.95
960.289	3793.35
960.592	3828.37
960.896	3831.99
961.199	3786.57
961.502	3827.92
961.805	3773.01
962.108	3754.7
962.411	3716.06
962.714	3740.24
963.017	3691.88
963.32	3721.03
963.623	3658.43
963.926	3695.04
964.228	3653.01
964.531	3630.41
964.833	3614.82
965.136	3592.67
965.438	3591.77
965.741	3562.84
966.043	3538.89
966.345	3504.77
966.648	3499.34
966.95	3492.11
967.252	3461.83
967.554	3442.85
967.856	3483.75
968.158	3419.57
968.46	3395.84
968.761	3425.22
969.063	3400.36
969.365	3387.71
969.666	3375.73
969.968	3317.43
970.269	3309.29
970.571	3347.26
970.872	3329.4
971.174	3274.94
971.475	3256.19
971.776	3243.08
972.077	3236.75
972.378	3256.86
972.679	3214.38
972.98	3173.02
973.281	3193.81
973.582	3170.76
973.883	3184.55
974.183	3162.4
974.484	3116.98
974.785	3118.79
975.085	3145.23
975.386	3102.07
975.686	3109.3
975.986	3129.41
976.287	3046.02
976.587	3069.52
976.887	3043.31
977.187	3023.2
977.487	3001.73
977.787	2977.55
978.087	2940.71
978.387	2959.47
978.687	2951.11
978.987	2943.43
979.286	2912.24
979.586	2980.26
979.885	2927.61
980.185	2933.93
980.484	2862.52
980.784	2844.9
981.083	2823.43
981.382	2851.22
981.682	2837.89
981.981	2810.32
982.28	2810.32
982.579	2783.66
982.878	2793.15
983.177	2771.45
983.475	2774.39
983.774	2685.35
984.073	2746.14
984.372	2725.58
984.67	2727.84
984.969	2728.74
985.267	2706.6
985.566	2676.09
985.864	2663.21
986.162	2651.91
986.461	2630.44
986.759	2615.98
987.057	2594.06
987.355	2594.28
987.653	2594.96
987.951	2578.46
988.249	2557.9
988.547	2559.48
988.844	2522.19
989.142	2513.38
989.44	2507.5
989.737	2513.38
990.035	2508.18
990.332	2478.8
990.63	2483.55
990.927	2464.12
991.224	2461.86
991.521	2432.25
991.819	2439.71
992.116	2434.51
992.413	2402.2
992.71	2393.61
993.006	2378.24
993.303	2357.23
993.6	2385.02
993.897	2350.22
994.193	2326.94
994.49	2310.67
994.787	2305.7
995.083	2316.55
995.379	2271.8
995.676	2294.4
995.972	2268.87
996.268	2270.9
996.565	2252.37
996.861	2226.16
997.157	2208.3
997.453	2226.61
997.749	2209.43
998.044	2184.12
998.34	2184.8
998.636	2148.42
998.932	2168.76
999.227	2112.49
999.523	2145.71
999.818	2165.14
1000.114	2135.99
1000.409	2111.58
1000.704	2104.35
1001	2061.19
1001.295	2069.78
1001.59	2041.08
1001.885	2098.02
1002.18	2027.97
1002.475	1993.85
1002.77	2022.09
1003.065	1958.37
1003.359	1991.13
1003.654	1978.48
1003.949	1984.58
1004.243	1912.72
1004.538	1916.11
1004.832	1940.51
1005.127	1911.36
1005.421	1908.65
1005.715	1931.7
1006.009	1907.75
1006.304	1873.4
1006.598	1877.92
1006.892	1852.38
1007.186	1868.2
1007.48	1855.09
1007.773	1809.9
1008.067	1812.38
1008.361	1794.98
1008.655	1815.77
1008.948	1808.99
1009.242	1801.53
1009.535	1726.96
1009.829	1752.72
1010.122	1753.4
1010.415	1750.46
1010.708	1710.46
1011.001	1731.48
1011.295	1686.06
1011.588	1719.28
1011.881	1695.1
1012.173	1679.28
1012.466	1643.8
1012.759	1658.26
1013.052	1638.37
1013.344	1635.44
1013.637	1639.5
1013.93	1600.18
1014.222	1635.21
1014.514	1625.95
1014.807	1605.38
1015.099	1604.48
1015.391	1553.63
1015.683	1567.64
1015.976	1566.74
1016.268	1545.5
1016.56	1537.81
1016.851	1523.12
1017.143	1497.59
1017.435	1498.49
1017.727	1492.16
1018.018	1485.38
1018.31	1481.77
1018.602	1490.13
1018.893	1463.92
1019.185	1464.14
1019.476	1436.57
1019.767	1424.82
1020.058	1402.67
1020.35	1387.31
1020.641	1405.84
1020.932	1399.29
1021.223	1380.98
1021.514	1349.12
1021.804	1355.44
1022.095	1374.2
1022.386	1349.8
1022.677	1346.41
1022.967	1332.39
1023.258	1334.43
1023.548	1319.29
1023.839	1314.32
1024.129	1307.76
1024.419	1300.76
1024.709	1284.94
1025	1275.22
1025.29	1254.43
1025.58	1232.06
1025.87	1248.1
1026.16	1217.37
1026.449	1245.17
1026.739	1215.79
1027.029	1201.32
1027.319	1216.01
1027.608	1224.83
1027.898	1178.5
1028.187	1161.55
1028.477	1185.96
1028.766	1171.72
1029.055	1156.58
1029.344	1126.52
1029.634	1139.86
1029.923	1112.74
1030.212	1136.24
1030.501	1125.39
1030.79	1100.08
1031.078	1113.64
1031.367	1105.51
1031.656	1114.32
1031.945	1113.19
1032.233	1094.21
1032.522	1091.04
1032.81	1049.46
1033.099	1083.14
1033.387	1073.64
1033.675	1060.09
1033.963	1015.57
1034.251	1030.71
1034.54	1027.54
1034.828	992.52
1035.116	1014.66
1035.403	990.26
1035.691	1001.33
1035.979	1019.41
1036.267	989.8
1036.554	989.13
1036.842	963.14
1037.129	969.01
1037.417	961.78
1037.704	982.57
1037.992	953.42
1038.279	970.82
1038.566	920.2
1038.853	920.2
1039.14	920.2
