Data from hue_28_FLMS001491_00084.txt Node
Date: Tue Feb 07 17:17:55 GMT 2017
User: dcchb
Spectrometer: FLMS00149
Trigger mode: 0
Integration Time (sec): 2.000000E-2
Scans to average: 10
Electric dark correction enabled: true
Nonlinearity correction enabled: false
Boxcar width: 0
XAxis mode: Wavelengths
Number of Pixels in Spectrum: 2048
>>>>>Begin Spectral Data<<<<<
341.393	-11
341.776	-11
342.16	-11
342.543	-52.13
342.927	-55.97
343.31	-74.05
343.693	-67.05
344.077	-83.77
344.46	-63.88
344.843	-44
345.226	-40.38
345.61	-21.62
345.993	-18.91
346.376	-15.3
346.759	37.81
347.142	19.73
347.525	68.32
347.908	50.46
348.291	56.57
348.674	81.88
349.057	114.19
349.44	126.85
349.823	129.56
350.206	146.06
350.588	188.99
350.971	202.33
351.354	231.25
351.737	226.28
352.119	227.18
352.502	248.65
352.884	264.02
353.267	289.55
353.65	296.33
354.032	301.53
354.414	293.85
354.797	300.18
355.179	313.28
355.562	316.9
355.944	341.53
356.326	331.14
356.709	326.39
357.091	336.11
357.473	347.86
357.855	331.81
358.238	346.28
358.62	333.17
359.002	336.78
359.384	344.24
359.766	332.27
360.148	323.68
360.53	336.11
360.912	322.32
361.294	320.51
361.676	329.33
362.057	338.14
362.439	320.74
362.821	318.25
363.203	330.46
363.584	323
363.966	313.96
364.348	315.09
364.729	306.5
365.111	321.64
365.493	332.94
365.874	324.81
366.256	302.66
366.637	306.5
367.019	299.72
367.4	299.5
367.781	320.97
368.163	318.03
368.544	312.6
368.925	309.89
369.306	309.89
369.688	304.92
370.069	331.14
370.45	303.57
370.831	345.37
371.212	324.13
371.593	344.24
371.974	283.68
372.355	306.05
372.736	331.14
373.117	305.15
373.498	331.14
373.879	278.93
374.26	292.49
374.641	314.41
375.021	311.93
375.402	323.68
375.783	331.59
376.163	337.46
376.544	324.13
376.925	316.67
377.305	322.77
377.686	314.86
378.066	332.49
378.447	325.71
378.827	332.04
379.208	331.81
379.588	309.67
379.968	326.16
380.349	346.73
380.729	327.97
381.109	333.85
381.489	327.29
381.87	346.73
382.25	366.16
382.63	324.81
383.01	335.2
383.39	341.08
383.77	335.66
384.15	323
384.53	342.66
384.91	351.93
385.29	340.63
385.67	328.65
386.049	338.14
386.429	367.74
386.809	344.47
387.189	346.95
387.568	353.51
387.948	352.6
388.328	332.49
388.707	327.97
389.087	369.33
389.466	352.38
389.846	371.81
390.225	361.19
390.605	371.59
390.984	326.84
391.363	350.8
391.743	368.42
392.122	361.87
392.501	371.81
392.881	377.91
393.26	362.32
393.639	359.16
394.018	383.11
394.397	395.99
394.776	379.04
395.155	347.86
395.534	376.11
395.913	385.15
396.292	373.17
396.671	389.44
397.05	404.13
397.429	384.92
397.808	415.65
398.186	370.46
398.565	369.1
398.944	375.2
399.323	392.83
399.701	393.96
400.08	381.76
400.458	407.74
400.837	410.91
401.215	401.19
401.594	379.95
401.972	404.81
402.351	395.54
402.729	392.83
403.107	412.94
403.486	401.19
403.864	409.78
404.242	419.04
404.62	400.29
404.999	427.63
405.377	409.78
405.755	407.97
406.133	415.2
406.511	426.73
406.889	415.65
407.267	427.18
407.645	449.32
408.023	442.77
408.401	422.66
408.779	426.5
409.156	460.62
409.534	445.03
409.912	442.54
410.29	448.42
410.667	451.13
411.045	472.37
411.422	448.19
411.8	453.84
412.178	449.78
412.555	449.32
412.933	463.56
413.31	465.6
413.687	466.95
414.065	465.82
414.442	482.77
414.819	493.16
415.197	466.73
415.574	504.01
415.951	515.99
416.328	488.87
416.705	466.27
417.082	504.92
417.46	517.12
417.837	513.96
418.214	502.66
418.591	513.28
418.967	514.41
419.344	510.57
419.721	513.96
420.098	518.25
420.475	544.01
420.852	541.07
421.228	527.51
421.605	506.95
421.982	533.16
422.358	551.24
422.735	549.43
423.111	539.04
423.488	526.84
423.864	507.85
424.241	543.79
424.617	537.68
424.994	567.29
425.37	553.28
425.746	563.22
426.123	557.8
426.499	570.23
426.875	568.64
427.251	584.24
427.627	582.65
428.003	597.57
428.379	621.98
428.756	598.7
429.132	607.29
429.507	612.03
429.883	602.77
430.259	617
430.635	628.75
431.011	614.07
431.387	609.09
431.763	642.09
432.138	640.73
432.514	654.52
432.89	637.57
433.265	678.47
433.641	683.67
434.016	665.82
434.392	665.14
434.767	696.1
435.143	665.14
435.518	695.65
435.894	708.3
436.269	693.16
436.644	705.59
437.02	691.58
437.395	717.79
437.77	719.83
438.145	729.77
438.52	739.49
438.895	715.31
439.271	710.33
439.646	742.65
440.021	736.77
440.395	747.4
440.77	759.82
441.145	734.74
441.52	767.06
441.895	759.37
442.27	792.37
442.645	776.1
443.019	775.64
443.394	777.45
443.769	775.19
444.143	763.67
444.518	774.51
444.892	818.81
445.267	821.97
445.641	781.97
446.016	808.64
446.39	814.96
446.764	821.07
447.139	815.64
447.513	830.11
447.887	819.26
448.262	828.07
448.636	842.76
449.01	858.13
449.384	852.48
449.758	859.26
450.132	859.94
450.506	871.91
450.88	880.73
451.254	868.07
451.628	873.49
452.002	875.75
452.376	907.62
452.75	909.88
453.123	892.7
453.497	889.31
453.871	940.16
454.244	935.64
454.618	958.24
454.992	962.76
455.365	967.73
455.739	960.05
456.112	980.61
456.486	980.38
456.859	1016.32
457.232	989.65
457.606	1014.06
457.979	1008.41
458.352	1033.49
458.725	1035.75
459.099	1054.51
459.472	1045.69
459.845	1114.62
460.218	1100.38
460.591	1096.54
460.964	1089.76
461.337	1111.91
461.71	1146.71
462.083	1132.02
462.456	1148.74
462.829	1159.81
463.201	1164.56
463.574	1161.4
463.947	1188.97
464.32	1206.37
464.692	1249.53
465.065	1212.24
465.438	1249.98
465.81	1255.18
466.183	1266.48
466.555	1273.03
466.928	1337.66
467.3	1301.96
467.672	1326.36
468.045	1364.55
468.417	1337.89
468.789	1383.09
469.161	1376.53
469.534	1419.69
469.906	1440.71
470.278	1463.53
470.65	1470.31
471.022	1499.01
471.394	1488.17
471.766	1541.95
472.138	1534.49
472.51	1604.55
472.882	1604.77
473.253	1641.16
473.625	1665.11
473.997	1689.07
474.369	1701.95
474.74	1724.09
475.112	1777.2
475.484	1790.76
475.855	1809.51
476.227	1823.75
476.598	1910.08
476.97	1923.64
477.341	1934.48
477.713	1945.1
478.084	2014.48
478.455	2059.23
478.827	2075.27
479.198	2110.98
479.569	2183.06
479.94	2220.13
480.311	2223.74
480.682	2294.7
481.053	2350.52
481.424	2415.6
481.795	2446.79
482.166	2458.31
482.537	2477.29
482.908	2566.33
483.279	2634.35
483.65	2671.19
484.021	2708.47
484.391	2797.51
484.762	2769.04
485.133	2833.89
485.503	2846.32
485.874	2950.5
486.244	3011.29
486.615	3078.63
486.985	3109.37
487.356	3149.82
487.726	3211.51
488.097	3274.56
488.467	3279.98
488.837	3375.58
489.207	3426.42
489.578	3477.04
489.948	3516.36
490.318	3568.79
490.688	3592.74
491.058	3658.28
491.428	3765.4
491.798	3820.31
492.168	3886.07
492.538	3895.79
492.908	3939.4
493.278	3982.79
493.648	4046.29
494.017	4096.69
494.387	4137.81
494.757	4227.08
495.126	4237.25
495.496	4291.48
495.866	4301.65
496.235	4383.23
496.605	4433.17
496.974	4442.67
497.344	4530.8
497.713	4550.69
498.082	4620.97
498.452	4609.44
498.821	4667.74
499.19	4716.56
499.559	4714.3
499.928	4762.43
500.298	4797.01
500.667	4878.59
501.036	4858.25
501.405	4901.41
501.774	4924.01
502.143	4937.57
502.512	5041.07
502.88	5093.95
503.249	5052.37
503.618	5112.03
503.987	5128.75
504.356	5150.44
504.724	5231.57
505.093	5206.94
505.462	5238.35
505.83	5265.69
506.199	5292.13
506.567	5404.9
506.936	5361.06
507.304	5488.29
507.672	5431.11
508.041	5472.47
508.409	5485.8
508.777	5555.63
509.145	5648.51
509.514	5583.43
509.882	5673.14
510.25	5673.14
510.618	5685.57
510.986	5726.7
511.354	5740.26
511.722	5769.18
512.09	5828.39
512.458	5832.91
512.826	5935.73
513.193	5891.67
513.561	5902.29
513.929	5933.02
514.297	5997.2
514.664	6013.02
515.032	6065.22
515.4	6035.84
515.767	6068.39
516.135	6130.53
516.502	6120.59
516.869	6206.91
517.237	6206.46
517.604	6216.18
517.972	6269.51
518.339	6303.63
518.706	6356.74
519.073	6293.24
519.44	6324.42
519.808	6385.67
520.175	6348.6
520.542	6445.78
520.909	6538.2
521.276	6462.05
521.643	6491.2
522.009	6608.03
522.376	6615.49
522.743	6572.78
523.11	6661.59
523.477	6743.4
523.843	6756.96
524.21	6868.14
524.577	6841.47
524.943	6920.11
525.31	6926.67
525.676	6993.33
526.043	6994.69
526.409	7033.78
526.776	7144.06
527.142	7131.63
527.508	7119.21
527.874	7167.57
528.241	7226.1
528.607	7280.78
528.973	7280.33
529.339	7314
529.705	7385.64
530.071	7380.22
530.437	7436.26
530.803	7515.35
531.169	7548.8
531.535	7509.25
531.901	7617.05
532.267	7587.44
532.632	7653.88
532.998	7743.82
533.364	7718.29
533.73	7728
534.095	7745.18
534.461	7836.47
534.826	7836.7
535.192	7946.3
535.557	7947.21
535.923	7951.73
536.288	7982.46
536.653	8086.19
537.019	8039.63
537.384	8085.28
537.749	8092.29
538.114	8118.95
538.479	8190.14
538.845	8220.19
539.21	8185.84
539.575	8243.47
539.94	8279.4
540.305	8350.59
540.67	8358.49
541.034	8365.5
541.399	8443.69
541.764	8411.37
542.129	8455.67
542.494	8548.09
542.858	8557.13
543.223	8579.51
543.587	8585.38
543.952	8667.87
544.316	8701.99
544.681	8698.15
545.045	8707.19
545.41	8768.65
545.774	8841.87
546.138	8805.71
546.503	8879.61
546.867	8852.95
547.231	8854.75
547.595	8953.73
547.959	9074.41
548.324	8968.42
548.688	9022.66
549.052	9004.13
549.416	9132.26
549.779	9120.51
550.143	9161.41
550.507	9230.79
550.871	9277.11
551.235	9247.96
551.599	9260.39
551.962	9292.71
552.326	9335.64
552.689	9377.9
553.053	9369.54
553.417	9427.62
553.78	9589.2
554.143	9478.01
554.507	9561.4
554.87	9606.6
555.234	9642.3
555.597	9609.99
555.96	9642.98
556.323	9693.38
556.686	9669.42
557.05	9762.53
557.413	9789.19
557.776	9811.79
558.139	9837.78
558.502	9879.36
558.865	9876.87
559.228	9916.19
559.59	10051.33
559.953	10064.44
560.316	10088.17
560.679	10091.33
561.041	10135.62
561.404	10130.43
561.767	10280.03
562.129	10278.44
562.492	10383.75
562.854	10320.7
563.217	10270.08
563.579	10408.38
563.941	10378.55
564.304	10458.78
564.666	10549.85
565.028	10541.71
565.39	10541.04
565.753	10570.87
566.115	10648.83
566.477	10630.3
566.839	10681.6
567.201	10820.13
567.563	10753.69
567.925	10851.99
568.287	10855.38
568.648	10948.94
569.01	10987.35
569.372	11001.82
569.734	10980.57
570.095	11164.75
570.457	11068.71
570.819	11121.36
571.18	11215.14
571.542	11308.25
571.903	11292.2
572.265	11338.08
572.626	11418.75
572.987	11440.9
573.349	11457.17
573.71	11583.49
574.071	11644.74
574.432	11720.44
574.794	11872.98
575.155	11792.08
575.516	11862.58
575.877	11956.59
576.238	12024.84
576.599	12089.92
576.96	12119.07
577.32	12303.7
577.681	12356.13
578.042	12418.73
578.403	12508.89
578.763	12677.25
579.124	12780.75
579.485	12861.88
579.845	12992.5
580.206	13113.17
580.566	13202.89
580.927	13265.03
581.287	13448.3
581.648	13573.05
582.008	13688.52
582.368	13887.62
582.728	13992.92
583.089	14146.82
583.449	14274.05
583.809	14536.86
584.169	14666.58
584.529	14790.87
584.889	15168.49
585.249	15180.46
585.609	15459.78
585.969	15711.97
586.329	15781.12
586.688	16022.7
587.048	16266.54
587.408	16562.12
587.768	16653.19
588.127	16984.93
588.487	17112.39
588.846	17574.52
589.206	17588.31
589.565	17916.21
589.925	18238.91
590.284	18381.28
590.643	18762.74
591.003	18983.3
591.362	19364.31
591.721	19550.29
592.08	19823.05
592.44	20189.37
592.799	20541
593.158	20577.38
593.517	20912.29
593.876	21244.26
594.235	21548.2
594.593	21855.32
594.952	22196.78
595.311	22439.03
595.67	22750.43
596.029	23250.08
596.387	23464.76
596.746	23765.32
597.104	23907.92
597.463	24195.59
597.822	24648.69
598.18	24869.47
598.538	25064.5
598.897	25589.68
599.255	25576.12
599.613	26281.41
599.972	26400.51
600.33	26782.19
600.688	26825.81
601.046	27319.35
601.404	27594.37
601.762	27812.9
602.12	28271.64
602.478	28554.8
602.836	28736.04
603.194	28782.82
603.552	29216.03
603.91	29363.82
604.268	29866.4
604.625	29951.83
604.983	30255.55
605.341	30525.14
605.698	30866.15
606.056	31097.56
606.413	31295.07
606.771	31624.78
607.128	31832.45
607.485	31862.28
607.843	32299.11
608.2	32651.87
608.557	32952.88
608.914	33005.08
609.272	33384.73
609.629	33567.32
609.986	33952.85
610.343	33912.63
610.7	34328.66
611.057	34349.68
611.414	34578.82
611.771	34873.05
612.127	35162.08
612.484	35236.88
612.841	35523.88
613.198	35503.32
613.554	35746.7
613.911	36103.75
614.267	36248.16
614.624	36474.14
614.98	36628.03
615.337	36974.69
615.693	36902.83
616.05	36930.4
616.406	37451.06
616.762	37485.86
617.118	37552.98
617.475	37757.72
617.831	37865.52
618.187	38037.26
618.543	38164.04
618.899	38465.73
619.255	38583.24
619.611	38732.16
619.967	38719.5
620.323	39050.57
620.678	38973.74
621.034	39031.13
621.39	39085.82
621.746	39281.52
622.101	39669.76
622.457	39380.28
622.812	39644
623.168	39882.41
623.523	39807.84
623.879	39893.94
624.234	39806.26
624.589	40167.38
624.945	40155.4
625.3	40258.9
625.655	40326.02
626.01	40422.51
626.365	40613.92
626.72	40508.16
627.075	40610.75
627.43	40735.95
627.785	40600.58
628.14	40741.82
628.495	40940.46
628.85	40910.18
629.205	40843.52
629.559	41162.15
629.914	40983.63
630.269	41083.28
630.623	41027.47
630.978	41013.68
631.332	41187.46
631.687	41289.61
632.041	41154.69
632.396	41359.89
632.75	41296.61
633.104	41379.32
633.459	41207.35
633.813	41238.53
634.167	41228.37
634.521	41292.32
634.875	41267.69
635.229	41304.52
635.583	41075.6
635.937	41297.74
636.291	41205.31
636.645	41314.92
636.999	41172.55
637.352	41310.62
637.706	41159.67
638.06	41339.55
638.413	41235.37
638.767	41204.86
639.121	41322.37
639.474	41073.11
639.828	41146.33
640.181	41284.86
640.534	41201.25
640.888	41130.51
641.241	41023.62
641.594	41036.28
641.947	41174.36
642.301	41096.62
642.654	41168.25
643.007	41245.99
643.36	41232.88
643.713	41040.8
644.066	41208.03
644.419	40982.5
644.771	40692.11
645.124	40456.18
645.477	40284.66
645.83	40003.99
646.182	40027.94
646.535	39979.81
646.888	40112.24
647.24	39771.91
647.593	39928.96
647.945	39967.16
648.298	39835.86
648.65	39834.28
649.002	39769.19
649.355	39964.9
649.707	39836.09
650.059	40040.6
650.411	40605.33
650.763	40496.18
651.115	40935.04
651.467	40692.11
651.819	40867.02
652.171	40654.59
652.523	40656.63
652.875	40553.58
653.227	40447.14
653.578	40812.56
653.93	40602.84
654.282	40433.36
654.633	40408.95
654.985	40443.3
655.337	40523.75
655.688	40508.16
656.039	40737.98
656.391	40314.94
656.742	40373.02
657.094	40383.64
657.445	40596.74
657.796	40442.85
658.147	40432.68
658.498	40391.32
658.849	40519.91
659.2	40385.22
659.551	40268.84
659.902	40568.04
660.253	40364.66
660.604	40526.01
660.955	40325.56
661.306	40434.94
661.656	40244.21
662.007	40520.14
662.358	40395.62
662.708	40417.31
663.059	40356.75
663.409	40068.17
663.76	40464.77
664.11	40369.86
664.461	40439.91
664.811	40391.1
665.161	40427.93
665.511	40209.63
665.862	40328.05
666.212	40469.97
666.562	40387.71
666.912	40313.36
667.262	40214.38
667.612	40259.35
667.962	40167.6
668.312	40163.31
668.662	40443.75
669.011	40293.7
669.361	40309.07
669.711	40131.9
670.06	40217.09
670.41	39994.73
670.76	40097.1
671.109	40178.45
671.459	40113.14
671.808	40128.06
672.157	40256.64
672.507	39750.21
672.856	39951.11
673.205	39995.4
673.554	40111.11
673.904	39948.17
674.253	40195.85
674.602	40010.77
674.951	39529.43
675.3	39328.53
675.649	39905.01
675.998	39844.22
676.346	39882.19
676.695	40072.01
677.044	39838.12
677.393	39818.91
677.741	39956.08
678.09	39724.22
678.438	39595.64
678.787	39755.41
679.135	39735.3
679.484	39552.93
679.832	39680.61
680.181	39227.74
680.529	39488.3
680.877	39430.22
681.225	39485.13
681.573	39507.73
681.922	39405.59
682.27	39362.88
682.618	39262.32
682.966	39093.51
683.314	39314.07
683.661	39152.04
684.009	38929.89
684.357	38956.33
684.705	38812.61
685.053	38989.1
685.4	38789.11
685.748	38742.33
686.095	38668.66
686.443	38416.01
686.79	38428.89
687.138	38486.29
687.485	38490.81
687.832	38353.19
688.18	38499.62
688.527	38147.54
688.874	38107.09
689.221	38182.34
689.568	37972.86
689.915	37862.13
690.262	37950.94
690.609	37816.48
690.956	37609.7
691.303	37677.95
691.65	37420.33
691.997	37483.38
692.344	37309.6
692.69	37356.15
693.037	37259.88
693.383	37065.76
693.73	37085.42
694.077	36820.35
694.423	36863.28
694.769	36886.78
695.116	36746.68
695.462	36744.42
695.808	36596.62
696.155	36838.88
696.501	36243.64
696.847	36266.01
697.193	36093.58
697.539	36167.48
697.885	35938.33
698.231	35856.53
698.577	35928.62
698.923	35852.46
699.269	35681.39
699.614	35526.82
699.96	35468.29
700.306	35528.85
700.651	35280.05
700.997	35078.47
701.342	35098.13
701.688	35089.32
702.033	34905.14
702.379	34900.85
702.724	34900.62
703.069	35013.16
703.415	34459.5
703.76	34670.12
704.105	34565.26
704.45	34638.26
704.795	34332.5
705.14	34061.55
705.485	34146.74
705.83	34061.55
706.175	34235.1
706.52	33933.87
706.865	33799.41
707.209	33761.22
707.554	33626.08
707.899	33683.7
708.243	33686.64
708.588	33521.9
708.932	33326.88
709.277	33370.72
709.621	33277.39
709.966	33097.96
710.31	33252.53
710.654	33005.98
710.998	33056.83
711.342	32989.71
711.687	32785.42
712.031	32641.92
712.375	32680.12
712.719	32688.48
713.063	32504.98
713.407	32716.5
713.75	32491.19
714.094	32426.11
714.438	32320.35
714.782	32326.9
715.125	32135.04
715.469	32231.77
715.812	32057.31
716.156	31878.55
716.499	32022.28
716.843	32027.03
717.186	31712.01
717.53	31952.22
717.873	31781.38
718.216	31649.86
718.559	31677.66
718.902	31374.61
719.246	31566.92
719.589	31384.78
719.932	31288.97
720.275	31375.97
720.617	31202.64
720.96	31169.87
721.303	31142.75
721.646	31146.82
721.989	30980.05
722.331	31063.21
722.674	30985.7
723.016	31088.29
723.359	30839.49
723.701	31065.02
724.044	30784.35
724.386	30589.77
724.729	30860.28
725.071	30643.11
725.413	30547.06
725.755	30590.45
726.097	30496.9
726.439	30413.96
726.782	30335.54
727.124	30571.7
727.465	30348.2
727.807	30379.84
728.149	30290.12
728.491	30183.68
728.833	30148.66
729.175	30118.6
729.516	30062.78
729.858	30032.05
730.199	30128.09
730.541	30027.76
730.882	29895.1
731.224	29973.52
731.565	29916.57
731.906	29904.37
732.248	29865.73
732.589	29719.52
732.93	29669.35
733.271	29642.91
733.612	29649.01
733.953	29647.65
734.294	29523.14
734.635	29525.62
734.976	29531.05
735.317	29428.68
735.658	29390.26
735.999	29392.52
736.339	29225.52
736.68	29352.52
737.021	29211.05
737.361	29172.41
737.702	29224.84
738.042	29141.45
738.383	29115.92
738.723	29168.8
739.063	28902.59
739.404	28968.8
739.744	29033.43
740.084	28756.15
740.424	28824.4
740.764	28870.95
741.104	28868.69
741.444	28727.22
741.784	28559.55
742.124	28686.55
742.464	28632.31
742.804	28554.12
743.143	28536.27
743.483	28561.13
743.823	28274.58
744.162	28425.54
744.502	28496.04
744.841	28354.58
745.181	28361.36
745.52	28265.77
745.86	28283.85
746.199	28241.36
746.538	28173.34
746.877	28159.33
747.216	28288.59
747.556	28135.15
747.895	28129.5
748.234	27946.91
748.573	28000.01
748.911	27804.76
749.25	27968.37
749.589	27857.19
749.928	27849.96
750.267	27939
750.605	27748.95
750.944	27727.25
751.283	27667.59
751.621	27763.63
751.96	27580.59
752.298	27505.11
752.636	27540.36
752.975	27518.9
753.313	27475.51
753.651	27589.4
753.989	27334.49
754.327	27339.46
754.666	27060.15
755.004	27204.33
755.342	27281.84
755.679	27205.46
756.017	27071.68
756.355	27124.78
756.693	27023.09
757.031	27078.91
757.368	26879.14
757.706	26833.04
758.044	26807.05
758.381	26777.22
758.719	26643.89
759.056	26699.48
759.394	26595.08
759.731	26359.6
760.068	26395.99
760.405	26305.82
760.743	26174.75
761.08	26307.63
761.417	26066.96
761.754	25944.47
762.091	25956.22
762.428	25965.72
762.765	25789.67
763.102	25811.82
763.438	25717.81
763.775	25635.55
764.112	25640.98
764.449	25628.55
764.785	25595.78
765.122	25270.82
765.458	25309.69
765.795	25177.71
766.131	25279.86
766.467	25093.87
766.804	25007.1
767.14	24876.48
767.476	24820.21
767.812	24797.38
768.148	24855.24
768.485	24670.16
768.821	24511.06
769.157	24491.18
769.492	24397.62
769.828	24389.26
770.164	24202.82
770.5	24100.68
770.836	24133.22
771.171	24030.4
771.507	24000.57
771.842	23746.34
772.178	23807.13
772.513	23640.8
772.849	23654.59
773.184	23431.09
773.519	23623.63
773.855	23429.51
774.19	23284.43
774.525	23208.95
774.86	23213.47
775.195	23097.54
775.53	23079.01
775.865	22889.19
776.2	22797.21
776.535	22666.14
776.87	22686.25
777.205	22578.46
777.539	22419.14
777.874	22550.21
778.209	22287.39
778.543	22233.61
778.878	22168.08
779.212	22081.98
779.547	21969.44
779.881	21999.27
780.215	21884.47
780.55	21953.62
780.884	21623.68
781.218	21742.1
781.552	21711.14
781.886	21557.02
782.22	21523.35
782.554	21242.45
782.888	21272.28
783.222	21101.44
783.556	21112.74
783.889	20922.01
784.223	20769.47
784.557	20769.02
784.89	20757.49
785.224	20539.42
785.557	20502.81
785.891	20499.42
786.224	20527.44
786.558	20456.03
786.891	20282.93
787.224	20161.35
787.557	20195.47
787.891	20173.78
788.224	20096.49
788.557	19971.75
788.89	19996.38
789.223	20014.01
789.556	19828.48
789.888	19726.78
790.221	19643.17
790.554	19520.91
790.887	19497.64
791.219	19477.3
791.552	19432.33
791.884	19383.06
792.217	19315.49
792.549	19259.9
792.882	19010.42
793.214	19004.09
793.546	19012
793.879	18794.6
794.211	18846.35
794.543	18847.71
794.875	18673.93
795.207	18773.36
795.539	18649.98
795.871	18544.89
796.203	18480.04
796.535	18394.16
796.867	18356.42
797.198	18311.45
797.53	18266.26
797.862	18207.5
798.193	18126.83
798.525	18120.5
798.856	18172.02
799.188	17899.26
799.519	17812.71
799.85	17789.89
800.182	17806.16
800.513	17775.2
800.844	17618.59
801.175	17698.14
801.506	17659.04
801.837	17593.73
802.168	17560.51
802.499	17425.6
802.83	17399.39
803.161	17252.95
803.491	17387.41
803.822	17339.05
804.153	17231.03
804.483	17074.2
804.814	16970.25
805.145	17046.85
805.475	17044.59
805.805	16893.64
806.136	16903.58
806.466	16955.11
806.796	16844.6
807.126	16656.81
807.457	16730.25
807.787	16620.42
808.117	16558.51
808.447	16491.16
808.777	16564.38
809.107	16404.39
809.436	16301.11
809.766	16365.74
810.096	16359.19
810.426	16208.01
810.755	16181.34
811.085	16186.31
811.414	16227.89
811.744	16062.25
812.073	16073.55
812.403	16040.78
812.732	15965.3
813.061	15927.34
813.39	15860.67
813.719	15778.41
814.049	15904.29
814.378	15798.3
814.707	15783.16
815.036	15700.67
815.365	15572.09
815.693	15552.88
816.022	15541.13
816.351	15440.34
816.68	15432.89
817.008	15461.36
817.337	15307.92
817.665	15242.38
817.994	15306.56
818.322	15297.75
818.651	15268.14
818.979	15126
819.307	15187.47
819.636	15148.37
819.964	15100.24
820.292	15140.46
820.62	15098.43
820.948	15066.79
821.276	15081.48
821.604	15021.82
821.932	15041.48
822.259	15054.59
822.587	14965.55
822.915	14872
823.243	14983.41
823.57	14974.59
823.898	15041.03
824.225	14969.62
824.553	14873.58
824.88	14964.65
825.207	14985.44
825.535	14904.54
825.862	14993.8
826.189	14842.62
826.516	14969.85
826.843	14924.2
827.17	14968.04
827.497	14935.95
827.824	14933.01
828.151	14951.32
828.478	14889.62
828.805	14937.53
829.131	14872.22
829.458	14859.34
829.785	14853.47
830.111	14869.06
830.438	14918.1
830.764	14828.83
831.09	14952.22
831.417	14733.24
831.743	14910.86
832.069	14911.54
832.395	14795.39
832.722	14802.39
833.048	14754.94
833.374	14834.71
833.7	14745.45
834.026	14742.06
834.351	14740.47
834.677	14787.7
835.003	14747.71
835.329	14741.6
835.654	14641.95
835.98	14695.05
836.306	14620.93
836.631	14629.97
836.956	14668.84
837.282	14626.8
837.607	14559.01
837.932	14482.85
838.258	14496.19
838.583	14540.48
838.908	14406.47
839.233	14476.3
839.558	14416.87
839.883	14399.92
840.208	14301.16
840.533	14324.89
840.858	14288.28
841.182	14258.68
841.507	14279.02
841.832	14168.29
842.156	14190.43
842.481	14183.2
842.805	14114.95
843.13	14091
843.454	14099.81
843.778	14046.25
844.103	13949.76
844.427	13951.57
844.751	13943.88
845.075	13920.16
845.399	13805.58
845.723	13702.08
846.047	13787.5
846.371	13684.46
846.695	13664.8
847.019	13597
847.343	13526.49
847.666	13373.73
847.99	13325.6
848.313	13399.27
848.637	13251.25
848.96	13277.46
849.284	13227.07
849.607	13107.3
849.931	13126.28
850.254	13012.38
850.577	12945.72
850.9	12804.93
851.223	12830.02
851.546	12782.79
851.869	12735.55
852.192	12808.77
852.515	12660.3
852.838	12630.02
853.161	12676.8
853.483	12571.72
853.806	12422.79
854.129	12451.27
854.451	12502.34
854.774	12388.67
855.096	12342.8
855.419	12361.33
855.741	12298.73
856.063	12208.11
856.385	12200.2
856.708	12156.14
857.03	12140.77
857.352	12108
857.674	12042.24
857.996	11910.94
858.318	11880.44
858.64	11908.91
858.961	11883.15
859.283	11905.07
859.605	11787.11
859.926	11837.95
860.248	11799.31
860.57	11744.17
860.891	11799.08
861.212	11596.38
861.534	11603.38
861.855	11653.1
862.176	11571.52
862.498	11598.18
862.819	11562.48
863.14	11520.45
863.461	11426.21
863.782	11503.04
864.103	11444.97
864.424	11397.06
864.745	11391.64
865.065	11335.37
865.386	11321.81
865.707	11355.48
866.027	11254.01
866.348	11247.68
866.668	11312.77
866.989	11292.2
867.309	11212.21
867.63	11207.69
867.95	11160.68
868.27	11157.07
868.59	11201.58
868.91	11076.16
869.23	11128.59
869.55	11046.56
869.87	11111.19
870.19	11011.53
870.51	11039.78
870.83	11077.29
871.15	10964.53
871.469	10996.39
871.789	10997.3
872.109	10989.16
872.428	10957.07
872.748	10918.43
873.067	10864.64
873.386	10950.07
873.706	10890.63
874.025	10792.1
874.344	10744.19
874.663	10840.46
874.982	10759.34
875.301	10783.74
875.62	10746.45
875.939	10759.79
876.258	10691.54
876.577	10688.83
876.896	10736.51
877.214	10611.09
877.533	10625.55
877.852	10566.8
878.17	10629.62
878.489	10645.89
878.807	10576.74
879.125	10644.76
879.444	10535.61
879.762	10532.68
880.08	10411.55
880.398	10485.67
880.716	10498.78
881.034	10468.04
881.352	10508.27
881.67	10347.14
881.988	10380.81
882.306	10336.97
882.624	10339.91
882.941	10320.93
883.259	10191.67
883.577	10230.31
883.894	10180.59
884.212	10285.22
884.529	10160.03
884.846	10167.49
885.164	10218.78
885.481	10179.46
885.798	10106.25
886.115	10001.16
886.432	10040.26
886.75	10076.64
887.067	10028.96
887.383	9998.9
887.7	9957.55
888.017	9979.7
888.334	9947.61
888.651	9863.31
888.967	9866.7
889.284	9784.9
889.6	9871.68
889.917	9761.62
890.233	9837.55
890.55	9785.12
890.866	9659.48
891.182	9606.82
891.498	9698.35
891.815	9608.18
892.131	9568.41
892.447	9570.67
892.763	9459.71
893.079	9461.52
893.395	9462.65
893.71	9394.63
894.026	9438.01
894.342	9371.12
894.657	9301.97
894.973	9335.64
895.289	9328.19
895.604	9256.78
895.92	9185.14
896.235	9186.04
896.55	9236.89
896.865	9101.75
897.181	9165.93
897.496	9108.98
897.811	9047.74
898.126	9035.31
898.441	9058.59
898.756	8958.48
899.071	8959.16
899.386	8897.46
899.7	8844.58
900.015	8806.17
900.33	8751.25
900.644	8713.29
900.959	8753.96
901.273	8669.22
901.588	8701.08
901.902	8597.36
902.216	8569.56
902.531	8579.96
902.845	8488.21
903.159	8518.26
903.473	8424.93
903.787	8443.69
904.101	8445.5
904.415	8400.53
904.729	8342
905.042	8313.75
905.356	8324.37
905.67	8273.3
905.984	8274.66
906.297	8222.23
906.611	8172.74
906.924	8162.57
907.237	8159.86
907.551	8072.17
907.864	8055.45
908.177	8034.66
908.491	7997.83
908.804	7964.61
909.117	7906.76
909.43	7910.6
909.743	7868.79
910.056	7831.28
910.368	7817.49
910.681	7806.87
910.994	7739.75
911.307	7793.54
911.619	7663.37
911.932	7630.15
912.244	7582.7
912.557	7611.85
912.869	7553.77
913.181	7482.59
913.494	7424.96
913.806	7422.93
914.118	7422.93
914.43	7345.41
914.742	7402.14
915.054	7316.71
915.366	7340.44
915.678	7234.91
915.99	7284.62
916.302	7228.58
916.613	7161.69
916.925	7208.69
917.236	7180.67
917.548	7088.92
917.859	7129.83
918.171	7080.34
918.482	6972.99
918.794	6972.99
919.105	6997.4
919.416	6949.27
919.727	6907.23
920.038	6859.1
920.349	6802.6
920.66	6817.97
920.971	6801.93
921.282	6799.21
921.593	6720.57
921.903	6688.93
922.214	6636.05
922.525	6652.78
922.835	6591.31
923.146	6595.15
923.456	6507.7
923.767	6550.18
924.077	6448.49
924.387	6549.28
924.697	6380.92
925.008	6390.64
925.318	6400.81
925.628	6328.27
925.938	6355.16
926.248	6280.58
926.558	6308.15
926.867	6297.98
927.177	6211.88
927.487	6163.52
927.796	6135.05
928.106	6108.84
928.416	6078.1
928.725	6131.66
929.034	6063.87
929.344	6059.35
929.653	6049.86
929.962	5947.48
930.271	5925.11
930.581	5909.29
930.89	5913.14
931.199	5893.47
931.508	5889.63
931.817	5856.41
932.125	5830.43
932.434	5860.71
932.743	5746.36
933.051	5691.9
933.36	5658.23
933.669	5683.99
933.977	5681.96
934.286	5621.39
934.594	5606.25
934.902	5523.32
935.21	5582.52
935.519	5495.97
935.827	5501.39
936.135	5508.17
936.443	5426.59
936.751	5439.48
937.059	5404.45
937.367	5405.35
937.674	5444.22
937.982	5336.65
938.29	5318.8
938.597	5306.15
938.905	5306.15
939.213	5242.64
939.52	5217.56
939.827	5234.28
940.135	5189.76
940.442	5135.98
940.749	5145.92
941.056	5150.22
941.363	5114.29
941.67	5088.98
941.977	5065.93
942.284	5010.79
942.591	4992.93
942.898	5042.65
943.205	4968.53
943.511	5016.66
943.818	4924.23
944.125	4910.45
944.431	4874.97
944.738	4852.15
945.044	4881.3
945.35	4877.23
945.657	4786.84
945.963	4815.76
946.269	4740.51
946.575	4777.57
946.881	4707.97
947.187	4672.04
947.493	4663
947.799	4676.11
948.105	4626.16
948.41	4655.99
948.716	4606.05
949.022	4593.62
949.327	4565.37
949.633	4557.24
949.938	4526.51
950.244	4487.18
950.549	4532.15
950.854	4445.6
951.16	4410.8
951.465	4428.88
951.77	4385.04
952.075	4370.8
952.38	4386.85
952.685	4326.96
952.99	4322.22
953.294	4293.29
953.599	4281.99
953.904	4281.99
954.209	4229.11
954.513	4224.59
954.818	4228.21
955.122	4195.21
955.426	4157.02
955.731	4170.58
956.035	4128.32
956.339	4101.43
956.643	4094.43
956.948	4081.09
957.252	4067.76
957.556	4054.43
957.86	4054.43
958.163	4007.2
958.467	3978.05
958.771	3990.47
959.075	3983.47
959.378	3956.58
959.682	3930.81
959.985	3868.22
960.289	3897.37
960.592	3860.53
960.896	3836.58
961.199	3851.49
961.502	3831.16
961.805	3791.84
962.108	3815.11
962.411	3753.64
962.714	3767.88
963.017	3798.16
963.32	3771.27
963.623	3724.72
963.926	3724.27
964.228	3697.6
964.531	3618.28
964.833	3639.52
965.136	3604.27
965.438	3621.22
965.741	3626.19
966.043	3595
966.345	3576.7
966.648	3566.3
966.95	3521.56
967.252	3562.46
967.554	3533.76
967.856	3473.43
968.158	3474.1
968.46	3461.9
968.761	3433.65
969.063	3369.02
969.365	3408.57
969.666	3423.71
969.968	3364.28
970.269	3383.48
970.571	3361.34
970.872	3360.66
971.174	3341.45
971.475	3289.93
971.776	3358.63
972.077	3273.66
972.378	3246.09
972.679	3265.52
972.98	3284.05
973.281	3256.48
973.582	3203.6
973.883	3199.53
974.183	3196.6
974.484	3207.67
974.785	3157.95
975.085	3141.91
975.386	3150.5
975.686	3107.79
975.986	3129.71
976.287	3070.05
976.587	3074.34
976.887	3034.12
977.187	3065.53
977.487	3008.13
977.787	3012.19
978.087	2982.82
978.387	2994.34
978.687	3006.77
978.987	2986.88
979.286	2980.56
979.586	2924.06
979.885	2901.46
980.185	2921.35
980.484	2929.49
980.784	2906.21
981.083	2882.48
981.382	2862.14
981.682	2876.15
981.981	2840.67
982.28	2843.16
982.579	2820.56
982.878	2792.99
983.177	2760.9
983.475	2767.91
983.774	2759.55
984.073	2752.09
984.372	2752.54
984.67	2756.83
984.969	2743.95
985.267	2683.62
985.566	2703.5
985.864	2655.37
986.162	2685.88
986.461	2691.75
986.759	2675.48
987.057	2610.85
987.355	2605.65
987.653	2619.89
987.951	2618.08
988.249	2585.31
988.547	2602.04
988.844	2567.46
989.142	2525.43
989.44	2539.21
989.737	2556.16
990.035	2518.87
990.332	2518.65
990.63	2488.59
990.927	2499.21
991.224	2482.94
991.521	2446.79
991.819	2454.7
992.116	2409.27
992.413	2384.87
992.71	2367.69
993.006	2444.53
993.303	2406.79
993.6	2392.55
993.897	2340.35
994.193	2351.42
994.49	2321.14
994.787	2329.73
995.083	2294.25
995.379	2317.52
995.676	2303.74
995.972	2308.94
996.268	2280.91
996.565	2290.63
996.861	2282.95
997.157	2240.01
997.453	2222.39
997.749	2238.43
998.044	2226.45
998.34	2202.5
998.636	2181.93
998.932	2185.55
999.227	2166.34
999.523	2147.58
999.818	2157.75
1000.114	2143.52
1000.409	2128.83
1000.704	2098.55
1001	2093.8
1001.295	2088.15
1001.59	2093.57
1001.885	2071.2
1002.18	2050.19
1002.475	2024.42
1002.77	2043.63
1003.065	2061.26
1003.359	2008.61
1003.654	2001.37
1003.949	2004.31
1004.243	1979.68
1004.538	1970.87
1004.832	1941.04
1005.127	1954.6
1005.421	1934.03
1005.715	1933.81
1006.009	1949.62
1006.304	1900.13
1006.598	1897.87
1006.892	1909.17
1007.186	1890.42
1007.48	1879.57
1007.773	1865.11
1008.067	1842.96
1008.361	1824.43
1008.655	1818.55
1008.948	1801.38
1009.242	1792.34
1009.535	1779.91
1009.829	1779.23
1010.122	1795.73
1010.415	1776.07
1010.708	1739.01
1011.001	1729.74
1011.295	1742.17
1011.588	1712.12
1011.881	1741.04
1012.173	1696.07
1012.466	1700.14
1012.759	1694.26
1013.052	1703.08
1013.344	1627.15
1013.637	1652.46
1013.93	1638.9
1014.222	1643.42
1014.514	1631.44
1014.807	1614.72
1015.099	1616.98
1015.391	1616.07
1015.683	1569.97
1015.976	1601.38
1016.268	1573.59
1016.56	1561.61
1016.851	1546.7
1017.143	1561.39
1017.435	1534.27
1017.727	1524.78
1018.018	1489.75
1018.31	1485.46
1018.602	1513.93
1018.893	1478.45
1019.185	1474.83
1019.476	1482.52
1019.767	1458.56
1020.058	1433.71
1020.35	1418.11
1020.641	1440.71
1020.932	1434.61
1021.223	1425.12
1021.514	1415.17
1021.804	1384.22
1022.095	1382.41
1022.386	1381.28
1022.677	1371.56
1022.967	1381.73
1023.258	1341.73
1023.548	1334.95
1023.839	1341.5
1024.129	1344.67
1024.419	1305.8
1024.709	1288.85
1025	1284.78
1025.29	1299.25
1025.58	1291.34
1025.87	1278.23
1026.16	1269.87
1026.449	1238.23
1026.739	1256.53
1027.029	1252.47
1027.319	1222.41
1027.608	1243.43
1027.898	1190.55
1028.187	1193.71
1028.477	1198.23
1028.766	1212.47
1029.055	1179.02
1029.344	1202.75
1029.634	1188.29
1029.923	1154.16
1030.212	1129.31
1030.501	1149.42
1030.79	1135.86
1031.078	1138.57
1031.367	1137.67
1031.656	1099.7
1031.945	1087.05
1032.233	1120.49
1032.522	1105.35
1032.81	1086.14
1033.099	1071.45
1033.387	1104.22
1033.675	1075.97
1033.963	1096.31
1034.251	1055.18
1034.54	1067.16
1034.828	1046.6
1035.116	1039.14
1035.403	1021.06
1035.691	1026.71
1035.979	1005.69
1036.267	1005.47
1036.554	1004.34
1036.842	1033.49
1037.129	983.55
1037.417	1003.43
1037.704	985.58
1037.992	975.64
1038.279	951.23
1038.566	960.72
1038.853	960.72
1039.14	960.72
