Data from hue_240_FLMS001491_00048.txt Node
Date: Tue Feb 07 16:35:32 GMT 2017
User: dcchb
Spectrometer: FLMS00149
Trigger mode: 0
Integration Time (sec): 2.000000E-2
Scans to average: 10
Electric dark correction enabled: true
Nonlinearity correction enabled: false
Boxcar width: 0
XAxis mode: Wavelengths
Number of Pixels in Spectrum: 2048
>>>>>Begin Spectral Data<<<<<
341.393	-14.08
341.776	-14.08
342.16	-14.08
342.543	-69.45
342.927	-68.77
343.31	-50.92
343.693	-79.62
344.077	-68.77
344.46	-68.09
344.843	-44.14
345.226	-40.3
345.61	-21.09
345.993	-29.45
346.376	-15.21
346.759	-11.6
347.142	35.18
347.525	62.53
347.908	57.78
348.291	62.98
348.674	93.26
349.057	117.44
349.44	109.53
349.823	138.68
350.206	155.18
350.588	192.92
350.971	206.93
351.354	204.67
351.737	224.33
352.119	232.69
352.502	250.54
352.884	265.01
353.267	259.36
353.65	284.89
354.032	307.49
354.414	296.42
354.797	286.02
355.179	315.18
355.562	302.52
355.944	300.26
356.326	330.32
356.709	328.06
357.091	321.5
357.473	318.34
357.855	335.97
358.238	330.77
358.62	311.79
359.002	335.74
359.384	330.54
359.766	323.99
360.148	319.47
360.53	327.83
360.912	312.69
361.294	314.27
361.676	312.01
362.057	311.11
362.439	337.77
362.821	318.34
363.203	313.14
363.584	328.28
363.966	298.23
364.348	306.36
364.729	312.24
365.111	300.49
365.493	291.22
365.874	307.72
366.256	292.35
366.637	281.5
367.019	318.57
367.4	298.68
367.781	305.01
368.163	297.55
368.544	308.4
368.925	280.83
369.306	312.46
369.688	288.28
370.069	293.03
370.45	300.03
370.831	287.15
371.212	296.64
371.593	301.39
371.974	299.36
372.355	275.63
372.736	285.8
373.117	314.05
373.498	298
373.879	298.23
374.26	309.75
374.641	296.19
375.021	308.17
375.402	314.27
375.783	308.4
376.163	316.53
376.544	291.45
376.925	293.71
377.305	319.47
377.686	327.38
378.066	302.75
378.447	314.72
378.827	330.32
379.208	320.37
379.588	317.89
379.968	302.97
380.349	308.85
380.729	319.47
381.109	311.33
381.489	322.18
381.87	331.22
382.25	310.43
382.63	318.57
383.01	325.57
383.39	331.9
383.77	333.71
384.15	325.12
384.53	322.18
384.91	323.99
385.29	347.49
385.67	353.82
386.049	332.12
386.429	330.09
386.809	335.74
387.189	343.42
387.568	344.1
387.948	336.42
388.328	333.03
388.707	330.77
389.087	352.91
389.466	350.2
389.846	346.13
390.225	346.36
390.605	350.43
390.984	369.41
391.363	344.33
391.743	361.05
392.122	347.94
392.501	370.32
392.881	381.84
393.26	344.78
393.639	352.01
394.018	359.47
394.397	378.45
394.776	377.77
395.155	358.56
395.534	373.93
395.913	375.74
396.292	358.34
396.671	363.99
397.05	380.03
397.429	374.61
397.808	369.41
398.186	381.61
398.565	400.82
398.944	387.26
399.323	377.77
399.701	392.69
400.08	392.24
400.458	402.18
400.837	410.31
401.215	367.15
401.594	407.38
401.972	403.08
402.351	414.38
402.729	374.16
403.107	429.97
403.486	425
403.864	408.28
404.242	412.57
404.62	415.29
404.999	420.48
405.377	428.39
405.755	433.14
406.133	429.52
406.511	427.94
406.889	423.65
407.267	455.06
407.645	458.67
408.023	475.17
408.401	467.94
408.779	476.08
409.156	459.8
409.534	460.93
409.912	461.39
410.29	487.37
410.667	481.27
411.045	496.64
411.422	477.2
411.8	487.15
412.178	503.87
412.555	515.17
412.933	510.65
413.31	507.71
413.687	519.92
414.065	545
414.442	551.55
414.819	546.58
415.197	558.33
415.574	540.03
415.951	564.21
416.328	571.89
416.705	576.64
417.082	577.99
417.46	592.23
417.837	614.6
418.214	590.2
418.591	600.37
418.967	606.69
419.344	616.64
419.721	609.63
420.098	628.84
420.475	647.37
420.852	625.68
421.228	652.34
421.605	678.33
421.982	656.64
422.358	681.27
422.735	663.19
423.111	697.09
423.488	696.86
423.864	722.17
424.241	723.3
424.617	706.13
424.994	736.86
425.37	742.96
425.746	754.03
426.123	750.87
426.499	787.93
426.875	787.48
427.251	795.39
427.627	809.4
428.003	823.86
428.379	799.68
428.756	820.47
429.132	841.49
429.507	852.56
429.883	830.19
430.259	868.16
430.635	864.77
431.011	882.17
431.387	919.68
431.763	889.85
432.138	939.57
432.514	929.85
432.89	934.14
433.265	949.51
433.641	948.15
434.016	960.13
434.392	996.74
434.767	1015.5
435.143	1015.72
435.518	1024.99
435.894	1023.63
436.269	1068.83
436.644	1072.44
437.02	1096.4
437.395	1066.34
437.77	1091.2
438.145	1136.17
438.52	1140.46
438.895	1194.25
439.271	1173.01
439.646	1202.38
440.021	1198.09
440.395	1238.54
440.77	1203.06
441.145	1230.41
441.52	1241.25
441.895	1244.64
442.27	1274.92
442.645	1276.28
443.019	1316.28
443.394	1286.9
443.769	1312.89
444.143	1308.14
444.518	1338.2
444.892	1335.26
445.267	1366.9
445.641	1326.9
446.016	1383.4
446.39	1386.33
446.764	1366.9
447.139	1399.89
447.513	1415.03
447.887	1396.73
448.262	1407.8
448.636	1437.41
449.01	1433.56
449.384	1449.83
449.758	1489.38
450.132	1464.07
450.506	1479.66
450.88	1481.47
451.254	1503.62
451.628	1526.22
452.002	1527.8
452.376	1549.49
452.75	1541.13
453.123	1559.21
453.497	1597.4
453.871	1594.69
454.244	1614.8
454.618	1623.62
454.992	1658.64
455.365	1668.13
455.739	1700.68
456.112	1733.44
456.486	1715.59
456.859	1708.81
457.232	1780.22
457.606	1754.69
457.979	1773.22
458.352	1815.02
458.725	1830.62
459.099	1862.48
459.472	1866.55
459.845	1878.98
460.218	1895.92
460.591	1899.54
460.964	1891.18
461.337	1964.17
461.71	2014.57
462.083	1996.26
462.456	1998.29
462.829	2028.12
463.201	2073.55
463.574	2072.87
463.947	2089.82
464.32	2138.63
464.692	2178.18
465.065	2161
465.438	2202.81
465.81	2222.24
466.183	2260.66
466.555	2273.09
466.928	2295.24
467.3	2256.14
467.672	2311.51
468.045	2371.17
468.417	2348.57
468.789	2387.89
469.161	2417.27
469.534	2420.88
469.906	2526.87
470.278	2535.46
470.65	2544.04
471.022	2547.43
471.394	2632.85
471.766	2646.41
472.138	2692.74
472.51	2719.18
472.882	2776.13
473.253	2767.77
473.625	2830.36
473.997	2883.92
474.369	2847.31
474.74	2920.98
475.112	2986.97
475.484	2982.68
475.855	3034.2
476.227	3057.25
476.598	3125.27
476.97	3133.63
477.341	3198.72
477.713	3247.53
478.084	3249.11
478.455	3353.51
478.827	3379.73
479.198	3469.67
479.569	3448.43
479.94	3566.39
480.311	3596.22
480.682	3601.87
481.053	3714.41
481.424	3791.69
481.795	3793.5
482.166	3844.8
482.537	3872.14
482.908	3937.45
483.279	3979.26
483.65	4064
484.021	4077.11
484.391	4168.86
484.762	4167.5
485.133	4229.65
485.503	4255.86
485.874	4334.73
486.244	4337.89
486.615	4455.41
486.985	4496.08
487.356	4532.92
487.726	4595.74
488.097	4723.2
488.467	4693.37
488.837	4798
489.207	4808.84
489.578	4878.9
489.948	4874.15
490.318	4932.23
490.688	4977.65
491.058	5003.19
491.428	5106.69
491.798	5131.55
492.168	5172.45
492.538	5238.66
492.908	5255.61
493.278	5319.11
493.648	5314.14
494.017	5381.71
494.387	5413.12
494.757	5458.77
495.126	5532.67
495.496	5543.29
495.866	5539.22
496.235	5592.1
496.605	5659.67
496.974	5671.19
497.344	5720.91
497.713	5776.5
498.082	5774.24
498.452	5810.17
498.821	5861.02
499.19	5842.04
499.559	5885.2
499.928	5964.07
500.298	5939.66
500.667	6035.25
501.036	6007
501.405	6032.31
501.774	6046.1
502.143	6131.07
502.512	6150.5
502.88	6159.54
503.249	6162.25
503.618	6155.02
503.987	6207.9
504.356	6264.17
504.724	6233.89
505.093	6303.72
505.462	6281.12
505.83	6349.59
506.199	6311.85
506.567	6358.63
506.936	6378.29
507.304	6466.43
507.672	6483.6
508.041	6399.99
508.409	6544.62
508.777	6480.44
509.145	6563.15
509.514	6598.4
509.882	6630.04
510.25	6582.81
510.618	6653.31
510.986	6630.04
511.354	6637.27
511.722	6727.21
512.09	6701
512.458	6703.93
512.826	6753.65
513.193	6834.78
513.561	6799.75
513.929	6842.01
514.297	6845.63
514.664	6903.7
515.032	6885.62
515.4	6940.54
515.767	6955.23
516.135	6930.14
516.502	6862.35
516.869	6978.95
517.237	6995.23
517.604	7010.14
517.972	7003.81
518.339	7055.56
518.706	7074.09
519.073	7075.68
519.44	7107.99
519.808	7132.4
520.175	7142.57
520.542	7156.8
520.909	7191.15
521.276	7158.84
521.643	7251.04
522.009	7279.74
522.376	7228.44
522.743	7281.32
523.11	7317.25
523.477	7318.38
523.843	7309.34
524.21	7358.38
524.577	7409.68
524.943	7453.29
525.31	7445.38
525.676	7512.73
526.043	7515.89
526.409	7429.34
526.776	7552.73
527.142	7486.06
527.508	7531.71
527.874	7581.42
528.241	7584.59
528.607	7635.21
528.973	7600.41
529.339	7644.7
529.705	7641.31
530.071	7685.38
530.437	7707.98
530.803	7634.3
531.169	7743.23
531.535	7682.67
531.901	7679.05
532.267	7729.22
532.632	7734.19
532.998	7729.44
533.364	7747.52
533.73	7698.03
534.095	7773.74
534.461	7768.31
534.826	7808.09
535.192	7766.73
535.557	7727.64
535.923	7723.12
536.288	7867.52
536.653	7799.27
537.019	7744.58
537.384	7719.27
537.749	7760.18
538.114	7750.01
538.479	7721.53
538.845	7683.34
539.21	7676.79
539.575	7694.87
539.94	7729.67
540.305	7743.68
540.67	7694.42
541.034	7749.78
541.399	7691.48
541.764	7703.46
542.129	7650.58
542.494	7685.83
542.858	7724.47
543.223	7657.58
543.587	7759.5
543.952	7704.36
544.316	7669.11
544.681	7604.25
545.045	7667.98
545.41	7688.09
545.774	7659.84
546.138	7627.07
546.503	7647.86
546.867	7598.15
547.231	7680.86
547.595	7656.45
547.959	7632.27
548.324	7668.2
548.688	7612.61
549.052	7606.06
549.416	7582.55
549.779	7624.36
550.143	7545.04
550.507	7642.21
550.871	7633.63
551.235	7642.67
551.599	7614.87
551.962	7597.02
552.326	7570.35
552.689	7638.6
553.053	7582.1
553.417	7604.93
553.78	7600.86
554.143	7517.47
554.507	7584.59
554.87	7550.01
555.234	7600.41
555.597	7599.96
555.96	7632.72
556.323	7635.21
556.686	7558.83
557.05	7662.33
557.413	7556.34
557.776	7625.72
558.139	7595.44
558.502	7623.91
558.865	7648.54
559.228	7674.53
559.59	7606.51
559.953	7620.29
560.316	7730.12
560.679	7707.75
561.041	7743.68
561.404	7783.68
561.767	7762.89
562.129	7792.04
562.492	7810.12
562.854	7752.04
563.217	7798.14
563.579	7767.18
563.941	7881.08
564.304	7855.77
564.666	7853.51
565.028	7846.5
565.39	7896.22
565.753	7895.99
566.115	7922.66
566.477	8000.17
566.839	7908.42
567.201	8005.37
567.563	8013.28
567.925	8055.31
568.287	8027.97
568.648	8008.98
569.01	8047.85
569.372	8102.32
569.734	8061.41
570.095	8051.47
570.457	8056.21
570.819	8101.64
571.18	8121.3
571.542	8102.09
571.903	8144.8
572.265	8189.54
572.626	8266.15
572.987	8203.56
573.349	8273.61
573.71	8258.47
574.071	8252.37
574.432	8302.76
574.794	8365.36
575.155	8347.96
575.516	8308.19
575.877	8393.61
576.238	8366.94
576.599	8426.37
576.96	8390.22
577.32	8359.03
577.681	8502.08
578.042	8491.68
578.403	8508.41
578.763	8478.58
579.124	8540.72
579.485	8529.42
579.845	8547.95
580.206	8501.17
580.566	8534.17
580.927	8566.71
581.287	8634.05
581.648	8568.52
582.008	8645.35
582.368	8633.37
582.728	8663.66
583.089	8680.83
583.449	8658.91
583.809	8693.03
584.169	8680.61
584.529	8695.75
584.889	8722.41
585.249	8698.91
585.609	8692.58
585.969	8756.31
586.329	8734.61
586.688	8751.11
587.048	8749.98
587.408	8711.11
587.768	8736.87
588.127	8795.18
588.487	8810.55
588.846	8850.77
589.206	8759.25
589.565	8822.52
589.925	8830.66
590.284	8862.52
590.643	8851.22
591.003	8913.59
591.362	8888.28
591.721	8857.32
592.08	8804.67
592.44	8906.81
592.799	8951.78
593.158	8879.7
593.517	8958.56
593.876	8917.44
594.235	8869.98
594.593	8947.94
594.952	8929.19
595.311	8907.49
595.67	8918.56
596.029	8984.33
596.387	8989.75
596.746	8981.16
597.104	8989.07
597.463	8977.77
597.822	9021.16
598.18	8955.63
598.538	8961.05
598.897	9053.25
599.255	8960.37
599.613	9038.79
599.972	9058.45
600.33	9061.16
600.688	9040.82
601.046	9146.58
601.404	9099.8
601.762	9119.92
602.12	9042.86
602.478	9140.03
602.836	9157.88
603.194	9075.62
603.552	9101.84
603.91	9034.04
604.268	9020.48
604.625	9090.31
604.983	9074.95
605.341	9103.42
605.698	9140.93
606.056	9185.45
606.413	9123.08
606.771	9153.81
607.128	9174.38
607.485	9143.87
607.843	9115.17
608.2	9184.09
608.557	9192.91
608.914	9175.06
609.272	9235.39
609.629	9199.46
609.986	9234.04
610.343	9157.88
610.7	9245.11
611.057	9227.26
611.414	9251.66
611.771	9250.99
612.127	9269.06
612.484	9234.49
612.841	9236.3
613.198	9284.21
613.554	9282.62
613.911	9304.54
614.267	9328.95
614.624	9347.03
614.98	9311.32
615.337	9378.44
615.693	9369.17
616.05	9304.09
616.406	9373.24
616.762	9343.86
617.118	9374.15
617.475	9393.13
617.831	9393.58
618.187	9397.2
618.543	9333.7
618.899	9441.72
619.255	9404.88
619.611	9390.64
619.967	9531.88
620.323	9486.46
620.678	9460.47
621.034	9434.26
621.39	9419.79
621.746	9403.3
622.101	9507.7
622.457	9522.84
622.812	9476.97
623.168	9440.13
623.523	9467.03
623.879	9472.45
624.234	9444.65
624.589	9469.74
624.945	9466.57
625.3	9468.38
625.655	9394.71
626.01	9388.38
626.365	9436.07
626.72	9398.1
627.075	9446.69
627.43	9451.66
627.785	9391.32
628.14	9508.38
628.495	9479
628.85	9438.1
629.205	9411.66
629.559	9385.45
629.914	9361.49
630.269	9423.18
630.623	9379.34
630.978	9340.7
631.332	9389.06
631.687	9413.69
632.041	9328.27
632.396	9352.23
632.75	9354.03
633.104	9378.67
633.459	9287.14
633.813	9243.75
634.167	9220.93
634.521	9314.49
634.875	9308.39
635.229	9294.15
635.583	9147.94
635.937	9204.66
636.291	9134.15
636.645	9214.6
636.999	9158.33
637.352	9183.64
637.706	9111.55
638.06	9185.68
638.413	9187.48
638.767	9157.43
639.121	9135.51
639.474	9089.63
639.828	9087.15
640.181	9122.4
640.534	9110.42
640.888	9044.66
641.241	9059.8
641.594	9074.27
641.947	9036.75
642.301	9034.72
642.654	9051.22
643.007	9113.14
643.36	9065.91
643.713	8966.47
644.066	9085.11
644.419	8983.65
644.771	8969.19
645.124	8909.07
645.477	8836.53
645.83	8782.52
646.182	8759.02
646.535	8742.3
646.888	8782.75
647.24	8661.85
647.593	8725.12
647.945	8707.72
648.298	8606.93
648.65	8615.07
649.002	8604
649.355	8669.31
649.707	8751.34
650.059	8763.09
650.411	8800.83
650.763	8825.23
651.115	8929.19
651.467	8843.54
651.819	8852.8
652.171	8894.84
652.523	8873.59
652.875	8802.86
653.227	8811
653.578	8848.28
653.93	8883.09
654.282	8886.02
654.633	8762.18
654.985	8864.56
655.337	8875.4
655.688	8858.68
656.039	8871.11
656.391	8807.38
656.742	8782.98
657.094	8873.59
657.445	8821.84
657.796	8868.17
658.147	8850.54
658.498	8834.95
658.849	8825.91
659.2	8837.21
659.551	8776.42
659.902	8826.14
660.253	8810.55
660.604	8880.15
660.955	8826.36
661.306	8862.75
661.656	8832.24
662.007	8779.13
662.358	8845.8
662.708	8856.87
663.059	8852.13
663.409	8776.65
663.76	8927.6
664.11	8882.41
664.461	8891.45
664.811	8886.48
665.161	8875.85
665.511	8864.33
665.862	8839.7
666.212	8873.59
666.562	8834.95
666.912	8831.34
667.262	8801.05
667.612	8825.91
667.962	8855.52
668.312	8834.05
668.662	8822.3
669.011	8845.35
669.361	8797.66
669.711	8821.84
670.06	8809.64
670.41	8822.75
670.76	8761.73
671.109	8782.75
671.459	8809.64
671.808	8756.08
672.157	8855.06
672.507	8720.83
672.856	8761.28
673.205	8776.42
673.554	8797.44
673.904	8730.32
674.253	8807.16
674.602	8706.14
674.951	8585.01
675.3	8651.23
675.649	8690.32
675.998	8706.37
676.346	8698.68
676.695	8675.41
677.044	8641.96
677.393	8654.39
677.741	8670.66
678.09	8603.09
678.438	8628.18
678.787	8646.93
679.135	8646.71
679.484	8599.48
679.832	8611.91
680.181	8525.81
680.529	8637.89
680.877	8596.09
681.225	8539.37
681.573	8564.22
681.922	8512.47
682.27	8524.23
682.618	8497.79
682.966	8477.67
683.314	8505.69
683.661	8494.17
684.009	8480.84
684.357	8498.01
684.705	8389.77
685.053	8368.3
685.4	8320.16
685.748	8324.91
686.095	8394.96
686.443	8260.5
686.79	8251.46
687.138	8296.21
687.485	8301.63
687.832	8308.86
688.18	8230.9
688.527	8206.95
688.874	8214.63
689.221	8157.68
689.568	8140.96
689.915	8174.18
690.262	8168.08
690.609	8101.19
690.956	8071.81
691.303	8034.29
691.65	8047.4
691.997	8010.79
692.344	7980.51
692.69	7914.07
693.037	7986.16
693.383	7884.02
693.73	7879.72
694.077	7857.12
694.423	7865.03
694.769	7791.36
695.116	7789.33
695.462	7760.4
695.808	7673.85
696.155	7746.17
696.501	7692.83
696.847	7651.48
697.193	7566.96
697.539	7628.66
697.885	7546.62
698.231	7565.61
698.577	7485.38
698.923	7502.78
699.269	7489.22
699.614	7440.41
699.96	7395.22
700.306	7416.91
700.651	7402.22
700.997	7333.52
701.342	7346.4
701.688	7314.09
702.033	7321.09
702.379	7272.51
702.724	7231.15
703.069	7276.57
703.415	7208.1
703.76	7223.69
704.105	7197.03
704.45	7107.99
704.795	7116.13
705.14	7086.07
705.485	7100.53
705.83	7094.21
706.175	7011.5
706.52	6997.03
706.865	6973.08
707.209	6948.45
707.554	6927.43
707.899	6967.2
708.243	6933.98
708.588	6941.67
708.932	6849.24
709.277	6917.94
709.621	6862.12
709.966	6839.52
710.31	6834.1
710.654	6745.51
710.998	6773.54
711.342	6811.05
711.687	6720.88
712.031	6713.88
712.375	6708.23
712.719	6715.69
713.063	6703.48
713.407	6676.36
713.75	6660.32
714.094	6658.96
714.438	6612.41
714.782	6590.94
715.125	6583.49
715.469	6601.11
715.812	6566.31
716.156	6559.3
716.499	6559.98
716.843	6550.27
717.186	6512.98
717.53	6598.17
717.873	6507.33
718.216	6529.7
718.559	6498.52
718.902	6451.51
719.246	6472.08
719.589	6414
719.932	6471.62
720.275	6444.96
720.617	6459.65
720.96	6411.96
721.303	6383.94
721.646	6447.67
721.989	6373.55
722.331	6429.59
722.674	6399.54
723.016	6399.99
723.359	6341.01
723.701	6352.76
724.044	6352.98
724.386	6312.53
724.729	6374
725.071	6370.84
725.413	6320.89
725.755	6291.52
726.097	6254.23
726.439	6285.87
726.782	6279.54
727.124	6308.24
727.465	6305.75
727.807	6303.27
728.149	6298.29
728.491	6237.28
728.833	6271.63
729.175	6271.85
729.516	6244.06
729.858	6232.31
730.199	6283.61
730.541	6239.31
730.882	6275.24
731.224	6240.22
731.565	6207
731.906	6279.31
732.248	6244.96
732.589	6213.1
732.93	6242.48
733.271	6248.35
733.612	6230.05
733.953	6214.91
734.294	6266.43
734.635	6192.31
734.976	6185.3
735.317	6222.59
735.658	6192.08
735.999	6231.18
736.339	6190.28
736.68	6193.66
737.021	6195.25
737.361	6188.02
737.702	6258.07
738.042	6221.69
738.383	6178.07
738.723	6187.11
739.063	6218.52
739.404	6200.22
739.744	6228.01
740.084	6164.29
740.424	6205.87
740.764	6237.51
741.104	6277.28
741.444	6299.65
741.784	6246.77
742.124	6298.52
742.464	6237.05
742.804	6310.05
743.143	6267.79
743.483	6316.15
743.823	6350.04
744.162	6359.08
744.502	6319.76
744.841	6336.26
745.181	6410.61
745.52	6409.7
745.86	6422.59
746.199	6426.65
746.538	6499.42
746.877	6540.55
747.216	6529.02
747.556	6528.8
747.895	6582.81
748.234	6620.09
748.573	6606.54
748.911	6685.4
749.25	6691.28
749.589	6673.43
749.928	6737.38
750.267	6856.47
750.605	6832.07
750.944	6915.68
751.283	6917.71
751.621	6963.14
751.96	7001.55
752.298	7042.46
752.636	7097.82
752.975	7136.69
753.313	7235.22
753.651	7309.12
753.989	7339.4
754.327	7350.02
754.666	7484.03
755.004	7497.81
755.342	7595.21
755.679	7682.44
756.017	7773.96
756.355	7845.82
756.693	7945.03
757.031	8057.8
757.368	8037.91
757.706	8146.16
758.044	8245.81
758.381	8359.03
758.719	8438.13
759.056	8518.8
759.394	8592.02
759.731	8647.16
760.068	8726.25
760.405	8839.24
760.743	8873.37
761.08	9041.5
761.417	9133.25
761.754	9207.6
762.091	9248.73
762.428	9373.69
762.765	9471.32
763.102	9578.21
763.438	9648.26
763.775	9700.47
764.112	9853.91
764.449	9880.57
764.785	9948.82
765.122	9964.64
765.458	10144.97
765.795	10154.24
766.131	10261.13
766.467	10375.48
766.804	10358.98
767.14	10428.58
767.476	10544.06
767.812	10633.55
768.148	10749.03
768.485	10692.98
768.821	10730.49
769.157	10842.13
769.492	10875.58
769.828	10937.27
770.164	11014.78
770.5	10953.54
770.836	11068.56
771.171	11085.97
771.507	11170.48
771.842	11163.25
772.178	11214.55
772.513	11284.38
772.849	11280.76
773.184	11276.02
773.519	11325.06
773.855	11350.37
774.19	11425.39
774.525	11427.88
774.86	11440.76
775.195	11485.73
775.53	11481.89
775.865	11549
776.2	11479.85
776.535	11519.4
776.87	11565.95
777.205	11515.56
777.539	11553.3
777.874	11569.79
778.209	11582.45
778.543	11705.38
778.878	11506.29
779.212	11553.07
779.547	11557.14
779.881	11602.56
780.215	11556.01
780.55	11658.61
780.884	11599.4
781.218	11616.12
781.552	11646.18
781.886	11560.3
782.22	11539.74
782.554	11558.95
782.888	11508.33
783.222	11506.07
783.556	11473.3
783.889	11505.84
784.223	11435.56
784.557	11410.48
784.89	11513.52
785.224	11439.63
785.557	11308.33
785.891	11360.99
786.224	11337.48
786.558	11371.16
786.891	11315.11
787.224	11295.68
787.557	11212.29
787.891	11307.65
788.224	11287.54
788.557	11266.75
788.89	11202.8
789.223	11207.77
789.556	11146.08
789.888	11114.89
790.221	11177.26
790.554	11026.08
790.887	11022.92
791.219	11039.64
791.552	11003.26
791.884	10968.91
792.217	10984.27
792.549	10960.32
792.882	10896.59
793.214	10911.73
793.546	10956.7
793.879	10918.29
794.211	10809.59
794.543	10834.45
794.875	10840.32
795.207	10843.94
795.539	10792.64
795.871	10810.49
796.203	10679.65
796.535	10604.85
796.867	10600.1
797.198	10554.23
797.53	10595.81
797.862	10539.31
798.193	10564.17
798.525	10573.21
798.856	10524.4
799.188	10359.43
799.519	10332.31
799.85	10308.58
800.182	10350.62
800.513	10394.23
800.844	10334.8
801.175	10313.1
801.506	10339.32
801.837	10252.77
802.168	10235.59
802.499	10237.17
802.83	10147.91
803.161	10140.45
803.491	10164.18
803.822	10163.73
804.153	10170.06
804.483	9980.23
804.814	10076.73
805.145	10001.93
805.475	10007.12
805.805	10006.67
806.136	10026.11
806.466	9923.51
806.796	9960.12
807.126	9846.45
807.457	9878.09
807.787	9816.85
808.117	9842.61
808.447	9795.15
808.777	9829.73
809.107	9776.85
809.436	9737.53
809.766	9773.01
810.096	9707.02
810.426	9641.71
810.755	9682.39
811.085	9633.8
811.414	9614.14
811.744	9524.88
812.073	9544.09
812.403	9527.59
812.732	9577.08
813.061	9537.08
813.39	9453.24
813.719	9417.31
814.049	9539.79
814.378	9433.35
814.707	9407.14
815.036	9404.2
815.365	9283.3
815.693	9223.19
816.022	9324.88
816.351	9292.34
816.68	9236.3
817.008	9279.23
817.337	9201.04
817.665	9160.59
817.994	9185.68
818.322	9167.37
818.651	9182.74
818.979	9104.77
819.307	9147.26
819.636	9158.56
819.964	9039.69
820.292	9063.19
820.62	9093.93
820.948	9041.5
821.276	9121.27
821.604	9095.96
821.932	9069.07
822.259	9071.1
822.587	9058
822.915	9072.91
823.243	9080.82
823.57	9029.52
823.898	9007.38
824.225	9004.21
824.553	8980.71
824.88	8988.62
825.207	8973.93
825.535	9048.28
825.862	9041.73
826.189	9022.74
826.516	9017.09
826.843	9061.84
827.17	9063.87
827.497	9033.14
827.824	9079.69
828.151	9085.11
828.478	9096.19
828.805	9111.1
829.131	9108.16
829.458	8998.34
829.785	9012.35
830.111	9028.39
830.438	9119.69
830.764	9043.53
831.09	9075.62
831.417	9024.32
831.743	9027.26
832.069	9002.63
832.395	8974.38
832.722	9036.98
833.048	9050.54
833.374	9023.19
833.7	8983.42
834.026	9042.4
834.351	8962.18
834.677	9042.86
835.003	9009.86
835.329	8992.46
835.654	8965.57
835.98	8965.12
836.306	8901.16
836.631	8933.03
836.956	8913.59
837.282	8976.42
837.607	8968.73
837.932	8807.61
838.258	8895.97
838.583	8870.88
838.908	8805.8
839.233	8822.75
839.558	8840.83
839.883	8778.46
840.208	8765.57
840.533	8803.09
840.858	8759.02
841.182	8766.93
841.507	8788.62
841.832	8678.12
842.156	8672.92
842.481	8698.68
842.805	8715.41
843.13	8625.92
843.454	8614.62
843.778	8616.43
844.103	8561.29
844.427	8610.32
844.751	8526.94
845.075	8526.71
845.399	8544.11
845.723	8457.11
846.047	8525.13
846.371	8410.78
846.695	8413.27
847.019	8289.88
847.343	8307.51
847.666	8326.04
847.99	8261.63
848.313	8256.66
848.637	8237.23
848.96	8195.65
849.284	8186.15
849.607	8098.02
849.931	8040.4
850.254	7994.07
850.577	7999.49
850.9	8011.24
851.223	7977.35
851.546	7876.78
851.869	7844.92
852.192	7867.29
852.515	7842.44
852.838	7818.48
853.161	7763.34
853.483	7756.34
853.806	7744.58
854.129	7701.87
854.451	7598.37
854.774	7607.64
855.096	7667.98
855.419	7603.8
855.741	7591.14
856.063	7514.99
856.385	7481.09
856.708	7441.77
857.03	7471.82
857.352	7474.76
857.674	7403.35
857.996	7378.72
858.318	7318.38
858.64	7393.63
858.961	7356.8
859.283	7335.78
859.605	7298.95
859.926	7307.76
860.248	7270.47
860.57	7239.06
860.891	7257.14
861.212	7237.93
861.534	7193.41
861.855	7218.5
862.176	7218.5
862.498	7162.9
862.819	7146.86
863.14	7143.7
863.461	7138.27
863.782	7089.01
864.103	7125.17
864.424	7123.58
864.745	7080.65
865.065	7030.03
865.386	7064.83
865.707	7026.19
866.027	7067.77
866.348	7021.21
866.668	6979.63
866.989	6988.22
867.309	6908.22
867.63	6959.75
867.95	6999.75
868.27	6919.75
868.59	6949.13
868.91	6922.69
869.23	6922.46
869.55	6907.77
869.87	6895.12
870.19	6885.17
870.51	6868
870.83	6860.99
871.15	6842.91
871.469	6820.99
871.789	6814.21
872.109	6811.05
872.428	6823.03
872.748	6812.41
873.067	6787.1
873.386	6774.44
873.706	6730.83
874.025	6721.79
874.344	6692.41
874.663	6737.15
874.982	6723.82
875.301	6683.14
875.62	6689.92
875.939	6659.64
876.258	6668
876.577	6639.75
876.896	6640.88
877.214	6573.32
877.533	6654.44
877.852	6564.28
878.17	6602.69
878.489	6639.53
878.807	6623.94
879.125	6613.54
879.444	6634.78
879.762	6559.53
880.08	6508.91
880.398	6543.49
880.716	6529.02
881.034	6515.01
881.352	6513.66
881.67	6512.53
881.988	6423.26
882.306	6512.75
882.624	6437.73
882.941	6368.8
883.259	6382.59
883.577	6401.79
883.894	6432.3
884.212	6374
884.529	6350.95
884.846	6358.18
885.164	6361.12
885.481	6265.75
885.798	6299.2
886.115	6307.79
886.432	6303.04
886.75	6284.51
887.067	6273.21
887.383	6215.13
887.7	6267.79
888.017	6188.69
888.334	6213.78
888.651	6195.92
888.967	6166.32
889.284	6135.14
889.6	6116.83
889.917	6040.9
890.233	6080.45
890.55	6139.43
890.866	6068.47
891.182	6061.92
891.498	6040
891.815	6051.97
892.131	6020.11
892.447	5976.27
892.763	5951.41
893.079	5947.12
893.395	5951.41
893.71	5977.63
894.026	5930.62
894.342	5893.56
894.657	5839.1
894.973	5805.2
895.289	5821.02
895.604	5818.76
895.92	5772.88
896.235	5754.58
896.55	5769.04
896.865	5701.02
897.181	5682.27
897.496	5694.47
897.811	5661.48
898.126	5679.1
898.441	5691.76
898.756	5601.59
899.071	5565.43
899.386	5647.01
899.7	5532.44
900.015	5562.27
900.33	5492.44
900.644	5500.12
900.959	5470.97
901.273	5445.89
901.588	5400.92
901.902	5412.67
902.216	5377.42
902.531	5427.36
902.845	5447.47
903.159	5383.52
903.473	5304.87
903.787	5319.79
904.101	5275.5
904.415	5293.58
904.729	5231.88
905.042	5214.93
905.356	5163.41
905.67	5175.39
905.984	5195.72
906.297	5177.87
906.611	5154.37
906.924	5152.11
907.237	5116.86
907.551	5095.84
907.864	5050.42
908.177	5055.84
908.491	5084.09
908.804	5027.82
909.117	5002.28
909.43	4962.96
909.743	4956.86
910.056	4948.95
910.368	4920.7
910.681	4892.46
910.994	4866.47
911.307	4870.54
911.619	4868.05
911.932	4852.91
912.244	4823.53
912.557	4795.96
912.869	4762.74
913.181	4781.95
913.494	4760.93
913.806	4698.11
914.118	4729.52
914.43	4682.74
914.742	4681.61
915.054	4668.06
915.366	4604.33
915.678	4617.44
915.99	4589.19
916.302	4582.18
916.613	4552.35
916.925	4544.67
917.236	4541.73
917.548	4497.44
917.859	4500.15
918.171	4430.32
918.482	4441.17
918.794	4447.5
919.105	4429.87
919.416	4407.95
919.727	4360.04
920.038	4349.87
920.349	4324.79
920.66	4323.66
920.971	4298.8
921.282	4309.19
921.593	4282.75
921.903	4235.98
922.214	4279.59
922.525	4247.73
922.835	4205.47
923.146	4176.77
923.456	4176.32
923.767	4157.11
924.077	4155.3
924.387	4133.15
924.697	4115.98
925.008	4090.22
925.318	4066.72
925.628	4106.49
925.938	4066.04
926.248	4059.48
926.558	4035.08
926.867	3993.27
927.177	3978.81
927.487	3945.14
927.796	3941.29
928.106	3910.34
928.416	3897.68
928.725	3931.35
929.034	3855.65
929.344	3860.17
929.653	3874.63
929.962	3795.08
930.271	3812.94
930.581	3790.34
930.89	3805.03
931.199	3788.76
931.508	3770
931.817	3797.12
932.125	3742.43
932.434	3727.97
932.743	3687.97
933.051	3638.93
933.36	3663.79
933.669	3633.05
933.977	3647.74
934.286	3629.44
934.594	3626.27
934.902	3555.99
935.21	3576.56
935.519	3581.53
935.827	3596.44
936.135	3519.16
936.443	3494.53
936.751	3516.9
937.059	3519.84
937.367	3489.1
937.674	3490.23
937.982	3488.65
938.29	3467.63
938.597	3425.38
938.905	3421.76
939.213	3425.6
939.52	3401.42
939.827	3405.72
940.135	3371.37
940.442	3377.92
940.749	3362.1
941.056	3351.03
941.363	3299.05
941.67	3304.93
941.977	3295.44
942.284	3254.76
942.591	3267.19
942.898	3247.08
943.205	3259.96
943.511	3247.98
943.818	3203.46
944.125	3184.7
944.431	3181.09
944.738	3161.2
945.044	3126.63
945.35	3142.9
945.657	3142.22
945.963	3092.05
946.269	3110.13
946.575	3084.14
946.881	3073.07
947.187	3054.09
947.493	3058.83
947.799	3050.92
948.105	3042.56
948.41	3033.07
948.716	3012.51
949.022	2969.12
949.327	3034.43
949.633	2957.37
949.938	3002.34
950.244	2958.95
950.549	2930.93
950.854	2919.63
951.16	2927.99
951.465	2913.75
951.77	2859.97
952.075	2838.72
952.38	2868.33
952.685	2871.27
952.99	2828.33
953.294	2808.9
953.599	2829.91
953.904	2772.51
954.209	2798.73
954.513	2786.07
954.818	2754.66
955.122	2737.71
955.426	2728.22
955.731	2735.68
956.035	2746.75
956.339	2729.12
956.643	2751.95
956.948	2737.26
957.252	2684.6
957.556	2697.94
957.86	2660.65
958.163	2650.93
958.467	2655.45
958.771	2649.8
959.075	2611.84
959.378	2617.49
959.682	2628.33
959.985	2563.93
960.289	2565.29
960.592	2539.52
960.896	2553.53
961.199	2528
961.502	2544.04
961.805	2533.87
962.108	2530.71
962.411	2462.01
962.714	2468.79
963.017	2518.96
963.32	2459.3
963.623	2471.05
963.926	2445.97
964.228	2470.37
964.531	2420.2
964.833	2442.35
965.136	2387.89
965.438	2432.18
965.741	2403.03
966.043	2411.39
966.345	2392.18
966.648	2347.21
966.95	2345.63
967.252	2343.82
967.554	2314.22
967.856	2343.82
968.158	2319.64
968.46	2293.2
968.761	2344.95
969.063	2261.11
969.365	2248.23
969.666	2312.86
969.968	2244.16
970.269	2255.01
970.571	2228.57
970.872	2240.77
971.174	2239.87
971.475	2206.2
971.776	2239.87
972.077	2204.62
972.378	2178.18
972.679	2189.02
972.98	2147.22
973.281	2156.71
973.582	2150.83
973.883	2142.92
974.183	2134.34
974.484	2120.33
974.785	2115.58
975.085	2109.25
975.386	2084.39
975.686	2110.16
975.986	2084.85
976.287	2091.4
976.587	2059.54
976.887	2066.54
977.187	2029.71
977.487	2048.24
977.787	2045.53
978.087	2019.76
978.387	2013.66
978.687	2040.78
978.987	2009.14
979.286	1990.39
979.586	1941.8
979.885	1975.02
980.185	1974.57
980.484	1973.21
980.784	1967.79
981.083	1941.57
981.382	1924.85
981.682	1901.8
981.981	1901.8
982.28	1895.25
982.579	1875.36
982.878	1914
983.177	1894.34
983.475	1883.72
983.774	1884.17
984.073	1845.98
984.372	1847.56
984.67	1870.39
984.969	1815.93
985.267	1844.85
985.566	1825.87
985.864	1853.89
986.162	1845.08
986.461	1804.18
986.759	1794.91
987.057	1759.88
987.355	1796.72
987.653	1785.87
987.951	1739.32
988.249	1772.76
988.547	1761.92
988.844	1762.59
989.142	1738.64
989.44	1732.99
989.737	1718.98
990.035	1734.57
990.332	1732.99
990.63	1678.3
990.927	1696.38
991.224	1679.43
991.521	1665.42
991.819	1685.99
992.116	1665.87
992.413	1662.94
992.71	1673.56
993.006	1648.93
993.303	1626.55
993.6	1651.41
993.897	1620.68
994.193	1611.86
994.49	1613.9
994.787	1614.58
995.083	1613.22
995.379	1604.86
995.676	1575.93
995.972	1577.52
996.268	1599.89
996.565	1579.32
996.861	1557.63
997.157	1530.96
997.453	1537.06
997.749	1526.22
998.044	1523.51
998.34	1528.25
998.636	1522.83
998.932	1481.02
999.227	1488.7
999.523	1476.95
999.818	1508.14
1000.114	1479.89
1000.409	1457.52
1000.704	1458.42
1001	1428.37
1001.295	1448.48
1001.59	1451.87
1001.885	1448.25
1002.18	1419.55
1002.475	1427.01
1002.77	1405.77
1003.065	1391.98
1003.359	1419.78
1003.654	1391.08
1003.949	1371.19
1004.243	1399.21
1004.538	1366.22
1004.832	1382.49
1005.127	1363.51
1005.421	1348.82
1005.715	1348.14
1006.009	1347.69
1006.304	1335.71
1006.598	1313.79
1006.892	1322.61
1007.186	1309.5
1007.48	1304.53
1007.773	1281.03
1008.067	1286.68
1008.361	1271.99
1008.655	1269.27
1008.948	1244.87
1009.242	1262.95
1009.535	1270.18
1009.829	1269.27
1010.122	1233.34
1010.415	1256.62
1010.708	1213.46
1011.001	1231.76
1011.295	1205.1
1011.588	1201.93
1011.881	1200.35
1012.173	1188.37
1012.466	1191.99
1012.759	1174.36
1013.052	1172.55
1013.344	1204.87
1013.637	1181.14
1013.93	1160.58
1014.222	1163.97
1014.514	1142.95
1014.807	1123.29
1015.099	1134.14
1015.391	1123.06
1015.683	1123.74
1015.976	1136.4
1016.268	1099.79
1016.56	1107.24
1016.851	1097.53
1017.143	1102.73
1017.435	1095.95
1017.727	1062.27
1018.018	1082.39
1018.31	1065.66
1018.602	1092.56
1018.893	1052.33
1019.185	1043.52
1019.476	1047.36
1019.767	1024.08
1020.058	1022.5
1020.35	1042.16
1020.641	1012.78
1020.932	1031.31
1021.223	1027.25
1021.514	1029.28
1021.804	980.02
1022.095	1008.49
1022.386	967.81
1022.677	992.45
1022.967	984.76
1023.258	956.51
1023.548	973.01
1023.839	955.61
1024.129	961.49
1024.419	955.61
1024.709	956.97
1025	945.22
1025.29	951.32
1025.58	932.11
1025.87	913.58
1026.16	929.62
1026.449	913.35
1026.739	908.83
1027.029	898.66
1027.319	894.82
1027.608	896.85
1027.898	868.61
1028.187	905.67
1028.477	868.16
1028.766	877.87
1029.055	900.7
1029.344	852.34
1029.634	873.8
1029.923	850.75
1030.212	855.5
1030.501	856.18
1030.79	852.79
1031.078	834.94
1031.367	826.35
1031.656	807.14
1031.945	818.21
1032.233	811.43
1032.522	809.17
1032.81	806.69
1033.099	797.65
1033.387	788.16
1033.675	787.03
1033.963	797.65
1034.251	803.52
1034.54	783.86
1034.828	769.63
1035.116	770.98
1035.403	795.61
1035.691	754.94
1035.979	776.18
1036.267	761.94
1036.554	744.54
1036.842	740.93
1037.129	726.69
1037.417	721.27
1037.704	743.64
1037.992	721.49
1038.279	709.74
1038.566	738.22
1038.853	738.22
1039.14	738.22
