Data from hue_280_FLMS001491_00091.txt Node
Date: Tue Feb 07 15:56:07 GMT 2017
User: dcchb
Spectrometer: FLMS00149
Trigger mode: 0
Integration Time (sec): 2.000000E-2
Scans to average: 10
Electric dark correction enabled: true
Nonlinearity correction enabled: false
Boxcar width: 0
XAxis mode: Wavelengths
Number of Pixels in Spectrum: 2048
>>>>>Begin Spectral Data<<<<<
341.393	-19.55
341.776	-19.55
342.16	-19.55
342.543	-69.26
342.927	-84.63
343.31	-68.81
343.693	-82.14
344.077	-54.57
344.46	-37.63
344.843	-58.19
345.226	-29.26
345.61	-20.9
345.993	-31.07
346.376	-23.39
346.759	-1.47
347.142	28.81
347.525	56.61
347.908	41.47
348.291	85.08
348.674	101.81
349.057	93.67
349.44	130.73
349.823	133.67
350.206	164.85
350.588	176.83
350.971	190.62
351.354	227.9
351.737	214.12
352.119	241.91
352.502	240.11
352.884	257.96
353.267	279.65
353.65	281.46
354.032	289.14
354.414	302.25
354.797	296.38
355.179	318.97
355.562	306.55
355.944	302.25
356.326	310.84
356.709	324.17
357.091	333.44
357.473	329.14
357.855	338.41
358.238	327.34
358.62	350.39
359.002	327.11
359.384	307.22
359.766	340.89
360.148	320.56
360.53	349.48
360.912	325.75
361.294	310.84
361.676	329.6
362.057	308.81
362.439	329.37
362.821	320.78
363.203	319.88
363.584	325.75
363.966	297.51
364.348	311.29
364.729	321.69
365.111	327.56
365.493	301.35
365.874	314.23
366.256	293.89
366.637	302.03
367.019	286.43
367.4	289.14
367.781	319.65
368.163	321.69
368.544	321.46
368.925	318.75
369.306	301.12
369.688	302.93
370.069	288.69
370.45	321.46
370.831	298.64
371.212	297.51
371.593	302.03
371.974	321.23
372.355	298.41
372.736	313.1
373.117	301.8
373.498	304.74
373.879	314.46
374.26	304.29
374.641	300.67
375.021	304.74
375.402	325.08
375.783	306.55
376.163	305.42
376.544	312.65
376.925	311.97
377.305	334.34
377.686	316.94
378.066	315.81
378.447	318.3
378.827	304.06
379.208	321.91
379.588	315.13
379.968	340.22
380.349	318.52
380.729	322.14
381.109	327.79
381.489	337.96
381.87	314.91
382.25	328.01
382.63	341.8
383.01	332.08
383.39	335.02
383.77	323.04
384.15	319.43
384.53	342.7
384.91	333.21
385.29	315.36
385.67	334.34
386.049	339.09
386.429	339.09
386.809	361.23
387.189	344.51
387.568	342.25
387.948	334.34
388.328	346.54
388.707	330.95
389.087	356.26
389.466	350.39
389.846	341.57
390.225	359.65
390.605	366.66
390.984	357.17
391.363	377.73
391.743	368.46
392.122	359.43
392.501	340.22
392.881	367.79
393.26	363.04
393.639	363.72
394.018	383.83
394.397	372.31
394.776	358.07
395.155	356.71
395.534	385.41
395.913	365.08
396.292	377.5
396.671	380.67
397.05	384.51
397.429	359.88
397.808	370.27
398.186	412.31
398.565	396.03
398.944	381.35
399.323	380.67
399.701	408.01
400.08	415.24
400.458	396.71
400.837	408.01
401.215	415.02
401.594	410.27
401.972	403.04
402.351	399.2
402.729	410.95
403.107	429.03
403.486	431.97
403.864	409.82
404.242	421.8
404.62	422.02
404.999	414.11
405.377	423.83
405.755	438.75
406.133	435.13
406.511	442.14
406.889	451.4
407.267	440.78
407.645	465.41
408.023	447.11
408.401	457.73
408.779	443.94
409.156	459.54
409.534	487.78
409.912	502.02
410.29	489.37
410.667	490.27
411.045	482.81
411.422	508.57
411.8	498.18
412.178	517.16
412.555	543.15
412.933	530.95
413.31	530.27
413.687	538.4
414.065	542.7
414.442	557.84
414.819	542.47
415.197	552.19
415.574	601.68
415.951	566.43
416.328	578.18
416.705	601.23
417.082	587.67
417.46	617.95
417.837	610.72
418.214	612.98
418.591	614.11
418.967	633.77
419.344	620.66
419.721	645.97
420.098	654.11
420.475	655.69
420.852	650.49
421.228	705.18
421.605	669.7
421.982	663.6
422.358	701.79
422.735	687.33
423.111	710.38
423.488	712.64
423.864	718.96
424.241	741.56
424.617	766.19
424.994	754.22
425.37	755.12
425.746	773.65
426.123	809.36
426.499	765.97
426.875	810.49
427.251	784.5
427.627	806.19
428.003	840.32
428.379	849.58
428.756	843.48
429.132	853.2
429.507	870.82
429.883	874.89
430.259	896.59
430.635	895.46
431.011	906.98
431.387	938.39
431.763	944.04
432.138	928.22
432.514	977.49
432.89	954.21
433.265	980.2
433.641	991.05
434.016	993.53
434.392	1006.87
434.767	1040.31
435.143	1045.96
435.518	1041.22
435.894	1080.99
436.269	1101.33
436.644	1097.26
437.02	1106.52
437.395	1134.09
437.77	1129.8
438.145	1129.57
438.52	1145.62
438.895	1159.86
439.271	1187.65
439.646	1190.14
440.021	1228.56
440.395	1231.04
440.77	1222.68
441.145	1255.67
441.52	1266.29
441.895	1273.07
442.27	1265.84
442.645	1263.13
443.019	1283.92
443.394	1296.12
443.769	1291.6
444.143	1301.1
444.518	1315.78
444.892	1303.36
445.267	1316.24
445.641	1329.8
446.016	1328.21
446.39	1346.29
446.764	1357.37
447.139	1354.65
447.513	1367.31
447.887	1379.06
448.262	1363.92
448.636	1389.68
449.01	1415.44
449.384	1425.84
449.758	1451.6
450.132	1439.17
450.506	1453.18
450.88	1457.02
451.254	1447.98
451.628	1463.35
452.002	1494.99
452.376	1524.37
452.75	1511.94
453.123	1492.28
453.497	1534.08
453.871	1509.45
454.244	1574.53
454.618	1568.43
454.992	1579.51
455.365	1587.42
455.739	1620.41
456.112	1620.18
456.486	1633.52
456.859	1627.64
457.232	1668.32
457.606	1686.17
457.979	1733.17
458.352	1713.51
458.725	1706.73
459.099	1738.15
459.472	1733.85
459.845	1758.26
460.218	1767.98
460.591	1778.37
460.964	1782.66
461.337	1797.35
461.71	1855.43
462.083	1876.67
462.456	1889.55
462.829	1877.8
463.201	1885.04
463.574	1913.28
463.947	1929.33
464.32	1964.13
464.692	1945.15
465.065	1961.42
465.438	2010.46
465.81	2020.85
466.183	2033.51
466.555	2046.39
466.928	2096.78
467.3	2044.13
467.672	2093.39
468.045	2149.44
468.417	2126.38
468.789	2166.38
469.161	2192.82
469.534	2208.64
469.906	2258.58
470.278	2257
470.65	2226.72
471.022	2282.09
471.394	2333.16
471.766	2363.44
472.138	2359.15
472.51	2400.73
472.882	2418.58
473.253	2429.2
473.625	2478.69
473.997	2526.6
474.369	2528.86
474.74	2515.75
475.112	2577.45
475.484	2619.71
475.855	2657.9
476.227	2656.77
476.598	2704.9
476.97	2715.52
477.341	2777.67
477.713	2815.18
478.084	2764.11
478.455	2857.21
478.827	2889.75
479.198	2943.54
479.569	2945.12
479.94	2999.36
480.311	3006.14
480.682	3071.22
481.053	3103.53
481.424	3155.96
481.795	3207.26
482.166	3206.13
482.537	3237.09
482.908	3277.99
483.279	3307.6
483.65	3345.79
484.021	3393.02
484.391	3446.8
484.762	3487.93
485.133	3497.87
485.503	3548.49
485.874	3550.98
486.244	3598.21
486.615	3649.51
486.985	3696.51
487.356	3738.55
487.726	3754.14
488.097	3779
488.467	3854.93
488.837	3857.86
489.207	3899.67
489.578	3960.69
489.948	3993
490.318	4032.78
490.688	4027.58
491.058	4088.14
491.428	4141.02
491.798	4129.27
492.168	4216.95
492.538	4214.47
492.908	4266.67
493.278	4321.13
493.648	4284.97
494.017	4338.08
494.387	4362.26
494.757	4360.22
495.126	4433.67
495.496	4449.26
495.866	4438.87
496.235	4507.57
496.605	4517.51
496.974	4555.02
497.344	4536.26
497.713	4623.04
498.082	4635.7
498.452	4648.58
498.821	4633.44
499.19	4666.66
499.559	4673.44
499.928	4756.37
500.298	4768.58
500.667	4777.39
501.036	4771.74
501.405	4788.24
501.774	4812.42
502.143	4849.93
502.512	4826.88
502.88	4826.2
503.249	4848.8
503.618	4887.67
503.987	4910.49
504.356	4924.73
504.724	4986.87
505.093	4971.96
505.462	4932.86
505.83	4983.94
506.199	4992.98
506.567	5042.69
506.936	5034.78
507.304	5071.17
507.672	5121.11
508.041	5091.73
508.409	5090.6
508.777	5169.92
509.145	5184.84
509.514	5146.64
509.882	5162.01
510.25	5201.56
510.618	5182.8
510.986	5217.15
511.354	5258.28
511.722	5260.54
512.09	5269.13
512.458	5315.45
512.826	5301.67
513.193	5338.05
513.561	5359.29
513.929	5374.89
514.297	5393.42
514.664	5419.86
515.032	5412.85
515.4	5430.25
515.767	5415.11
516.135	5449.24
516.502	5411.27
516.869	5527.88
517.237	5484.04
517.604	5438.84
517.972	5476.58
518.339	5522.45
518.706	5556.35
519.073	5583.47
519.44	5561.55
519.808	5573.98
520.175	5597.48
520.542	5611.26
520.909	5673.41
521.276	5651.94
521.643	5681.55
522.009	5681.55
522.376	5738.72
522.743	5755.22
523.11	5762.9
523.477	5827.76
523.843	5715.67
524.21	5827.76
524.577	5880.86
524.943	5843.58
525.31	5906.62
525.676	5904.82
526.043	5934.42
526.409	5894.87
526.776	5998.83
527.142	5975.1
527.508	6008.09
527.874	6013.29
528.241	6077.47
528.607	6098.26
528.973	6093.74
529.339	6073.63
529.705	6129.67
530.071	6150.23
530.437	6178.26
530.803	6231.59
531.169	6239.72
531.535	6215.77
531.901	6230.46
532.267	6237.24
532.632	6271.59
532.998	6322.88
533.364	6314.07
533.73	6293.51
534.095	6346.39
534.461	6346.84
534.826	6386.61
535.192	6391.58
535.557	6382.77
535.923	6365.37
536.288	6400.4
536.653	6483.56
537.019	6362.21
537.384	6467.29
537.749	6490.34
538.114	6439.04
538.479	6517.91
538.845	6461.41
539.21	6480.62
539.575	6417.35
539.94	6499.38
540.305	6542.31
540.67	6485.82
541.034	6533.73
541.399	6557.45
541.764	6599.71
542.129	6566.49
542.494	6594.29
542.858	6577.34
543.223	6632.93
543.587	6664.34
543.952	6630.22
544.316	6709.54
544.681	6608.53
545.045	6712.48
545.41	6726.49
545.774	6713.83
546.138	6756.32
546.503	6729.2
546.867	6710.67
547.231	6823.21
547.595	6757.45
547.959	6798.35
548.324	6825.7
548.688	6815.3
549.052	6762.65
549.416	6808.97
549.779	6850.33
550.143	6835.19
550.507	6853.27
550.871	6865.02
551.235	6817.33
551.599	6845.81
551.962	6905.02
552.326	6851.01
552.689	6961.74
553.053	6868.86
553.417	6860.5
553.78	6921.74
554.143	6930.78
554.507	6957.9
554.87	6989.53
555.234	6982.3
555.597	6922.42
555.96	6952.02
556.323	7001.06
556.686	7028.4
557.05	7061.85
557.413	7140.04
557.776	7050.32
558.139	7128.06
558.502	7150.43
558.865	7092.81
559.228	7161.96
559.59	7208.06
559.953	7223.88
560.316	7252.35
560.679	7230.66
561.041	7246.7
561.404	7300.94
561.767	7319.24
562.129	7336.19
562.492	7316.53
562.854	7323.99
563.217	7342.52
563.579	7420.93
563.941	7461.39
564.304	7418.22
564.666	7475.17
565.028	7517.43
565.39	7532.57
565.753	7527.15
566.115	7605.79
566.477	7586.13
566.839	7613.25
567.201	7711.32
567.563	7708.38
567.925	7698.67
568.287	7674.71
568.648	7695.5
569.01	7780.7
569.372	7814.14
569.734	7751.1
570.095	7941.83
570.457	7871.09
570.819	7925.33
571.18	7941.83
571.542	7988.38
571.903	7974.82
572.265	7978.66
572.626	7992.45
572.987	8097.3
573.349	8139.33
573.71	8119
574.071	8048.71
574.432	8114.25
574.794	8249.84
575.155	8248.03
575.516	8201.48
575.877	8196.73
576.238	8265.88
576.599	8355.15
576.96	8367.8
577.32	8390.4
577.681	8435.37
578.042	8534.13
578.403	8513.56
578.763	8549.94
579.124	8622.03
579.485	8633.11
579.845	8762.37
580.206	8696.83
580.566	8770.73
580.927	8802.37
581.287	8797.62
581.648	8854.34
582.008	8977.5
582.368	8973.89
582.728	8945.87
583.089	9052.3
583.449	9066.32
583.809	9124.84
584.169	9238.74
584.529	9294.11
584.889	9364.39
585.249	9413.2
585.609	9343.6
585.969	9436.93
586.329	9485.06
586.688	9585.4
587.048	9650.48
587.408	9677.6
587.768	9728.44
588.127	9794.21
588.487	9868.78
588.846	9993.07
589.206	9972.96
589.565	10123.46
589.925	10170.69
590.284	10148.32
590.643	10271.48
591.003	10313.97
591.362	10437.35
591.721	10507.63
592.08	10555.77
592.44	10658.14
592.799	10628.76
593.158	10763.45
593.517	10792.6
593.876	10847.74
594.235	10914.85
594.593	10933.38
594.952	11028.52
595.311	11064.91
595.67	11125.7
596.029	11280.04
596.387	11334.28
596.746	11345.35
597.104	11360.72
597.463	11466.03
597.822	11512.35
598.18	11497.89
598.538	11602.52
598.897	11785.34
599.255	11670.77
599.613	11822.63
599.972	11869.86
600.33	11975.84
600.688	11909.18
601.046	12051.77
601.404	12136.29
601.762	12098.33
602.12	12186.23
602.478	12204.54
602.836	12275.72
603.194	12233.69
603.552	12354.59
603.91	12275.04
604.268	12417.64
604.625	12409.5
604.983	12560.23
605.341	12498.32
605.698	12556.62
606.056	12623.96
606.413	12610.18
606.771	12765.2
607.128	12769.04
607.485	12656.28
607.843	12703.73
608.2	12820.34
608.557	12902.82
608.914	12901.47
609.272	12972.2
609.629	13070.96
609.986	13098.53
610.343	13022.37
610.7	13131.52
611.057	13224.4
611.414	13153.44
611.771	13248.58
612.127	13308.46
612.484	13243.15
612.841	13398.4
613.198	13290.61
613.554	13343.49
613.911	13438.63
614.267	13453.77
614.624	13434.79
614.98	13505.52
615.337	13524.05
615.693	13581.45
616.05	13532.86
616.406	13663.48
616.762	13639.08
617.118	13590.49
617.475	13550.27
617.831	13655.12
618.187	13712.07
618.543	13646.08
618.899	13725.85
619.255	13826.87
619.611	13797.04
619.967	13861.67
620.323	13857.83
620.678	13808.11
621.034	13841.56
621.39	13806.53
621.746	13874.78
622.101	13995.9
622.457	13933.08
622.812	13912.74
623.168	13916.58
623.523	13964.94
623.879	14124.49
624.234	13915.68
624.589	13992.97
624.945	14042.23
625.3	14058.95
625.655	14032.74
626.01	14089.91
626.365	14001.33
626.72	14082
627.075	14018.95
627.43	14029.8
627.785	14060.76
628.14	14083.81
628.495	14063.47
628.85	14092.85
629.205	14061.21
629.559	14117.71
629.914	14074.32
630.269	14021.67
630.623	14052.4
630.978	14075.22
631.332	14009.69
631.687	14075.68
632.041	14055.56
632.396	14009.91
632.75	13983.25
633.104	13996.81
633.459	13963.81
633.813	13903.02
634.167	14038.61
634.521	13914.1
634.875	14028.9
635.229	13942.57
635.583	13907.32
635.937	14011.5
636.291	13879.07
636.645	13931.27
636.999	13875.23
637.352	13868
637.706	13797.49
638.06	13876.36
638.413	13790.48
638.767	13819.64
639.121	13804.04
639.474	13698.28
639.828	13743.48
640.181	13782.35
640.534	13748.9
640.888	13720.2
641.241	13654.22
641.594	13751.62
641.947	13721.79
642.301	13623.94
642.654	13776.93
643.007	13676.14
643.36	13709.36
643.713	13638.17
644.066	13713.65
644.419	13585.07
644.771	13458.74
645.124	13497.16
645.477	13397.05
645.83	13416.26
646.182	13287.45
646.535	13243.38
646.888	13245.19
647.24	13280.44
647.593	13289.71
647.945	13312.53
648.298	13231.63
648.65	13222.36
649.002	13126.1
649.355	13270.95
649.707	13291.51
650.059	13325.64
650.411	13538.51
650.763	13416.03
651.115	13564.73
651.467	13609.02
651.819	13559.3
652.171	13568.34
652.523	13520.89
652.875	13575.58
653.227	13506.42
653.578	13581
653.93	13514.56
654.282	13528.12
654.633	13516.59
654.985	13550.49
655.337	13619.19
655.688	13504.16
656.039	13602.24
656.391	13457.61
656.742	13593.88
657.094	13498.74
657.445	13529.02
657.796	13550.49
658.147	13567.44
658.498	13550.04
658.849	13594.56
659.2	13437.27
659.551	13475.24
659.902	13600.43
660.253	13580.09
660.604	13515.01
660.955	13542.13
661.306	13537.61
661.656	13617.16
662.007	13585.52
662.358	13543.71
662.708	13685.18
663.059	13623.71
663.409	13480.89
663.76	13609.7
664.11	13642.24
664.461	13632.3
664.811	13601.79
665.161	13598.63
665.511	13665.97
665.862	13590.49
666.212	13743.48
666.562	13703.71
666.912	13698.96
667.262	13674.78
667.612	13650.6
667.962	13767.66
668.312	13667.78
668.662	13724.72
669.011	13750.03
669.361	13667.32
669.711	13564.73
670.06	13651.28
670.41	13655.8
670.76	13608.34
671.109	13637.04
671.459	13667.32
671.808	13668.68
672.157	13613.54
672.507	13498.97
672.856	13540.1
673.205	13623.71
673.554	13576.48
673.904	13562.24
674.253	13605.63
674.602	13561.56
674.951	13335.58
675.3	13256.26
675.649	13471.62
675.998	13448.35
676.346	13463.49
676.695	13456.26
677.044	13378.52
677.393	13391.63
677.741	13484.96
678.09	13414.45
678.438	13319.54
678.787	13442.92
679.135	13422.58
679.484	13391.4
679.832	13340.1
680.181	13281.57
680.529	13341.68
680.877	13265.75
681.225	13229.14
681.573	13308.92
681.922	13199.54
682.27	13190.05
682.618	13229.6
682.966	13101.46
683.314	13181.91
683.661	13164.51
684.009	12979.66
684.357	13023.27
684.705	13116.6
685.053	13061.69
685.4	12933.56
685.748	12929.49
686.095	12911.86
686.443	12814.01
686.79	12883.62
687.138	12910.28
687.485	12846.33
687.832	12826.22
688.18	12825.31
688.527	12680.91
688.874	12706.45
689.221	12673.68
689.568	12628.48
689.915	12608.14
690.262	12537.18
690.609	12575.38
690.956	12397.75
691.303	12465.55
691.65	12437.3
691.997	12415.83
692.344	12328.6
692.69	12273.69
693.037	12347.36
693.383	12207.93
693.73	12181.49
694.077	12167.02
694.423	12147.14
694.769	12070.3
695.116	12094.71
695.462	11999.57
695.808	11875.28
696.155	11989.63
696.501	11921.83
696.847	11866.92
697.193	11816.53
697.539	11810.88
697.885	11758.67
698.231	11690.2
698.577	11666.7
698.923	11532.47
699.269	11601.16
699.614	11462.18
699.96	11455.41
700.306	11492.01
700.651	11403.2
700.997	11277.78
701.342	11377.21
701.688	11243.43
702.033	11219.7
702.379	11270.1
702.724	11134.06
703.069	11244.11
703.415	11069.2
703.76	11009.09
704.105	11039.14
704.45	10975.64
704.795	10957.34
705.14	10886.61
705.485	10868.53
705.83	10925.48
706.175	10802.31
706.52	10748.3
706.865	10772.03
707.209	10765.03
707.554	10699.49
707.899	10746.05
708.243	10684.13
708.588	10629.21
708.932	10575.43
709.277	10629.44
709.621	10547.18
709.966	10520.74
710.31	10469.22
710.654	10390.57
710.998	10382.66
711.342	10473.06
711.687	10372.27
712.031	10336.34
712.375	10348.32
712.719	10253.85
713.063	10340.86
713.407	10337.92
713.75	10291.82
714.094	10326.4
714.438	10206.85
714.782	10228.09
715.125	10186.74
715.469	10215.89
715.812	10147.87
716.156	10074.88
716.499	10043.69
716.843	10049.34
717.186	10030.58
717.53	10085.5
717.873	10082.11
718.216	10010.25
718.559	9963.24
718.902	9926.18
719.246	9968.66
719.589	9915.33
719.932	9992.39
720.275	9937.25
720.617	9910.59
720.96	9836.46
721.303	9881.66
721.646	9882.57
721.989	9797.6
722.331	9834.2
722.674	9775
723.016	9797.6
723.359	9855.22
723.701	9833.07
724.044	9794.88
724.386	9758.27
724.729	9767.77
725.071	9704.26
725.413	9721.89
725.755	9780.87
726.097	9670.37
726.439	9649.35
726.782	9687.77
727.124	9693.19
727.465	9693.42
727.807	9691.16
728.149	9675.79
728.491	9641.67
728.833	9711.27
729.175	9687.77
729.516	9617.71
729.858	9608.22
730.199	9611.39
730.541	9616.81
730.882	9633.31
731.224	9575
731.565	9594.66
731.906	9665.85
732.248	9689.8
732.589	9609.8
732.93	9579.52
733.271	9597.37
733.612	9645.28
733.953	9628.33
734.294	9556.7
734.635	9614.32
734.976	9617.49
735.317	9555.12
735.658	9620.2
735.999	9636.92
736.339	9599.41
736.68	9631.5
737.021	9577.04
737.361	9496.59
737.702	9591.95
738.042	9590.14
738.383	9570.48
738.723	9636.02
739.063	9580.65
739.404	9598.28
739.744	9613.19
740.084	9636.47
740.424	9643.93
740.764	9634.66
741.104	9724.6
741.444	9708.11
741.784	9636.24
742.124	9678.5
742.464	9710.82
742.804	9754.88
743.143	9724.38
743.483	9729.8
743.823	9757.37
744.162	9797.14
744.502	9805.5
744.841	9830.36
745.181	9937.03
745.52	9930.47
745.86	9911.26
746.199	9984.48
746.538	9979.74
746.877	10146.74
747.216	10067.64
747.556	10158.49
747.895	10219.28
748.234	10241.2
748.573	10333.63
748.911	10309.22
749.25	10450.91
749.589	10410.91
749.928	10523
750.267	10676.44
750.605	10671.02
750.944	10734.07
751.283	10770.45
751.621	10879.15
751.96	10990.11
752.298	11061.07
752.636	11141.97
752.975	11141.06
753.313	11283.21
753.651	11431
753.989	11463.54
754.327	11482.52
754.666	11644.33
755.004	11804.55
755.342	11942.4
755.679	11995.05
756.017	12077.99
756.355	12301.94
756.693	12414.48
757.031	12513
757.368	12630.06
757.706	12779.66
758.044	12821.47
758.381	13004.74
758.719	13113.21
759.056	13217.39
759.394	13405.86
759.731	13503.71
760.068	13602.02
760.405	13740.09
760.743	13926.98
761.08	14067.54
761.417	14160.64
761.754	14343.46
762.091	14416.23
762.428	14539.84
762.765	14683.12
763.102	14843.79
763.438	14910.23
763.775	14964.24
764.112	15181.86
764.449	15380.05
764.785	15442.64
765.122	15513.6
765.458	15686.93
765.795	15781.17
766.131	15919.47
766.467	15998.56
766.804	16127.6
767.14	16144.1
767.476	16303.19
767.812	16370.76
768.148	16532.56
768.485	16564.88
768.821	16662.27
769.157	16740.92
769.492	16860.69
769.828	16908.82
770.164	16849.84
770.5	17038.99
770.836	17134.58
771.171	17097.74
771.507	17165.99
771.842	17178.87
772.178	17321.69
772.513	17340
772.849	17436.72
773.184	17428.58
773.519	17539.31
773.855	17573.44
774.19	17582.48
774.525	17574.11
774.86	17745.86
775.195	17662.25
775.53	17796.26
775.865	17716.94
776.2	17631.51
776.535	17585.87
776.87	17782.7
777.205	17765.07
777.539	17674.45
777.874	17803.94
778.209	17705.41
778.543	17722.58
778.878	17738.63
779.212	17810.94
779.547	17750.61
779.881	17881.45
780.215	17697.27
780.55	17808.46
780.884	17699.31
781.218	17728.91
781.552	17774.56
781.886	17706.54
782.22	17666.54
782.554	17681
782.888	17577.5
783.222	17535.25
783.556	17496.83
783.889	17543.61
784.223	17416.15
784.557	17458.64
784.89	17497.73
785.224	17439.88
785.557	17419.09
785.891	17453.21
786.224	17466.77
786.558	17367.34
786.891	17268.13
787.224	17217.97
787.557	17225.87
787.891	17264.07
788.224	17218.42
788.557	17292.99
788.89	17203.95
789.223	17203.95
789.556	17067.46
789.888	17165.09
790.221	17086.22
790.554	16907.69
790.887	16989.5
791.219	16896.62
791.552	16907.24
791.884	16744.08
792.217	16770.75
792.549	16785.66
792.882	16672.22
793.214	16625.66
793.546	16698.88
793.879	16575.04
794.211	16419.57
794.543	16559.68
794.875	16440.58
795.207	16562.62
795.539	16492.11
795.871	16377.54
796.203	16296.86
796.535	16212.34
796.867	16172.12
797.198	16061.39
797.53	16166.92
797.862	16023.19
798.193	16031.78
798.525	15926.93
798.856	16041.5
799.188	15831.34
799.519	15773.71
799.85	15787.95
800.182	15796.08
800.513	15764.44
800.844	15644.67
801.175	15745.46
801.506	15670.44
801.837	15571.45
802.168	15652.13
802.499	15571.68
802.83	15459.59
803.161	15401.29
803.491	15515.86
803.822	15448.07
804.153	15502.08
804.483	15196.78
804.814	15215.98
805.145	15163.56
805.475	15166.27
805.805	15187.28
806.136	15199.71
806.466	15103.44
806.796	15040.4
807.126	14963.11
807.457	14991.13
807.787	14973.73
808.117	14894.41
808.447	14832.49
808.777	14937.8
809.107	14847.41
809.436	14783.45
809.766	14784.81
810.096	14753.62
810.426	14738.48
810.755	14764.47
811.085	14647.41
811.414	14521.99
811.744	14461.88
812.073	14553.85
812.403	14531.93
812.732	14424.59
813.061	14435.44
813.39	14334.88
813.719	14256.24
814.049	14434.76
814.378	14351.83
814.707	14260.53
815.036	14273.64
815.365	14182.11
815.693	14112.06
816.022	14082.91
816.351	14042.46
816.68	13989.35
817.008	14067.99
817.337	13933.31
817.665	13929.69
817.994	13967.43
818.322	13929.46
818.651	13928.11
818.979	13908.45
819.307	13859.86
819.636	13743.25
819.964	13746.64
820.292	13842.23
820.62	13729.24
820.948	13664.39
821.276	13757.49
821.604	13710.94
821.932	13784.16
822.259	13713.2
822.587	13724.5
822.915	13645.86
823.243	13654.22
823.57	13598.17
823.898	13711.84
824.225	13563.82
824.553	13629.59
824.88	13566.54
825.207	13663.93
825.535	13669.36
825.862	13678.4
826.189	13651.28
826.516	13615.8
826.843	13721.56
827.17	13686.76
827.497	13693.99
827.824	13673.2
828.151	13792.97
828.478	13790.03
828.805	13769.24
829.131	13746.87
829.458	13609.02
829.785	13589.13
830.111	13632.97
830.438	13751.62
830.764	13739.86
831.09	13619.42
831.417	13626.2
831.743	13659.87
832.069	13722.24
832.395	13601.56
832.722	13672.75
833.048	13546.88
833.374	13631.62
833.7	13569.93
834.026	13578.06
834.351	13628.68
834.677	13545.29
835.003	13554.33
835.329	13512.3
835.654	13536.93
835.98	13421.68
836.306	13457.16
836.631	13428.91
836.956	13483.6
837.282	13502.36
837.607	13370.61
837.932	13368.8
838.258	13354.56
838.583	13372.42
838.908	13312.98
839.233	13366.99
839.558	13252.19
839.883	13263.04
840.208	13154.8
840.533	13226.88
840.858	13203.38
841.182	13183.27
841.507	13184.85
841.832	13081.35
842.156	13055.59
842.481	13068.24
842.805	13106.21
843.13	13016.72
843.454	13003.84
843.778	12909.38
844.103	12898.08
844.427	12975.82
844.751	12915.71
845.075	12841.58
845.399	12813.56
845.723	12732.21
846.047	12727.91
846.371	12675.49
846.695	12651.76
847.019	12544.42
847.343	12553
847.666	12478.65
847.99	12316.85
848.313	12400.01
848.637	12275.72
848.96	12275.72
849.284	12243.86
849.607	12069.63
849.931	12105.78
850.254	12032.11
850.577	11992.57
850.9	11894.94
851.223	11907.14
851.546	11786.7
851.869	11704.44
852.192	11816.07
852.515	11722.06
852.838	11685
853.161	11603.42
853.483	11552.35
853.806	11565.23
854.129	11565.23
854.451	11525.46
854.774	11406.59
855.096	11359.36
855.419	11453.37
855.741	11329.31
856.063	11294.96
856.385	11231.46
856.708	11273.71
857.03	11145.81
857.352	11264.45
857.674	11115.75
857.996	11086.38
858.318	11071.91
858.64	11028.52
858.961	11033.04
859.283	11014.06
859.605	10871.92
859.926	11012.48
860.248	10890.22
860.57	10821.07
860.891	10894.52
861.212	10828.75
861.534	10775.87
861.855	10754.86
862.176	10805.7
862.498	10799.38
862.819	10771.58
863.14	10676.44
863.461	10632.38
863.782	10627.86
864.103	10640.06
864.424	10667.63
864.745	10681.87
865.065	10598.25
865.386	10535.66
865.707	10538.37
866.027	10600.29
866.348	10498.59
866.668	10532.72
866.989	10451.36
867.309	10390.12
867.63	10397.13
867.95	10388.31
868.27	10315.1
868.59	10349.45
868.91	10396
869.23	10291.14
869.55	10273.97
869.87	10352.61
870.19	10315.55
870.51	10245.27
870.83	10246.4
871.15	10156.68
871.469	10225.61
871.789	10260.63
872.109	10192.84
872.428	10202.1
872.748	10130.02
873.067	10083.01
873.386	10118.94
873.706	10142.22
874.025	10073.97
874.344	10027.19
874.663	10070.58
874.982	10063.58
875.301	10050.24
875.62	9947.87
875.939	10000.98
876.258	10048.89
876.577	9908.33
876.896	9982
877.214	9856.8
877.533	9895.45
877.852	9952.17
878.17	9933.41
878.489	9951.04
878.807	9924.37
879.125	9898.38
879.444	9810.25
879.762	9819.74
880.08	9807.99
880.398	9742.91
880.716	9760.99
881.034	9721.21
881.352	9707.65
881.67	9732.74
881.988	9652.97
882.306	9665.62
882.624	9657.71
882.941	9563.25
883.259	9517.38
883.577	9594.44
883.894	9516.47
884.212	9543.59
884.529	9462.01
884.846	9409.36
885.164	9424.05
885.481	9424.27
885.798	9435.8
886.115	9328.23
886.432	9422.69
886.75	9329.13
887.067	9379.98
887.383	9252.07
887.7	9271.06
888.017	9223.15
888.334	9220.89
888.651	9186.31
888.967	9182.92
889.284	9152.64
889.6	9136.82
889.917	9046.65
890.233	9045.07
890.55	9014.34
890.866	9059.31
891.182	8969.14
891.498	8995.36
891.815	8976.37
892.131	8859.54
892.447	8887.56
892.763	8820.22
893.079	8795.59
893.395	8770.05
893.71	8758.07
894.026	8737.96
894.342	8766.89
894.657	8702.71
894.973	8604.41
895.289	8642.37
895.604	8577.06
895.92	8495.93
896.235	8493.22
896.55	8625.87
896.865	8492.55
897.181	8471.98
897.496	8503.62
897.811	8403.73
898.126	8389.27
898.441	8330.52
898.756	8294.58
899.071	8275.6
899.386	8238.54
899.7	8178.43
900.015	8154.93
900.33	8117.19
900.644	8088.49
900.959	8145.44
901.273	8106.79
901.588	8033.35
901.902	7984.08
902.216	7919.9
902.531	7960.36
902.845	7924.65
903.159	7854.14
903.473	7841.04
903.787	7792
904.101	7759.68
904.415	7770.76
904.729	7721.94
905.042	7688.27
905.356	7708.16
905.67	7660.48
905.984	7638.33
906.297	7629.74
906.611	7610.53
906.924	7569.86
907.237	7496.41
907.551	7528.28
907.864	7469.07
908.177	7494.83
908.491	7432.01
908.804	7362.86
909.117	7354.95
909.43	7354.95
909.743	7259.13
910.056	7327.38
910.368	7218.23
910.681	7213.03
910.994	7186.14
911.307	7091.9
911.619	7080.38
911.932	7097.55
912.244	7038.57
912.557	7054.16
912.869	6957.67
913.181	6977.56
913.494	6974.84
913.806	6912.02
914.118	6891.46
914.43	6805.13
914.742	6829.99
915.054	6799.03
915.366	6767.62
915.678	6737.79
915.99	6709.09
916.302	6681.52
916.613	6623.67
916.925	6627.51
917.236	6572.6
917.548	6575.99
917.859	6554.52
918.171	6509.77
918.482	6536.89
918.794	6507.29
919.105	6429.55
919.416	6392.04
919.727	6456.44
920.038	6365.82
920.349	6294.64
920.66	6336.44
920.971	6321.75
921.282	6322.66
921.593	6234.07
921.903	6173.51
922.214	6172.38
922.525	6115.88
922.835	6115.43
923.146	6067.75
923.456	6112.49
923.767	6073.63
924.077	6067.52
924.387	5988.2
924.697	5992.72
925.008	5953.18
925.318	5933.52
925.628	5905.04
925.938	5870.24
926.248	5779.85
926.558	5763.13
926.867	5766.97
927.177	5771.26
927.487	5706.63
927.796	5721.54
928.106	5709.57
928.416	5621.21
928.725	5660.3
929.034	5604.49
929.344	5605.39
929.653	5620.3
929.962	5585.95
930.271	5537.59
930.581	5542.11
930.89	5541.21
931.199	5436.58
931.508	5439.29
931.817	5441.55
932.125	5415.79
932.434	5386.41
932.743	5375.34
933.051	5339.86
933.36	5279.3
933.669	5282.69
933.977	5272.97
934.286	5258.51
934.594	5257.38
934.902	5189.13
935.21	5115.68
935.519	5182.8
935.827	5137.61
936.135	5082.69
936.443	5081.11
936.751	5063.71
937.059	5072.75
937.367	5051.51
937.674	5027.1
937.982	4976.25
938.29	5016.48
938.597	4976.25
938.905	4943.94
939.213	4867.1
939.52	4864.17
939.827	4847.22
940.135	4870.72
940.442	4855.35
940.749	4839.99
941.056	4819.2
941.363	4737.84
941.67	4754.34
941.977	4717.05
942.284	4699.88
942.591	4670.05
942.898	4658.75
943.205	4669.14
943.511	4630.95
943.818	4594.57
944.125	4581.69
944.431	4551.18
944.738	4567.68
945.044	4500.79
945.35	4504.85
945.657	4459.66
945.963	4440.22
946.269	4448.13
946.575	4473.44
946.881	4449.04
947.187	4361.13
947.493	4370.85
947.799	4342.37
948.105	4357.29
948.41	4298.31
948.716	4274.12
949.022	4278.64
949.327	4288.81
949.633	4204.07
949.938	4208.14
950.244	4178.08
950.549	4164.75
950.854	4127.46
951.16	4178.53
951.465	4126.56
951.77	4106.9
952.075	4093.11
952.38	4063.06
952.685	4090.17
952.99	4043.85
953.294	4023.96
953.599	3977.41
953.904	3988.26
954.209	3969.95
954.513	3950.97
954.818	3956.62
955.122	3935.83
955.426	3868.71
955.731	3895.38
956.035	3922.5
956.339	3849.73
956.643	3837.07
956.948	3824.87
957.252	3794.59
957.556	3812.89
957.86	3750.3
958.163	3734.25
958.467	3730.18
958.771	3719.11
959.075	3760.47
959.378	3687.93
959.682	3677.08
959.985	3656.51
960.289	3660.58
960.592	3635.5
960.896	3604.99
961.199	3642.96
961.502	3586.69
961.805	3608.61
962.108	3564.09
962.411	3567.48
962.714	3515.95
963.017	3462.39
963.32	3552.79
963.623	3474.6
963.926	3480.93
964.228	3444.99
964.531	3461.94
964.833	3470.76
965.136	3427.14
965.438	3376.52
965.741	3355.73
966.043	3402.51
966.345	3337.65
966.648	3347.6
966.95	3355.5
967.252	3306.92
967.554	3292.91
967.856	3252.68
968.158	3263.08
968.46	3259.01
968.761	3251.1
969.063	3200.03
969.365	3230.99
969.666	3168.17
969.968	3150.76
970.269	3159.8
970.571	3188.96
970.872	3153.93
971.174	3117.55
971.475	3112.35
971.776	3111.44
972.077	3093.59
972.378	3081.61
972.679	3056.3
972.98	3049.75
973.281	3043.42
973.582	3070.09
973.883	3032.12
974.183	2990.09
974.484	2982.63
974.785	2925.91
975.085	2952.13
975.386	2951.45
975.686	2907.61
975.986	2921.39
976.287	2913.93
976.587	2863.09
976.887	2857.89
977.187	2886.14
977.487	2862.64
977.787	2841.62
978.087	2814.95
978.387	2793.03
978.687	2797.55
978.987	2804.33
979.286	2749.65
979.586	2807.5
979.885	2751.23
980.185	2699.7
980.484	2736.54
980.784	2692.25
981.083	2720.04
981.382	2662.42
981.682	2680.95
981.981	2671.91
982.28	2658.12
982.579	2634.85
982.878	2647.5
983.177	2618.35
983.475	2611.57
983.774	2611.12
984.073	2592.81
984.372	2563.89
984.67	2549.65
984.969	2546.71
985.267	2532.02
985.566	2527.05
985.864	2506.04
986.162	2497.45
986.461	2482.31
986.759	2463.78
987.057	2472.14
987.355	2457.9
987.653	2458.58
987.951	2447.28
988.249	2412.93
988.547	2409.09
988.844	2404.57
989.142	2407.06
989.44	2373.16
989.737	2366.38
990.035	2400.05
990.332	2344.91
990.63	2358.92
990.927	2307.85
991.224	2325.25
991.521	2337
991.819	2304.23
992.116	2293.16
992.413	2273.27
992.71	2256.78
993.006	2257.45
993.303	2243.22
993.6	2263.33
993.897	2262.43
994.193	2235.53
994.49	2203.22
994.787	2196.67
995.083	2169.55
995.379	2165.48
995.676	2136.78
995.972	2147.85
996.268	2138.81
996.565	2117.12
996.861	2108.08
997.157	2081.87
997.453	2100.17
997.749	2082.32
998.044	2110.34
998.34	2057.69
998.636	2038.25
998.932	2050.91
999.227	2019.72
999.523	2023.79
999.818	2016.78
1000.114	2014.52
1000.409	2008.87
1000.704	1987.63
1001	1967.29
1001.295	1960.29
1001.59	1967.74
1001.885	1972.94
1002.18	1953.06
1002.475	1956.45
1002.77	1899.5
1003.065	1889.33
1003.359	1877.35
1003.654	1894.53
1003.949	1841.87
1004.243	1853.85
1004.538	1845.71
1004.832	1829.9
1005.127	1816.11
1005.421	1805.26
1005.715	1797.81
1006.009	1808.2
1006.304	1777.24
1006.598	1784.92
1006.892	1770.24
1007.186	1737.02
1007.48	1740.63
1007.773	1740.18
1008.067	1693.85
1008.361	1675.1
1008.655	1712.84
1008.948	1689.79
1009.242	1661.09
1009.535	1687.07
1009.829	1681.2
1010.122	1681.2
1010.415	1665.38
1010.708	1626.51
1011.001	1626.96
1011.295	1614.08
1011.588	1619.96
1011.881	1591.03
1012.173	1576.34
1012.466	1600.97
1012.759	1577.25
1013.052	1567.53
1013.344	1588.09
1013.637	1547.87
1013.93	1528.89
1014.222	1539.96
1014.514	1520.07
1014.807	1517.59
1015.099	1518.27
1015.391	1496.34
1015.683	1490.92
1015.976	1480.98
1016.268	1453.41
1016.56	1493.41
1016.851	1429.91
1017.143	1428.55
1017.435	1447.53
1017.727	1435.56
1018.018	1426.06
1018.31	1397.59
1018.602	1390.81
1018.893	1374.31
1019.185	1385.39
1019.476	1397.59
1019.767	1359.17
1020.058	1355.33
1020.35	1356.46
1020.641	1323.47
1020.932	1331.15
1021.223	1340.87
1021.514	1311.94
1021.804	1280.98
1022.095	1289.34
1022.386	1287.76
1022.677	1271.72
1022.967	1279.63
1023.258	1263.58
1023.548	1254.09
1023.839	1215.9
1024.129	1235.79
1024.419	1248.89
1024.709	1223.58
1025	1186.75
1025.29	1215
1025.58	1220.19
1025.87	1187.2
1026.16	1191.49
1026.449	1180.65
1026.739	1163.7
1027.029	1158.73
1027.319	1158.95
1027.608	1167.99
1027.898	1167.99
1028.187	1138.39
1028.477	1135.68
1028.766	1130.48
1029.055	1124.6
1029.344	1112.4
1029.634	1106.98
1029.923	1082.8
1030.212	1081.44
1030.501	1076.24
1030.79	1071.72
1031.078	1066.98
1031.367	1073.98
1031.656	1033.53
1031.945	1054.1
1032.233	1039.41
1032.522	1011.39
1032.81	1015.68
1033.099	1015
1033.387	1005.74
1033.675	998.73
1033.963	997.6
1034.251	995.79
1034.54	980.43
1034.828	998.05
1035.116	983.36
1035.403	975.91
1035.691	941.56
1035.979	974.32
1036.267	975.91
1036.554	938.39
1036.842	935
1037.129	921.22
1037.417	935
1037.704	924.61
1037.992	916.7
1038.279	909.02
1038.566	899.07
1038.853	899.07
1039.14	899.07
