Data from hue_210_FLMS001491_00015.txt Node
Date: Tue Feb 07 16:40:49 GMT 2017
User: dcchb
Spectrometer: FLMS00149
Trigger mode: 0
Integration Time (sec): 2.000000E-2
Scans to average: 10
Electric dark correction enabled: true
Nonlinearity correction enabled: false
Boxcar width: 0
XAxis mode: Wavelengths
Number of Pixels in Spectrum: 2048
>>>>>Begin Spectral Data<<<<<
341.393	-21.55
341.776	-21.55
342.16	-21.55
342.543	-66.52
342.927	-62.91
343.31	-71.72
343.693	-59.07
344.077	-68.33
344.46	-50.93
344.843	-66.98
345.226	-45.06
345.61	-28.11
345.993	-20.65
346.376	12.8
346.759	1.95
347.142	35.17
347.525	20.03
347.908	52.34
348.291	69.29
348.674	88.05
349.057	131.21
349.44	136.63
349.823	147.93
350.206	164.66
350.588	205.33
350.971	199.91
351.354	227.25
351.737	244.2
352.119	239.23
352.502	289.17
352.884	275.16
353.267	293.47
353.65	295.73
354.032	301.6
354.414	306.12
354.797	300.02
355.179	325.1
355.562	315.61
355.944	329.4
356.326	334.6
356.709	338.21
357.091	335.5
357.473	340.47
357.855	326.69
358.238	356.29
358.62	328.04
359.002	326.69
359.384	346.57
359.766	344.99
360.148	328.49
360.53	337.53
360.912	333.92
361.294	348.15
361.676	329.4
362.057	354.93
362.439	334.14
362.821	316.74
363.203	348.15
363.584	330.75
363.966	328.04
364.348	352
364.729	338.44
365.111	344.76
365.493	331.43
365.874	321.71
366.256	326.01
366.637	319.91
367.019	321.49
367.4	309.51
367.781	330.53
368.163	317.42
368.544	309.51
368.925	315.39
369.306	307.93
369.688	312.45
370.069	301.38
370.45	332.34
370.831	309.06
371.212	320.81
371.593	313.58
371.974	316.07
372.355	316.74
372.736	322.39
373.117	292.34
373.498	321.71
373.879	326.46
374.26	330.3
374.641	323.75
375.021	316.97
375.402	324.2
375.783	316.52
376.163	336.86
376.544	331.21
376.925	313.13
377.305	327.82
377.686	318.1
378.066	334.14
378.447	326.23
378.827	333.47
379.208	334.6
379.588	323.07
379.968	340.02
380.349	338.66
380.729	323.52
381.109	334.6
381.489	334.6
381.87	334.37
382.25	338.44
382.63	348.83
383.01	343.18
383.39	333.92
383.77	360.81
384.15	342.05
384.53	334.82
384.91	357.65
385.29	347.7
385.67	368.72
386.049	345.22
386.429	353.13
386.809	368.95
387.189	354.71
387.568	376.4
387.948	380.47
388.328	355.39
388.707	350.19
389.087	354.26
389.466	352.9
389.846	340.25
390.225	373.69
390.605	368.95
390.984	367.59
391.363	368.04
391.743	396.29
392.122	363.97
392.501	382.05
392.881	391.77
393.26	369.17
393.639	398.77
394.018	387.25
394.397	393.8
394.776	382.73
395.155	392.45
395.534	402.16
395.913	368.49
396.292	410.53
396.671	392.45
397.05	400.81
397.429	397.19
397.808	409.17
398.186	401.71
398.565	390.41
398.944	413.69
399.323	410.07
399.701	404.65
400.08	400.58
400.458	426.12
400.837	436.06
401.215	418.89
401.594	429.96
401.972	430.19
402.351	442.39
402.729	430.41
403.107	435.38
403.486	443.97
403.864	429.96
404.242	449.39
404.62	456.85
404.999	452.11
405.377	460.24
405.755	446.23
406.133	471.32
406.511	483.97
406.889	471.32
407.267	473.12
407.645	494.59
408.023	481.48
408.401	509.73
408.779	517.64
409.156	504.99
409.534	526.23
409.912	526.68
410.29	531.88
410.667	573.01
411.045	547.7
411.422	529.84
411.8	564.65
412.178	563.97
412.555	594.25
412.933	605.78
413.31	596.51
413.687	613.68
414.065	607.13
414.442	634.7
414.819	640.12
415.197	636.96
415.574	653.46
415.951	663.17
416.328	660.46
416.705	663.85
417.082	681.03
417.46	690.07
417.837	727.81
418.214	729.39
418.591	726.45
418.967	721.03
419.344	763.96
419.721	761.7
420.098	742.27
420.475	764.19
420.852	795.15
421.228	818.88
421.605	813
421.982	819.78
422.358	853.68
422.735	856.16
423.111	876.95
423.488	844.19
423.864	871.98
424.241	917.86
424.617	912.89
424.994	936.84
425.37	949.27
425.746	954.24
426.123	965.99
426.499	985.2
426.875	984.52
427.251	1007.35
427.627	1029.27
428.003	1034.46
428.379	1062.94
428.756	1049.61
429.132	1057.06
429.507	1063.16
429.883	1104.52
430.259	1139.09
430.635	1107.23
431.011	1146.33
431.387	1154.46
431.763	1153.33
432.138	1173.22
432.514	1214.57
432.89	1227
433.265	1233.56
433.641	1248.92
434.016	1282.37
434.392	1303.61
434.767	1339.77
435.143	1331.86
435.518	1374.57
435.894	1389.94
436.269	1410.27
436.644	1443.95
437.02	1463.83
437.395	1529.37
437.77	1529.14
438.145	1521.46
438.52	1575.24
438.895	1591.96
439.271	1616.82
439.646	1637.39
440.021	1660.44
440.395	1703.15
440.77	1696.59
441.145	1674.45
441.52	1753.77
441.895	1755.8
442.27	1761.9
442.645	1780.66
443.019	1797.38
443.394	1836.93
443.769	1836.7
444.143	1836.7
444.518	1888.91
444.892	1896.14
445.267	1928.68
445.641	1946.76
446.016	1944.04
446.39	1979.3
446.764	1960.77
447.139	1969.13
447.513	2023.36
447.887	2019.52
448.262	2028.11
448.636	2023.82
449.01	2061.78
449.384	2084.38
449.758	2115.11
450.132	2163.93
450.506	2138.39
450.88	2151.05
451.254	2161.67
451.628	2172.51
452.002	2204.6
452.376	2230.37
452.75	2246.18
453.123	2287.99
453.497	2313.3
453.871	2305.84
454.244	2335.67
454.618	2356.92
454.992	2405.28
455.365	2431.72
455.739	2472.84
456.112	2490.7
456.486	2519.85
456.859	2532.73
457.232	2581.32
457.606	2585.84
457.979	2622.67
458.352	2661.54
458.725	2701.54
459.099	2698.38
459.472	2732.05
459.845	2784.25
460.218	2776.11
460.591	2828.77
460.964	2821.54
461.337	2845.26
461.71	2911.7
462.083	2977.92
462.456	2963.23
462.829	2986.73
463.201	3080.51
463.574	3025.6
463.947	3079.83
464.32	3125.71
464.692	3178.59
465.065	3198.7
465.438	3257.46
465.81	3275.76
466.183	3318.25
466.555	3366.38
466.928	3370.67
467.3	3407.96
467.672	3500.84
468.045	3516.21
468.417	3565.47
468.789	3624.23
469.161	3638.92
469.534	3644.57
469.906	3774.05
470.278	3793.26
470.65	3791
471.022	3871.9
471.394	3901.28
471.766	3948.29
472.138	3988.06
472.51	4047.72
472.882	4114.38
473.253	4099.69
473.625	4199.35
473.997	4291.33
474.369	4327.26
474.74	4343.76
475.112	4427.37
475.484	4457.43
475.855	4577.65
476.227	4618.1
476.598	4686.57
476.97	4708.94
477.341	4800.47
477.713	4901.48
478.084	4925.21
478.455	5015.15
478.827	5033
479.198	5252.88
479.569	5200.23
479.94	5305.54
480.311	5378.3
480.682	5434.8
481.053	5547.11
481.424	5673.44
481.795	5716.15
482.166	5813.32
482.537	5798.86
482.908	5969.25
483.279	6006.99
483.65	6096.48
484.021	6230.03
484.391	6247.43
484.762	6327.43
485.133	6388.22
485.503	6391.84
485.874	6534.66
486.244	6569.01
486.615	6700.3
486.985	6770.81
487.356	6861.2
487.726	6888.1
488.097	6994.08
488.467	7084.7
488.837	7181.2
489.207	7249.22
489.578	7320.4
489.948	7409.66
490.318	7399.49
490.688	7448.98
491.058	7604.24
491.428	7675.87
491.798	7719.26
492.168	7832.48
492.538	7876.32
492.908	7959.93
493.278	8048.07
493.648	8013.94
494.017	8152.24
494.387	8212.58
494.757	8147.72
495.126	8267.04
495.496	8279.7
495.866	8399.92
496.235	8418.22
496.605	8477.21
496.974	8498
497.344	8579.35
497.713	8696.86
498.082	8659.8
498.452	8661.61
498.821	8720.36
499.19	8759.23
499.559	8807.14
499.928	8819.12
500.298	8847.14
500.667	8901.6
501.036	8905.67
501.405	9027.02
501.774	8950.41
502.143	9024.54
502.512	9105.66
502.88	9116.51
503.249	9079.9
503.618	9133.91
503.987	9166.23
504.356	9210.29
504.724	9220.92
505.093	9292.33
505.462	9264.53
505.83	9375.04
506.199	9429.72
506.567	9367.8
506.936	9403.96
507.304	9522.38
507.672	9554.92
508.041	9521.25
508.409	9579.1
508.777	9558.99
509.145	9670.85
509.514	9636.72
509.882	9681.02
510.25	9664.75
510.618	9758.3
510.986	9689.38
511.354	9787
511.722	9808.7
512.09	9836.94
512.458	9719.21
512.826	9834.46
513.193	9817.96
513.561	9837.4
513.929	9917.85
514.297	9908.81
514.664	9925.76
515.032	9947.22
515.4	9990.61
515.767	9967.11
516.135	9951.07
516.502	9876.49
516.869	10019.54
517.237	10024.51
517.604	9979.09
517.972	10058.41
518.339	10113.77
518.706	10057.96
519.073	10061.8
519.44	10106.54
519.808	10127.78
520.175	10083.04
520.542	10202.13
520.909	10195.35
521.276	10063.83
521.643	10148.12
522.009	10219.08
522.376	10201.68
522.743	10248.46
523.11	10288.01
523.477	10305.63
523.843	10378.17
524.21	10322.58
524.577	10424.73
524.943	10327.78
525.31	10295.01
525.676	10337.72
526.043	10411.84
526.409	10366.87
526.776	10444.61
527.142	10382.69
527.508	10410.04
527.874	10463.59
528.241	10458.4
528.607	10469.02
528.973	10374.56
529.339	10347.89
529.705	10447.32
530.071	10417.95
530.437	10404.16
530.803	10433.09
531.169	10416.59
531.535	10332.3
531.901	10373.43
532.267	10370.94
532.632	10346.99
532.998	10283.26
533.364	10376.59
533.73	10364.61
534.095	10355.35
534.461	10308.34
534.826	10322.58
535.192	10281.45
535.557	10277.84
535.923	10216.6
536.288	10250.27
536.653	10230.38
537.019	10168.24
537.384	10196.94
537.749	10081.46
538.114	10121.68
538.479	10078.52
538.845	10110.16
539.21	9973.44
539.575	9975.7
539.94	10028.13
540.305	9949.94
540.67	9897.73
541.034	9905.87
541.399	9856.15
541.764	9813.44
542.129	9861.58
542.494	9816.61
542.858	9819.32
543.223	9754.46
543.587	9751.3
543.952	9730.51
544.316	9646.67
544.681	9615.48
545.045	9616.84
545.41	9622.71
545.774	9614.35
546.138	9592.43
546.503	9469.95
546.867	9426.79
547.231	9492.55
547.595	9445.32
547.959	9440.34
548.324	9360.12
548.688	9353.12
549.052	9354.47
549.416	9309.73
549.779	9313.79
550.143	9237.64
550.507	9254.59
550.871	9208.26
551.235	9210.52
551.599	9170.07
551.962	9182.27
552.326	9101.37
552.689	9139.79
553.053	9069.28
553.417	8937.99
553.78	9095.95
554.143	8988.15
554.507	9057.76
554.87	8924.43
555.234	9018.89
555.597	8926.46
555.96	8940.25
556.323	8884.65
556.686	8858.44
557.05	8905.9
557.413	8834.26
557.776	8897.31
558.139	8831.1
558.502	8902.28
558.865	8802.62
559.228	8833.58
559.59	8818.21
559.953	8829.29
560.316	8858.21
560.679	8805.56
561.041	8836.75
561.404	8867.7
561.767	8886.91
562.129	8758.33
562.492	8841.72
562.854	8805.79
563.217	8850.3
563.579	8804.43
563.941	8909.51
564.304	8799.23
564.666	8883.52
565.028	8886.46
565.39	8803.53
565.753	8841.26
566.115	8892.56
566.477	8916.52
566.839	8937.31
567.201	8948.61
567.563	8900.02
567.925	8923.97
568.287	8926.01
568.648	8952.9
569.01	8938.21
569.372	8976.85
569.734	8964.2
570.095	8961.71
570.457	9020.02
570.819	9028.15
571.18	9011.88
571.542	9066.57
571.903	9062.05
572.265	9037.87
572.626	9095.72
572.987	9037.87
573.349	9121.71
573.71	9094.14
574.071	9068.38
574.432	9119.68
574.794	9148.83
575.155	9190.18
575.516	9110.86
575.877	9157.87
576.238	9116.96
576.599	9204.19
576.96	9182.27
577.32	9187.7
577.681	9208.71
578.042	9213.23
578.403	9234.25
578.763	9240.58
579.124	9216.4
579.485	9244.42
579.845	9315.83
580.206	9270.41
580.566	9281.71
580.927	9324.19
581.287	9278.54
581.648	9227.92
582.008	9306.56
582.368	9269.05
582.728	9353.34
583.089	9310.63
583.449	9382.49
583.809	9310.4
584.169	9342.49
584.529	9284.42
584.889	9361.93
585.249	9347.24
585.609	9289.61
585.969	9445.77
586.329	9323.51
586.688	9366.22
587.048	9310.86
587.408	9352.66
587.768	9374.36
588.127	9356.28
588.487	9366.22
588.846	9399.67
589.206	9413.91
589.565	9348.82
589.925	9417.97
590.284	9397.18
590.643	9477.86
591.003	9431.98
591.362	9495.71
591.721	9445.09
592.08	9457.07
592.44	9427.46
592.799	9466.33
593.158	9451.64
593.517	9449.84
593.876	9394.7
594.235	9471.53
594.593	9397.41
594.952	9416.84
595.311	9395.15
595.67	9491.64
596.029	9453.9
596.387	9424.3
596.746	9491.64
597.104	9462.49
597.463	9491.42
597.822	9530.74
598.18	9447.35
598.538	9498.2
598.897	9467.24
599.255	9424.75
599.613	9563.73
599.972	9470.63
600.33	9551.3
600.688	9455.94
601.046	9483.06
601.404	9426.79
601.762	9484.19
602.12	9464.53
602.478	9546.33
602.836	9488.03
603.194	9425.66
603.552	9515.82
603.91	9464.98
604.268	9498.65
604.625	9478.99
604.983	9556.27
605.341	9453.45
605.698	9548.82
606.056	9570.51
606.413	9556.73
606.771	9570.51
607.128	9500.68
607.485	9529.61
607.843	9482.38
608.2	9621.36
608.557	9577.29
608.914	9547.46
609.272	9598.98
609.629	9624.75
609.986	9610.51
610.343	9560.12
610.7	9616.61
611.057	9585.2
611.414	9629.27
611.771	9588.36
612.127	9650.96
612.484	9646.89
612.841	9728.02
613.198	9676.5
613.554	9649.15
613.911	9703.84
614.267	9668.59
614.624	9596.5
614.98	9642.83
615.337	9761.92
615.693	9714.46
616.05	9731.18
616.406	9734.12
616.762	9655.71
617.118	9670.85
617.475	9686.89
617.831	9763.05
618.187	9736.16
618.543	9694.12
618.899	9777.29
619.255	9723.5
619.611	9765.31
619.967	9785.65
620.323	9818.87
620.678	9796.72
621.034	9792.88
621.39	9750.17
621.746	9842.59
622.101	9871.97
622.457	9799.21
622.812	9833.33
623.168	9829.04
623.523	9862.25
623.879	9910.84
624.234	9739.55
624.589	9729.38
624.945	9817.74
625.3	9894.12
625.655	9846.21
626.01	9769.38
626.365	9795.82
626.72	9741.35
627.075	9808.47
627.43	9759.43
627.785	9714.69
628.14	9824.74
628.495	9804.18
628.85	9770.96
629.205	9760.56
629.559	9846.21
629.914	9728.02
630.269	9774.35
630.623	9660
630.978	9653.45
631.332	9790.62
631.687	9823.16
632.041	9703.16
632.396	9702.26
632.75	9635.37
633.104	9641.24
633.459	9643.73
633.813	9606.44
634.167	9695.71
634.521	9611.87
634.875	9640.57
635.229	9564.18
635.583	9574.8
635.937	9538.2
636.291	9578.42
636.645	9560.12
636.999	9472.21
637.352	9608.25
637.706	9452.77
638.06	9497.74
638.413	9510.17
638.767	9451.42
639.121	9512.89
639.474	9406.22
639.828	9403.51
640.181	9447.58
640.534	9467.46
640.888	9456.84
641.241	9350.4
641.594	9408.48
641.947	9441.7
642.301	9394.24
642.654	9358.54
643.007	9397.18
643.36	9367.35
643.713	9406
644.066	9380.69
644.419	9378.88
644.771	9252.1
645.124	9228.15
645.477	9210.75
645.83	9094.14
646.182	9108.38
646.535	9096.17
646.888	9131.2
647.24	9010.75
647.593	9067.25
647.945	9084.65
648.298	8999.23
648.65	9050.98
649.002	9002.16
649.355	9059.34
649.707	8969.4
650.059	9118.32
650.411	9135.27
650.763	9231.54
651.115	9240.58
651.467	9258.88
651.819	9257.3
652.171	9259.11
652.523	9200.35
652.875	9252.78
653.227	9141.82
653.578	9188.6
653.93	9238.99
654.282	9133.01
654.633	9182.05
654.985	9242.16
655.337	9238.54
655.688	9233.12
656.039	9288.03
656.391	9206.45
656.742	9287.13
657.094	9266.11
657.445	9297.98
657.796	9289.61
658.147	9248.49
658.498	9245.77
658.849	9260.01
659.2	9233.8
659.551	9290.97
659.902	9217.3
660.253	9200.8
660.604	9216.4
660.955	9186.79
661.306	9209.62
661.656	9252.78
662.007	9287.58
662.358	9308.82
662.708	9244.42
663.059	9310.18
663.409	9171.65
663.76	9302.04
664.11	9240.8
664.461	9300.69
664.811	9334.59
665.161	9273.57
665.511	9286.68
665.862	9265.66
666.212	9255.49
666.562	9326.45
666.912	9272.21
667.262	9288.26
667.612	9251.88
667.962	9241.25
668.312	9216.4
668.662	9336.39
669.011	9342.72
669.361	9251.88
669.711	9253.91
670.06	9234.7
670.41	9286.68
670.76	9249.84
671.109	9231.08
671.459	9159.67
671.808	9208.94
672.157	9244.19
672.507	9154.02
672.856	9176.4
673.205	9219.56
673.554	9247.81
673.904	9167.13
674.253	9227.7
674.602	9210.75
674.951	9073.35
675.3	9001.26
675.649	9159.67
675.998	9093.46
676.346	9163.06
676.695	9155.61
677.044	9066.12
677.393	9125.33
677.741	9124.2
678.09	9072.67
678.438	9094.82
678.787	9056.85
679.135	9097.98
679.484	8930.53
679.832	9033.8
680.181	8986.57
680.529	8912.22
680.877	8928.27
681.225	8890.75
681.573	8959.45
681.922	8902.28
682.27	8864.77
682.618	8933.69
682.966	8856.63
683.314	8812.34
683.661	8915.61
684.009	8801.04
684.357	8810.98
684.705	8772.79
685.053	8797.2
685.4	8772.79
685.748	8718.56
686.095	8732.12
686.443	8702.96
686.79	8658.67
687.138	8642.17
687.485	8683.98
687.832	8592.91
688.18	8598.79
688.527	8548.17
688.874	8577.32
689.221	8507.04
689.568	8558.56
689.915	8512.01
690.262	8503.19
690.609	8478.34
690.956	8431.78
691.303	8400.6
691.65	8298
691.997	8364.44
692.344	8303.88
692.69	8290.09
693.037	8347.49
693.383	8241.96
693.73	8199.93
694.077	8144.56
694.423	8163.99
694.769	8108.63
695.116	8075.18
695.462	8085.8
695.808	8026.37
696.155	8079.93
696.501	7983.66
696.847	7985.24
697.193	7929.65
697.539	7970.55
697.885	7890.1
698.231	7812.37
698.577	7788.86
698.923	7845.13
699.269	7747.96
699.614	7684.68
699.96	7719.03
700.306	7671.35
700.651	7626.61
700.997	7707.28
701.342	7662.76
701.688	7630
702.033	7552.49
702.379	7565.82
702.724	7519.94
703.069	7545.48
703.415	7465.03
703.76	7446.27
704.105	7429.78
704.45	7412.15
704.795	7317.01
705.14	7336.22
705.485	7344.58
705.83	7290.35
706.175	7289.67
706.52	7341.87
706.865	7260.06
707.209	7234.3
707.554	7173.51
707.899	7196.79
708.243	7149.33
708.588	7151.82
708.932	7131.03
709.277	7136.68
709.621	7118.15
709.966	7065.27
710.31	7049
710.654	7014.65
710.998	7001.77
711.342	6959.73
711.687	6957.02
712.031	6951.14
712.375	6974.2
712.719	6953.86
713.063	6938.72
713.407	6937.13
713.75	6895.55
714.094	6833.63
714.438	6821.43
714.782	6854.2
715.125	6842
715.469	6823.69
715.812	6801.54
716.156	6797.93
716.499	6797.7
716.843	6776.69
717.186	6710.02
717.53	6745.27
717.873	6778.95
718.216	6765.84
718.559	6747.08
718.902	6647.65
719.246	6686.07
719.589	6679.51
719.932	6657.37
720.275	6658.27
720.617	6655.33
720.96	6646.07
721.303	6609.46
721.646	6625.5
721.989	6624.83
722.331	6626.41
722.674	6625.96
723.016	6582.79
723.359	6602
723.701	6627.76
724.044	6566.3
724.386	6582.79
724.729	6596.58
725.071	6502.34
725.413	6506.41
725.755	6555.9
726.097	6500.54
726.439	6496.69
726.782	6514.77
727.124	6535.56
727.465	6521.55
727.807	6514.77
728.149	6472.29
728.491	6472.06
728.833	6455.79
729.175	6455.79
729.516	6497.82
729.858	6495.34
730.199	6487.43
730.541	6510.48
730.882	6453.98
731.224	6464.83
731.565	6484.04
731.906	6479.07
732.248	6446.3
732.589	6506.18
732.93	6452.63
733.271	6381.67
733.612	6454.43
733.953	6435.68
734.294	6480.2
734.635	6468.22
734.976	6454.43
735.317	6505.96
735.658	6464.38
735.999	6441.55
736.339	6456.02
736.68	6462.8
737.021	6435.9
737.361	6440.65
737.702	6445.85
738.042	6487.43
738.383	6459.18
738.723	6474.77
739.063	6442.46
739.404	6539.63
739.744	6509.57
740.084	6494.21
740.424	6537.82
740.764	6519.07
741.104	6531.95
741.444	6552.29
741.784	6536.69
742.124	6572.62
742.464	6612.4
742.804	6615.33
743.143	6624.15
743.483	6652.17
743.823	6626.86
744.162	6691.94
744.502	6762
744.841	6687.65
745.181	6781.43
745.52	6793.86
745.86	6824.14
746.199	6859.4
746.538	6865.05
746.877	6924.03
747.216	6961.09
747.556	7020.07
747.895	7042.44
748.234	7049.22
748.573	7186.84
748.911	7156.79
749.25	7248.54
749.589	7240.85
749.928	7304.13
750.267	7437.01
750.605	7503.45
750.944	7553.16
751.283	7624.35
751.621	7699.15
751.96	7714.06
752.298	7865.25
752.636	7928.29
752.975	8021.17
753.313	8040.38
753.651	8238.12
753.989	8241.73
754.327	8443.08
754.666	8412.35
755.004	8653.25
755.342	8703.42
755.679	8914.94
756.017	8931.66
756.355	9142.73
756.693	9205.55
757.031	9342.72
757.368	9505.65
757.706	9550.85
758.044	9761.47
758.381	9930.5
758.719	10036.94
759.056	10249.59
759.394	10374.33
759.731	10487.78
760.068	10705.62
760.405	10827.88
760.743	10919.18
761.08	11256.34
761.417	11360.97
761.754	11501.08
762.091	11692.04
762.428	11845.71
762.765	11906.04
763.102	12262.19
763.438	12350.78
763.775	12485.91
764.112	12700.6
764.449	12851.78
764.785	13012.91
765.122	13103.3
765.458	13281.15
765.795	13486.57
766.131	13623.74
766.467	13788.03
766.804	13987.34
767.14	14043.61
767.476	14258.07
767.812	14346.88
768.148	14541.23
768.485	14671.85
768.821	14764.95
769.157	14920.43
769.492	15074.77
769.828	15273.41
770.164	15205.84
770.5	15351.6
770.836	15518.38
771.171	15661.88
771.507	15722.44
771.842	15812.15
772.178	15928.54
772.513	16013.96
772.849	16142.77
773.184	16207.85
773.519	16345.93
773.855	16375.3
774.19	16392.25
774.525	16523.32
774.86	16620.04
775.195	16761.28
775.53	16749.31
775.865	16796.08
776.2	16815.29
776.535	16766.03
776.87	16963.76
777.205	17010.99
777.539	17016.19
777.874	17167.6
778.209	17123.53
778.543	17171.89
778.878	17049.18
779.212	17313.36
779.547	17307.93
779.881	17319.69
780.215	17276.07
780.55	17380.7
780.884	17427.48
781.218	17399.91
781.552	17461.15
781.886	17384.09
782.22	17434.71
782.554	17430.19
782.888	17383.86
783.222	17304.54
783.556	17336.18
783.889	17355.39
784.223	17373.02
784.557	17410.08
784.89	17405.79
785.224	17483.3
785.557	17388.84
785.891	17384.09
786.224	17375.28
786.558	17355.84
786.891	17286.69
787.224	17305
787.557	17319.91
787.891	17247.82
788.224	17354.26
788.557	17305.22
788.89	17260.48
789.223	17372.57
789.556	17274.04
789.888	17267.03
790.221	17185.68
790.554	17002.41
790.887	17083.76
791.219	17074.72
791.552	17016.19
791.884	16999.47
792.217	17014.38
792.549	16986.59
792.882	16858.23
793.214	16879.47
793.546	16947.72
793.879	16878.12
794.211	16739.59
794.543	16879.7
794.875	16810.09
795.207	16797.21
795.539	16796.76
795.871	16723.77
796.203	16622.3
796.535	16658.69
796.867	16524.23
797.198	16505.47
797.53	16580.04
797.862	16390.44
798.193	16527.62
798.525	16412.82
798.856	16345.02
799.188	16297.57
799.519	16277.23
799.85	16145.71
800.182	16183.22
800.513	16213.5
800.844	16050.57
801.175	16177.57
801.506	16118.14
801.837	16049.44
802.168	16066.61
802.499	16068.87
802.83	15916.11
803.161	15915.88
803.491	15915.43
803.822	15855.54
804.153	15837.01
804.483	15825.26
804.814	15774.87
805.145	15675.89
805.475	15678.15
805.805	15661.88
806.136	15607.87
806.466	15564.25
806.796	15566.51
807.126	15465.72
807.457	15394.31
807.787	15444.93
808.117	15402.22
808.447	15333.07
808.777	15446.74
809.107	15399.96
809.436	15263.47
809.766	15273.64
810.096	15204.49
810.426	15155.9
810.755	15211.94
811.085	15115.45
811.414	15174.43
811.744	15007.2
812.073	15002.23
812.403	14954.32
812.732	14950.71
813.061	14963.14
813.39	14902.35
813.719	14914.33
814.049	14889.02
814.378	14908.22
814.707	14843.82
815.036	14730.38
815.365	14703.03
815.693	14603.6
816.022	14672.07
816.351	14659.87
816.68	14510.72
817.008	14619.64
817.337	14490.16
817.665	14487.67
817.994	14557.95
818.322	14539.65
818.651	14491.29
818.979	14392.31
819.307	14551.17
819.636	14502.13
819.964	14308.69
820.292	14355.47
820.62	14372.87
820.948	14276.38
821.276	14399.99
821.604	14331.74
821.932	14329.93
822.259	14295.58
822.587	14272.08
822.915	14328.35
823.243	14403.15
823.57	14292.65
823.898	14242.03
824.225	14282.48
824.553	14255.59
824.88	14315.47
825.207	14320.67
825.535	14284.51
825.862	14299.65
826.189	14178.75
826.516	14350.05
826.843	14460.1
827.17	14428.91
827.497	14381.01
827.824	14279.31
828.151	14460.78
828.478	14317.05
828.805	14424.85
829.131	14365.41
829.458	14374.68
829.785	14297.84
830.111	14366.32
830.438	14447.9
830.764	14342.36
831.09	14431.63
831.417	14331.74
831.743	14331.74
832.069	14331.97
832.395	14270.95
832.722	14367
833.048	14269.37
833.374	14364.74
833.7	14235.02
834.026	14211.97
834.351	14280.9
834.677	14268.69
835.003	14247.22
835.329	14318.86
835.654	14259.2
835.98	14150.96
836.306	14204.29
836.631	14120.9
836.956	14165.87
837.282	14104.86
837.607	14174.46
837.932	14134.91
838.258	13985.76
838.583	14078.19
838.908	14081.13
839.233	14020.56
839.558	13914.35
839.883	13926.33
840.208	13856.5
840.533	13940.11
840.858	13878.42
841.182	13934.01
841.507	13929.27
841.832	13816.28
842.156	13787.12
842.481	13810.17
842.805	13740.12
843.13	13683.62
843.454	13737.63
843.778	13630.29
844.103	13586
844.427	13523.63
844.751	13576.73
845.075	13475.49
845.399	13515.27
845.723	13354.14
846.047	13427.36
846.371	13334.25
846.695	13314.14
847.019	13258.1
847.343	13145.33
847.666	13135.84
847.99	13054.49
848.313	12994.6
848.637	12966.81
848.96	12954.83
849.284	12889.52
849.607	12829.63
849.931	12830.54
850.254	12640.03
850.577	12682.29
850.9	12533.82
851.223	12508.51
851.546	12465.35
851.869	12417.89
852.192	12440.94
852.515	12364.56
852.838	12316.2
853.161	12311.68
853.483	12247.95
853.806	12210.44
854.129	12178.8
854.451	12160.5
854.774	12093.83
855.096	11976.32
855.419	11964.57
855.741	11954.86
856.063	11966.83
856.385	11906.27
856.708	11841.19
857.03	11798.48
857.352	11844.12
857.674	11770
857.996	11728.65
858.318	11718.48
858.64	11652.49
858.961	11661.76
859.283	11620.63
859.605	11619.95
859.926	11557.58
860.248	11536.79
860.57	11423.34
860.891	11518.71
861.212	11400.75
861.534	11407.75
861.855	11309.45
862.176	11307.19
862.498	11304.25
862.819	11365.72
863.14	11244.82
863.461	11228.55
863.782	11265.38
864.103	11213.41
864.424	11203.46
864.745	11193.97
865.065	11086.86
865.386	11065.39
865.707	11061.77
866.027	11126.4
866.348	11010.47
866.668	11079.85
866.989	11031.26
867.309	10947.2
867.63	11022.9
867.95	10937.48
868.27	10929.35
868.59	10938.61
868.91	10904.04
869.23	10818.16
869.55	10808.22
869.87	10924.6
870.19	10839.86
870.51	10850.93
870.83	10854.32
871.15	10778.61
871.469	10751.04
871.789	10726.86
872.109	10735.9
872.428	10662.01
872.748	10686.87
873.067	10697.71
873.386	10715.34
873.706	10699.75
874.025	10581.11
874.344	10598.51
874.663	10625.17
874.982	10515.57
875.301	10559.86
875.62	10468.57
875.939	10535.68
876.258	10521.67
876.577	10414.33
876.896	10575.68
877.214	10456.59
877.533	10544.04
877.852	10420.21
878.17	10427.89
878.489	10437.61
878.807	10388.34
879.125	10375.01
879.444	10394.22
879.762	10287.33
880.08	10367.33
880.398	10259.08
880.716	10234.45
881.034	10301.11
881.352	10217.27
881.67	10163.26
881.988	10207.56
882.306	10181.57
882.624	10176.14
882.941	10080.78
883.259	9960.56
883.577	10071.97
883.894	10036.49
884.212	10054.79
884.529	9950.84
884.846	9974.79
885.164	9996.26
885.481	9871.07
885.798	9862.93
886.115	9878.98
886.432	9904.29
886.75	9822.26
887.067	9860.45
887.383	9803.5
887.7	9834.23
888.017	9705.65
888.334	9790.17
888.651	9709.26
888.967	9698.64
889.284	9653.45
889.6	9648.25
889.917	9553.34
890.233	9596.95
890.55	9542.04
890.866	9531.42
891.182	9471.53
891.498	9429.72
891.815	9482.83
892.131	9479.21
892.447	9396.05
892.763	9308.82
893.079	9316.51
893.395	9249.62
893.71	9350.63
894.026	9235.83
894.342	9233.12
894.657	9136.17
894.973	9142.05
895.289	9077.87
895.604	9104.53
895.92	9051.65
896.235	9030.86
896.55	8930.75
896.865	8954.48
897.181	8942.05
897.496	8930.75
897.811	8915.16
898.126	8912
898.441	8808.95
898.756	8818.44
899.071	8690.76
899.386	8704.55
899.7	8643.76
900.015	8642.4
900.33	8524.44
900.644	8537.32
900.959	8549.52
901.273	8493.48
901.588	8403.99
901.902	8526.92
902.216	8425.23
902.531	8387.49
902.845	8406.93
903.159	8237.44
903.473	8296.42
903.787	8242.41
904.101	8207.84
904.415	8214.84
904.729	8215.29
905.042	8129.19
905.356	8130.1
905.67	8081.51
905.984	8090.78
906.297	8079.25
906.611	7979.59
906.924	7995.19
907.237	7959.25
907.551	7904.57
907.864	7804.23
908.177	7882.87
908.491	7804.46
908.804	7783.67
909.117	7667.96
909.43	7704.8
909.743	7671.8
910.056	7659.6
910.368	7605.36
910.681	7542.32
910.994	7527.17
911.307	7554.74
911.619	7458.7
911.932	7465.03
912.244	7408.31
912.557	7406.73
912.869	7343
913.181	7363.11
913.494	7260.06
913.806	7253.74
914.118	7210.8
914.43	7192.04
914.742	7180.07
915.054	7192.04
915.366	7104.59
915.678	7100.07
915.99	7026.4
916.302	7033.18
916.613	7006.06
916.925	6989.79
917.236	6984.59
917.548	6945.5
917.859	6957.47
918.171	6823.24
918.482	6849
918.794	6810.81
919.105	6826.4
919.416	6738.72
919.727	6734.65
920.038	6780.75
920.349	6644.03
920.66	6671.15
920.971	6665.5
921.282	6619.63
921.593	6566.07
921.903	6560.42
922.214	6520.2
922.525	6493.76
922.835	6445.62
923.146	6423.7
923.456	6397.49
923.767	6392.97
924.077	6386.87
924.387	6340.54
924.697	6306.87
925.008	6299.41
925.318	6277.94
925.628	6206.08
925.938	6198.62
926.248	6138.51
926.558	6159.08
926.867	6126.31
927.177	6085.86
927.487	6112.97
927.796	6016.03
928.106	6049.02
928.416	6033.88
928.725	6012.19
929.034	5932.41
929.344	5957.72
929.653	5937.84
929.962	5843.15
930.271	5853.77
930.581	5850.38
930.89	5806.54
931.199	5752.98
931.508	5796.15
931.817	5740.1
932.125	5708.92
932.434	5740.78
932.743	5685.19
933.051	5641.12
933.36	5614.23
933.669	5571.29
933.977	5568.81
934.286	5650.84
934.594	5548.7
934.902	5539.43
935.21	5477.74
935.519	5524.06
935.827	5451.52
936.135	5430.96
936.443	5399.77
936.751	5335.59
937.059	5307.35
937.367	5329.72
937.674	5342.6
937.982	5325.88
938.29	5291.98
938.597	5269.83
938.905	5122.72
939.213	5192.32
939.52	5129.05
939.827	5159.1
940.135	5143.73
940.442	5121.59
940.749	5047.47
941.056	5085.43
941.363	5023.96
941.67	5021.25
941.977	5036.17
942.284	4933.8
942.591	4959.11
942.898	4947.81
943.205	4938.09
943.511	4928.83
943.818	4913.91
944.125	4840.92
944.431	4822.61
944.738	4848.6
945.044	4813.57
945.35	4724.31
945.657	4752.11
945.963	4690.64
946.269	4728.6
946.575	4692.45
946.881	4659.91
947.187	4647.7
947.493	4629.4
947.799	4601.38
948.105	4590.53
948.41	4564.32
948.716	4567.48
949.022	4539.68
949.327	4534.71
949.633	4472.34
949.938	4505.79
950.244	4479.8
950.549	4414.71
950.854	4389.86
951.16	4400.25
951.465	4379.69
951.77	4330.87
952.075	4357.54
952.38	4308.73
952.685	4350.54
952.99	4288.84
953.294	4255.62
953.599	4246.13
953.904	4218.11
954.209	4196.19
954.513	4192.57
954.818	4193.48
955.122	4162.07
955.426	4145.79
955.731	4094.04
956.035	4112.12
956.339	4088.62
956.643	4040.94
956.948	4037.55
957.252	4058.34
957.556	4014.05
957.86	3966.82
958.163	3979.25
958.467	3961.62
958.771	3994.16
959.075	3932.47
959.378	3908.74
959.682	3935.63
959.985	3847.27
960.289	3895.41
960.592	3865.35
960.896	3799.82
961.199	3856.31
961.502	3837.33
961.805	3806.59
962.108	3778.57
962.411	3756.65
962.714	3730.21
963.017	3700.83
963.32	3732.47
963.623	3664.9
963.926	3659.48
964.228	3635.75
964.531	3689.99
964.833	3616.54
965.136	3607.5
965.438	3623.55
965.741	3559.82
966.043	3541.97
966.345	3545.36
966.648	3547.17
966.95	3542.19
967.252	3472.59
967.554	3521.63
967.856	3431.46
968.158	3464.68
968.46	3472.82
968.761	3462.88
969.063	3485.7
969.365	3422.65
969.666	3381.52
969.968	3413.38
970.269	3353.73
970.571	3327.06
970.872	3333.61
971.174	3346.04
971.475	3348.08
971.776	3291.81
972.077	3259.94
972.378	3244.35
972.679	3261.3
972.98	3231.92
973.281	3226.05
973.582	3219.49
973.883	3203.9
974.183	3169.78
974.484	3183.11
974.785	3116.44
975.085	3165.93
975.386	3150.79
975.686	3132.26
975.986	3076.9
976.287	3101.3
976.587	3097.69
976.887	3074.86
977.187	3045.03
977.487	3032.38
977.787	3030.8
978.087	3019.27
978.387	2980.85
978.687	2949.22
978.987	2975.88
979.286	2971.36
979.586	2923.68
979.885	2902.66
980.185	2932.49
980.484	2876.68
980.784	2884.13
981.083	2842.55
981.382	2828.99
981.682	2866.51
981.981	2828.09
982.28	2805.27
982.579	2797.13
982.878	2820.86
983.177	2783.8
983.475	2778.37
983.774	2767.53
984.073	2745.38
984.372	2717.36
984.67	2737.92
984.969	2711.26
985.267	2697.92
985.566	2693.18
985.864	2661.54
986.162	2662.22
986.461	2629
986.759	2605.5
987.057	2650.24
987.355	2612.73
987.653	2582.45
987.951	2624.7
988.249	2543.58
988.547	2592.39
988.844	2549.23
989.142	2543.35
989.44	2502.45
989.737	2542
990.035	2534.31
990.332	2482.11
990.63	2466.74
990.927	2472.62
991.224	2473.3
991.521	2440.3
991.819	2458.61
992.116	2433.3
992.413	2433.75
992.71	2406.18
993.006	2393.98
993.303	2393.52
993.6	2349.46
993.897	2342.45
994.193	2337.93
994.49	2347.65
994.787	2343.36
995.083	2321.66
995.379	2301.78
995.676	2257.71
995.972	2318.05
996.268	2262.45
996.565	2224.49
996.861	2253.87
997.157	2240.99
997.453	2219.29
997.749	2210.7
998.044	2172.74
998.34	2190.59
998.636	2181.33
998.932	2146.07
999.227	2135.9
999.523	2163.47
999.818	2158.05
1000.114	2141.1
1000.409	2111.05
1000.704	2106.53
1001	2121.89
1001.295	2075.79
1001.59	2083.02
1001.885	2057.94
1002.18	2051.61
1002.475	2052.29
1002.77	2017.94
1003.065	2010.94
1003.359	2005.74
1003.654	2014.1
1003.949	2015.91
1004.243	1978.39
1004.538	1932.52
1004.832	1951.73
1005.127	1946.98
1005.421	1911.28
1005.715	1913.09
1006.009	1867.66
1006.304	1868.11
1006.598	1862.69
1006.892	1871.96
1007.186	1843.93
1007.48	1836.93
1007.773	1851.62
1008.067	1821.79
1008.361	1815.69
1008.655	1802.13
1008.948	1805.07
1009.242	1778.63
1009.535	1791.05
1009.829	1776.59
1010.122	1773.65
1010.415	1738.63
1010.708	1761.9
1011.001	1720.32
1011.295	1730.94
1011.588	1749.7
1011.881	1711.51
1012.173	1683.26
1012.466	1681
1012.759	1648.46
1013.052	1666.09
1013.344	1661.57
1013.637	1632.19
1013.93	1630.15
1014.222	1609.36
1014.514	1602.58
1014.807	1576.82
1015.099	1601
1015.391	1594.45
1015.683	1582.25
1015.976	1543.6
1016.268	1565.07
1016.56	1566.43
1016.851	1550.61
1017.143	1519.65
1017.435	1540.21
1017.727	1531.63
1018.018	1540.67
1018.31	1497.95
1018.602	1487.56
1018.893	1476.49
1019.185	1469.03
1019.476	1462.93
1019.767	1456.6
1020.058	1454.79
1020.35	1434.23
1020.641	1440.56
1020.932	1421.57
1021.223	1400.1
1021.514	1365.98
1021.804	1377.05
1022.095	1363.95
1022.386	1359.43
1022.677	1383.38
1022.967	1341.35
1023.258	1330.28
1023.548	1321.69
1023.839	1320.11
1024.129	1284.4
1024.419	1318.98
1024.709	1282.37
1025	1298.19
1025.29	1281.69
1025.58	1269.94
1025.87	1252.99
1026.16	1250.5
1026.449	1243.05
1026.739	1231.75
1027.029	1215.02
1027.319	1201.92
1027.608	1211.41
1027.898	1204.4
1028.187	1201.47
1028.477	1199.43
1028.766	1201.92
1029.055	1135.7
1029.344	1180.45
1029.634	1162.6
1029.923	1162.6
1030.212	1165.99
1030.501	1144.97
1030.79	1120.79
1031.078	1155.37
1031.367	1122.82
1031.656	1101.58
1031.945	1119.21
1032.233	1108.59
1032.522	1098.64
1032.81	1074.46
1033.099	1080.56
1033.387	1072.2
1033.675	1036.72
1033.963	1044.86
1034.251	1041.92
1034.54	1053.45
1034.828	1038.31
1035.116	1031.98
1035.403	1014.35
1035.691	1018.19
1035.979	995.14
1036.267	1009.38
1036.554	1008.25
1036.842	975.26
1037.129	1013.45
1037.417	964.64
1037.704	968.93
1037.992	959.21
1038.279	957.18
1038.566	943.85
1038.853	943.85
1039.14	943.85
