Data from hue_22_FLMS001491_00082.txt Node
Date: Tue Feb 07 17:10:45 GMT 2017
User: dcchb
Spectrometer: FLMS00149
Trigger mode: 0
Integration Time (sec): 2.000000E-2
Scans to average: 10
Electric dark correction enabled: true
Nonlinearity correction enabled: false
Boxcar width: 0
XAxis mode: Wavelengths
Number of Pixels in Spectrum: 2048
>>>>>Begin Spectral Data<<<<<
341.393	-5.01
341.776	-5.01
342.16	-5.01
342.543	-68.52
342.927	-56.99
343.31	-58.12
343.693	-58.35
344.077	-75.07
344.46	-55.41
344.843	-48.4
345.226	-38.69
345.61	-51.34
345.993	-6.14
346.376	-13.15
346.759	3.57
347.142	10.58
347.525	37.24
347.908	58.26
348.291	74.31
348.674	93.51
349.057	127.19
349.44	123.8
349.823	148.65
350.206	160.18
350.588	197.47
350.971	212.16
351.354	232.27
351.737	241.31
352.119	236.11
352.502	253.06
352.884	296
353.267	298.71
353.65	301.19
354.032	298.71
354.414	312.94
354.797	323.79
355.179	323.79
355.562	324.92
355.944	316.56
356.326	324.02
356.709	347.07
357.091	342.32
357.473	345.49
357.855	325.15
358.238	343.45
358.62	350.68
359.002	350.23
359.384	336.45
359.766	340.06
360.148	362.43
360.53	344.81
360.912	338.93
361.294	332.15
361.676	354.98
362.057	317.92
362.439	340.74
362.821	310.68
363.203	343
363.584	327.86
363.966	327.86
364.348	335.77
364.729	324.69
365.111	303.23
365.493	302.32
365.874	310.23
366.256	328.76
366.637	312.94
367.019	317.46
367.4	326.05
367.781	309.33
368.163	317.92
368.544	306.39
368.925	317.46
369.306	328.31
369.688	317.69
370.069	329.21
370.45	317.92
370.831	322.66
371.212	330.34
371.593	315.66
371.974	334.19
372.355	298.25
372.736	335.77
373.117	323.11
373.498	317.46
373.879	313.17
374.26	323.11
374.641	329.21
375.021	320.63
375.402	342.55
375.783	317.24
376.163	351.59
376.544	343
376.925	346.84
377.305	347.97
377.686	314.07
378.066	325.82
378.447	344.36
378.827	328.54
379.208	333.96
379.588	319.72
379.968	338.03
380.349	344.13
380.729	353.85
381.109	348.65
381.489	345.49
381.87	332.83
382.25	329.89
382.63	322.66
383.01	329.89
383.39	354.98
383.77	373.28
384.15	364.47
384.53	339.16
384.91	361.53
385.29	364.47
385.67	368.31
386.049	343.9
386.429	361.3
386.809	371.47
387.189	361.53
387.568	349.78
387.948	394.3
388.328	374.64
388.707	348.2
389.087	379.38
389.466	360.85
389.846	380.06
390.225	387.97
390.605	384.81
390.984	374.86
391.363	359.95
391.743	361.3
392.122	375.09
392.501	363.11
392.881	379.61
393.26	378.25
393.639	394.52
394.018	397.91
394.397	396.78
394.776	397.24
395.155	391.81
395.534	390
395.913	386.61
396.292	381.19
396.671	396.78
397.05	430.91
397.429	389.1
397.808	395.65
398.186	391.59
398.565	412.15
398.944	413.51
399.323	408.76
399.701	413.96
400.08	405.82
400.458	431.81
400.837	413.05
401.215	419.16
401.594	406.27
401.972	430.45
402.351	420.96
402.729	431.58
403.107	435.2
403.486	438.14
403.864	431.58
404.242	453.51
404.62	435.88
404.999	426.16
405.377	430.68
405.755	430
406.133	467.06
406.511	449.21
406.889	431.58
407.267	433.62
407.645	459.15
408.023	443.79
408.401	470.91
408.779	466.84
409.156	460.06
409.534	469.78
409.912	466.61
410.29	505.03
410.667	478.59
411.045	457.35
411.422	480.62
411.8	479.49
412.178	493.05
412.555	504.58
412.933	480.85
413.31	490.34
413.687	524.46
414.065	486.27
414.442	511.36
414.819	502.54
415.197	518.59
415.574	534.63
415.951	530.11
416.328	525.14
416.705	539.38
417.082	519.27
417.46	543.22
417.837	520.85
418.214	524.01
418.591	553.84
418.967	543.45
419.344	542.09
419.721	549.1
420.098	557.23
420.475	582.09
420.852	542.77
421.228	587.06
421.605	588.42
421.982	560.85
422.358	577.57
422.735	597.23
423.111	570.56
423.488	587.74
423.864	573.28
424.241	585.25
424.617	611.24
424.994	612.14
425.37	610.11
425.746	599.26
426.123	613.73
426.499	608.98
426.875	599.49
427.251	637.23
427.627	649.88
428.003	621.64
428.379	618.92
428.756	642.43
429.132	661.18
429.507	661.64
429.883	658.47
430.259	669.32
430.635	671.58
431.011	673.16
431.387	686.27
431.763	698.02
432.138	694.63
432.514	732.82
432.89	703.67
433.265	720.39
433.641	729.43
434.016	733.27
434.392	731.01
434.767	716.1
435.143	739.15
435.518	753.84
435.894	729.66
436.269	756.55
436.644	774.85
437.02	761.29
437.395	787.06
437.77	765.81
438.145	800.61
438.52	797.68
438.895	818.92
439.271	809.2
439.646	807.39
440.021	814.17
440.395	817.34
440.77	835.64
441.145	820.5
441.52	837
441.895	853.04
442.27	876.09
442.645	853.95
443.019	885.13
443.394	858.69
443.769	861.18
444.143	887.62
444.518	879.71
444.892	892.82
445.267	881.29
445.641	906.83
446.016	884
446.39	898.01
446.764	901.4
447.139	921.29
447.513	899.37
447.887	934.85
448.262	957.9
448.636	927.84
449.01	934.4
449.384	931.91
449.758	960.16
450.132	971.46
450.506	971.23
450.88	981.85
451.254	976.2
451.628	999.03
452.002	940.5
452.376	995.86
452.75	1012.13
453.123	999.71
453.497	1034.96
453.871	1045.35
454.244	1068.63
454.618	1062.08
454.992	1076.09
455.365	1070.44
455.739	1091.91
456.112	1101.4
456.486	1112.24
456.859	1101.4
457.232	1151.11
457.606	1134.17
457.979	1143.66
458.352	1175.97
458.725	1194.95
459.099	1186.82
459.472	1182.07
459.845	1218.68
460.218	1216.42
460.591	1221.85
460.964	1213.03
461.337	1262.3
461.71	1274.73
462.083	1276.53
462.456	1308.17
462.829	1311.11
463.201	1315.18
463.574	1321.05
463.947	1357.66
464.32	1372.12
464.692	1406.25
465.065	1397.44
465.438	1426.36
465.81	1422.52
466.183	1462.74
466.555	1460.71
466.928	1468.17
467.3	1487.6
467.672	1497.55
468.045	1529.63
468.417	1510.2
468.789	1541.16
469.161	1565.34
469.534	1601.05
469.906	1632.91
470.278	1639.91
470.65	1634.94
471.022	1686.47
471.394	1728.95
471.766	1748.84
472.138	1752.68
472.51	1792.45
472.882	1845.11
473.253	1840.36
473.625	1861.6
473.997	1920.81
474.369	1915.61
474.74	1964.2
475.112	1998.55
475.484	2038.77
475.855	2030.86
476.227	2088.49
476.598	2141.37
476.97	2196.74
477.341	2242.16
477.713	2234.02
478.084	2257.07
478.455	2334.81
478.827	2373.68
479.198	2442.61
479.569	2436.96
479.94	2505.2
480.311	2508.14
480.682	2580
481.053	2674.69
481.424	2705.88
481.795	2697.29
482.166	2772.09
482.537	2805.99
482.908	2903.38
483.279	2914.23
483.65	2979.54
484.021	3031.97
484.391	3086.88
484.762	3133.89
485.133	3158.29
485.503	3206.65
485.874	3264.05
486.244	3309.48
486.615	3390.6
486.985	3422.69
487.356	3421.56
487.726	3551.5
488.097	3639.64
488.467	3644.61
488.837	3711.27
489.207	3762.12
489.578	3811.61
489.948	3863.58
490.318	3942.23
490.688	3953.53
491.058	4002.56
491.428	4088.21
491.798	4135.44
492.168	4228.77
492.538	4224.03
492.908	4287.98
493.278	4355.78
493.648	4355.55
494.017	4434.64
494.387	4497.24
494.757	4522.32
495.126	4582.89
495.496	4580.18
495.866	4634.86
496.235	4694.52
496.605	4756.22
496.974	4758.93
497.344	4856.78
497.713	4835.31
498.082	4859.04
498.452	4960.96
498.821	4948.08
499.19	4970.45
499.559	5029.88
499.928	5056.32
500.298	5067.62
500.667	5141.74
501.036	5172.03
501.405	5200.72
501.774	5241.4
502.143	5301.29
502.512	5342.19
502.88	5348.97
503.249	5400.95
503.618	5403.88
503.987	5433.04
504.356	5452.92
504.724	5523.65
505.093	5529.98
505.462	5548.74
505.83	5565.91
506.199	5653.37
506.567	5668.28
506.936	5705.34
507.304	5730.65
507.672	5766.81
508.041	5821.05
508.409	5760.26
508.777	5837.77
509.145	5906.69
509.514	5907.82
509.882	5917.77
510.25	5923.87
510.618	5980.37
510.986	6035.51
511.354	6066.92
511.722	6143.3
512.09	6174.26
512.458	6139.46
512.826	6134.03
513.193	6220.13
513.561	6267.82
513.929	6279.79
514.297	6346.46
514.664	6361.6
515.032	6335.38
515.4	6456.74
515.767	6402.95
516.135	6497.87
516.502	6461.48
516.869	6537.64
517.237	6552.33
517.604	6555.49
517.972	6632.55
518.339	6601.82
518.706	6613.8
519.073	6700.57
519.44	6699.22
519.808	6742.15
520.175	6766.79
520.542	6808.59
520.909	6850.17
521.276	6852.88
521.643	6908.25
522.009	6952.77
522.376	7028.25
522.743	7067.12
523.11	7113.89
523.477	7147.79
523.843	7190.05
524.21	7232.99
524.577	7336.04
524.943	7320.9
525.31	7330.61
525.676	7414.45
526.043	7428.91
526.409	7451.29
526.776	7545.07
527.142	7559.76
527.508	7598.18
527.874	7668.91
528.241	7755.01
528.607	7778.74
528.973	7815.8
529.339	7780.32
529.705	7930.82
530.071	7896.7
530.437	7991.61
530.803	7988.22
531.169	8032.97
531.535	7959.3
531.901	8030.93
532.267	8126.52
532.632	8204.26
532.998	8148.67
533.364	8273.64
533.73	8257.14
534.095	8321.09
534.461	8355.9
534.826	8402
535.192	8448.32
535.557	8439.96
535.923	8491.49
536.288	8531.71
536.653	8530.58
537.019	8562.9
537.384	8652.84
537.749	8688.77
538.114	8685.38
538.479	8693.74
538.845	8681.76
539.21	8718.6
539.575	8743.46
539.94	8853.28
540.305	8897.35
540.67	8829.1
541.034	8914.3
541.399	8945.49
541.764	9000.85
542.129	9023.22
542.494	9066.39
542.858	9111.36
543.223	9086.05
543.587	9203.78
543.952	9213.27
544.316	9249.66
544.681	9288.07
545.045	9369.2
545.41	9417.56
545.774	9419.82
546.138	9451.46
546.503	9502.76
546.867	9495.08
547.231	9613.94
547.595	9540.95
547.959	9612.59
548.324	9558.8
548.688	9585.02
549.052	9750.21
549.416	9654.62
549.779	9760.15
550.143	9703.21
550.507	9892.35
550.871	9872.01
551.235	9828.4
551.599	9949.07
551.962	9956.08
552.326	9973.03
552.689	10002.63
553.053	10007.38
553.417	10038.34
553.78	10145.91
554.143	10137.09
554.507	10162.18
554.87	10217.77
555.234	10247.15
555.597	10278.33
555.96	10279.01
556.323	10330.53
556.686	10301.38
557.05	10418.89
557.413	10439.46
557.776	10525.1
558.139	10516.29
558.502	10559.68
558.865	10521.94
559.228	10578.66
559.59	10622.73
559.953	10775.27
560.316	10765.78
560.679	10775.04
561.041	10846
561.404	10859.56
561.767	10967.8
562.129	10867.47
562.492	11000.8
562.854	11024.75
563.217	10993.79
563.579	11040.57
563.941	11128.48
564.304	11137.97
564.666	11232.2
565.028	11253.67
565.39	11324.41
565.753	11371.86
566.115	11395.14
566.477	11489.37
566.839	11424.74
567.201	11503.84
567.563	11544.74
567.925	11610.27
568.287	11679.65
568.648	11639.88
569.01	11716.94
569.372	11840.32
569.734	11831.74
570.095	11879.65
570.457	11941.56
570.819	12000.55
571.18	12049.13
571.542	12109.92
571.903	12072.63
572.265	12127.55
572.626	12267.21
572.987	12312.85
573.349	12294.1
573.71	12394.21
574.071	12497.71
574.432	12460.19
574.794	12695.67
575.155	12678.27
575.516	12628.55
575.877	12878.49
576.238	12843.46
576.599	13032.61
576.96	12987.19
577.32	13031.71
577.681	13195.77
578.042	13246.61
578.403	13310.79
578.763	13342.21
579.124	13484.8
579.485	13596.66
579.845	13704.68
580.206	13878.24
580.566	14001.85
580.927	14130.43
581.287	14313.48
581.648	14311.9
582.008	14480.03
582.368	14647.48
582.728	14778.33
583.089	15000.47
583.449	15019.9
583.809	15260.35
584.169	15440.23
584.529	15502.83
584.889	15796.38
585.249	15903.49
585.609	16102.59
585.969	16314.1
586.329	16581.89
586.688	16798.61
587.048	17024.14
587.408	17166.74
587.768	17428.2
588.127	17628.19
588.487	17742.54
588.846	18177.11
589.206	18379.59
589.565	18566.7
589.925	18860.25
590.284	19172.33
590.643	19501.37
591.003	19801.24
591.362	20027.91
591.721	20302.47
592.08	20601
592.44	20946.07
592.799	21271.26
593.158	21418.6
593.517	21789.67
593.876	22066.04
594.235	22444.11
594.593	22657.89
594.952	23040.26
595.311	23240.93
595.67	23737.19
596.029	24056.95
596.387	24369.94
596.746	24804.73
597.104	24898.06
597.463	25281.33
597.822	25684.03
598.18	25756.12
598.538	26227.06
598.897	26687.62
599.255	26728.29
599.613	27381.16
599.972	27535.73
600.33	27765.33
600.688	28160.35
601.046	28491.86
601.404	28953.09
601.762	29058.4
602.12	29493.87
602.478	29746.07
602.836	30095.66
603.194	30243.23
603.552	30762.54
603.91	30650.23
604.268	31226.26
604.625	31408.85
604.983	31901.49
605.341	31955.05
605.698	32373.12
606.056	32630.74
606.413	32909.15
606.771	33373.77
607.128	33536.25
607.485	33668.45
607.843	33965.39
608.2	34364.03
608.557	34689.67
608.914	34811.47
609.272	35149.32
609.629	35535.29
609.986	35691.67
610.343	35801.28
610.7	36209.18
611.057	36417.98
611.414	36621.37
611.771	36899.78
612.127	37192.2
612.484	37434
612.841	37779.53
613.198	37614.56
613.554	37959.86
613.911	38263.13
614.267	38451.83
614.624	38532.28
614.98	38736.34
615.337	39043
615.693	39140.17
616.05	39218.59
616.406	39701.74
616.762	39687.95
617.118	39766.37
617.475	40028.28
617.831	40221.95
618.187	40372.46
618.543	40647.48
618.899	40904.64
619.255	40835.72
619.611	41036.17
619.967	41238.2
620.323	41554.12
620.678	41516.38
621.034	41566.1
621.39	41542.14
621.746	41734.91
622.101	42279.3
622.457	41970.61
622.812	42343.7
623.168	42400.65
623.523	42674.09
623.879	42836.8
624.234	42567.2
624.589	42748.21
624.945	42893.75
625.3	42944.14
625.655	43049.9
626.01	43154.08
626.365	43184.81
626.72	43192.27
627.075	43354.75
627.43	43280.18
627.785	43348.42
628.14	43401.53
628.495	43634.74
628.85	43632.48
629.205	43587.29
629.559	43809.2
629.914	43829.31
630.269	43952.7
630.623	43811.69
630.978	43848.97
631.332	43911.35
631.687	44205.8
632.041	44050.1
632.396	44236.99
632.75	44014.17
633.104	44143.43
633.459	44016.65
633.813	44014.62
634.167	43936.66
634.521	44150.66
634.875	44032.7
635.229	44104.56
635.583	43932.59
635.937	43940.72
636.291	44039.7
636.645	44036.09
636.999	44039.93
637.352	44166.93
637.706	43943.89
638.06	44224.56
638.413	44080.83
638.767	43879.26
639.121	44038.8
639.474	43999.7
639.828	43979.37
640.181	44155.86
640.534	44091.91
640.888	43996.77
641.241	43862.08
641.594	43920.16
641.947	43904.57
642.301	43920.38
642.654	43892.59
643.007	43999.03
643.36	43918.12
643.713	43917.67
644.066	44124.67
644.419	43976.2
644.771	43653.27
645.124	43205.83
645.477	43235.43
645.83	42859.17
646.182	42785.5
646.535	42762.22
646.888	42948.88
647.24	42731.26
647.593	42860.98
647.945	42853.52
648.298	42599.06
648.65	42528.33
649.002	42440.88
649.355	42606.75
649.707	42587.76
650.059	42803.8
650.411	43305.03
650.763	43376.44
651.115	43501.19
651.467	43492.37
651.819	43539.6
652.171	43350.91
652.523	43477.68
652.875	43483.56
653.227	43249.89
653.578	43519.72
653.93	43407.63
654.282	43300.06
654.633	43140.29
654.985	43279.72
655.337	43301.64
655.688	43354.3
656.039	43477.91
656.391	43017.13
656.742	43198.82
657.094	43255.32
657.445	43391.59
657.796	43291.47
658.147	43203.79
658.498	43221.87
658.849	43216
659.2	43228.88
659.551	43092.61
659.902	43167.41
660.253	43150.69
660.604	43105.72
660.955	42898.04
661.306	43158.14
661.656	43016.23
662.007	43054.64
662.358	43207.18
662.708	43183.91
663.059	43253.74
663.409	42891.71
663.76	43223
664.11	43190.01
664.461	43156.79
664.811	43172.83
665.161	43122.21
665.511	42979.17
665.862	43037.47
666.212	43095.55
666.562	43097.13
666.912	43100.52
667.262	42982.78
667.612	43209.44
667.962	42984.59
668.312	42983.69
668.662	43209.22
669.011	43016.45
669.361	42948.88
669.711	42929.22
670.06	42927.42
670.41	42837.7
670.76	42944.59
671.109	43039.28
671.459	42923.8
671.808	42880.64
672.157	43047.64
672.507	42542.57
672.856	42660.53
673.205	42792.96
673.554	42807.19
673.904	42785.73
674.253	42973.74
674.602	42827.08
674.951	42241.78
675.3	41939.42
675.649	42621.89
675.998	42572.4
676.346	42587.54
676.695	42707.76
677.044	42344.61
677.393	42471.84
677.741	42640.64
678.09	42562.45
678.438	42469.8
678.787	42629.12
679.135	42544.15
679.484	42272.07
679.832	42355.23
680.181	42055.12
680.529	42145.29
680.877	42118.85
681.225	42169.02
681.573	42508.22
681.922	42086.99
682.27	42012.86
682.618	42020.77
682.966	41929.02
683.314	41966.31
683.661	41883.83
684.009	41692.42
684.357	41649.94
684.705	41550.5
685.053	41589.82
685.4	41632.08
685.748	41334.92
686.095	41310.74
686.443	41233
686.79	41193.22
687.138	41315.71
687.485	41164.98
687.832	41042.95
688.18	41119.55
688.527	40967.02
688.874	40862.16
689.221	40736.51
689.568	40766.57
689.915	40609.29
690.262	40722.28
690.609	40539.23
690.956	40446.35
691.303	40304.89
691.65	40162.29
691.997	40117.77
692.344	39819.25
692.69	39988.51
693.037	39912.35
693.383	39661.74
693.73	39716.65
694.077	39447.06
694.423	39536.77
694.769	39409.09
695.116	39243.9
695.462	39162.09
695.808	39212.94
696.155	39175.88
696.501	38882.55
696.847	38857.92
697.193	38682.1
697.539	38804.14
697.885	38691.14
698.231	38447.76
698.577	38497.25
698.923	38344.49
699.269	38159.86
699.614	37948.79
699.96	37919.64
700.306	37926.42
700.651	37811.62
700.997	37786.76
701.342	37637.61
701.688	37636.26
702.033	37574.34
702.379	37437.39
702.724	37314
703.069	37377.51
703.415	37043.05
703.76	37015.71
704.105	37070.85
704.45	37005.76
704.795	36710.63
705.14	36738.2
705.485	36672.44
705.83	36377.53
706.175	36552.67
706.52	36489.85
706.865	36348.83
707.209	36276.74
707.554	36041.95
707.899	36175.5
708.243	36030.87
708.588	36021.61
708.932	35636.99
709.277	35765.8
709.621	35754.5
709.966	35409.65
710.31	35630.21
710.654	35218.69
710.998	35387.73
711.342	35338.24
711.687	35167.62
712.031	35112.48
712.375	34898.02
712.719	35049.88
713.063	34980.05
713.407	35105.48
713.75	34878.36
714.094	34759.27
714.438	34666.39
714.782	34783.9
715.125	34520.18
715.469	34615.77
715.812	34604.25
716.156	34362.9
716.499	34372.61
716.843	34242.45
717.186	34071.83
717.53	34318.6
717.873	34244.93
718.216	34208.1
718.559	33986.63
718.902	33726.53
719.246	33862.57
719.589	33765.4
719.932	33559.75
720.275	33493.99
720.617	33621.22
720.96	33416.48
721.303	33550.94
721.646	33533.77
721.989	33322.25
722.331	33323.83
722.674	33253.77
723.016	33322.92
723.359	33291.96
723.701	33279.53
724.044	32990.28
724.386	32844.52
724.729	33002.03
725.071	32890.17
725.413	32966.55
725.755	32904.63
726.097	32709.38
726.439	32648.59
726.782	32578.76
727.124	32641.59
727.465	32608.37
727.807	32469.84
728.149	32360.24
728.491	32332.21
728.833	32428.94
729.175	32270.97
729.516	32170.64
729.858	32171.99
730.199	32304.87
730.541	32058.55
730.882	31983.52
731.224	32127.47
731.565	31919.12
731.906	31940.36
732.248	31915.95
732.589	31799.12
732.93	31746.02
733.271	31769.74
733.612	31773.13
733.953	31837.09
734.294	31570.2
734.635	31462.18
734.976	31553.48
735.317	31481.62
735.658	31449.75
735.999	31496.08
736.339	31388.28
736.68	31403.2
737.021	31343.99
737.361	31180.38
737.702	31374.95
738.042	31224.45
738.383	31170.66
738.723	31202.98
739.063	31095.86
739.404	31136.09
739.744	30942.87
740.084	30920.95
740.424	30966.38
740.764	30870.78
741.104	30817.45
741.444	30624.92
741.784	30529.55
742.124	30664.46
742.464	30567.52
742.804	30616.55
743.143	30403
743.483	30471.47
743.823	30299.5
744.162	30354.41
744.502	30520.96
744.841	30128.88
745.181	30509.21
745.52	30206.4
745.86	30193.74
746.199	30192.38
746.538	30082.56
746.877	30234.87
747.216	30101.99
747.556	30168.2
747.895	30147.19
748.234	30054.53
748.573	29916.46
748.911	29916.23
749.25	29842.34
749.589	29734.09
749.928	29812.06
750.267	29746.29
750.605	29693.87
750.944	29574.55
751.283	29516.7
751.621	29570.93
751.96	29418.62
752.298	29436.25
752.636	29426.3
752.975	29366.42
753.313	29097.27
753.651	29256.59
753.989	29092.98
754.327	29002.13
754.666	28947.9
755.004	28955.81
755.342	28979.99
755.679	28899.08
756.017	28798.75
756.355	28897.73
756.693	28509.72
757.031	28699.99
757.368	28487.12
757.706	28570.28
758.044	28433.56
758.381	28399.89
758.719	28322.83
759.056	28326.9
759.394	28143.85
759.731	28086.45
760.068	28100.46
760.405	27910.86
760.743	27859.11
761.08	27961.48
761.417	27747.93
761.754	27677.2
762.091	27704.54
762.428	27543.41
762.765	27347.94
763.102	27524.66
763.438	27377.99
763.775	27283.31
764.112	27217.55
764.449	27275.85
764.785	27105.91
765.122	26865.24
765.458	26849.65
765.795	26859.82
766.131	26771.91
766.467	26740.05
766.804	26558.13
767.14	26530.79
767.476	26506.38
767.812	26317.23
768.148	26231.58
768.485	26122.89
768.821	25999.95
769.157	26021.65
769.492	25944.36
769.828	25919.05
770.164	25710.24
770.5	25616.91
770.836	25621.43
771.171	25300.99
771.507	25394.32
771.842	25124.72
772.178	25201.78
772.513	25027.32
772.849	25028.45
773.184	24987.55
773.519	24892.64
773.855	24845.18
774.19	24662.59
774.525	24564.96
774.86	24595.47
775.195	24533.1
775.53	24448.13
775.865	24238.64
776.2	24108.7
776.535	23988.71
776.87	23965.43
777.205	23927.92
777.539	23768.37
777.874	23750.07
778.209	23597.76
778.543	23575.16
778.878	23502.84
779.212	23335.39
779.547	23414.26
779.881	23285.67
780.215	23148.28
780.55	23200.7
780.884	22935.4
781.218	22894.04
781.552	22948.51
781.886	22815.18
782.22	22707.38
782.554	22622.41
782.888	22451.57
783.222	22334.96
783.556	22258.36
783.889	22380.16
784.223	21976.55
784.557	22092.48
784.89	22031.24
785.224	21873.96
785.557	21920.06
785.891	21788.09
786.224	21774.3
786.558	21707.18
786.891	21579.5
787.224	21479.39
787.557	21332.73
787.891	21318.49
788.224	21253.18
788.557	21291.83
788.89	21196.24
789.223	21214.77
789.556	20933.64
789.888	20842.57
790.221	20882.35
790.554	20708.57
790.887	20774.33
791.219	20624.5
791.552	20480.32
791.884	20403.49
792.217	20368.69
792.549	20337.5
792.882	20197.62
793.214	20186.55
793.546	20258.18
793.879	20000.79
794.211	19858.64
794.543	19899.32
794.875	19886.67
795.207	19974.8
795.539	19780.45
795.871	19827.91
796.203	19690.51
796.535	19470.18
796.867	19563.51
797.198	19479.45
797.53	19415.27
797.862	19231.09
798.193	19296.63
798.525	19219.57
798.856	19253.24
799.188	18969.63
799.519	18912
799.85	18838.78
800.182	18777.54
800.513	18843.3
800.844	18660.48
801.175	18726.47
801.506	18793.36
801.837	18601.95
802.168	18469.75
802.499	18413.48
802.83	18406.25
803.161	18322.64
803.491	18321.28
803.822	18303.43
804.153	18258.91
804.483	18201.51
804.814	18023.66
805.145	18016.43
805.475	18068.41
805.805	17845.82
806.136	17884.23
806.466	17868.19
806.796	17876.32
807.126	17645.6
807.457	17691.24
807.787	17598.14
808.117	17537.8
808.447	17618.93
808.777	17611.02
809.107	17474.53
809.436	17521.76
809.766	17420.74
810.096	17238.83
810.426	17255.32
810.755	17278.6
811.085	17217.36
811.414	17161.09
811.744	17045.84
812.073	17044.48
812.403	16985.95
812.732	16931.26
813.061	16936.24
813.39	16779.86
813.719	16723.13
814.049	16821.89
814.378	16774.21
814.707	16683.13
815.036	16597.71
815.365	16508.68
815.693	16373.31
816.022	16430.49
816.351	16368.34
816.68	16298.74
817.008	16421.22
817.337	16121.79
817.665	16165.18
817.994	16129.03
818.322	16152.53
818.651	16065.3
818.979	16081.79
819.307	16104.17
819.636	16099.2
819.964	15950.95
820.292	15992.98
820.62	16012.19
820.948	15993.89
821.276	15999.08
821.604	15903.95
821.932	15986.66
822.259	15891.07
822.587	15913.89
822.915	15843.83
823.243	15917.73
823.57	15840.67
823.898	15821.46
824.225	15839.77
824.553	15770.62
824.88	15927
825.207	15850.61
825.535	15776.27
825.862	15855.81
826.189	15773.33
826.516	15926.32
826.843	15879.77
827.17	15794.12
827.497	15769.94
827.824	15857.85
828.151	15810.62
828.478	15797.28
828.805	15852.87
829.131	15724.29
829.458	15782.59
829.785	15698.08
830.111	15721.13
830.438	15894.23
830.764	15863.5
831.09	15752.99
831.417	15724.97
831.743	15774.91
832.069	15865.53
832.395	15669.6
832.722	15749.83
833.048	15638.64
833.374	15698.08
833.7	15570.17
834.026	15624.86
834.351	15662.37
834.677	15633.9
835.003	15553.22
835.329	15591.19
835.654	15548.7
835.98	15470.29
836.306	15449.49
836.631	15472.77
836.956	15509.83
837.282	15499.21
837.607	15380.8
837.932	15411.98
838.258	15392.32
838.583	15362.49
838.908	15174.25
839.233	15278.2
839.558	15235.49
839.883	15254.47
840.208	15131.31
840.533	15191.87
840.858	15224.19
841.182	15168.15
841.507	15171.08
841.832	15024.2
842.156	14997.76
842.481	15028.94
842.805	14921.83
843.13	14970.64
843.454	14910.07
843.778	14896.29
844.103	14853.58
844.427	14802.73
844.751	14785.78
845.075	14733.81
845.399	14704.88
845.723	14673.7
846.047	14565
846.371	14506.02
846.695	14543.76
847.019	14341.05
847.343	14324.1
847.666	14210.88
847.99	14280.26
848.313	14159.81
848.637	14131.11
848.96	14049.98
849.284	14014.5
849.607	13933.83
849.931	13885.92
850.254	13851.8
850.577	13736.09
850.9	13698.35
851.223	13665.14
851.546	13541.52
851.869	13511.24
852.192	13577.45
852.515	13335.88
852.838	13363.22
853.161	13332.26
853.483	13266.95
853.806	13217.46
854.129	13207.52
854.451	13056.56
854.774	13021.31
855.096	13055.21
855.419	13031.25
855.741	12976.57
856.063	12890.24
856.385	12897.02
856.708	12869.9
857.03	12819.96
857.352	12788.77
857.674	12772.28
857.996	12701.54
858.318	12635.11
858.64	12591.49
858.961	12609.8
859.283	12582.68
859.605	12536.58
859.926	12563.02
860.248	12480.76
860.57	12403.47
860.891	12411.16
861.212	12362.12
861.534	12337.94
861.855	12308.79
862.176	12354.44
862.498	12267.66
862.819	12300.65
863.14	12263.59
863.461	12179.07
863.782	12183.59
864.103	12186.08
864.424	12052.75
864.745	12131.16
865.065	12015.91
865.386	11993.77
865.707	12022.24
866.027	11942.69
866.348	11901.57
866.668	11977.72
866.989	11931.62
867.309	11888.68
867.63	11896.37
867.95	11875.8
868.27	11831.28
868.59	11813.88
868.91	11823.15
869.23	11793.55
869.55	11756.71
869.87	11778.18
870.19	11711.74
870.51	11735.69
870.83	11671.06
871.15	11696.15
871.469	11675.36
871.789	11613.21
872.109	11589.48
872.428	11459.32
872.748	11554
873.067	11556.26
873.386	11529.15
873.706	11489.6
874.025	11510.84
874.344	11375.25
874.663	11540.45
874.982	11375.25
875.301	11490.73
875.62	11372.09
875.939	11318.76
876.258	11335.03
876.577	11328.7
876.896	11288.93
877.214	11248.48
877.533	11219.32
877.852	11256.61
878.17	11219.32
878.489	11283.95
878.807	11240.79
879.125	11215.48
879.444	11150.4
879.762	11051.87
880.08	11221.13
880.398	11101.81
880.716	11124.86
881.034	11097.29
881.352	11087.8
881.67	11027.69
881.988	10996.28
882.306	10978.88
882.624	10947.24
882.941	10920.8
883.259	10789.5
883.577	10824.08
883.894	10805.55
884.212	10833.35
884.529	10865.66
884.846	10807.58
885.164	10790.86
885.481	10732.78
885.798	10744.53
886.115	10613.69
886.432	10654.82
886.75	10585.89
887.067	10589.28
887.383	10581.15
887.7	10548.61
888.017	10525.33
888.334	10534.37
888.651	10479.68
888.967	10437.42
889.284	10403.75
889.6	10372.11
889.917	10283.53
890.233	10333.25
890.55	10319.91
890.866	10230.65
891.182	10294.38
891.498	10195.4
891.815	10143.65
892.131	10110.88
892.447	10095.51
892.763	10044.67
893.079	10087.83
893.395	9969.19
893.71	9961.28
894.026	9894.39
894.342	9909.3
894.657	9863.88
894.973	9918.57
895.289	9834.5
895.604	9839.92
895.92	9763.99
896.235	9683.77
896.55	9723.09
896.865	9698.01
897.181	9665.69
897.496	9614.85
897.811	9575.75
898.126	9536.43
898.441	9552.02
898.756	9484.68
899.071	9445.13
899.386	9474.96
899.7	9352.03
900.015	9310.45
900.33	9296.21
900.644	9289.43
900.959	9266.61
901.273	9232.94
901.588	9140.73
901.902	9127.63
902.216	9151.58
902.531	9065.03
902.845	9103.45
903.159	9019.16
903.473	8973.96
903.787	8989.55
904.101	8915.43
904.415	8909.78
904.729	8879.05
905.042	8838.6
905.356	8824.58
905.67	8798.6
905.984	8808.31
906.297	8738.48
906.611	8697.36
906.924	8679.96
907.237	8646.28
907.551	8604.25
907.864	8560.18
908.177	8478.83
908.491	8547.08
908.804	8400.87
909.117	8426.4
909.43	8387.76
909.743	8373.3
910.056	8362.22
910.368	8264.37
910.681	8200.87
910.994	8192.96
911.307	8107.32
911.619	8102.12
911.932	8131.72
912.244	8033.87
912.557	8058.5
912.869	7951.84
913.181	7944.38
913.494	7964.04
913.806	7874.1
914.118	7852.41
914.43	7797.72
914.742	7817.61
915.054	7759.08
915.366	7820.99
915.678	7700.32
915.99	7635.01
916.302	7601.79
916.613	7613.77
916.925	7604.28
917.236	7544.62
917.548	7523.15
917.859	7510.04
918.171	7430.04
918.482	7417.39
918.794	7386.66
919.105	7354.11
919.416	7327.9
919.727	7328.13
920.038	7234.57
920.349	7249.48
920.66	7167.68
920.971	7180.56
921.282	7188.02
921.593	7124.74
921.903	7057.17
922.214	7035.93
922.525	6993.9
922.835	6988.93
923.146	6958.42
923.456	6956.38
923.767	6857.63
924.077	6897.63
924.387	6834.35
924.697	6800.46
925.008	6750.29
925.318	6711.65
925.628	6698.09
925.938	6716.17
926.248	6719.33
926.558	6624.64
926.867	6649.05
927.177	6608.37
927.487	6487.47
927.796	6517.07
928.106	6514.14
928.416	6445.89
928.725	6423.29
929.034	6352.56
929.344	6438.88
929.653	6398.89
929.962	6301.49
930.271	6331.99
930.581	6211.09
930.89	6262.62
931.199	6181.49
931.508	6229.62
931.817	6202.73
932.125	6187.14
932.434	6144.2
932.743	6076.86
933.051	6063.08
933.36	6022.62
933.669	6017.65
933.977	6000.93
934.286	5986.47
934.594	5981.27
934.902	5925
935.21	5888.16
935.519	5878.9
935.827	5864.89
936.135	5826.92
936.443	5741.73
936.751	5791.9
937.059	5761.84
937.367	5701.73
937.674	5709.19
937.982	5652.24
938.29	5641.39
938.597	5617.66
938.905	5603.2
939.213	5578.57
939.52	5514.16
939.827	5516.87
940.135	5475.07
940.442	5474.16
940.749	5472.13
941.056	5450.66
941.363	5417.44
941.67	5347.16
941.977	5350.1
942.284	5323.43
942.591	5256.32
942.898	5317.56
943.205	5309.87
943.511	5252.02
943.818	5233.72
944.125	5192.82
944.431	5152.82
944.738	5178.35
945.044	5096.09
945.35	5128.64
945.657	5062.2
945.963	5065.14
946.269	5062.42
946.575	5005.02
946.881	4995.08
947.187	4952.82
947.493	4952.6
947.799	4977
948.105	4951.92
948.41	4862.88
948.716	4891.35
949.022	4828.76
949.327	4826.05
949.633	4777.23
949.938	4763.22
950.244	4753.5
950.549	4722.32
950.854	4689.55
951.16	4706.95
951.465	4707.4
951.77	4617.24
952.075	4635.54
952.38	4636.67
952.685	4631.02
952.99	4593.51
953.294	4560.97
953.599	4550.8
953.904	4479.61
954.209	4466.28
954.513	4470.8
954.818	4465.38
955.122	4452.95
955.426	4393.29
955.731	4387.86
956.035	4367.07
956.339	4409.11
956.643	4307.64
956.948	4294.76
957.252	4291.14
957.556	4300.41
957.86	4321.65
958.163	4257.47
958.467	4240.75
958.771	4232.61
959.075	4192.62
959.378	4170.92
959.682	4160.3
959.985	4160.98
960.289	4097.25
960.592	4113.3
960.896	4098.61
961.199	4098.83
961.502	4059.74
961.805	4028.1
962.108	3984.71
962.411	4039.4
962.714	3941.55
963.017	3959.63
963.32	3952.62
963.623	3922.11
963.926	3902.23
964.228	3875.56
964.531	3888.89
964.833	3864.94
965.136	3829.91
965.438	3804.15
965.741	3810.7
966.043	3825.17
966.345	3780.2
966.648	3774.32
966.95	3750.82
967.252	3739.97
967.554	3739.97
967.856	3704.04
968.158	3610.03
968.46	3628.79
968.761	3647.09
969.063	3656.36
969.365	3600.99
969.666	3584.72
969.968	3579.07
970.269	3570.49
970.571	3545.18
970.872	3532.29
971.174	3524.16
971.475	3461.79
971.776	3479.19
972.077	3468.12
972.378	3490.94
972.679	3443.71
972.98	3492.75
973.281	3382.69
973.582	3399.42
973.883	3368.46
974.183	3370.26
974.484	3369.13
974.785	3317.16
975.085	3357.61
975.386	3310.15
975.686	3307.67
975.986	3263.37
976.287	3263.15
976.587	3253.21
976.887	3254.79
977.187	3260.66
977.487	3223.6
977.787	3162.13
978.087	3202.36
978.387	3138.63
978.687	3171.85
978.987	3155.81
979.286	3113.77
979.586	3139.54
979.885	3095.7
980.185	3111.29
980.484	3026.32
980.784	3052.76
981.083	3038.07
981.382	3036.04
981.682	3034.91
981.981	3040.1
982.28	2997.84
982.579	2985.42
982.878	2987.9
983.177	2942.93
983.475	2944.06
983.774	2896.83
984.073	2921.24
984.372	2888.47
984.67	2897.06
984.969	2877.17
985.267	2824.97
985.566	2834.69
985.864	2848.24
986.162	2808.7
986.461	2820.67
986.759	2791.07
987.057	2757.63
987.355	2734.8
987.653	2759.66
987.951	2753.11
988.249	2733.22
988.547	2725.54
988.844	2716.04
989.142	2707.46
989.44	2641.47
989.737	2643.73
990.035	2651.87
990.332	2630.17
990.63	2652.09
990.927	2629.94
991.224	2572.77
991.521	2598.99
991.819	2587.69
992.116	2608.25
992.413	2571.64
992.71	2564.41
993.006	2552.66
993.303	2542.49
993.6	2521.02
993.897	2526.44
994.193	2497.29
994.49	2511.53
994.787	2468.37
995.083	2430.85
995.379	2431.08
995.676	2384.08
995.972	2435.6
996.268	2428.37
996.565	2381.82
996.861	2380.01
997.157	2372.55
997.453	2373.45
997.749	2371.87
998.044	2311.99
998.34	2324.64
998.636	2304.76
998.932	2296.17
999.227	2299.33
999.523	2249.39
999.818	2274.02
1000.114	2233.57
1000.409	2229.96
1000.704	2242.61
1001	2241.71
1001.295	2204.87
1001.59	2205.1
1001.885	2173.46
1002.18	2175.04
1002.475	2193.12
1002.77	2136.85
1003.065	2124.65
1003.359	2092.56
1003.654	2109.96
1003.949	2082.84
1004.243	2086.68
1004.538	2088.49
1004.832	2087.13
1005.127	2077.87
1005.421	2047.81
1005.715	2033.8
1006.009	2037.19
1006.304	1998.55
1006.598	1988.83
1006.892	2021.15
1007.186	1944.99
1007.48	1977.31
1007.773	1959.45
1008.067	1894.15
1008.361	1942.51
1008.655	1907.7
1008.948	1889.85
1009.242	1905.44
1009.535	1904.31
1009.829	1897.08
1010.122	1864.54
1010.415	1846.91
1010.708	1814.6
1011.001	1810.76
1011.295	1827.93
1011.588	1817.54
1011.881	1822.73
1012.173	1768.5
1012.466	1793.36
1012.759	1759.46
1013.052	1797.2
1013.344	1781.83
1013.637	1756.07
1013.93	1735.28
1014.222	1732.57
1014.514	1713.13
1014.807	1722.85
1015.099	1681.5
1015.391	1675.17
1015.683	1651.89
1015.976	1652.57
1016.268	1643.3
1016.56	1657.54
1016.851	1624.32
1017.143	1629.52
1017.435	1617.09
1017.727	1617.99
1018.018	1573.93
1018.31	1582.97
1018.602	1581.61
1018.893	1567.15
1019.185	1550.65
1019.476	1549.97
1019.767	1553.59
1020.058	1529.63
1020.35	1521.27
1020.641	1502.29
1020.932	1490.09
1021.223	1497.55
1021.514	1476.08
1021.804	1498.68
1022.095	1454.38
1022.386	1470.2
1022.677	1419.81
1022.967	1423.87
1023.258	1427.94
1023.548	1394.5
1023.839	1380.94
1024.129	1394.72
1024.419	1383.88
1024.709	1335.29
1025	1364.22
1025.29	1349.53
1025.58	1338.45
1025.87	1324.67
1026.16	1312.01
1026.449	1306.82
1026.739	1284.67
1027.029	1307.72
1027.319	1284.22
1027.608	1294.61
1027.898	1273.14
1028.187	1259.59
1028.477	1239.02
1028.766	1267.27
1029.055	1230.43
1029.344	1238.57
1029.634	1220.04
1029.923	1203.99
1030.212	1184.56
1030.501	1215.97
1030.79	1188.85
1031.078	1203.54
1031.367	1170.77
1031.656	1154.28
1031.945	1163.77
1032.233	1168.06
1032.522	1153.83
1032.81	1137.55
1033.099	1133.71
1033.387	1121.06
1033.675	1118.57
1033.963	1108.63
1034.251	1109.76
1034.54	1111.57
1034.828	1087.84
1035.116	1074.73
1035.403	1070.44
1035.691	1046.71
1035.979	1055.07
1036.267	1049.65
1036.554	1056.88
1036.842	1042.19
1037.129	1040.61
1037.417	1007.84
1037.704	1040.83
1037.992	1018.01
1038.279	1010.1
1038.566	1012.36
1038.853	1012.36
1039.14	1012.36
