Data from hue_310_FLMS001491_28.txt Node
Date: Mon Feb 06 15:49:20 GMT 2017
User: dcchb
Spectrometer: FLMS00149
Trigger mode: 0
Integration Time (sec): 2.000000E-2
Scans to average: 10
Electric dark correction enabled: true
Nonlinearity correction enabled: false
Boxcar width: 0
XAxis mode: Wavelengths
Number of Pixels in Spectrum: 2048
>>>>>Begin Spectral Data<<<<<
341.393	-38.71
341.776	-38.71
342.16	-38.71
342.543	-76
342.927	-62.44
343.31	-68.77
343.693	-56.57
344.077	-69.9
344.46	-59.28
344.843	-30.35
345.226	-57.24
345.61	-26.51
345.993	-27.19
346.376	-21.09
346.759	17.33
347.142	21.17
347.525	45.58
347.908	63.88
348.291	75.63
348.674	84.22
349.057	109.08
349.44	129.19
349.823	128.29
350.206	159.02
350.588	177.55
350.971	213.71
351.354	200.6
351.737	221.39
352.119	245.12
352.502	264.78
352.884	289.87
353.267	282.18
353.65	283.99
354.032	302.75
354.414	319.24
354.797	279.92
355.179	322.86
355.562	330.09
355.944	343.42
356.326	320.15
356.709	331.67
357.091	323.54
357.473	342.75
357.855	323.99
358.238	346.59
358.62	347.04
359.002	340.03
359.384	333.25
359.766	336.87
360.148	354.5
360.53	335.29
360.912	337.32
361.294	338.45
361.676	321.05
362.057	354.27
362.439	327.15
362.821	328.28
363.203	327.38
363.584	323.54
363.966	318.34
364.348	338.9
364.729	329.19
365.111	315.4
365.493	317.44
365.874	316.98
366.256	333.25
366.637	301.62
367.019	324.89
367.4	308.17
367.781	311.33
368.163	320.82
368.544	316.98
368.925	301.84
369.306	307.94
369.688	329.41
370.069	328.51
370.45	322.18
370.831	305.23
371.212	323.76
371.593	294.16
371.974	319.69
372.355	304.78
372.736	298.23
373.117	319.92
373.498	302.29
373.879	314.05
374.26	306.59
374.641	306.81
375.021	303.42
375.402	309.07
375.783	311.33
376.163	307.72
376.544	335.06
376.925	337.1
377.305	338.68
377.686	315.85
378.066	308.62
378.447	325.57
378.827	330.32
379.208	338.9
379.588	329.41
379.968	339.13
380.349	341.39
380.729	352.24
381.109	333.25
381.489	344.33
381.87	334.84
382.25	308.85
382.63	317.21
383.01	328.73
383.39	329.86
383.77	343.88
384.15	343.65
384.53	364.21
384.91	328.96
385.29	331.9
385.67	353.82
386.049	349.75
386.429	344.55
386.809	350.88
387.189	349.52
387.568	353.14
387.948	363.31
388.328	351.11
388.707	358.79
389.087	352.46
389.466	354.04
389.846	341.62
390.225	385.91
390.605	342.75
390.984	372.57
391.363	361.5
391.743	350.65
392.122	387.49
392.501	386.59
392.881	382.97
393.26	363.54
393.639	383.42
394.018	366.7
394.397	374.83
394.776	386.13
395.155	375.51
395.534	366.93
395.913	368.96
396.292	386.36
396.671	378.22
397.05	375.51
397.429	387.04
397.808	363.76
398.186	396.53
398.565	393.37
398.944	388.39
399.323	380.94
399.701	401.95
400.08	400.82
400.458	411.9
400.837	402.63
401.215	368.73
401.594	403.31
401.972	412.8
402.351	411.9
402.729	416.42
403.107	420.48
403.486	407.6
403.864	411.67
404.242	438.56
404.62	419.13
404.999	417.32
405.377	421.16
405.755	457.32
406.133	454.83
406.511	422.52
406.889	446.25
407.267	444.66
407.645	455.06
408.023	458.9
408.401	458.22
408.779	467.71
409.156	483.53
409.534	479.69
409.912	479.69
410.29	509.29
410.667	504.77
411.045	505
411.422	511.33
411.8	507.49
412.178	495.74
412.555	523.08
412.933	526.92
413.31	540.48
413.687	521.5
414.065	540.93
414.442	548.39
414.819	555.17
415.197	565.79
415.574	566.69
415.951	562.85
416.328	597.2
416.705	608.5
417.082	595.39
417.46	611.44
417.837	624.55
418.214	629.97
418.591	623.87
418.967	620.03
419.344	649.63
419.721	643.53
420.098	655.96
420.475	662.96
420.852	669.97
421.228	669.97
421.605	702.06
421.982	700.93
422.358	707.93
422.735	719.01
423.111	717.2
423.488	734.15
423.864	758.78
424.241	744.99
424.617	736.18
424.994	752
425.37	750.87
425.746	776.86
426.123	778.67
426.499	773.69
426.875	792.22
427.251	803.75
427.627	815.28
428.003	833.35
428.379	828.38
428.756	849.17
429.132	879
429.507	855.27
429.883	860.47
430.259	875.84
430.635	876.97
431.011	893.01
431.387	892.34
431.763	901.37
432.138	913.13
432.514	937.31
432.89	956.74
433.265	945.22
433.641	980.02
434.016	985.44
434.392	1003.07
434.767	1000.58
435.143	1010.3
435.518	1014.14
435.894	1027.02
436.269	1040.13
436.644	1044.87
437.02	1041.48
437.395	1074.48
437.77	1066.12
438.145	1113.8
438.52	1078.09
438.895	1122.39
439.271	1108.83
439.646	1130.3
440.021	1129.17
440.395	1136.62
440.77	1114.02
441.145	1143.85
441.52	1170.75
441.895	1194.02
442.27	1151.09
442.645	1192.44
443.019	1156.06
443.394	1179.79
443.769	1193.12
444.143	1198.09
444.518	1227.24
444.892	1209.16
445.267	1195.15
445.641	1208.71
446.016	1209.16
446.39	1224.53
446.764	1208.26
447.139	1220.69
447.513	1268.82
447.887	1227.47
448.262	1251.65
448.636	1239.67
449.01	1270.18
449.384	1252.33
449.758	1269.05
450.132	1303.62
450.506	1298.2
450.88	1325.77
451.254	1312.21
451.628	1309.27
452.002	1304.75
452.376	1312.66
452.75	1345.66
453.123	1334.58
453.497	1338.2
453.871	1369.61
454.244	1387.69
454.618	1361.02
454.992	1405.77
455.365	1383.85
455.739	1411.19
456.112	1425.88
456.486	1410.97
456.859	1411.87
457.232	1455.26
457.606	1442.15
457.979	1454.58
458.352	1455.03
458.725	1483.28
459.099	1523.05
459.472	1527.8
459.845	1537.97
460.218	1536.61
460.591	1524.64
460.964	1536.16
461.337	1571.64
461.71	1566.44
462.083	1608.25
462.456	1592.2
462.829	1593.56
463.201	1624.07
463.574	1597.18
463.947	1643.05
464.32	1665.87
464.692	1689.6
465.065	1657.74
465.438	1693.67
465.81	1705.42
466.183	1716.49
466.555	1753.1
466.928	1756.49
467.3	1731.41
467.672	1763.72
468.045	1810.73
468.417	1803.95
468.789	1826.1
469.161	1846.43
469.534	1849.82
469.906	1849.37
470.278	1867.45
470.65	1901.8
471.022	1894.79
471.394	1923.27
471.766	1965.3
472.138	1985.41
472.51	1999.42
472.882	2019.31
473.253	1999.88
473.625	2047.79
473.997	2071.51
474.369	2064.73
474.74	2101.12
475.112	2119.87
475.484	2147.44
475.855	2112.42
476.227	2195.8
476.598	2244.84
476.97	2221.57
477.341	2252.75
477.713	2285.52
478.084	2308.12
478.455	2355.57
478.827	2346.31
479.198	2418.85
479.569	2397.61
479.94	2426.53
480.311	2448.68
480.682	2486.19
481.053	2533.65
481.424	2567.32
481.795	2613.87
482.166	2609.13
482.537	2612.74
482.908	2677.15
483.279	2692.06
483.65	2775.68
484.021	2763.02
484.391	2800.99
484.762	2785.39
485.133	2835.56
485.503	2849.35
485.874	2895.45
486.244	2900.64
486.615	2960.3
486.985	2916.91
487.356	3026.97
487.726	3034.2
488.097	3042.56
488.467	3089.34
488.837	3080.75
489.207	3131.82
489.578	3164.59
489.948	3201.2
490.318	3240.3
490.688	3262.67
491.058	3243.46
491.428	3319.62
491.798	3326.4
492.168	3370.01
492.538	3423.34
492.908	3421.76
493.278	3436.68
493.648	3418.37
494.017	3474.19
494.387	3564.81
494.757	3540.18
495.126	3546.95
495.496	3564.13
495.866	3571.81
496.235	3570.23
496.605	3642.09
496.974	3663.34
497.344	3684.8
497.713	3668.08
498.082	3684.35
498.452	3726.16
498.821	3726.16
499.19	3716.44
499.559	3737.23
499.928	3796.67
500.298	3789.89
500.667	3859.71
501.036	3790.34
501.405	3877.79
501.774	3872.6
502.143	3906.04
502.512	3913.5
502.88	3924.35
503.249	3925.02
503.618	3917.57
503.987	3935.87
504.356	3971.8
504.724	4009.77
505.093	4004.8
505.462	4007.06
505.83	4027.85
506.199	4035.53
506.567	4061.74
506.936	4095.64
507.304	4106.71
507.672	4080.27
508.041	4099.03
508.409	4157.11
508.777	4143.78
509.145	4161.4
509.514	4161.63
509.882	4180.61
510.25	4193.04
510.618	4202.53
510.986	4222.19
511.354	4250.89
511.722	4262.19
512.09	4295.41
512.458	4300.83
512.826	4317.78
513.193	4317.56
513.561	4302.87
513.929	4303.77
514.297	4368.85
514.664	4379.25
515.032	4430.32
515.4	4430.1
515.767	4363.88
516.135	4433.26
516.502	4385.8
516.869	4456.31
517.237	4484.11
517.604	4408.63
517.972	4515.97
518.339	4508.06
518.706	4511.45
519.073	4489.53
519.44	4523.88
519.808	4585.8
520.175	4581.28
520.542	4592.35
520.909	4587.15
521.276	4601.62
521.643	4627.15
522.009	4578.11
522.376	4658.79
522.743	4655.85
523.11	4680.71
523.477	4705.34
523.843	4785.11
524.21	4778.11
524.577	4851.1
524.943	4820.14
525.31	4809.75
525.676	4864.89
526.043	4847.49
526.409	4893.59
526.776	4951.21
527.142	4918.22
527.508	4962.74
527.874	5045.22
528.241	5007.48
528.607	4977.43
528.973	5072.56
529.339	5092.45
529.705	5134.94
530.071	5118.66
530.437	5134.71
530.803	5118.44
531.169	5161.15
531.535	5149.4
531.901	5212.22
532.267	5239.57
532.632	5270.3
532.998	5348.49
533.364	5303.52
533.73	5331.77
534.095	5386.45
534.461	5360.24
534.826	5402.05
535.192	5441.59
535.557	5468.49
535.923	5426
536.288	5481.82
536.653	5470.97
537.019	5512.55
537.384	5543.96
537.749	5547.81
538.114	5539.9
538.479	5579.9
538.845	5635.04
539.21	5647.92
539.575	5616.05
539.94	5666.22
540.305	5719.1
540.67	5729.04
541.034	5718.2
541.399	5785.09
541.764	5750.51
542.129	5881.58
542.494	5833.45
542.858	5855.14
543.223	5896.05
543.587	5843.39
543.952	5907.8
544.316	5963.84
544.681	5995.25
545.045	5984.4
545.41	6022.37
545.774	6054.23
546.138	6078.87
546.503	6020.56
546.867	6114.34
547.231	6177.62
547.595	6138.75
547.959	6229.6
548.324	6187.34
548.688	6214.68
549.052	6194.34
549.416	6287.9
549.779	6257.84
550.143	6336.03
550.507	6362.93
550.871	6310.27
551.235	6350.27
551.599	6357.5
551.962	6415.58
552.326	6460.55
552.689	6440.66
553.053	6469.36
553.417	6500.55
553.78	6552.98
554.143	6518.4
554.507	6522.92
554.87	6533.77
555.234	6580.55
555.597	6535.8
555.96	6594.33
556.323	6669.58
556.686	6652.18
557.05	6686.08
557.413	6688.12
557.776	6698.06
558.139	6750.03
558.502	6749.36
558.865	6741.22
559.228	6829.58
559.59	6887.21
559.953	6799.52
560.316	6889.47
560.679	6903.48
561.041	6929.24
561.404	6951.61
561.767	6976.47
562.129	6943.93
562.492	7020.76
562.854	6992.29
563.217	7046.98
563.579	7074.55
563.941	7070.25
564.304	7116.8
564.666	7128.33
565.028	7139.4
565.39	7117.26
565.753	7197.93
566.115	7250.36
566.477	7234.09
566.839	7278.38
567.201	7264.15
567.563	7295.78
567.925	7323.8
568.287	7404.48
568.648	7415.55
569.01	7502.78
569.372	7522.44
569.734	7475.89
570.095	7520.64
570.457	7547.98
570.819	7585.94
571.18	7580.97
571.542	7641.99
571.903	7682.44
572.265	7828.88
572.626	7785.26
572.987	7811.93
573.349	7887.41
573.71	7915.43
574.071	7896.67
574.432	7952.26
574.794	8135.53
575.155	8092.82
575.516	8208.08
575.877	8175.08
576.238	8287.17
576.599	8354.74
576.96	8448.75
577.32	8502.08
577.681	8568.29
578.042	8681.74
578.403	8748.17
578.763	8806.03
579.124	8952.01
579.485	8982.52
579.845	9146.81
580.206	9240.36
580.566	9368.04
580.927	9479.91
581.287	9594.71
581.648	9638.77
582.008	9857.3
582.368	9964.41
582.728	10084.86
583.089	10281.92
583.449	10461.8
583.809	10638.75
584.169	10788.12
584.529	10931.62
584.889	11193.76
585.249	11341.55
585.609	11473.53
585.969	11776.79
586.329	11885.72
586.688	12166.62
587.048	12293.62
587.408	12504.46
587.768	12759.14
588.127	12980.61
588.487	13265.8
588.846	13541.49
589.206	13631.89
589.565	13894.48
589.925	14280.46
590.284	14490.62
590.643	14682.71
591.003	14992.53
591.362	15221.68
591.721	15487.43
592.08	15780.08
592.44	16112.95
592.799	16386.62
593.158	16591.13
593.517	16981.86
593.876	17234.5
594.235	17494.84
594.593	17824.55
594.952	18087.59
595.311	18316.51
595.67	18761.24
596.029	19092.53
596.387	19353.09
596.746	19737.49
597.104	19812.97
597.463	20142
597.822	20447.98
598.18	20789.21
598.538	20955.08
598.897	21375.19
599.255	21505.35
599.613	22085.22
599.972	22226.24
600.33	22579.9
600.688	22692.67
601.046	23050.62
601.404	23390.05
601.762	23638.4
602.12	23993.87
602.478	24240.65
602.836	24459.85
603.194	24666.17
603.552	25023.9
603.91	25133.73
604.268	25459.6
604.625	25693.04
604.983	26109.75
605.341	26097.77
605.698	26455.05
606.056	26811.65
606.413	27027.69
606.771	27202.38
607.128	27534.57
607.485	27657.51
607.843	27834
608.2	28126.2
608.557	28569.8
608.914	28667.88
609.272	28923.91
609.629	29282.78
609.986	29359.38
610.343	29503.11
610.7	29828.3
611.057	29920.5
611.414	30246.14
611.771	30352.35
612.127	30680.25
612.484	30877.31
612.841	31051.32
613.198	31068.72
613.554	31248.6
613.911	31623.73
614.267	31807
614.624	31901.01
614.98	32032.99
615.337	32400.43
615.693	32453.31
616.05	32542.12
616.406	32832.51
616.762	32919.52
617.118	32980.98
617.475	33034.99
617.831	33343.01
618.187	33599.05
618.543	33630.91
618.899	33993.16
619.255	34156.55
619.611	34004.91
619.967	34336.43
620.323	34376.88
620.678	34460.04
621.034	34531.9
621.39	34557.21
621.746	34706.36
622.101	35145.22
622.457	34972.57
622.812	35091.89
623.168	35351.09
623.523	35300.92
623.879	35518.09
624.234	35362.39
624.589	35595.38
624.945	35574.81
625.3	35791.76
625.655	35631.31
626.01	35905.88
626.365	35998.98
626.72	36037.4
627.075	36163.05
627.43	36173.89
627.785	36197.85
628.14	36299.99
628.495	36340.44
628.85	36466.32
629.205	36315.13
629.559	36550.61
629.914	36572.75
630.269	36655.91
630.623	36606.65
630.978	36523.26
631.332	36892.97
631.687	36849.36
632.041	36656.82
632.396	36846.87
632.75	36739.75
633.104	36897.26
633.459	36673.32
633.813	36800.77
634.167	36822.01
634.521	36845.97
634.875	36932.97
635.229	36976.81
635.583	36819.07
635.937	36865.17
636.291	36848.23
636.645	36864.72
636.999	36765.52
637.352	37074.43
637.706	36816.14
638.06	36940.65
638.413	36862.46
638.767	36865.85
639.121	36956.7
639.474	36732.75
639.828	36850.94
640.181	36883.71
640.534	36839.19
640.888	36805.52
641.241	36725.52
641.594	36789.7
641.947	36816.59
642.301	36796.02
642.654	36713.09
643.007	36751.05
643.36	36760.09
643.713	36665.86
644.066	36748.79
644.419	36623.37
644.771	36368.69
645.124	36112.88
645.477	36040.56
645.83	35902.26
646.182	35801.7
646.535	35712.66
646.888	35778.88
647.24	35583.85
647.593	35795.37
647.945	35748.14
648.298	35586.79
648.65	35572.78
649.002	35387.7
649.355	35656.39
649.707	35618.88
650.059	35690.97
650.411	36247.11
650.763	36096.38
651.115	36515.58
651.467	36458.63
651.819	36434.9
652.171	36421.57
652.523	36316.71
652.875	36314.23
653.227	36222.25
653.578	36437.62
653.93	36425.64
654.282	36159.43
654.633	36107.68
654.985	36366.66
655.337	36368.92
655.688	36271.74
656.039	36281.46
656.391	36210.5
656.742	36144.97
657.094	36275.81
657.445	36259.54
657.796	36193.1
658.147	36112.65
658.498	36014.35
658.849	36205.53
659.2	36085.53
659.551	36125.31
659.902	36292.53
660.253	36155.59
660.604	36172.76
660.955	35856.39
661.306	36157.17
661.656	35981.36
662.007	36068.81
662.358	36048.47
662.708	35913.11
663.059	36148.58
663.409	35855.94
663.76	36003.05
664.11	36074.46
664.461	36089.38
664.811	36116.04
665.161	35989.94
665.511	35911.75
665.862	35982.03
666.212	36145.42
666.562	36093.44
666.912	35853.22
667.262	35860.68
667.612	35915.37
667.962	36079.21
668.312	35993.79
668.662	36029.94
669.011	35879.66
669.361	35985.42
669.711	35917.86
670.06	36003.95
670.41	35844.64
670.76	35713.79
671.109	35939.1
671.459	35728.03
671.808	35806.22
672.157	35910.4
672.507	35728.48
672.856	35751.98
673.205	35775.03
673.554	35773
673.904	35705.43
674.253	35900.68
674.602	35898.42
674.951	35328.94
675.3	35064.54
675.649	35666.11
675.998	35671.31
676.346	35690.74
676.695	35756.28
677.044	35418.21
677.393	35628.6
677.741	35794.47
678.09	35573.68
678.438	35476.06
678.787	35601.25
679.135	35578.43
679.484	35375.72
679.832	35450.75
680.181	35399.9
680.529	35482.61
680.877	35194.48
681.225	35188.61
681.573	35444.2
681.922	35186.12
682.27	35145.67
682.618	35113.81
682.966	35032.45
683.314	35023.42
683.661	34876.75
684.009	34770.09
684.357	34772.35
684.705	34758.56
685.053	34717.66
685.4	34700.49
685.748	34600.83
686.095	34428.4
686.443	34446.03
686.79	34307.28
687.138	34495.52
687.485	34328.74
687.832	34237.9
688.18	34289.65
688.527	34212.14
688.874	34110.22
689.221	34048.98
689.568	33906.83
689.915	33919.26
690.262	33934.63
690.609	33782.77
690.956	33726.95
691.303	33665.94
691.65	33496.9
691.997	33599.5
692.344	33312.95
692.69	33340.3
693.037	33324.48
693.383	33102.11
693.73	33185.72
694.077	33057.82
694.423	33044.48
694.769	32928.33
695.116	32814.89
695.462	32818.95
695.808	32729.92
696.155	32663.7
696.501	32534.67
696.847	32577.15
697.193	32294.67
697.539	32508.45
697.885	32225.3
698.231	32098.07
698.577	32125.19
698.923	32076.37
699.269	31977.85
699.614	31696.95
699.96	31695.14
700.306	31743.73
700.651	31631.19
700.997	31425.54
701.342	31480.91
701.688	31435.71
702.033	31305.32
702.379	31237.98
702.724	31277.75
703.069	31244.08
703.415	30907.37
703.76	30833.92
704.105	30947.14
704.45	30813.36
704.795	30739.01
705.14	30680.93
705.485	30604.77
705.83	30468.96
706.175	30623.98
706.52	30415.85
706.865	30334.27
707.209	30206.14
707.554	30201.62
707.899	30202.3
708.243	30073.71
708.588	29976.54
708.932	29849.54
709.277	29754.18
709.621	29756.66
709.966	29634.86
710.31	29760.5
710.654	29454.07
710.998	29426.05
711.342	29484.13
711.687	29373.39
712.031	29204.81
712.375	29170.01
712.719	29218.37
713.063	29159.84
713.407	29132.72
713.75	29050.24
714.094	28992.84
714.438	28789.45
714.782	28948.77
715.125	28971.6
715.469	28798.95
715.812	28773.18
716.156	28585.62
716.499	28675.79
716.843	28649.8
717.186	28283.03
717.53	28630.36
717.873	28604.6
718.216	28427.66
718.559	28296.36
718.902	28137.95
719.246	28196.7
719.589	28125.74
719.932	28088
720.275	28096.59
720.617	28052.07
720.96	27978.85
721.303	27904.05
721.646	27905.18
721.989	27664.29
722.331	27860.89
722.674	27807.79
723.016	27684.85
723.359	27626.32
723.701	27631.07
724.044	27507.45
724.386	27457.06
724.729	27510.62
725.071	27438.3
725.413	27449.83
725.755	27382.49
726.097	27239.67
726.439	27156.28
726.782	27238.76
727.124	27202.83
727.465	27079.9
727.807	27127.35
728.149	27012.33
728.491	26917.64
728.833	26950.41
729.175	26947.7
729.516	26792.22
729.858	26772.11
730.199	26820.92
730.541	26805.1
730.882	26689.62
731.224	26749.28
731.565	26638.33
731.906	26687.14
732.248	26608.95
732.589	26502.96
732.93	26414.38
733.271	26511.77
733.612	26467.93
733.953	26381.61
734.294	26502.96
734.635	26348.16
734.976	26295.51
735.317	26126.7
735.658	26125.8
735.999	26092.12
736.339	26058.45
736.68	26125.12
737.021	26122.18
737.361	25970.77
737.702	26030.43
738.042	25980.72
738.383	25936.87
738.723	25955.86
739.063	25881.51
739.404	25850.55
739.744	25773.71
740.084	25754.28
740.424	25785.92
740.764	25641.97
741.104	25802.19
741.444	25569.88
741.784	25526.04
742.124	25585.02
742.464	25442.42
742.804	25404.01
743.143	25347.74
743.483	25399.26
743.823	25312.94
744.162	25225.48
744.502	25186.61
744.841	25190
745.181	25230.9
745.52	25012.83
745.86	25143
746.199	24966.28
746.538	24999.05
746.877	25100.51
747.216	25104.13
747.556	24917.24
747.895	24937.35
748.234	24825.49
748.573	24858.71
748.911	24841.08
749.25	24881.54
749.589	24753.63
749.928	24764.7
750.267	24709.56
750.605	24549.11
750.944	24565.16
751.283	24425.95
751.621	24602.67
751.96	24408.78
752.298	24360.19
752.636	24360.19
752.975	24210.37
753.313	24108
753.651	24260.53
753.989	24136.7
754.327	24126.07
754.666	24021.67
755.004	24055.57
755.342	24002.69
755.679	23840.21
756.017	23760.66
756.355	23868
756.693	23816.93
757.031	23710.94
757.368	23632.08
757.706	23620.55
758.044	23455.13
758.381	23616.48
758.719	23373.78
759.056	23469.14
759.394	23331.52
759.731	23192.09
760.068	23150.51
760.405	23161.13
760.743	23032.77
761.08	23063.28
761.417	22923.85
761.754	22926.56
762.091	22690.86
762.428	22701.25
762.765	22556.4
763.102	22619.45
763.438	22512.78
763.775	22424.88
764.112	22483.86
764.449	22420.36
764.785	22237.76
765.122	22059.46
765.458	22065.11
765.795	22049.07
766.131	21994.15
766.467	21942.63
766.804	21842.07
767.14	21750.54
767.476	21740.15
767.812	21631.23
768.148	21664.9
768.485	21401.63
768.821	21435.52
769.157	21326.15
769.492	21303.1
769.828	21310.56
770.164	21102.43
770.5	21079.38
770.836	20972.71
771.171	20863.34
771.507	20898.59
771.842	20793.96
772.178	20683.91
772.513	20664.47
772.849	20550.12
773.184	20564.81
773.519	20393.97
773.855	20424.48
774.19	20306.97
774.525	20305.61
774.86	20278.49
775.195	20201.43
775.53	20057.26
775.865	19993.75
776.2	19847.32
776.535	19644.16
776.87	19761.9
777.205	19678.06
777.539	19528.68
777.874	19634.44
778.209	19467.44
778.543	19438.29
778.878	19224.06
779.212	19271.74
779.547	19158.52
779.881	19058.19
780.215	19078.3
780.55	19064.74
780.884	19016.83
781.218	18846.67
781.552	18837.85
781.886	18733.45
782.22	18650.06
782.554	18597.86
782.888	18362.84
783.222	18453.91
783.556	18380.92
783.889	18288.49
784.223	18148.83
784.557	18123.75
784.89	18119.23
785.224	18040.36
785.557	17905.22
785.891	17869.97
786.224	17867.26
786.558	17840.59
786.891	17702.74
787.224	17702.29
787.557	17549.52
787.891	17554.27
788.224	17518.11
788.557	17496.87
788.89	17408.96
789.223	17412.13
789.556	17173.94
789.888	17181.62
790.221	17154.96
790.554	16948.41
790.887	17032.02
791.219	16955.42
791.552	16860.73
791.884	16776.66
792.217	16830.22
792.549	16660.51
792.882	16654.86
793.214	16500.29
793.546	16504.13
793.879	16499.61
794.211	16415.54
794.543	16337.35
794.875	16355.43
795.207	16329.9
795.539	16182.1
795.871	16267.07
796.203	16109.34
796.535	15956.57
796.867	15973.75
797.198	15929.23
797.53	15898.95
797.862	15902.11
798.193	15851.04
798.525	15799.29
798.856	15761.1
799.188	15594.77
799.519	15477.26
799.85	15454.21
800.182	15443.59
800.513	15530.59
800.844	15292.41
801.175	15518.17
801.506	15324.27
801.837	15216.48
802.168	15268.91
802.499	15189.59
802.83	15026.43
803.161	15074.34
803.491	15113.88
803.822	15064.62
804.153	14898.29
804.483	14878.63
804.814	14801.35
805.145	14828.01
805.475	14730.16
805.805	14693.33
806.136	14622.6
806.466	14661.46
806.796	14703.27
807.126	14590.05
807.457	14492.66
807.787	14475.71
808.117	14409.72
808.447	14380.79
808.777	14384.18
809.107	14235.26
809.436	14271.64
809.766	14271.87
810.096	14217.41
810.426	14139.67
810.755	14105.32
811.085	14084.53
811.414	14022.16
811.744	13985.55
812.073	13957.08
812.403	13955.27
812.732	13785.33
813.061	13817.65
813.39	13751.88
813.719	13775.61
814.049	13759.79
814.378	13786.01
814.707	13665.11
815.036	13622.62
815.365	13531.55
815.693	13523.64
816.022	13482.96
816.351	13507.14
816.68	13427.82
817.008	13379.46
817.337	13268.28
817.665	13207.94
817.994	13322.06
818.322	13245
818.651	13125.69
818.979	13151.45
819.307	13264.89
819.636	13165.91
819.964	13105.35
820.292	13092.92
820.62	13132.01
820.948	12980.83
821.276	13110.32
821.604	13082.98
821.932	13005.69
822.259	13074.84
822.587	13022.64
822.915	12927.27
823.243	13091.34
823.57	12922.75
823.898	12972.92
824.225	12976.99
824.553	12882.3
824.88	12964.11
825.207	12927.73
825.535	12995.29
825.862	12988.29
826.189	12885.47
826.516	12932.24
826.843	13077.33
827.17	13048.85
827.497	12991.23
827.824	13052.02
828.151	13037.33
828.478	13006.59
828.805	13001.62
829.131	13002.75
829.458	12828.07
829.785	12839.37
830.111	12903.54
830.438	12879.59
830.764	12958.91
831.09	12924.11
831.417	12866.26
831.743	12900.38
832.069	12937.89
832.395	12837.33
832.722	12889.31
833.048	12918.01
833.374	12839.82
833.7	12838.46
834.026	12841.4
834.351	12884.56
834.677	12853.83
835.003	12755.07
835.329	12789.2
835.654	12725.24
835.98	12757.11
836.306	12703.78
836.631	12725.7
836.956	12685.02
837.282	12731.8
837.607	12619.03
837.932	12521.63
838.258	12652.25
838.583	12553.27
838.908	12502.65
839.233	12547.4
839.558	12468.98
839.883	12464.69
840.208	12419.72
840.533	12452.48
840.858	12417.68
841.182	12377.46
841.507	12428.76
841.832	12341.98
842.156	12360.06
842.481	12253.84
842.805	12274.41
843.13	12281.64
843.454	12289.55
843.778	12137.69
844.103	12072.38
844.427	12146.73
844.751	12122.32
845.075	12070.12
845.399	12060.4
845.723	12020.86
846.047	12005.72
846.371	11921.65
846.695	11892.95
847.019	11793.29
847.343	11779.05
847.666	11669.23
847.99	11701.09
848.313	11704.48
848.637	11564.37
848.96	11558.5
849.284	11502.9
849.607	11424.04
849.931	11332.06
850.254	11330.7
850.577	11228.33
850.9	11148.11
851.223	11189.01
851.546	11183.14
851.869	11090.03
852.192	11089.13
852.515	11031.73
852.838	10981.34
853.161	10988.57
853.483	10916.48
853.806	10915.57
854.129	10859.08
854.451	10829.48
854.774	10736.6
855.096	10706.77
855.419	10701.34
855.741	10680.55
856.063	10622.02
856.385	10509.71
856.708	10542.03
857.03	10467.22
857.352	10536.38
857.674	10473.1
857.996	10434.23
858.318	10338.19
858.64	10421.58
858.961	10315.59
859.283	10345.65
859.605	10246.21
859.926	10251.86
860.248	10250.06
860.57	10168.93
860.891	10208.02
861.212	10099.1
861.534	10096.84
861.855	10096.61
862.176	10150.4
862.498	10136.16
862.819	10037.41
863.14	10067.91
863.461	10011.64
863.782	9974.81
864.103	9945.88
864.424	9868.82
864.745	10017.29
865.065	9905.88
865.386	9864.53
865.707	9829.95
866.027	9855.94
866.348	9837.41
866.668	9860.24
866.989	9786.11
867.309	9757.41
867.63	9789.73
867.95	9705.66
868.27	9672.67
868.59	9744.31
868.91	9678.32
869.23	9711.31
869.55	9679.9
869.87	9689.39
870.19	9665.66
870.51	9581.6
870.83	9593.35
871.15	9588.6
871.469	9603.52
871.789	9631.09
872.109	9523.75
872.428	9497.08
872.748	9526.46
873.067	9427.48
873.386	9585.44
873.706	9501.37
874.025	9424.77
874.344	9398.78
874.663	9416.4
874.982	9376.18
875.301	9403.07
875.62	9428.83
875.939	9337.99
876.258	9314.94
876.577	9328.5
876.896	9320.81
877.214	9283.53
877.533	9247.6
877.852	9229.07
878.17	9263.41
878.489	9224.09
878.807	9262.06
879.125	9215.51
879.444	9274.71
879.762	9154.94
880.08	9146.13
880.398	9120.59
880.716	9170.31
881.034	9142.51
881.352	9130.31
881.67	9056.64
881.988	9066.81
882.306	9058.22
882.624	9047.38
882.941	8909.98
883.259	8884.89
883.577	8871.33
883.894	8898.9
884.212	8891
884.529	8866.81
884.846	8832.47
885.164	8788.4
885.481	8780.49
885.798	8851
886.115	8758.8
886.432	8712.24
886.75	8786.82
887.067	8753.15
887.383	8646.71
887.7	8606.03
888.017	8603.32
888.334	8605.35
888.651	8587.73
888.967	8595.41
889.284	8544.79
889.6	8494.17
889.917	8436.09
890.233	8463.89
890.55	8457.11
890.866	8422.76
891.182	8402.42
891.498	8421.63
891.815	8392.25
892.131	8348.86
892.447	8247.62
892.763	8274.29
893.079	8251.01
893.395	8226.38
893.71	8178.47
894.026	8218.02
894.342	8214.18
894.657	8093.05
894.973	8069.77
895.289	8057.12
895.604	8102.77
895.92	8031.81
896.235	7976.89
896.55	7970.57
896.865	8062.99
897.181	7909.1
897.496	7940.29
897.811	7953.17
898.126	7901.42
898.441	7814.41
898.756	7851.02
899.071	7732.16
899.386	7756.34
899.7	7754.08
900.015	7729.44
900.33	7632.5
900.644	7631.14
900.959	7616.23
901.273	7548.43
901.588	7590.01
901.902	7510.92
902.216	7444.25
902.531	7470.02
902.845	7424.59
903.159	7369.23
903.473	7383.24
903.787	7314.77
904.101	7338.72
904.415	7308.89
904.729	7285.84
905.042	7196.35
905.356	7228.21
905.67	7246.97
905.984	7221.89
906.297	7158.61
906.611	7067.31
906.924	7089.69
907.237	7102.79
907.551	7059.86
907.864	6974.21
908.177	7024.6
908.491	6962.23
908.804	6909.8
909.117	6869.35
909.43	6868.45
909.743	6833.42
910.056	6815.8
910.368	6784.16
910.681	6767.44
910.994	6709.81
911.307	6657.83
911.619	6604.73
911.932	6717.27
912.244	6622.58
912.557	6584.84
912.869	6631.17
913.181	6508.46
913.494	6505.52
913.806	6519.08
914.118	6495.13
914.43	6461.68
914.742	6457.61
915.054	6441.12
915.366	6306.88
915.678	6367.22
915.99	6292.65
916.302	6242.03
916.613	6257.17
916.925	6276.37
917.236	6214
917.548	6203.83
917.859	6198.18
918.171	6123.61
918.482	6090.39
918.794	6062.14
919.105	6052.43
919.416	6064.63
919.727	5990.28
920.038	6009.26
920.349	5986.66
920.66	5935.37
920.971	5945.08
921.282	5944.41
921.593	5882.49
921.903	5858.76
922.214	5842.04
922.525	5785.77
922.835	5746.22
923.146	5730.4
923.456	5755.26
923.767	5728.82
924.077	5675.03
924.387	5627.58
924.697	5614.47
925.008	5603.17
925.318	5577.41
925.628	5539.44
925.938	5538.31
926.248	5478.43
926.558	5497.86
926.867	5462.84
927.177	5461.03
927.487	5442.05
927.796	5371.31
928.106	5406.79
928.416	5337.42
928.725	5304.87
929.034	5287.93
929.344	5291.32
929.653	5258.77
929.962	5223.07
930.271	5240.02
930.581	5144.2
930.89	5141.04
931.199	5130.19
931.508	5156.63
931.817	5139
932.125	5089.74
932.434	5060.36
932.743	5041.15
933.051	5017.42
933.36	4988.05
933.669	4972.23
933.977	4905.11
934.286	4948.5
934.594	4913.7
934.902	4840.25
935.21	4845.45
935.519	4821.72
935.827	4853.36
936.135	4818.56
936.443	4734.04
936.751	4723.87
937.059	4741.95
937.367	4711.22
937.674	4705.34
937.982	4697.88
938.29	4680.94
938.597	4640.26
938.905	4641.16
939.213	4612.46
939.52	4557.1
939.827	4578.57
940.135	4470.09
940.442	4547.15
940.749	4511.45
941.056	4539.47
941.363	4466.7
941.67	4445.46
941.977	4425.8
942.284	4406.59
942.591	4386.93
942.898	4372.24
943.205	4350.32
943.511	4378.12
943.818	4351.45
944.125	4276.43
944.431	4254.05
944.738	4294.51
945.044	4286.6
945.35	4207.5
945.657	4206.82
945.963	4159.37
946.269	4150.1
946.575	4180.61
946.881	4120.72
947.187	4151.46
947.493	4098.35
947.799	4059.03
948.105	4089.99
948.41	4042.99
948.716	4076.21
949.022	4019.03
949.327	3992.59
949.633	3971.35
949.938	3937
950.244	3932.93
950.549	3938.58
950.854	3897.68
951.16	3899.94
951.465	3857.23
951.77	3888.64
952.075	3836.89
952.38	3789.89
952.685	3823.11
952.99	3776.33
953.294	3795.76
953.599	3787.4
953.904	3685.93
954.209	3717.57
954.513	3745.82
954.818	3671.47
955.122	3663.56
955.426	3669.21
955.731	3675.09
956.035	3623.79
956.339	3644.35
956.643	3604.35
956.948	3598.25
957.252	3588.08
957.556	3607.29
957.86	3539.95
958.163	3524.13
958.467	3546.73
958.771	3531.14
959.075	3464.47
959.378	3478.48
959.682	3452.72
959.985	3431.03
960.289	3451.36
960.592	3414.3
960.896	3391.25
961.199	3411.59
961.502	3341.54
961.805	3370.24
962.108	3339.95
962.411	3325.72
962.714	3323.01
963.017	3300.86
963.32	3272.61
963.623	3279.39
963.926	3264.93
964.228	3257.7
964.531	3222.67
964.833	3258.6
965.136	3194.2
965.438	3187.19
965.741	3175.67
966.043	3155.33
966.345	3117.59
966.648	3143.58
966.95	3108.77
967.252	3112.39
967.554	3065.84
967.856	3111.03
968.158	3076.68
968.46	3041.66
968.761	3029.45
969.063	3052.28
969.365	3007.76
969.666	3005.95
969.968	2964.82
970.269	2983.81
970.571	2969.79
970.872	2956.46
971.174	2922.79
971.475	2934.32
971.776	2904.71
972.077	2886.18
972.378	2914.66
972.679	2850.7
972.98	2867.88
973.281	2854.77
973.582	2838.95
973.883	2818.84
974.183	2830.36
974.484	2782.91
974.785	2801.44
975.085	2798.05
975.386	2791.27
975.686	2752.17
975.986	2715.56
976.287	2749.91
976.587	2717.6
976.887	2702.91
977.187	2730.03
977.487	2689.58
977.787	2664.94
978.087	2653.42
978.387	2616.81
978.687	2646.41
978.987	2664.27
979.286	2645.74
979.586	2604.15
979.885	2626.3
980.185	2587.21
980.484	2588.34
980.784	2565.06
981.083	2539.75
981.382	2526.87
981.682	2536.36
981.981	2508.79
982.28	2505.4
982.579	2480.32
982.878	2455.91
983.177	2448.23
983.475	2485.97
983.774	2452.07
984.073	2424.5
984.372	2422.24
984.67	2425.18
984.969	2419.98
985.267	2399.64
985.566	2409.13
985.864	2362.13
986.162	2372.75
986.461	2342.69
986.759	2351.96
987.057	2312.86
987.355	2327.1
987.653	2303.82
987.951	2280.32
988.249	2274.22
988.547	2256.14
988.844	2280.55
989.142	2238.74
989.44	2244.62
989.737	2222.24
990.035	2219.98
990.332	2228.57
990.63	2208.23
990.927	2206.65
991.224	2198.74
991.521	2171.85
991.819	2186.76
992.116	2174.79
992.413	2149.7
992.71	2120.1
993.006	2113.09
993.303	2127.33
993.6	2085.3
993.897	2104.73
994.193	2110.61
994.49	2104.05
994.787	2081.46
995.083	2070.84
995.379	2054.56
995.676	2041.91
995.972	2015.7
996.268	2035.81
996.565	2029.71
996.861	2017.5
997.157	2016.83
997.453	2004.85
997.749	1996.04
998.044	1977.73
998.34	1954.91
998.636	1976.15
998.932	1939.09
999.227	1899.99
999.523	1911.29
999.818	1923.95
1000.114	1900.67
1000.409	1896.83
1000.704	1904.74
1001	1883.27
1001.295	1853.44
1001.59	1834.23
1001.885	1867.9
1002.18	1829.49
1002.475	1809.83
1002.77	1788.81
1003.065	1801.69
1003.359	1814.34
1003.654	1805.31
1003.949	1786.78
1004.243	1767.11
1004.538	1768.92
1004.832	1785.19
1005.127	1775.48
1005.421	1738.19
1005.715	1731.86
1006.009	1679.43
1006.304	1687.12
1006.598	1668.13
1006.892	1704.52
1007.186	1644.63
1007.48	1675.82
1007.773	1671.52
1008.067	1648.47
1008.361	1637.63
1008.655	1666.1
1008.948	1651.64
1009.242	1648.47
1009.535	1600.34
1009.829	1568.93
1010.122	1590.4
1010.415	1532.32
1010.708	1580.9
1011.001	1566.89
1011.295	1558.76
1011.588	1529.83
1011.881	1520.12
1012.173	1511.98
1012.466	1536.16
1012.759	1503.39
1013.052	1489.83
1013.344	1514.47
1013.637	1466.33
1013.93	1461.81
1014.222	1478.08
1014.514	1481.02
1014.807	1479.21
1015.099	1423.39
1015.391	1441.93
1015.683	1429.72
1015.976	1447.12
1016.268	1404.86
1016.56	1399.21
1016.851	1383.85
1017.143	1399.67
1017.435	1368.71
1017.727	1370.74
1018.018	1358.76
1018.31	1358.54
1018.602	1346.33
1018.893	1337.07
1019.185	1335.26
1019.476	1297.75
1019.767	1294.58
1020.058	1319.44
1020.35	1301.36
1020.641	1276.28
1020.932	1268.6
1021.223	1283.06
1021.514	1258.43
1021.804	1248.71
1022.095	1258.65
1022.386	1269.05
1022.677	1243.96
1022.967	1246.9
1023.258	1206.45
1023.548	1229.73
1023.839	1213
1024.129	1191.08
1024.419	1180.92
1024.709	1199.45
1025	1171.65
1025.29	1173.46
1025.58	1150.63
1025.87	1137.98
1026.16	1148.6
1026.449	1158.54
1026.739	1139.11
1027.029	1136.17
1027.319	1105.89
1027.608	1104.08
1027.898	1141.14
1028.187	1107.92
1028.477	1088.94
1028.766	1107.24
1029.055	1079.68
1029.344	1075.83
1029.634	1059.79
1029.923	1046.68
1030.212	1031.99
1030.501	1031.09
1030.79	1016.63
1031.078	1014.82
1031.367	1016.17
1031.656	1015.04
1031.945	1006.68
1032.233	1003.29
1032.522	1002.16
1032.81	991.54
1033.099	986.12
1033.387	977.53
1033.675	968.94
1033.963	960.36
1034.251	963.29
1034.54	949.96
1034.828	934.59
1035.116	933.01
1035.403	940.02
1035.691	946.12
1035.979	953.35
1036.267	913.58
1036.554	933.92
1036.842	895.73
1037.129	928.72
1037.417	921.71
1037.704	915.84
1037.992	891.66
1038.279	901.83
1038.566	871.32
1038.853	871.32
1039.14	871.32
