Data from hue_290_FLMS001491_00040.txt Node
Date: Tue Feb 07 15:52:40 GMT 2017
User: dcchb
Spectrometer: FLMS00149
Trigger mode: 0
Integration Time (sec): 2.000000E-2
Scans to average: 10
Electric dark correction enabled: true
Nonlinearity correction enabled: false
Boxcar width: 0
XAxis mode: Wavelengths
Number of Pixels in Spectrum: 2048
>>>>>Begin Spectral Data<<<<<
341.393	-32.67
341.776	-32.67
342.16	-32.67
342.543	-55.49
342.927	-70.86
343.31	-60.92
343.693	-60.24
344.077	-68.15
344.46	-72.22
344.843	-58.2
345.226	-55.04
345.61	-17.08
345.993	-8.71
346.376	-10.52
346.759	6.43
347.142	39.19
347.525	60.89
347.908	56.82
348.291	83.26
348.674	76.93
349.057	87.55
349.44	132.98
349.823	144.28
350.206	145.18
350.588	196.03
350.971	203.94
351.354	234.67
351.737	236.02
352.119	241.9
352.502	263.82
352.884	248.91
353.267	256.36
353.65	285.06
354.032	287.32
354.414	281.22
354.797	301.56
355.179	299.53
355.562	313.08
355.944	313.54
356.326	316.02
356.709	312.41
357.091	337.27
357.473	325.74
357.855	325.29
358.238	335.23
358.62	310.6
359.002	316.02
359.384	350.6
359.766	327.1
360.148	328.68
360.53	336.59
360.912	320.54
361.294	302.92
361.676	338.4
362.057	331.16
362.439	301.79
362.821	311.28
363.203	321.45
363.584	304.05
363.966	330.49
364.348	299.3
364.729	292.97
365.111	298.85
365.493	306.53
365.874	295.23
366.256	302.01
366.637	332.29
367.019	318.28
367.4	315.57
367.781	292.75
368.163	319.64
368.544	317.15
368.925	305.85
369.306	308.34
369.688	313.99
370.069	336.14
370.45	323.25
370.831	295.23
371.212	284.16
371.593	302.01
371.974	313.99
372.355	304.27
372.736	308.11
373.117	320.54
373.498	302.24
373.879	304.95
374.26	312.18
374.641	318.96
375.021	306.76
375.402	313.08
375.783	323.48
376.163	320.99
376.544	333.88
376.925	292.07
377.305	329.81
377.686	327.1
378.066	306.31
378.447	304.5
378.827	326.19
379.208	319.19
379.588	318.96
379.968	309.02
380.349	326.42
380.729	320.54
381.109	329.13
381.489	351.73
381.87	318.73
382.25	345.17
382.63	348.56
383.01	335.23
383.39	345.17
383.77	328
384.15	337.94
384.53	343.14
384.91	336.14
385.29	354.89
385.67	347.21
386.049	345.17
386.429	330.49
386.809	347.89
387.189	331.62
387.568	350.37
387.948	356.47
388.328	342.46
388.707	356.02
389.087	343.59
389.466	357.15
389.846	347.43
390.225	372.74
390.605	343.14
390.984	360.54
391.363	376.13
391.743	351.05
392.122	349.47
392.501	359.64
392.881	346.3
393.26	378.62
393.639	370.26
394.018	370.48
394.397	364.61
394.776	379.98
395.155	371.61
395.534	356.47
395.913	378.62
396.292	384.5
396.671	393.99
397.05	380.2
397.429	387.89
397.808	369.35
398.186	377.26
398.565	362.58
398.944	381.78
399.323	389.02
399.701	391.05
400.08	403.25
400.458	417.26
400.837	403.25
401.215	415
401.594	427.21
401.972	410.94
402.351	430.37
402.729	412.07
403.107	421.33
403.486	407.77
403.864	404.38
404.242	426.53
404.62	421.33
404.999	434.66
405.377	443.93
405.755	433.53
406.133	423.59
406.511	427.21
406.889	451.84
407.267	473.76
407.645	471.27
408.023	460.43
408.401	466.53
408.779	485.51
409.156	471.72
409.534	490.26
409.912	480.76
410.29	480.31
410.667	491.61
411.045	515.79
411.422	506.07
411.8	522.8
412.178	530.03
412.555	534.32
412.933	535
413.31	542.68
413.687	551.04
414.065	583.81
414.442	567.77
414.819	557.6
415.197	574.1
415.574	585.62
415.951	612.06
416.328	609.57
416.705	606.86
417.082	630.14
417.46	612.29
417.837	614.77
418.214	639.63
418.591	670.59
418.967	647.54
419.344	673.53
419.721	702.68
420.098	685.5
420.475	681.66
420.852	684.37
421.228	718.5
421.605	699.06
421.982	728.44
422.358	745.16
422.735	744.94
423.111	744.49
423.488	780.64
423.864	757.14
424.241	765.73
424.617	774.77
424.994	770.93
425.37	782.23
425.746	794.43
426.123	806.41
426.499	821.55
426.875	835.11
427.251	839.4
427.627	878.04
428.003	848.66
428.379	872.62
428.756	877.59
429.132	890.92
429.507	909.23
429.883	928.44
430.259	946.51
430.635	931.83
431.011	972.28
431.387	984.48
431.763	990.81
432.138	967.53
432.514	997.81
432.89	1016.8
433.265	1002.11
433.641	1046.4
434.016	1053.18
434.392	1075.32
434.767	1052.5
435.143	1078.26
435.518	1105.38
435.894	1121.2
436.269	1101.31
436.644	1125.04
437.02	1124.36
437.395	1150.35
437.77	1183.12
438.145	1195.55
438.52	1200.29
438.895	1208.88
439.271	1200.75
439.646	1218.82
440.021	1216.79
440.395	1253.4
440.77	1240.74
441.145	1247.52
441.52	1270.57
441.895	1287.3
442.27	1280.52
442.645	1300.18
443.019	1295.43
443.394	1303.12
443.769	1333.4
444.143	1321.42
444.518	1314.19
444.892	1324.36
445.267	1324.13
445.641	1346.05
446.016	1338.37
446.39	1374.98
446.764	1378.14
447.139	1349.44
447.513	1401.19
447.887	1390.57
448.262	1374.53
448.636	1413.85
449.01	1397.58
449.384	1417.69
449.758	1423.11
450.132	1450.23
450.506	1443
450.88	1431.93
451.254	1450.23
451.628	1457.01
452.002	1459.95
452.376	1491.59
452.75	1493.39
453.123	1499.49
453.497	1514.86
453.871	1509.66
454.244	1542.88
454.618	1532.26
454.992	1555.99
455.365	1570.23
455.739	1594.41
456.112	1585.14
456.486	1595.54
456.859	1623.33
457.232	1649.77
457.606	1649.77
457.979	1664.69
458.352	1703.56
458.725	1715.08
459.099	1669.66
459.472	1717.79
459.845	1734.06
460.218	1767.51
460.591	1781.75
460.964	1814.29
461.337	1770.9
461.71	1830.56
462.083	1820.39
462.456	1852.03
462.829	1815.19
463.201	1849.99
463.574	1891.57
463.947	1880.73
464.32	1898.81
464.692	1929.77
465.065	1919.37
465.438	1933.83
465.81	1936.55
466.183	1985.13
466.555	1993.49
466.928	2024.9
467.3	2024.68
467.672	2024.9
468.045	2090.21
468.417	2114.39
468.789	2070.1
469.161	2108.97
469.534	2136.54
469.906	2198.69
470.278	2160.04
470.65	2175.41
471.022	2236.2
471.394	2287.04
471.766	2254.05
472.138	2289.08
472.51	2333.37
472.882	2340.83
473.253	2344.44
473.625	2382.41
473.997	2443.2
474.369	2422.63
474.74	2428.74
475.112	2473.71
475.484	2518.45
475.855	2521.61
476.227	2547.83
476.598	2616.98
476.97	2653.36
477.341	2670.76
477.713	2715.73
478.084	2653.59
478.455	2731.1
478.827	2749.18
479.198	2844.09
479.569	2819.23
479.94	2905.56
480.311	2939
480.682	2932
481.053	3003.18
481.424	3013.8
481.795	3065.78
482.166	3089.28
482.537	3117.98
482.908	3180.58
483.279	3145.78
483.65	3218.77
484.021	3218.09
484.391	3285.21
484.762	3299.67
485.133	3375.38
485.503	3353.46
485.874	3423.74
486.244	3408.37
486.615	3480.23
486.985	3513.45
487.356	3520.01
487.726	3551.42
488.097	3630.51
488.467	3640
488.837	3668.25
489.207	3701.47
489.578	3737.4
489.948	3841.58
490.318	3822.37
490.688	3818.76
491.058	3855.59
491.428	3888.58
491.798	3915.25
492.168	4003.38
492.538	3985.08
492.908	4055.81
493.278	4130.84
493.648	4105.53
494.017	4133.32
494.387	4153.44
494.757	4186.66
495.126	4176.71
495.496	4195.92
495.866	4233.66
496.235	4275.01
496.605	4254.9
496.974	4295.13
497.344	4333.77
497.713	4390.94
498.082	4344.84
498.452	4378.74
498.821	4403.37
499.19	4386.65
499.559	4448.8
499.928	4464.16
500.298	4494.67
500.667	4526.53
501.036	4477.5
501.405	4538.51
501.774	4563.59
502.143	4618.73
502.512	4588.23
502.88	4632.29
503.249	4601.33
503.618	4652.41
503.987	4693.53
504.356	4678.39
504.724	4691.95
505.093	4724.27
505.462	4691.73
505.83	4746.87
506.199	4809.69
506.567	4790.48
506.936	4771.95
507.304	4839.75
507.672	4906.86
508.041	4867.32
508.409	4846.3
508.777	4903.25
509.145	4903.47
509.514	4888.78
509.882	4911.83
510.25	4883.13
510.618	4943.02
510.986	4987.31
511.354	5046.29
511.722	5016.24
512.09	5034.09
512.458	5039.06
512.826	5080.64
513.193	5106.18
513.561	5074.32
513.929	5134.43
514.297	5110.7
514.664	5155.22
515.032	5147.08
515.4	5221.66
515.767	5215.33
516.135	5189.34
516.502	5204.93
516.869	5259.4
517.237	5275.67
517.604	5246.74
517.972	5313.63
518.339	5356.12
518.706	5286.06
519.073	5305.95
519.44	5322.67
519.808	5345.27
520.175	5366.29
520.542	5424.81
520.909	5452.16
521.276	5469.79
521.643	5406.74
522.009	5445.61
522.376	5420.75
522.743	5532.38
523.11	5535.09
523.477	5563.79
523.843	5580.74
524.21	5584.13
524.577	5644.92
524.943	5601.76
525.31	5669.33
525.676	5743.22
526.043	5700.51
526.409	5795.43
526.776	5779.61
527.142	5818.02
527.508	5819.83
527.874	5862.77
528.241	5869.32
528.607	5868.65
528.973	5913.16
529.339	5919.27
529.705	5882.2
530.071	6010.79
530.437	5988.19
530.803	6080.62
531.169	6021.41
531.535	6069.54
531.901	6072.93
532.267	6077.68
532.632	6105.25
532.998	6158.58
533.364	6165.36
533.73	6235.87
534.095	6187.51
534.461	6228.86
534.826	6243.55
535.192	6254.17
535.557	6280.84
535.923	6290.78
536.288	6336.66
536.653	6323.32
537.019	6306.83
537.384	6389.99
537.749	6417.78
538.114	6410.55
538.479	6395.41
538.845	6437.67
539.21	6402.64
539.575	6435.41
539.94	6510.89
540.305	6507.95
540.67	6482.87
541.034	6571.68
541.399	6603.54
541.764	6545.69
542.129	6523.54
542.494	6611.9
542.858	6627.5
543.223	6657.1
543.587	6670.88
543.952	6678.34
544.316	6709.98
544.681	6685.35
545.045	6718.57
545.41	6760.37
545.774	6789.3
546.138	6744.33
546.503	6782.07
546.867	6788.39
547.231	6874.49
547.595	6813.03
547.959	6890.99
548.324	6862.97
548.688	6892.35
549.052	6861.39
549.416	6931.44
549.779	6911.33
550.143	6934.15
550.507	6979.35
550.871	6970.99
551.235	6983.42
551.599	6964.44
551.962	7008.28
552.326	7016.19
552.689	7076.3
553.053	7058.22
553.417	7048.95
553.78	7121.95
554.143	7060.03
554.507	7067.71
554.87	7081.72
555.234	7165.79
555.597	7133.02
555.96	7168.05
556.323	7175.5
556.686	7200.81
557.05	7247.37
557.413	7284.88
557.776	7229.97
558.139	7351.54
558.502	7268.38
558.865	7323.52
559.228	7379.57
559.59	7379.57
559.953	7350.41
560.316	7495.95
560.679	7405.55
561.041	7445.78
561.404	7524.87
561.767	7572.56
562.129	7474.48
562.492	7577.3
562.854	7583.4
563.217	7564.87
563.579	7594.93
563.941	7629.95
564.304	7655.49
564.666	7700.01
565.028	7701.14
565.39	7733.91
565.753	7767.58
566.115	7717.86
566.477	7810.97
566.839	7791.31
567.201	7875.37
567.563	7860.91
567.925	7888.71
568.287	7980.91
568.648	7943.84
569.01	7979.78
569.372	8071.98
569.734	8008.48
570.095	8033.79
570.457	8107.23
570.819	8104.07
571.18	8082.37
571.542	8189.94
571.903	8161.47
572.265	8183.39
572.626	8285.53
572.987	8280.11
573.349	8278.3
573.71	8352.42
574.071	8435.81
574.432	8449.59
574.794	8510.61
575.155	8519.2
575.516	8432.42
575.877	8567.11
576.238	8638.06
576.599	8641.23
576.96	8720.77
577.32	8738.4
577.681	8838.06
578.042	8813.88
578.403	8872.41
578.763	8974.33
579.124	9032.18
579.485	9089.35
579.845	9188.33
580.206	9220.2
580.566	9332.28
580.927	9325.96
581.287	9491.15
581.648	9507.87
582.008	9585.84
582.368	9581.99
582.728	9737.02
583.089	9861.08
583.449	9845.94
583.809	10014.52
584.169	10203.45
584.529	10165.48
584.889	10334.06
585.249	10401.86
585.609	10437.34
585.969	10659.48
586.329	10729.31
586.688	10891.56
587.048	10986.25
587.408	10988.06
587.768	11200.26
588.127	11352.79
588.487	11385.56
588.846	11548.72
589.206	11690.19
589.565	11826.23
589.925	12009.05
590.284	12054.25
590.643	12130.63
591.003	12347.12
591.362	12519.32
591.721	12666.66
592.08	12735.13
592.44	12860.1
592.799	12997.5
593.158	13180.09
593.517	13255.8
593.876	13491.5
594.235	13450.14
594.593	13624.83
594.952	13842.22
595.311	13904.82
595.67	14118.82
596.029	14286.5
596.387	14465.26
596.746	14666.15
597.104	14638.81
597.463	14778.69
597.822	14956.54
598.18	14980.04
598.538	15134.16
598.897	15421.84
599.255	15312.01
599.613	15642.85
599.972	15629.97
600.33	15837.2
600.688	15854.82
601.046	16051.2
601.404	16164.65
601.762	16242.61
602.12	16347.69
602.478	16554.24
602.836	16639.89
603.194	16630.85
603.552	16759.66
603.91	16900.22
604.268	17020.44
604.625	16951.74
604.983	17213.66
605.341	17114.23
605.698	17233.54
606.056	17467.89
606.413	17482.58
606.771	17700.42
607.128	17692.74
607.485	17672.4
607.843	17795.79
608.2	17981.32
608.557	18092.05
608.914	18050.02
609.272	18195.78
609.629	18333.4
609.986	18510.57
610.343	18499.27
610.7	18661.08
611.057	18650.46
611.414	18703.34
611.771	18725.71
612.127	18883.9
612.484	18920.96
612.841	19013.38
613.198	19041.86
613.554	19049.09
613.911	19238.92
614.267	19206.15
614.624	19285.69
614.98	19329.31
615.337	19523.43
615.693	19499.93
616.05	19474.39
616.406	19688.17
616.762	19669.19
617.118	19666.93
617.475	19766.58
617.831	19846.13
618.187	19906.02
618.543	19952.79
618.899	20094.03
619.255	20012.68
619.611	20061.27
619.967	20220.13
620.323	20313.69
620.678	20232.34
621.034	20230.98
621.39	20265.33
621.746	20284.54
622.101	20450.18
622.457	20388.72
622.812	20413.35
623.168	20527.24
623.523	20553.91
623.879	20606.79
624.234	20481.82
624.589	20535.6
624.945	20653.34
625.3	20654.47
625.655	20585.32
626.01	20645.21
626.365	20766.33
626.72	20649.95
627.075	20708.48
627.43	20706.67
627.785	20715.71
628.14	20686.79
628.495	20900.79
628.85	20819.66
629.205	20748.25
629.559	20875.03
629.914	20766.33
630.269	20894.24
630.623	20717.97
630.978	20720.46
631.332	20878.19
631.687	20840
632.041	20707.35
632.396	20774.69
632.75	20719.78
633.104	20857.63
633.459	20612.21
633.813	20634.81
634.167	20718.2
634.521	20651.99
634.875	20794.81
635.229	20642.04
635.583	20659.44
635.937	20661.48
636.291	20622.38
636.645	20673.23
636.999	20587.35
637.352	20703.96
637.706	20524.08
638.06	20628.48
638.413	20575.83
638.767	20501.71
639.121	20627.81
639.474	20534.02
639.828	20501.93
640.181	20585.09
640.534	20613.12
640.888	20527.47
641.241	20451.99
641.594	20534.02
641.947	20640.01
642.301	20472.55
642.654	20560.69
643.007	20616.05
643.36	20443.4
643.713	20406.12
644.066	20528.82
644.419	20379.68
644.771	20309.4
645.124	20102.17
645.477	20048.16
645.83	19987.14
646.182	19885.23
646.535	19814.72
646.888	19863.08
647.24	19736.53
647.593	19889.29
647.945	19913.7
648.298	19722.74
648.65	19698.11
649.002	19652.46
649.355	19771.1
649.707	19791.89
650.059	19894.72
650.411	20120.02
650.763	20176.52
651.115	20342.61
651.467	20346.46
651.819	20310.75
652.171	20271.88
652.523	20252
652.875	20303.97
653.227	20112.11
653.578	20287.7
653.93	20224.88
654.282	20142.39
654.633	20192.56
654.985	20157.53
655.337	20299
655.688	20331.09
656.039	20280.24
656.391	20198.66
656.742	20320.69
657.094	20275.95
657.445	20368.38
657.796	20374.93
658.147	20339.23
658.498	20284.54
658.849	20222.17
659.2	20272.79
659.551	20251.54
659.902	20314.59
660.253	20234.82
660.604	20273.24
660.955	20160.47
661.306	20298.1
661.656	20322.05
662.007	20381.26
662.358	20348.49
662.708	20291.77
663.059	20325.89
663.409	20147.37
663.76	20475.49
664.11	20395.27
664.461	20385.33
664.811	20359.79
665.161	20376.06
665.511	20335.16
665.862	20449.96
666.212	20468.26
666.562	20389.39
666.912	20405.66
667.262	20304.42
667.612	20338.55
667.962	20498.32
668.312	20298.55
668.662	20458.09
669.011	20342.39
669.361	20397.53
669.711	20368.38
670.06	20232.34
670.41	20357.3
670.76	20249.96
671.109	20376.29
671.459	20323.18
671.808	20314.59
672.157	20291.09
672.507	20184.65
672.856	20242.73
673.205	20193.69
673.554	20247.25
673.904	20192.34
674.253	20380.35
674.602	20240.24
674.951	19958.9
675.3	19823.31
675.649	20204.09
675.998	20113.24
676.346	20198.89
676.695	20156.63
677.044	20044.09
677.393	20049.29
677.741	20051.1
678.09	19993.92
678.438	20047.26
678.787	20038.89
679.135	20086.8
679.484	19882.74
679.832	19969.74
680.181	19866.24
680.529	19888.62
680.877	19776.75
681.225	19758.68
681.573	19858.11
681.922	19824.89
682.27	19629.87
682.618	19735.17
682.966	19604.1
683.314	19731.78
683.661	19631.22
684.009	19510.32
684.357	19496.31
684.705	19362.53
685.053	19591.22
685.4	19366.37
685.748	19351.68
686.095	19393.49
686.443	19247.73
686.79	19168.86
687.138	19283.89
687.485	19164.57
687.832	19215.19
688.18	19256.32
688.527	19042.54
688.874	19024.91
689.221	18907.62
689.568	18973.61
689.915	18793.95
690.262	18781.75
690.609	18769.32
690.956	18729.55
691.303	18669.21
691.65	18620.17
691.997	18574.75
692.344	18505.38
692.69	18525.04
693.037	18495.43
693.383	18327.53
693.73	18352.61
694.077	18207.98
694.423	18227.87
694.769	18160.07
695.116	18105.16
695.462	18074.65
695.808	18054.09
696.155	18072.17
696.501	17809.12
696.847	17893.41
697.193	17704.04
697.539	17902.68
697.885	17612.74
698.231	17581.33
698.577	17644.83
698.923	17560.09
699.269	17472.41
699.614	17395.35
699.96	17312.19
700.306	17203.26
700.651	17237.16
700.997	17165.3
701.342	17106.54
701.688	17114
702.033	16978.64
702.379	17030.84
702.724	16878.75
703.069	17001.91
703.415	16643.73
703.76	16795.36
704.105	16791.07
704.45	16649.15
704.795	16491.87
705.14	16434.24
705.485	16388.59
705.83	16382.04
706.175	16398.76
706.52	16365.32
706.865	16271.99
707.209	16237.64
707.554	16164.19
707.899	16315.15
708.243	16114.7
708.588	16089.39
708.932	15909.06
709.277	15945.89
709.621	15995.38
709.966	15899.79
710.31	15887.14
710.654	15852.79
710.998	15776.86
711.342	15723.98
711.687	15712.23
712.031	15680.36
712.375	15537.32
712.719	15692.79
713.063	15588.84
713.407	15553.81
713.75	15475.85
714.094	15460.03
714.438	15374.16
714.782	15485.34
715.125	15394.72
715.469	15428.39
715.812	15278.57
716.156	15269.3
716.499	15255.29
716.843	15244.9
717.186	15116.31
717.53	15151.79
717.873	15175.52
718.216	15108.4
718.559	15075.18
718.902	14940.95
719.246	15040.38
719.589	14992.25
719.932	14957.67
720.275	14912.48
720.617	14949.76
720.96	14985.02
721.303	15053.04
721.646	14921.97
721.989	14824.57
722.331	14921.97
722.674	14811.46
723.016	14876.32
723.359	14792.93
723.701	14873.83
724.044	14820.73
724.386	14740.05
724.729	14810.1
725.071	14746.15
725.413	14684.46
725.755	14740.05
726.097	14691.24
726.439	14573.05
726.782	14518.14
727.124	14696.66
727.465	14538.7
727.807	14628.64
728.149	14580.73
728.491	14549.32
728.833	14567.63
729.175	14534.86
729.516	14636.78
729.858	14567.63
730.199	14513.16
730.541	14489.21
730.882	14544.35
731.224	14491.7
731.565	14491.7
731.906	14398.59
732.248	14451.47
732.589	14360.17
732.93	14318.14
733.271	14386.84
733.612	14397.46
733.953	14451.24
734.294	14380.06
734.635	14419.38
734.976	14399.04
735.317	14420.06
735.658	14377.12
735.999	14374.41
736.339	14432.49
736.68	14452.15
737.021	14389.33
737.361	14353.85
737.702	14388.2
738.042	14407.86
738.383	14355.43
738.723	14413.73
739.063	14384.35
739.404	14399.72
739.744	14464.58
740.084	14362.89
740.424	14437.91
740.764	14554.52
741.104	14499.6
741.444	14416.44
741.784	14406.73
742.124	14394.3
742.464	14537.12
742.804	14495.99
743.143	14538.47
743.483	14474.29
743.823	14489.66
744.162	14550.45
744.502	14525.14
744.841	14530.11
745.181	14620.28
745.52	14564.91
745.86	14724.68
746.199	14688.53
746.538	14751.12
746.877	14773.72
747.216	14761.29
747.556	14864.79
747.895	14887.39
748.234	14880.84
748.573	14919.48
748.911	15004
749.25	15069.31
749.589	15078.8
749.928	15138.91
750.267	15226.82
750.605	15387.94
750.944	15386.59
751.283	15318.34
751.621	15541.39
751.96	15462.74
752.298	15581.16
752.636	15735.28
752.975	15748.61
753.313	15836.52
753.651	15922.62
753.989	16109.28
754.327	16079.68
754.666	16118.77
755.004	16306.56
755.342	16431.31
755.679	16474.69
756.017	16468.59
756.355	16620.45
756.693	16804.85
757.031	16906.77
757.368	16971.4
757.706	17099.76
758.044	17101.8
758.381	17256.82
758.719	17304.05
759.056	17488
759.394	17632.18
759.731	17600.09
760.068	17725.96
760.405	17769.12
760.743	17871.95
761.08	18010.47
761.417	18090.24
761.754	18208.66
762.091	18285.95
762.428	18325.49
762.765	18392.61
763.102	18597.12
763.438	18607.07
763.775	18585.82
764.112	18763.45
764.449	18816.33
764.785	18884.57
765.122	18879.15
765.458	18899.94
765.795	18965.93
766.131	19174.96
766.467	19115.98
766.804	19171.57
767.14	19140.16
767.476	19214.06
767.812	19176.32
768.148	19385.8
768.485	19399.36
768.821	19327.5
769.157	19429.87
769.492	19405.24
769.828	19445.46
770.164	19438.46
770.5	19530.43
770.836	19584.44
771.171	19445.01
771.507	19473.26
771.842	19435.75
772.178	19565.91
772.513	19629.19
772.849	19515.29
773.184	19437.55
773.519	19494.28
773.855	19650.43
774.19	19437.55
774.525	19420.83
774.86	19583.54
775.195	19519.13
775.53	19515.52
775.865	19470.55
776.2	19285.47
776.535	19238.46
776.87	19330.44
777.205	19217.9
777.539	19316.88
777.874	19332.7
778.209	19189.2
778.543	19179.71
778.878	19064.46
779.212	19159.6
779.547	19008.41
779.881	19125.25
780.215	18951.69
780.55	18968.41
780.884	18936.55
781.218	18992.37
781.552	18966.15
781.886	18833.5
782.22	18788.08
782.554	18715.99
782.888	18616.56
783.222	18594.64
783.556	18548.99
783.889	18550.35
784.223	18432.38
784.557	18391.93
784.89	18430.8
785.224	18387.19
785.557	18310.13
785.891	18309.22
786.224	18285.27
786.558	18117.14
786.891	18064.03
787.224	18067.42
787.557	17875.11
787.891	17996.01
788.224	18002.79
788.557	17921.66
788.89	17947.88
789.223	17946.97
789.556	17695.23
789.888	17753.76
790.221	17688.45
790.554	17517.15
790.887	17517.83
791.219	17467.21
791.552	17516.25
791.884	17307.67
792.217	17303.15
792.549	17253.2
792.882	17177.27
793.214	17156.94
793.546	17113.32
793.879	17036.71
794.211	16954.23
794.543	17012.31
794.875	16965.53
795.207	16927.11
795.539	16801.24
795.871	16918.3
796.203	16740
796.535	16596.27
796.867	16607.35
797.198	16612.54
797.53	16493.45
797.862	16512.43
798.193	16401.7
798.525	16330.52
798.856	16333
799.188	16146.34
799.519	16168.94
799.85	16153.12
800.182	16211.2
800.513	16139.34
800.844	15943.63
801.175	16021.6
801.506	16020.92
801.837	15935.95
802.168	15862.28
802.499	15863.41
802.83	15779.8
803.161	15717.2
803.491	15663.64
803.822	15695.05
804.153	15618.9
804.483	15510.88
804.814	15506.13
805.145	15518.11
805.475	15479.92
805.805	15388.62
806.136	15382.52
806.466	15380.71
806.796	15390.88
807.126	15190.43
807.457	15105.24
807.787	15211
808.117	15144.11
808.447	15146.37
808.777	15135.75
809.107	15030.89
809.436	14969.2
809.766	15001.29
810.096	14925.36
810.426	14858.69
810.755	14889.42
811.085	14842.65
811.414	14766.26
811.744	14673.84
812.073	14707.73
812.403	14597.91
812.732	14575.99
813.061	14640.39
813.39	14578.47
813.719	14482.43
814.049	14545.93
814.378	14505.25
814.707	14457.57
815.036	14447.4
815.365	14368.08
815.693	14265.71
816.022	14288.08
816.351	14216.22
816.68	14114.3
817.008	14156.56
817.337	13997.02
817.665	14096.9
817.994	13963.12
818.322	14058.71
818.651	13984.36
818.979	13923.12
819.307	13981.65
819.636	13893.97
819.964	13808.1
820.292	13919.51
820.62	13916.8
820.948	13843.12
821.276	13897.81
821.604	13816.91
821.932	13804.71
822.259	13820.98
822.587	13807.19
822.915	13730.36
823.243	13826.18
823.57	13722.45
823.898	13794.31
824.225	13711.15
824.553	13737.82
824.88	13891.26
825.207	13825.5
825.535	13661.66
825.862	13810.13
826.189	13757.03
826.516	13819.85
826.843	13805.61
827.17	13799.96
827.497	13844.71
827.824	13784.6
828.151	13818.94
828.478	13726.07
828.805	13882.9
829.131	13787.53
829.458	13689.91
829.785	13622.34
830.111	13770.13
830.438	13805.39
830.764	13773.3
831.09	13731.72
831.417	13662.11
831.743	13714.77
832.069	13748.44
832.395	13645.62
832.722	13751.15
833.048	13623.24
833.374	13617.82
833.7	13553.41
834.026	13584.6
834.351	13643.36
834.677	13548.9
835.003	13620.08
835.329	13641.1
835.654	13521.1
835.98	13504.83
836.306	13487.2
836.631	13516.81
836.956	13575.79
837.282	13469.58
837.607	13396.36
837.932	13426.86
838.258	13443.59
838.583	13448.11
838.908	13376.92
839.233	13396.58
839.558	13288.79
839.883	13243.59
840.208	13162.92
840.533	13190.26
840.858	13190.26
841.182	13185.74
841.507	13191.62
841.832	13107.78
842.156	13183.03
842.481	13159.3
842.805	13095.8
843.13	13032.3
843.454	12946.65
843.778	12904.62
844.103	12849.25
844.427	12895.35
844.751	12969.25
845.075	12890.61
845.399	12853.09
845.723	12801.12
846.047	12738.75
846.371	12696.04
846.695	12713.89
847.019	12590.28
847.343	12580.79
847.666	12465.53
847.99	12375.14
848.313	12407
848.637	12318.65
848.96	12305.31
849.284	12204.75
849.607	12106
849.931	12115.03
850.254	12002.5
850.577	11974.47
850.9	11925.89
851.223	11914.14
851.546	11819.45
851.869	11695.84
852.192	11870.97
852.515	11709.17
852.838	11658.32
853.161	11731.54
853.483	11615.16
853.806	11637.08
854.129	11582.62
854.451	11442.28
854.774	11505.33
855.096	11520.47
855.419	11409.97
855.741	11383.53
856.063	11329.52
856.385	11263.98
856.708	11286.13
857.03	11214.95
857.352	11155.51
857.674	11144.89
857.996	11123.87
858.318	11053.37
858.64	11009.75
858.961	10985.8
859.283	10961.17
859.605	10974.95
859.926	11040.94
860.248	10924.56
860.57	10868.29
860.891	10832.13
861.212	10900.15
861.534	10738.35
861.855	10816.09
862.176	10806.59
862.498	10779.02
862.819	10793.94
863.14	10690.89
863.461	10654.96
863.782	10675.98
864.103	10640.27
864.424	10650.44
864.745	10631.23
865.065	10501.97
865.386	10538.8
865.707	10551.01
866.027	10498.35
866.348	10489.99
866.668	10522.99
866.989	10505.36
867.309	10405.47
867.63	10446.6
867.95	10417.68
868.27	10305.59
868.59	10323.44
868.91	10361.41
869.23	10332.26
869.55	10260.39
869.87	10328.64
870.19	10271.24
870.51	10272.82
870.83	10282.09
871.15	10187.63
871.469	10171.36
871.789	10176.78
872.109	10181.75
872.428	10117.57
872.748	10193.73
873.067	10129.32
873.386	10143.33
873.706	10099.49
874.025	10058.14
874.344	10121.64
874.663	10048.42
874.982	10015.43
875.301	10019.5
875.62	10003.9
875.939	9937.46
876.258	9996.45
876.577	9933.4
876.896	9935.2
877.214	9847.75
877.533	9947.86
877.852	9927.3
878.17	9914.19
878.489	9877.81
878.807	9829.22
879.125	9807.52
879.444	9797.13
879.762	9695.66
880.08	9762.33
880.398	9749.22
880.716	9668.09
881.034	9718.71
881.352	9664.25
881.67	9733.85
881.988	9694.76
882.306	9583.8
882.624	9607.53
882.941	9532.96
883.259	9525.95
883.577	9592.84
883.894	9557.59
884.212	9511.04
884.529	9488.44
884.846	9438.95
885.164	9382.68
885.481	9428.33
885.798	9423.81
886.115	9369.57
886.432	9376.58
886.75	9274.88
887.067	9302.68
887.383	9273.75
887.7	9276.92
888.017	9207.09
888.334	9248.9
888.651	9173.19
888.967	9196.02
889.284	9098.39
889.6	9078.73
889.917	9032.4
890.233	9069.01
890.55	8971.61
890.866	9000.99
891.182	9011.16
891.498	8901.79
891.815	8881.67
892.131	8906.76
892.447	8839.87
892.763	8729.81
893.079	8833.09
893.395	8759.64
893.71	8767.33
894.026	8752.19
894.342	8753.77
894.657	8699.08
894.973	8645.3
895.289	8598.52
895.604	8701.79
895.92	8545.86
896.235	8508.12
896.55	8466.54
896.865	8481.91
897.181	8441.68
897.496	8470.61
897.811	8373.66
898.126	8383.38
898.441	8355.59
898.756	8332.31
899.071	8243.72
899.386	8279.88
899.7	8240.56
900.015	8194.46
900.33	8120.11
900.644	8122.15
900.959	8107.68
901.273	8048.93
901.588	7987.91
901.902	7984.52
902.216	7984.97
902.531	7967.12
902.845	7897.97
903.159	7901.59
903.473	7787.01
903.787	7781.59
904.101	7808.93
904.415	7773.68
904.729	7784.3
905.042	7667.47
905.356	7712.89
905.67	7647.36
905.984	7648.94
906.297	7650.07
906.611	7579.79
906.924	7499.79
907.237	7580.01
907.551	7516.06
907.864	7466.34
908.177	7431.77
908.491	7420.69
908.804	7379.34
909.117	7320.58
909.43	7301.38
909.743	7261.83
910.056	7258.21
910.368	7227.03
910.681	7178.22
910.994	7165.79
911.307	7134.37
911.619	7124.21
911.932	7100.25
912.244	6992.01
912.557	7026.58
912.869	6985.9
913.181	6975.06
913.494	6883.99
913.806	6878.79
914.118	6846.7
914.43	6862.97
914.742	6809.64
915.054	6808.73
915.366	6747.27
915.678	6684.22
915.99	6694.84
916.302	6672.69
916.613	6582.3
916.925	6658.68
917.236	6565.35
917.548	6571.45
917.859	6550.44
918.171	6477.44
918.482	6491.23
918.794	6437.67
919.105	6421.4
919.416	6420.5
919.727	6391.12
920.038	6383.21
920.349	6268.41
920.66	6299.82
920.971	6317.9
921.282	6270.22
921.593	6231.57
921.903	6213.49
922.214	6174.17
922.525	6157.68
922.835	6101.86
923.146	6086.04
923.456	6042.43
923.767	6055.76
924.077	6067.28
924.387	5997
924.697	5947.51
925.008	5933.95
925.318	5884.24
925.628	5910.45
925.938	5818.48
926.248	5835.88
926.558	5776.44
926.867	5772.6
927.177	5803.79
927.487	5747.97
927.796	5642.44
928.106	5675.66
928.416	5676.11
928.725	5622.78
929.034	5579.16
929.344	5627.07
929.653	5557.24
929.962	5511.14
930.271	5512.04
930.581	5519.28
930.89	5447.19
931.199	5426.85
931.508	5427.3
931.817	5431.59
932.125	5402.44
932.434	5359.73
932.743	5372.16
933.051	5319.06
933.36	5297.13
933.669	5250.13
933.977	5235.44
934.286	5215.1
934.594	5237.25
934.902	5170.58
935.21	5144.14
935.519	5218.04
935.827	5107.76
936.135	5112.28
936.443	5064.6
936.751	5049.91
937.059	5061.21
937.367	5001.78
937.674	4957.71
937.982	5007.42
938.29	4927.43
938.597	4953.64
938.905	4932.17
939.213	4879.97
939.52	4875.9
939.827	4871.38
940.135	4879.52
940.442	4826.41
940.749	4819.18
941.056	4799.97
941.363	4707.77
941.67	4739.86
941.977	4738.28
942.284	4683.82
942.591	4691.73
942.898	4621.45
943.205	4650.82
943.511	4621.22
943.818	4588.68
944.125	4577.38
944.431	4501.45
944.738	4494.22
945.044	4478.17
945.35	4505.97
945.657	4479.53
945.963	4402.92
946.269	4400.21
946.575	4451.96
946.881	4398.85
947.187	4428.01
947.493	4357.5
947.799	4351.4
948.105	4362.02
948.41	4280.21
948.716	4253.55
949.022	4256.03
949.327	4253.09
949.633	4201.12
949.938	4185.07
950.244	4246.54
950.549	4192.08
950.854	4134.23
951.16	4119.99
951.465	4080.67
951.77	4060.11
952.075	4075.25
952.38	4089.03
952.685	4038.86
952.99	3981.69
953.294	3997.96
953.599	3978.98
953.904	3944.4
954.209	3922.93
954.513	3987.11
954.818	3921.13
955.122	3866.44
955.426	3946.66
955.731	3921.35
956.035	3834.8
956.339	3838.42
956.643	3816.27
956.948	3795.71
957.252	3804.97
957.556	3793.9
957.86	3754.8
958.163	3729.27
958.467	3698.31
958.771	3724.07
959.075	3709.83
959.378	3708.25
959.682	3705.99
959.985	3618.53
960.289	3609.95
960.592	3628.48
960.896	3610.63
961.199	3571.76
961.502	3612.21
961.805	3584.86
962.108	3545.77
962.411	3525.43
962.714	3507.58
963.017	3490.63
963.32	3514.58
963.623	3464.87
963.926	3480.91
964.228	3406.56
964.531	3429.16
964.833	3388.94
965.136	3363.63
965.438	3381.48
965.741	3367.02
966.043	3351.65
966.345	3342.16
966.648	3318.66
966.95	3271.43
967.252	3292.22
967.554	3275.04
967.856	3294.93
968.158	3227.36
968.46	3235.49
968.761	3232.56
969.063	3213.8
969.365	3191.2
969.666	3189.39
969.968	3116.63
970.269	3128.6
970.571	3136.74
970.872	3122.5
971.174	3087.25
971.475	3134.03
971.776	3097.64
972.077	3076.63
972.378	3082.05
972.679	3035.05
972.98	2996.4
973.281	3021.26
973.582	3000.25
973.883	2983.98
974.183	3010.64
974.484	2942.62
974.785	2973.58
975.085	2943.75
975.386	2941.26
975.686	2895.62
975.986	2877.09
976.287	2884.99
976.587	2859.01
976.887	2862.4
977.187	2844.32
977.487	2854.49
977.787	2823.98
978.087	2795.28
978.387	2809.29
978.687	2770.2
978.987	2745.56
979.286	2749.86
979.586	2753.02
979.885	2726.81
980.185	2717.09
980.484	2705.56
980.784	2679.35
981.083	2674.38
981.382	2661.05
981.682	2672.8
981.981	2657.88
982.28	2626.02
982.579	2636.87
982.878	2630.99
983.177	2620.37
983.475	2601.61
983.774	2584.21
984.073	2540.37
984.372	2591.44
984.67	2528.85
984.969	2513.25
985.267	2534.95
985.566	2501.5
985.864	2516.64
986.162	2495.17
986.461	2485.91
986.759	2479.58
987.057	2457.21
987.355	2437.32
987.653	2415.85
987.951	2409.98
988.249	2406.82
988.547	2405.46
988.844	2389.19
989.142	2353.03
989.44	2343.54
989.737	2338.12
990.035	2331.11
990.332	2348.96
990.63	2268.74
990.927	2304.22
991.224	2309.64
991.521	2289.98
991.819	2299.47
992.116	2287.04
992.413	2268.06
992.71	2219.93
993.006	2216.09
993.303	2234.84
993.6	2240.72
993.897	2201.62
994.193	2225.8
994.49	2165.92
994.787	2203.88
995.083	2186.03
995.379	2152.58
995.676	2139.03
995.972	2129.08
996.268	2140.83
996.565	2122.53
996.861	2096.99
997.157	2094.51
997.453	2079.14
997.749	2078.91
998.044	2076.65
998.34	2060.16
998.636	2044.11
998.932	2012.7
999.227	2004.34
999.523	1998.01
999.818	1982.42
1000.114	2002.08
1000.409	1977.22
1000.704	1940.61
1001	1937.68
1001.295	1965.02
1001.59	1908.52
1001.885	1915.98
1002.18	1948.52
1002.475	1914.4
1002.77	1887.28
1003.065	1872.59
1003.359	1870.11
1003.654	1875.76
1003.949	1847.06
1004.243	1861.97
1004.538	1834.17
1004.832	1821.29
1005.127	1811.35
1005.421	1812.93
1005.715	1807.96
1006.009	1791.46
1006.304	1762.99
1006.598	1790.56
1006.892	1748.98
1007.186	1739.71
1007.48	1746.49
1007.773	1745.36
1008.067	1707.4
1008.361	1689.77
1008.655	1692.26
1008.948	1680.28
1009.242	1682.31
1009.535	1670.79
1009.829	1649.1
1010.122	1661.07
1010.415	1662.88
1010.708	1637.8
1011.001	1631.47
1011.295	1600.73
1011.588	1610.68
1011.881	1603.45
1012.173	1615.42
1012.466	1596.67
1012.759	1580.17
1013.052	1545.37
1013.344	1547.85
1013.637	1561.64
1013.93	1535.88
1014.222	1526.61
1014.514	1526.39
1014.807	1481.19
1015.099	1510.57
1015.391	1461.98
1015.683	1491.59
1015.976	1488.87
1016.268	1486.84
1016.56	1415.88
1016.851	1450.46
1017.143	1442.09
1017.435	1433.28
1017.727	1402.1
1018.018	1405.94
1018.31	1420.4
1018.602	1408.88
1018.893	1374.75
1019.185	1360.06
1019.476	1348.09
1019.767	1347.63
1020.058	1326.39
1020.35	1334.98
1020.641	1314.64
1020.932	1302.44
1021.223	1333.62
1021.514	1285.94
1021.804	1278.26
1022.095	1263.57
1022.386	1295.21
1022.677	1252.72
1022.967	1265.15
1023.258	1271.25
1023.548	1253.63
1023.839	1238.03
1024.129	1211.14
1024.419	1184.47
1024.709	1218.15
1025	1221.08
1025.29	1208.88
1025.58	1198.26
1025.87	1191.03
1026.16	1190.8
1026.449	1169.33
1026.739	1159.62
1027.029	1164.14
1027.319	1147.41
1027.608	1120.3
1027.898	1151.71
1028.187	1115.55
1028.477	1131.59
1028.766	1106.96
1029.055	1093.4
1029.344	1101.54
1029.634	1099.96
1029.923	1089.11
1030.212	1071.48
1030.501	1073.29
1030.79	1063.8
1031.078	1053.4
1031.367	1044.37
1031.656	1018.6
1031.945	1058.38
1032.233	1043.24
1032.522	1015.44
1032.81	1010.92
1033.099	1014.76
1033.387	981.09
1033.675	1014.31
1033.963	988.77
1034.251	995.33
1034.54	979.06
1034.828	994.2
1035.116	971.6
1035.403	966.18
1035.691	954.65
1035.979	957.81
1036.267	953.29
1036.554	965.5
1036.842	934.99
1037.129	921.88
1037.417	898.83
1037.704	903.35
1037.992	907.42
1038.279	912.84
1038.566	880.08
1038.853	880.08
1039.14	880.08
