Data from hue_38_FLMS001491_00001.txt Node
Date: Tue Feb 07 17:30:57 GMT 2017
User: dcchb
Spectrometer: FLMS00149
Trigger mode: 0
Integration Time (sec): 2.000000E-2
Scans to average: 10
Electric dark correction enabled: true
Nonlinearity correction enabled: false
Boxcar width: 0
XAxis mode: Wavelengths
Number of Pixels in Spectrum: 2048
>>>>>Begin Spectral Data<<<<<
341.393	3.8
341.776	3.8
342.16	3.8
342.543	-39.59
342.927	-61.28
343.31	-70.32
343.693	-62.64
344.077	-80.72
344.46	-65.35
344.843	-28.06
345.226	-45.24
345.61	-29.87
345.993	-14.73
346.376	-20.38
346.759	30.24
347.142	19.39
347.525	60.07
347.908	44.48
348.291	77.7
348.674	78.37
349.057	107.07
349.44	112.72
349.823	141.2
350.206	171.48
350.588	173.96
350.971	197.24
351.354	241.99
351.737	250.35
352.119	250.57
352.502	272.27
352.884	288.09
353.267	284.24
353.65	286.5
354.032	285.6
354.414	288.31
354.797	329.67
355.179	321.98
355.562	320.85
355.944	322.44
356.326	329.44
356.709	326.95
357.091	334.86
357.473	343.9
357.855	375.99
358.238	355.43
358.62	313.62
359.002	334.86
359.384	347.29
359.766	341.87
360.148	340.97
360.53	332.38
360.912	328.31
361.294	337.58
361.676	325.82
362.057	351.59
362.439	349.78
362.821	336.9
363.203	330.34
363.584	318.59
363.966	340.97
364.348	328.31
364.729	310.91
365.111	332.15
365.493	331.25
365.874	317.01
366.256	330.8
366.637	328.08
367.019	326.05
367.4	307.07
367.781	335.99
368.163	330.34
368.544	317.69
368.925	314.3
369.306	324.24
369.688	313.17
370.069	319.05
370.45	327.18
370.831	333.28
371.212	335.77
371.593	312.49
371.974	314.75
372.355	301.19
372.736	316.33
373.117	317.01
373.498	319.5
373.879	324.47
374.26	328.99
374.641	310.68
375.021	336.45
375.402	321.98
375.783	309.55
376.163	325.82
376.544	351.59
376.925	338.48
377.305	324.69
377.686	330.8
378.066	343.68
378.447	354.3
378.827	339.38
379.208	338.93
379.588	332.83
379.968	340.74
380.349	319.27
380.729	324.92
381.109	344.81
381.489	334.64
381.87	335.77
382.25	323.79
382.63	351.59
383.01	344.81
383.39	353.39
383.77	337.58
384.15	364.24
384.53	340.29
384.91	352.04
385.29	357.69
385.67	346.16
386.049	361.3
386.429	347.97
386.809	355.65
387.189	340.06
387.568	364.24
387.948	372.83
388.328	336.45
388.707	372.83
389.087	363.34
389.466	353.62
389.846	358.59
390.225	385.26
390.605	376.44
390.984	361.98
391.363	392.04
391.743	384.58
392.122	393.85
392.501	383
392.881	393.85
393.26	374.41
393.639	377.35
394.018	358.14
394.397	379.61
394.776	397.24
395.155	395.65
395.534	391.59
395.913	391.59
396.292	383.45
396.671	370.34
397.05	392.94
397.429	393.85
397.808	390.68
398.186	380.06
398.565	412.15
398.944	403.11
399.323	389.55
399.701	411.47
400.08	399.72
400.458	404.92
400.837	397.46
401.215	408.99
401.594	408.76
401.972	414.41
402.351	425.48
402.729	410.79
403.107	428.19
403.486	416.9
403.864	423.45
404.242	438.36
404.62	433.17
404.999	424.13
405.377	443.11
405.755	418.25
406.133	414.18
406.511	427.97
406.889	440.62
407.267	443.34
407.645	434.52
408.023	451.92
408.401	450.12
408.779	452.6
409.156	451.7
409.534	450.57
409.912	447.4
410.29	473.62
410.667	469.55
411.045	472.26
411.422	463.22
411.8	453.05
412.178	459.38
412.555	487.18
412.933	480.17
413.31	457.35
413.687	476.33
414.065	510
414.442	472.49
414.819	475.88
415.197	490.79
415.574	496.22
415.951	476.33
416.328	503.67
416.705	493.73
417.082	520.85
417.46	531.47
417.837	518.14
418.214	512.94
418.591	529.21
418.967	525.82
419.344	554.29
419.721	536.67
420.098	538.25
420.475	548.64
420.852	526.27
421.228	574.63
421.605	548.64
421.982	570.11
422.358	558.36
422.735	543.22
423.111	547.97
423.488	561.3
423.864	564.46
424.241	569.66
424.617	564.91
424.994	565.82
425.37	573.5
425.746	608.76
426.123	588.19
426.499	595.65
426.875	585.03
427.251	600.85
427.627	608.3
428.003	616.44
428.379	618.25
428.756	634.07
429.132	632.03
429.507	620.05
429.883	650.56
430.259	645.14
430.635	667.28
431.011	644.69
431.387	673.16
431.763	676.55
432.138	686.72
432.514	670.45
432.89	672.26
433.265	686.72
433.641	692.37
434.016	709.77
434.392	696.89
434.767	726.94
435.143	714.06
435.518	721.52
435.894	731.01
436.269	714.52
436.644	736.21
437.02	764.01
437.395	740.28
437.77	751.8
438.145	740.73
438.52	763.55
438.895	777.79
439.271	771.24
439.646	787.06
440.021	775.53
440.395	784.34
440.77	782.08
441.145	807.17
441.52	791.12
441.895	784.12
442.27	821.4
442.645	813.5
443.019	820.28
443.394	818.47
443.769	846.04
444.143	822.76
444.518	831.35
444.892	839.71
445.267	848.52
445.641	852.14
446.016	831.57
446.39	879.48
446.764	876.77
447.139	894.85
447.513	867.73
447.887	857.56
448.262	895.53
448.636	877
449.01	908.63
449.384	910.89
449.758	912.7
450.132	922.42
450.506	922.42
450.88	910.22
451.254	932.59
451.628	921.97
452.002	938.92
452.376	958.12
452.75	961.29
453.123	993.15
453.497	961.51
453.871	988.18
454.244	991.34
454.618	1001.97
454.992	1017.33
455.365	1026.6
455.739	1034.73
456.112	1035.41
456.486	1039.03
456.859	1059.36
457.232	1084.9
457.606	1064.56
457.979	1130.55
458.352	1117.22
458.725	1133.49
459.099	1150.21
459.472	1154.73
459.845	1127.39
460.218	1153.83
460.591	1180.49
460.964	1175.75
461.337	1183.43
461.71	1210.32
462.083	1225.24
462.456	1249.87
462.829	1263.2
463.201	1269.08
463.574	1280.15
463.947	1300.71
464.32	1326.7
464.692	1335.97
465.065	1334.16
465.438	1361.28
465.81	1366.7
466.183	1404.67
466.555	1406.47
466.928	1429.52
467.3	1430.88
467.672	1450.99
468.045	1520.82
468.417	1491.67
468.789	1549.97
469.161	1536.41
469.534	1558.33
469.906	1608.73
470.278	1624.32
470.65	1644.43
471.022	1703.64
471.394	1696.41
471.766	1711.33
472.138	1759.69
472.51	1795.16
472.882	1815.96
473.253	1825.22
473.625	1905.44
473.997	1908.83
474.369	1963.97
474.74	1958.1
475.112	2045.78
475.484	2057.98
475.855	2113.8
476.227	2135.27
476.598	2225.44
476.97	2230.18
477.341	2345.21
477.713	2354.7
478.084	2368.48
478.455	2459.1
478.827	2508.37
479.198	2573.22
479.569	2596.95
479.94	2714.24
480.311	2735.93
480.682	2805.31
481.053	2901.58
481.424	2947
481.795	3027.45
482.166	3119.42
482.537	3157.16
482.908	3262.24
483.279	3355.12
483.65	3381.34
484.021	3475.12
484.391	3530.03
484.762	3634.21
485.133	3680.31
485.503	3773.87
485.874	3884.38
486.244	3969.34
486.615	4060.19
486.985	4169.57
487.356	4225.16
487.726	4312.84
488.097	4436.9
488.467	4489.56
488.837	4637.35
489.207	4726.16
489.578	4847.97
489.948	4954.86
490.318	5038.7
490.688	5111.01
491.058	5225.58
491.428	5350.78
491.798	5409.31
492.168	5581.51
492.538	5659.7
492.908	5745.34
493.278	5846.36
493.648	5933.36
494.017	6046.35
494.387	6122.28
494.757	6227.14
495.126	6301.49
495.496	6413.57
495.866	6504.42
496.235	6608.6
496.605	6748.03
496.974	6773.34
497.344	6932.43
497.713	6962.71
498.082	7045.2
498.452	7201.58
498.821	7222.14
499.19	7322.93
499.559	7413.55
499.928	7525.41
500.298	7578.06
500.667	7748.45
501.036	7744.84
501.405	7882.46
501.774	7959.97
502.143	7927.21
502.512	8067.99
502.88	8224.6
503.249	8273.19
503.618	8292.62
503.987	8396.12
504.356	8518.15
504.724	8509.79
505.093	8616.45
505.462	8646.96
505.83	8776.45
506.199	8877.01
506.567	8969.67
506.936	8992.94
507.304	9073.62
507.672	9161.98
508.041	9210.34
508.409	9349.77
508.777	9430.9
509.145	9520.16
509.514	9505.24
509.882	9555.64
510.25	9663.88
510.618	9778.23
510.986	9741.62
511.354	9843.31
511.722	9969.19
512.09	10024.1
512.458	10057.77
512.826	10169.18
513.193	10316.07
513.561	10286.92
513.929	10347.48
514.297	10467.03
514.664	10496.63
515.032	10617.31
515.4	10666.57
515.767	10712.44
516.135	10784.53
516.502	10858.66
516.869	10973
517.237	10996.73
517.604	10935.94
517.972	11103.62
518.339	11194.92
518.706	11192.21
519.073	11248.02
519.44	11350.39
519.808	11502.48
520.175	11461.13
520.542	11652.53
520.909	11668.35
521.276	11617.05
521.643	11819.99
522.009	11944.05
522.376	11984.95
522.743	12059.08
523.11	12086.19
523.477	12259.07
523.843	12290.26
524.21	12416.13
524.577	12521.89
524.943	12587.65
525.31	12624.26
525.676	12666.52
526.043	12862.67
526.409	12834.42
526.776	12984.7
527.142	12984.47
527.508	13046.17
527.874	13146.73
528.241	13266.5
528.607	13245.71
528.973	13440.28
529.339	13436.67
529.705	13527.29
530.071	13645.93
530.437	13688.86
530.803	13859.71
531.169	13898.35
531.535	13860.84
531.901	13844.11
532.267	14065.35
532.632	14148.74
532.998	14248.4
533.364	14279.36
533.73	14326.59
534.095	14348.51
534.461	14426.47
534.826	14520.93
535.192	14518.45
535.557	14699.68
535.923	14765.22
536.288	14781.26
536.653	14835.73
537.019	14726.8
537.384	14849.74
537.749	14998.21
538.114	15031.2
538.479	15059.67
538.845	15181.48
539.21	15012.9
539.575	15176.96
539.94	15264.64
540.305	15328.37
540.67	15300.57
541.034	15451.3
541.399	15590.51
541.764	15590.06
542.129	15606.78
542.494	15633.9
542.858	15703.27
543.223	15766.1
543.587	15795.25
543.952	15875.25
544.316	15929.48
544.681	15983.49
545.045	16040.89
545.41	16123.83
545.774	16203.37
546.138	16247.67
546.503	16317.72
546.867	16286.54
547.231	16461.9
547.595	16499.86
547.959	16559.3
548.324	16515
548.688	16572.63
549.052	16725.62
549.416	16744.15
549.779	16807.65
550.143	16871.15
550.507	16890.13
550.871	17008.32
551.235	16974.88
551.599	17194.76
551.962	17185.95
552.326	17198.15
552.689	17340.97
553.053	17294.42
553.417	17328.99
553.78	17614.86
554.143	17449.44
554.507	17573.51
554.87	17655.31
555.234	17761.52
555.597	17714.07
555.96	17773.95
556.323	17908.64
556.686	17904.8
557.05	18046.71
557.413	18034.96
557.776	17982.54
558.139	18210.33
558.502	18257.78
558.865	18188.18
559.228	18455.97
559.59	18432.24
559.953	18487.83
560.316	18763.98
560.679	18642.63
561.041	18789.29
561.404	18821.16
561.767	18939.35
562.129	18855.28
562.492	19161.71
562.854	19067.48
563.217	19045.78
563.579	19088.95
563.941	19297.98
564.304	19377.98
564.666	19577.52
565.028	19481.03
565.39	19537.07
565.753	19657.52
566.115	19674.69
566.477	19836.5
566.839	19772.32
567.201	19927.12
567.563	19951.3
567.925	20051.18
568.287	20151.29
568.648	20078.98
569.01	20360.33
569.372	20483.49
569.734	20436.48
570.095	20585.86
570.457	20742.46
570.819	20753.76
571.18	20841.44
571.542	20848.45
571.903	20823.59
572.265	21037.82
572.626	21144.94
572.987	21184.26
573.349	21163.47
573.71	21396.23
574.071	21462.9
574.432	21624.7
574.794	21756.45
575.155	21792.83
575.516	21781.76
575.877	22049.77
576.238	22093.16
576.599	22245.7
576.96	22370.22
577.32	22339.03
577.681	22551.46
578.042	22669.42
578.403	22797.78
578.763	22863.31
579.124	23080.03
579.485	23278.89
579.845	23395.05
580.206	23457.87
580.566	23604.53
580.927	23759.11
581.287	23842.27
581.648	24039.33
582.008	24289.49
582.368	24329.71
582.728	24701.46
583.089	24685.18
583.449	24690.83
583.809	24985.74
584.169	25234.55
584.529	25363.81
584.889	25654.65
585.249	25646.06
585.609	25751.6
585.969	26158.14
586.329	26273.84
586.688	26598.81
587.048	26662.76
587.408	26891.45
587.768	27098.91
588.127	27324.66
588.487	27348.84
588.846	27840.58
589.206	27800.81
589.565	28021.14
589.925	28442.6
590.284	28540.22
590.643	28792.19
591.003	28950.61
591.362	29310.6
591.721	29530.25
592.08	29657.48
592.44	29831.26
592.799	30101.09
593.158	30295.21
593.517	30520.96
593.876	30773.16
594.235	30836.89
594.593	31127.73
594.952	31467.15
595.311	31455.85
595.67	31748.28
596.029	32099.9
596.387	32358.2
596.746	32579.67
597.104	32654.01
597.463	32756.61
597.822	33127.45
598.18	33114.34
598.538	33398.18
598.897	33696.47
599.255	33537.15
599.613	34284.03
599.972	34249.68
600.33	34430.92
600.688	34428.66
601.046	34777.12
601.404	35047.85
601.762	35182.08
602.12	35472.47
602.478	35560.15
602.836	35609.42
603.194	35624.78
603.552	35851.44
603.91	35879.92
604.268	36219.57
604.625	36172.11
604.983	36564.19
605.341	36557.19
605.698	36848.93
606.056	37003.73
606.413	37142.03
606.771	37340.67
607.128	37549.7
607.485	37474.9
607.843	37719.87
608.2	37850.26
608.557	38113.53
608.914	38041.22
609.272	38432.62
609.629	38529.79
609.986	38683.69
610.343	38733.85
610.7	39188.53
611.057	38975.88
611.414	39247.29
611.771	39300.62
612.127	39502.42
612.484	39532.93
612.841	39826.93
613.198	39763.66
613.554	39769.76
613.911	40134.95
614.267	40106.25
614.624	40161.84
614.98	40304.21
615.337	40558.89
615.693	40563.18
616.05	40595.73
616.406	40983.96
616.762	40738.55
617.118	41031.2
617.475	41106.45
617.831	41165.88
618.187	41160.01
618.543	41328.14
618.899	41637.28
619.255	41500.56
619.611	41593.67
619.967	41767.67
620.323	41921.34
620.678	41707.34
621.034	41854
621.39	41892.42
621.746	41899.87
622.101	42350.71
622.457	42170.6
622.812	42204.95
623.168	42382.57
623.523	42338.96
623.879	42561.78
624.234	42372.63
624.589	42497.15
624.945	42575.11
625.3	42578.5
625.655	42698.5
626.01	42712.73
626.365	42718.83
626.72	42758.38
627.075	42705.73
627.43	42770.81
627.785	42658.27
628.14	42796.8
628.495	43032.95
628.85	42877.25
629.205	42844.25
629.559	42852.84
629.914	42851.49
630.269	42873.86
630.623	42800.87
630.978	42842.67
631.332	43033.85
631.687	43096.68
632.041	43060.29
632.396	43040.41
632.75	42991.37
633.104	43051.03
633.459	42632.06
633.813	42880.19
634.167	42950.24
634.521	42867.98
634.875	43015.32
635.229	42970.81
635.583	42834.09
635.937	42847.19
636.291	42838.38
636.645	42734.2
636.999	42817.59
637.352	42870.24
637.706	42627.31
638.06	42825.5
638.413	42697.82
638.767	42455.79
639.121	42719.51
639.474	42473.87
639.828	42515.9
640.181	42493.76
640.534	42644.49
640.888	42500.08
641.241	42275
641.594	42469.12
641.947	42587.99
642.301	42571.27
642.654	42393.65
643.007	42553.87
643.36	42564.94
643.713	42412.18
644.066	42620.08
644.419	42177.61
644.771	42081.56
645.124	41720.89
645.477	41637.73
645.83	41416.27
646.182	41394.12
646.535	41113.45
646.888	41223.73
647.24	41050.18
647.593	41292.21
647.945	41077.75
648.298	41076.84
648.65	41053.57
649.002	40945.55
649.355	41111.42
649.707	40917.75
650.059	41213.79
650.411	41712.08
650.763	41710.95
651.115	42071.39
651.467	41882.92
651.819	42006.08
652.171	41842.25
652.523	41863.26
652.875	41656.72
653.227	41614.23
653.578	41753.66
653.93	41746.88
654.282	41591.86
654.633	41563.38
654.985	41622.59
655.337	41700.1
655.688	41679.54
656.039	41801.12
656.391	41346.89
656.742	41527
657.094	41658.07
657.445	41780.1
657.796	41603.38
658.147	41550.73
658.498	41489.26
658.849	41613.78
659.2	41411.52
659.551	41568.81
659.902	41625.3
660.253	41376.04
660.604	41594.12
660.955	41385.99
661.306	41453.33
661.656	41358.87
662.007	41434.8
662.358	41429.6
662.708	41331.53
663.059	41446.1
663.409	41073.45
663.76	41513.22
664.11	41378.3
664.461	41475.93
664.811	41324.52
665.161	41371.07
665.511	41281.36
665.862	41296.95
666.212	41359.32
666.562	41487.45
666.912	41292.66
667.262	41233.45
667.612	41326.33
667.962	41249.95
668.312	41267.8
668.662	41474.57
669.011	41255.14
669.361	41320
669.711	41105.09
670.06	41104.87
670.41	41132.89
670.76	41160.23
671.109	41202.26
671.459	41110.06
671.808	41002.04
672.157	41211.53
672.507	40885.21
672.856	40823.52
673.205	40954.81
673.554	41138.54
673.904	40890.41
674.253	41026
674.602	41169.04
674.951	40449.97
675.3	40362.29
675.649	40824.65
675.998	40787.36
676.346	40906.68
676.695	41088.59
677.044	40655.61
677.393	40795.27
677.741	40865.78
678.09	40777.42
678.438	40668.04
678.787	40792.11
679.135	40785.78
679.484	40437.09
679.832	40552.11
680.181	40425.56
680.529	40475.05
680.877	40455.62
681.225	40241.61
681.573	40456.52
681.922	40239.35
682.27	40273.25
682.618	40122.74
682.966	40045.01
683.314	40138.34
683.661	40114.61
684.009	39911.68
684.357	39814.73
684.705	39913.48
685.053	39864.67
685.4	39833.71
685.748	39645.92
686.095	39650.89
686.443	39458.13
686.79	39409.54
687.138	39489.31
687.485	39466.26
687.832	39393.5
688.18	39322.99
688.527	39153.73
688.874	39150.34
689.221	38984.02
689.568	38993.28
689.915	38899.95
690.262	38788.54
690.609	38733.18
690.956	38619.06
691.303	38588.55
691.65	38463.81
691.997	38272.17
692.344	38046.19
692.69	38212.96
693.037	38194.43
693.383	37918.73
693.73	38016.36
694.077	37859.08
694.423	37858.62
694.769	37596.26
695.116	37549.93
695.462	37527.11
695.808	37416.6
696.155	37504.06
696.501	37276.04
696.847	37201.01
697.193	36924.86
697.539	37106.1
697.885	36850.51
698.231	36785.43
698.577	36824.75
698.923	36642.16
699.269	36451.65
699.614	36515.16
699.96	36199.01
700.306	36370.3
700.651	36149.74
700.997	36064.77
701.342	36104.09
701.688	36016.41
702.033	35970.76
702.379	35859.35
702.724	35884.89
703.069	35721.96
703.415	35317.45
703.76	35382.98
704.105	35349.08
704.45	35390.89
704.795	35132.14
705.14	35019.38
705.485	35047.62
705.83	34903.45
706.175	34960.39
706.52	34885.59
706.865	34803.56
707.209	34672.27
707.554	34517.47
707.899	34614.87
708.243	34435.21
708.588	34336.46
708.932	34208.1
709.277	34160.64
709.621	34241.54
709.966	33885.62
710.31	33981.21
710.654	33749.58
710.998	33821.22
711.342	33757.26
711.687	33682.01
712.031	33581
712.375	33486.76
712.719	33527.66
713.063	33441.79
713.407	33582.13
713.75	33210.84
714.094	33237.05
714.438	33139.65
714.782	33207.22
715.125	33139.88
715.469	33085.19
715.812	32945.53
716.156	32739.44
716.499	32776.27
716.843	32769.27
717.186	32737.85
717.53	32738.98
717.873	32810.62
718.216	32608.82
718.559	32504.41
718.902	32200.69
719.246	32277.53
719.589	32206.57
719.932	32015.39
720.275	32005.44
720.617	32074.37
720.96	31962.73
721.303	31973.13
721.646	31898.1
721.989	31779.24
722.331	31943.75
722.674	31746.69
723.016	31756.86
723.359	31723.64
723.701	31842.51
724.044	31603.19
724.386	31403.2
724.729	31561.16
725.071	31393.93
725.413	31494.72
725.755	31383.09
726.097	31249.53
726.439	31077.56
726.782	31098.57
727.124	31345.35
727.465	31069.2
727.807	31035.3
728.149	30987.62
728.491	30886.38
728.833	30923.89
729.175	30797.11
729.516	30765.48
729.858	30620.85
730.199	30823.33
730.541	30553.28
730.882	30587.85
731.224	30832.37
731.565	30515.09
731.906	30614.07
732.248	30508.08
732.589	30347.41
732.93	30270.8
733.271	30297.69
733.612	30301.99
733.953	30402.55
734.294	30151.48
734.635	30201.42
734.976	30276.22
735.317	30054.08
735.658	30003.69
735.999	29930.92
736.339	29981.54
736.68	30047.98
737.021	30001.43
737.361	29826.07
737.702	29932.5
738.042	29870.36
738.383	29773.86
738.723	29688.44
739.063	29691.38
739.404	29710.59
739.744	29573.87
740.084	29436.7
740.424	29534.55
740.764	29413.42
741.104	29491.61
741.444	29368.68
741.784	29301.33
742.124	29313.09
742.464	29220.88
742.804	29237.15
743.143	29031.96
743.483	29147.89
743.823	29046.88
744.162	29057.5
744.502	28998.29
744.841	28981.12
745.181	28895.47
745.52	28827.45
745.86	28883.72
746.199	28753.78
746.538	28693.21
746.877	28878.52
747.216	28683.95
747.556	28622.93
747.895	28557.4
748.234	28576.16
748.573	28504.52
748.911	28525.99
749.25	28458.19
749.589	28258.42
749.928	28385.88
750.267	28365.09
750.605	28165.77
750.944	28168.71
751.283	28051.88
751.621	28109.5
751.96	28034.7
752.298	27905.66
752.636	27901.6
752.975	27874.7
753.313	27562.17
753.651	27841.03
753.989	27674.03
754.327	27695.5
754.666	27574.83
755.004	27565.79
755.342	27618.67
755.679	27458.22
756.017	27368.5
756.355	27419.35
756.693	27278.56
757.031	27310.88
757.368	27155.63
757.706	27127.15
758.044	27077.44
758.381	27054.61
758.719	26943.2
759.056	26923.09
759.394	26686.71
759.731	26721.97
760.068	26643.55
760.405	26501.63
760.743	26536.89
761.08	26523.33
761.417	26464.12
761.754	26319.49
762.091	26297.8
762.428	26121.76
762.765	26106.62
763.102	26129.67
763.438	26034.98
763.775	25773.97
764.112	25873.63
764.449	25837.92
764.785	25786.85
765.122	25574.65
765.458	25494.43
765.795	25430.25
766.131	25331.49
766.467	25323.13
766.804	25107.32
767.14	24994.55
767.476	25040.66
767.812	24929.47
768.148	24974.22
768.485	24762.47
768.821	24550.95
769.157	24600.67
769.492	24503.49
769.828	24581.01
770.164	24289.26
770.5	24298.3
770.836	24223.73
771.171	24101.24
771.507	24120
771.842	23954.36
772.178	23898.99
772.513	23930.63
772.849	23717.53
773.184	23610.86
773.519	23494.71
773.855	23480.7
774.19	23419.91
774.525	23332.23
774.86	23178.78
775.195	23147.82
775.53	23118.67
775.865	23025.34
776.2	22846.36
776.535	22600.49
776.87	22728.63
777.205	22619.48
777.539	22450.67
777.874	22604.79
778.209	22359.6
778.543	22346.71
778.878	22247.96
779.212	22080.96
779.547	22098.36
779.881	21983.79
780.215	21960.74
780.55	21878.25
780.884	21706.96
781.218	21739.27
781.552	21787.41
781.886	21557.81
782.22	21550.35
782.554	21393.97
782.888	21254.54
783.222	21257.25
783.556	21078.05
783.889	21072.85
784.223	20865.4
784.557	20928.9
784.89	20960.76
785.224	20805.51
785.557	20679.87
785.891	20589.02
786.224	20545.41
786.558	20654.78
786.891	20427.44
787.224	20360.55
787.557	20291.18
787.891	20171.86
788.224	20158.98
788.557	20088.24
788.89	20122.59
789.223	20095.47
789.556	19921.92
789.888	19858.87
790.221	19707.24
790.554	19539.33
790.887	19618.2
791.219	19492.1
791.552	19568.93
791.884	19358.77
792.217	19355.61
792.549	19241.03
792.882	19196.06
793.214	19063.41
793.546	19123.97
793.879	18927.82
794.211	18811.21
794.543	18891.44
794.875	18818.45
795.207	18814.38
795.539	18665
795.871	18690.31
796.203	18545.23
796.535	18465.01
796.867	18472.01
797.198	18401.28
797.53	18376.2
797.862	18248.97
798.193	18241.29
798.525	18147.5
798.856	18147.28
799.188	17921.97
799.519	18007.85
799.85	17748.64
800.182	17830.68
800.513	17833.61
800.844	17605.6
801.175	17845.36
801.506	17693.73
801.837	17615.77
802.168	17536.45
802.499	17528.31
802.83	17363.34
803.161	17347.3
803.491	17407.86
803.822	17371.25
804.153	17238.6
804.483	17127.19
804.814	17073.41
805.145	16955.9
805.475	17042.9
805.805	17003.13
806.136	16974.2
806.466	16862.34
806.796	16881.55
807.126	16725.62
807.457	16679.97
807.787	16711.83
808.117	16598.84
808.447	16542.35
808.777	16608.79
809.107	16510.26
809.436	16384.61
809.766	16406.53
810.096	16331.73
810.426	16285.63
810.755	16346.65
811.085	16317.27
811.414	16253.54
811.744	16052.64
812.073	16065.75
812.403	16048.8
812.732	15927.67
813.061	15897.84
813.39	15847.68
813.719	15826.89
814.049	15941.01
814.378	15746.21
814.707	15695.82
815.036	15681.81
815.365	15663.73
815.693	15563.39
816.022	15492.21
816.351	15544.18
816.68	15397.29
817.008	15525.88
817.337	15315.49
817.665	15300.12
817.994	15354.13
818.322	15279.78
818.651	15198.43
818.979	15161.59
819.307	15293.11
819.636	15105.32
819.964	15055.38
820.292	15101.93
820.62	15063.29
820.948	15004.99
821.276	15094.25
821.604	14951.43
821.932	15090.86
822.259	15085.66
822.587	14994.37
822.915	15031.2
823.243	15061.26
823.57	14999.34
823.898	14949.62
824.225	14956.4
824.553	14924.54
824.88	15052.44
825.207	14967.47
825.535	14996.85
825.862	14965.21
826.189	14924.99
826.516	15009.28
826.843	14931.32
827.17	14984.2
827.497	14958.43
827.824	14949.4
828.151	14986.23
828.478	14944.42
828.805	14988.49
829.131	14876.63
829.458	14904.65
829.785	14917.31
830.111	14867.14
830.438	14924.54
830.764	14868.95
831.09	14912.56
831.417	14854.03
831.743	14811.77
832.069	14862.84
832.395	14799.12
832.722	14829.17
833.048	14778.1
833.374	14792.56
833.7	14778.33
834.026	14785.33
834.351	14815.16
834.677	14783.3
835.003	14790.76
835.329	14793.24
835.654	14748.27
835.98	14663.98
836.306	14677.09
836.631	14585.11
836.956	14599.35
837.282	14598.67
837.607	14517.32
837.932	14535.85
838.258	14566.81
838.583	14480.25
838.908	14438.9
839.233	14507.37
839.558	14395.06
839.883	14331.78
840.208	14305.57
840.533	14331.78
840.858	14302.86
841.182	14322.97
841.507	14272.8
841.832	14205.91
842.156	14219.02
842.481	14138.79
842.805	14099.93
843.13	14107.16
843.454	14049.53
843.778	13984.45
844.103	14067.61
844.427	13895.64
844.751	14002.08
845.075	13842.31
845.399	13854.51
845.723	13789.2
846.047	13773.15
846.371	13703.1
846.695	13747.39
847.019	13637.79
847.343	13558.92
847.666	13495.87
847.99	13407.29
848.313	13382.2
848.637	13328.42
848.96	13339.72
849.284	13264.02
849.607	13163.45
849.931	13144.47
850.254	13088.43
850.577	13019.73
850.9	12939.28
851.223	12936.57
851.546	12856.12
851.869	12784.93
852.192	12856.57
852.515	12664.71
852.838	12613.19
853.161	12652.51
853.483	12591.49
853.806	12610.25
854.129	12485.96
854.451	12457.71
854.774	12410.93
855.096	12340.2
855.419	12343.81
855.741	12354.44
856.063	12253.19
856.385	12218.39
856.708	12149.92
857.03	12091.62
857.352	12134.33
857.674	12059.53
857.996	12016.59
858.318	11923.49
858.64	11949.7
858.961	11946.31
859.283	11849.82
859.605	11833.32
859.926	11869.25
860.248	11844.17
860.57	11781.57
860.891	11763.72
861.212	11677.39
861.534	11695.7
861.855	11587.22
862.176	11559.43
862.498	11590.84
862.819	11592.65
863.14	11508.81
863.461	11525.53
863.782	11425.65
864.103	11446.44
864.424	11499.09
864.745	11387.45
865.065	11433.56
865.386	11255.71
865.707	11249.15
866.027	11334.8
866.348	11312.43
866.668	11391.75
866.989	11319.43
867.309	11290.51
867.63	11280.11
867.95	11271.98
868.27	11128.48
868.59	11121.7
868.91	11170.74
869.23	11190.4
869.55	11097.29
869.87	11170.96
870.19	11128.03
870.51	11098.42
870.83	11208.25
871.15	11083.73
871.469	10950.18
871.789	11019.78
872.109	11030.18
872.428	10981.82
872.748	11012.32
873.067	10944.75
873.386	11003.96
873.706	10944.75
874.025	10923.74
874.344	10884.19
874.663	10919.67
874.982	10795.83
875.301	10806.91
875.62	10781.14
875.939	10740.69
876.258	10778.66
876.577	10723.97
876.896	10729.62
877.214	10655.72
877.533	10671.77
877.852	10715.61
878.17	10666.12
878.489	10698.21
878.807	10589.28
879.125	10517.2
879.444	10488.04
879.762	10492.79
880.08	10518.33
880.398	10523.75
880.716	10548.38
881.034	10500.47
881.352	10456.41
881.67	10458.89
881.988	10389.97
882.306	10389.06
882.624	10395.16
882.941	10291.44
883.259	10296.64
883.577	10236.98
883.894	10269.52
884.212	10229.52
884.529	10170.99
884.846	10203.76
885.164	10208.28
885.481	10129.41
885.798	10117.21
886.115	10012.8
886.432	10068.62
886.75	10067.94
887.067	10110.88
887.383	10072.24
887.7	10025.68
888.017	9937.78
888.334	9926.25
888.651	9962.86
888.967	9881.28
889.284	9843.54
889.6	9795.63
889.917	9738.68
890.233	9790.43
890.55	9723.32
890.866	9744.79
891.182	9768.29
891.498	9724.22
891.815	9639.93
892.131	9615.75
892.447	9580.95
892.763	9538.24
893.079	9496.21
893.395	9468.18
893.71	9485.58
894.026	9449.43
894.342	9410.56
894.657	9320.84
894.973	9338.24
895.289	9331.46
895.604	9321.97
895.92	9260.51
896.235	9176.89
896.55	9225.25
896.865	9212.37
897.181	9132.37
897.496	9134.86
897.811	9011.7
898.126	9044.92
898.441	8954.98
898.756	8953.62
899.071	8927.18
899.386	8979.38
899.7	8848.76
900.015	8858.03
900.33	8811.48
900.644	8770.35
900.959	8779.39
901.273	8667.3
901.588	8704.81
901.902	8650.35
902.216	8582.1
902.531	8626.17
902.845	8617.81
903.159	8566.74
903.473	8527.87
903.787	8421.88
904.101	8432.73
904.415	8385.5
904.729	8413.07
905.042	8304.82
905.356	8286.07
905.67	8330.13
905.984	8293.98
906.297	8267.54
906.611	8157.26
906.924	8172.62
907.237	8224.37
907.551	8129.01
907.864	8106.64
908.177	8072.74
908.491	8042.91
908.804	7945.06
909.117	8027.77
909.43	7924.5
909.743	7837.27
910.056	7840.43
910.368	7828.45
910.681	7719.53
910.994	7721.79
911.307	7673.65
911.619	7609.7
911.932	7666.87
912.244	7655.58
912.557	7625.07
912.869	7518.63
913.181	7538.06
913.494	7525.18
913.806	7472.76
914.118	7415.36
914.43	7434.79
914.742	7399.76
915.054	7363.38
915.366	7378.29
915.678	7296.49
915.99	7248.58
916.302	7207.68
916.613	7239.99
916.925	7122.48
917.236	7142.37
917.548	7161.35
917.859	7157.74
918.171	7003.62
918.482	7054.46
918.794	7018.53
919.105	6971.75
919.416	6978.53
919.727	6907.12
920.038	6830.29
920.349	6807.24
920.66	6786.22
920.971	6789.38
921.282	6788.71
921.593	6731.08
921.903	6721.81
922.214	6686.11
922.525	6648.37
922.835	6591.2
923.146	6553.46
923.456	6564.53
923.767	6551.88
924.077	6491.54
924.387	6487.7
924.697	6444.31
925.008	6445.66
925.318	6374.48
925.628	6390.98
925.938	6370.41
926.248	6350.75
926.558	6278.21
926.867	6247.7
927.177	6241.38
927.487	6202.28
927.796	6148.04
928.106	6125.67
928.416	6126.12
928.725	6125.9
929.034	6045.22
929.344	6076.86
929.653	6068.27
929.962	5986.69
930.271	6015.62
930.581	5927.26
930.89	5922.29
931.199	5926.81
931.508	5831.44
931.817	5866.47
932.125	5835.28
932.434	5827.83
932.743	5715.51
933.051	5704.21
933.36	5665.8
933.669	5644.55
933.977	5623.99
934.286	5680.03
934.594	5652.69
934.902	5581.05
935.21	5549.19
935.519	5553.94
935.827	5504.67
936.135	5539.02
936.443	5469.64
936.751	5416.31
937.059	5451.11
937.367	5413.83
937.674	5410.89
937.982	5337.67
938.29	5322.08
938.597	5361.62
938.905	5252.7
939.213	5269.2
939.52	5287.73
939.827	5243.89
940.135	5186.26
940.442	5140.84
940.749	5169.54
941.056	5192.59
941.363	5095.19
941.67	5106.04
941.977	5089.54
942.284	5045.7
942.591	5000.28
942.898	5042.54
943.205	5036.66
943.511	4964.35
943.818	4933.16
944.125	4890.22
944.431	4920.73
944.738	4888.19
945.044	4846.16
945.35	4817.23
945.657	4798.7
945.963	4813.16
946.269	4754.18
946.575	4757.8
946.881	4771.81
947.187	4740.4
947.493	4703.11
947.799	4653.17
948.105	4651.36
948.41	4590.12
948.716	4634.19
949.022	4580.63
949.327	4566.39
949.633	4528.43
949.938	4517.13
950.244	4524.13
950.549	4499.5
950.854	4476.9
951.16	4443.68
951.465	4451.82
951.77	4416.56
952.075	4349
952.38	4411.82
952.685	4371.14
952.99	4355.55
953.294	4305.38
953.599	4294.99
953.904	4269.68
954.209	4268.55
954.513	4236.68
954.818	4231.48
955.122	4201.66
955.426	4185.84
955.731	4171.15
956.035	4138.61
956.339	4127.08
956.643	4129.11
956.948	4111.49
957.252	4113.97
957.556	4096.8
957.86	4091.38
958.163	4032.39
958.467	3995.78
958.771	3998.5
959.075	3956.46
959.378	3949.23
959.682	3933.41
959.985	3934.77
960.289	3911.27
960.592	3876.24
960.896	3912.17
961.199	3872.17
961.502	3879.63
961.805	3811.61
962.108	3810.93
962.411	3793.76
962.714	3788.33
963.017	3772.29
963.32	3785.85
963.623	3691.39
963.926	3720.76
964.228	3694.32
964.531	3689.8
964.833	3679.41
965.136	3660.43
965.438	3677.15
965.741	3591.95
966.043	3596.02
966.345	3569.36
966.648	3549.02
966.95	3577.04
967.252	3576.36
967.554	3557.6
967.856	3508.11
968.158	3478.28
968.46	3493.65
968.761	3464.73
969.063	3459.98
969.365	3446.19
969.666	3408.23
969.968	3417.72
970.269	3371.62
970.571	3390.83
970.872	3368.46
971.174	3334.11
971.475	3366.2
971.776	3316.25
972.077	3292.3
972.378	3276.26
972.679	3241.45
972.98	3288.01
973.281	3243.04
973.582	3290.04
973.883	3227.9
974.183	3222.7
974.484	3194.45
974.785	3191.06
975.085	3176.37
975.386	3156.71
975.686	3156.48
975.986	3142.25
976.287	3107.9
976.587	3100.89
976.887	3077.62
977.187	3105.86
977.487	3069.93
977.787	3040.56
978.087	3030.84
978.387	3004.17
978.687	3008.24
978.987	2971.4
979.286	2925.08
979.586	2979.31
979.885	2923.27
980.185	2936.38
980.484	2931.63
980.784	2885.08
981.083	2891.63
981.382	2854.12
981.682	2846.44
981.981	2888.92
982.28	2841.46
982.579	2799.88
982.878	2848.92
983.177	2800.56
983.475	2782.03
983.774	2784.07
984.073	2773.67
984.372	2745.87
984.67	2768.47
984.969	2743.84
985.267	2727.12
985.566	2714.91
985.864	2661.81
986.162	2694.8
986.461	2643.05
986.759	2660
987.057	2600.57
987.355	2641.24
987.653	2589.04
987.951	2591.98
988.249	2544.52
988.547	2571.42
988.844	2590.85
989.142	2571.87
989.44	2537.29
989.737	2540.91
990.035	2513.34
990.332	2505.2
990.63	2514.69
990.927	2458.88
991.224	2496.16
991.521	2479.67
991.819	2471.31
992.116	2427.01
992.413	2443.74
992.71	2400.35
993.006	2418.2
993.303	2394.24
993.6	2389.95
993.897	2397.86
994.193	2367.13
994.49	2363.96
994.787	2331.42
995.083	2315.6
995.379	2346.56
995.676	2299.11
995.972	2291.87
996.268	2285.1
996.565	2257.07
996.861	2256.85
997.157	2257.75
997.453	2271.99
997.749	2227.92
998.044	2242.61
998.34	2191.09
998.636	2193.12
998.932	2187.02
999.227	2169.62
999.523	2173.01
999.818	2126.91
1000.114	2123.97
1000.409	2137.98
1000.704	2117.64
1001	2116.06
1001.295	2114.03
1001.59	2108.6
1001.885	2106.57
1002.18	2055.95
1002.475	2085.33
1002.77	2022.73
1003.065	2042.62
1003.359	2015.27
1003.654	1980.47
1003.949	2004.65
1004.243	1968.04
1004.538	1961.94
1004.832	1954.93
1005.127	1949.96
1005.421	1913.81
1005.715	1943.41
1006.009	1944.31
1006.304	1907.03
1006.598	1917.42
1006.892	1896.4
1007.186	1912.68
1007.48	1888.72
1007.773	1871.77
1008.067	1873.13
1008.361	1833.81
1008.655	1819.12
1008.948	1836.29
1009.242	1804.66
1009.535	1821.83
1009.829	1785.9
1010.122	1776.18
1010.415	1754.26
1010.708	1747.26
1011.001	1755.17
1011.295	1720.36
1011.588	1729.86
1011.881	1730.99
1012.173	1700.25
1012.466	1711.55
1012.759	1730.31
1013.052	1670.42
1013.344	1680.59
1013.637	1663.19
1013.93	1647.37
1014.222	1647.82
1014.514	1612.12
1014.807	1617.54
1015.099	1585
1015.391	1607.15
1015.683	1588.62
1015.976	1577.09
1016.268	1570.09
1016.56	1574.38
1016.851	1557.43
1017.143	1543.42
1017.435	1537.54
1017.727	1528.73
1018.018	1508.17
1018.31	1511.33
1018.602	1485.12
1018.893	1501.39
1019.185	1484.21
1019.476	1460.48
1019.767	1470.2
1020.058	1426.36
1020.35	1436.98
1020.641	1422.75
1020.932	1440.15
1021.223	1413.03
1021.514	1431.56
1021.804	1371.45
1022.095	1386.81
1022.386	1387.04
1022.677	1393.14
1022.967	1335.52
1023.258	1336.87
1023.548	1332.58
1023.839	1335.52
1024.129	1301.17
1024.419	1319.02
1024.709	1298.68
1025	1302.97
1025.29	1313.6
1025.58	1269.75
1025.87	1274.5
1026.16	1273.82
1026.449	1247.61
1026.739	1235.86
1027.029	1253.03
1027.319	1215.74
1027.608	1248.51
1027.898	1234.73
1028.187	1202.41
1028.477	1203.77
1028.766	1203.54
1029.055	1181.17
1029.344	1173.71
1029.634	1184.33
1029.923	1170.77
1030.212	1137.33
1030.501	1148.63
1030.79	1126.93
1031.078	1133.49
1031.367	1159.02
1031.656	1119.7
1031.945	1121.51
1032.233	1097.1
1032.522	1112.02
1032.81	1081.74
1033.099	1068.4
1033.387	1085.35
1033.675	1048.07
1033.963	1070.89
1034.251	1054.85
1034.54	1063.43
1034.828	1058.23
1035.116	1046.03
1035.403	1023.43
1035.691	1023.66
1035.979	1024.11
1036.267	1018.46
1036.554	989.76
1036.842	992.25
1037.129	1004.45
1037.417	988.86
1037.704	972.81
1037.992	974.62
1038.279	968.52
1038.566	956.99
1038.853	956.99
1039.14	956.99
