Data from hue_70_FLMS001491_59.txt Node
Date: Mon Feb 06 15:21:08 GMT 2017
User: dcchb
Spectrometer: FLMS00149
Trigger mode: 0
Integration Time (sec): 2.000000E-2
Scans to average: 10
Electric dark correction enabled: true
Nonlinearity correction enabled: false
Boxcar width: 0
XAxis mode: Wavelengths
Number of Pixels in Spectrum: 2048
>>>>>Begin Spectral Data<<<<<
341.393	-39.07
341.776	-39.07
342.16	-39.07
342.543	-62.79
342.927	-66.86
343.31	-65.73
343.693	-45.85
344.077	-67.99
344.46	-56.02
344.843	-41.78
345.226	-53.08
345.61	-44.04
345.993	-17.82
346.376	13.59
346.759	5.68
347.142	17.43
347.525	38.22
347.908	49.52
348.291	69.18
348.674	99.01
349.057	99.69
349.44	110.08
349.823	135.39
350.206	155.5
350.588	197.99
350.971	213.13
351.354	216.52
351.737	222.85
352.119	266.46
352.502	261.49
352.884	270.98
353.267	267.59
353.65	280.7
354.032	298.55
354.414	304.2
354.797	324.77
355.179	302.39
355.562	334.03
355.944	326.57
356.326	334.48
356.709	302.62
357.091	324.31
357.473	316.4
357.855	344.2
358.238	341.49
358.62	327.48
359.002	326.12
359.384	328.61
359.766	334.93
360.148	323.18
360.53	343.07
360.912	352.34
361.294	341.49
361.676	313.92
362.057	331.54
362.439	323.64
362.821	339.45
363.203	325.67
363.584	321.6
363.966	339
364.348	312.79
364.729	301.04
365.111	309.85
365.493	326.35
365.874	317.76
366.256	315.95
366.637	304.65
367.019	304.43
367.4	314.14
367.781	303.52
368.163	332
368.544	323.86
368.925	301.49
369.306	310.3
369.688	317.99
370.069	314.82
370.45	296.97
370.831	288.16
371.212	301.26
371.593	321.38
371.974	304.88
372.355	301.94
372.736	315.73
373.117	301.26
373.498	308.95
373.879	306.46
374.26	327.25
374.641	299
375.021	304.65
375.402	306.23
375.783	307.82
376.163	322.96
376.544	310.08
376.925	342.39
377.305	325.22
377.686	316.4
378.066	343.52
378.447	303.98
378.827	336.97
379.208	325.9
379.588	320.92
379.968	324.99
380.349	331.77
380.729	334.71
381.109	331.54
381.489	354.82
381.87	327.93
382.25	328.38
382.63	318.44
383.01	329.06
383.39	352.56
383.77	333.35
384.15	318.89
384.53	344.65
384.91	330.19
385.29	350.08
385.67	333.58
386.049	367.02
386.429	347.36
386.809	338.55
387.189	333.8
387.568	332.22
387.948	350.53
388.328	340.58
388.707	332.67
389.087	330.19
389.466	348.27
389.846	358.89
390.225	342.62
390.605	340.81
390.984	344.65
391.363	352.79
391.743	348.72
392.122	343.97
392.501	345.1
392.881	347.36
393.26	354.82
393.639	330.87
394.018	368.61
394.397	353.69
394.776	350.75
395.155	360.24
395.534	386.68
395.913	370.87
396.292	357.31
396.671	353.01
397.05	361.6
397.429	383.3
397.808	353.01
398.186	376.52
398.565	360.92
398.944	370.41
399.323	369.06
399.701	393.46
400.08	367.25
400.458	376.29
400.837	368.38
401.215	385.55
401.594	380.13
401.972	379.45
402.351	389.17
402.729	391.66
403.107	414.03
403.486	385.78
403.864	392.79
404.242	378.55
404.62	380.81
404.999	418.77
405.377	410.64
405.755	383.52
406.133	407.7
406.511	399.11
406.889	421.49
407.267	404.76
407.645	397.98
408.023	404.09
408.401	415.38
408.779	405.44
409.156	422.39
409.534	410.64
409.912	423.75
410.29	415.61
410.667	429.85
411.045	421.49
411.422	446.34
411.8	429.17
412.178	429.17
412.555	411.54
412.933	442.5
413.31	451.32
413.687	444.31
414.065	460.58
414.442	421.03
414.819	448.6
415.197	437.08
415.574	458.1
415.951	467.59
416.328	462.16
416.705	458.1
417.082	473.46
417.46	468.94
417.837	459.9
418.214	486.57
418.591	455.61
418.967	477.53
419.344	463.29
419.721	487.7
420.098	480.24
420.475	494.03
420.852	483.18
421.228	511.43
421.605	493.12
421.982	481.15
422.358	528.83
422.735	498.09
423.111	494.25
423.488	480.92
423.864	518.43
424.241	526.12
424.617	514.14
424.994	521.6
425.37	519.34
425.746	513.46
426.123	512.56
426.499	529.28
426.875	519.56
427.251	544.19
427.627	519.11
428.003	531.54
428.379	541.93
428.756	542.39
429.132	562.73
429.507	551.43
429.883	546.91
430.259	553.46
430.635	553.46
431.011	568.15
431.387	603.4
431.763	567.7
432.138	581.26
432.514	585.55
432.89	598.2
433.265	595.27
433.641	620.12
434.016	614.02
434.392	605.66
434.767	612.89
435.143	609.96
435.518	613.8
435.894	636.17
436.269	646.56
436.644	643.18
437.02	624.87
437.395	633.68
437.77	668.94
438.145	641.82
438.52	661.03
438.895	668.26
439.271	662.16
439.646	676.85
440.021	672.78
440.395	670.29
440.77	680.01
441.145	667.81
441.52	695.15
441.895	687.24
442.27	693.8
442.645	706.45
443.019	705.09
443.394	686.11
443.769	694.7
444.143	727.92
444.518	705.55
444.892	708.71
445.267	694.7
445.641	739.22
446.016	722.27
446.39	728.82
446.764	736.05
447.139	737.86
447.513	754.36
447.887	747.13
448.262	736.28
448.636	742.61
449.01	781.48
449.384	782.38
449.758	769.27
450.132	784.19
450.506	767.24
450.88	785.09
451.254	767.24
451.628	768.37
452.002	793.23
452.376	831.87
452.75	808.59
453.123	811.31
453.497	830.51
453.871	819.22
454.244	831.19
454.618	858.99
454.992	850.18
455.365	881.59
455.739	870.74
456.112	901.02
456.486	894.69
456.859	876.39
457.232	892.21
457.606	898.54
457.979	917.97
458.352	923.85
458.725	922.26
459.099	968.59
459.472	965.65
459.845	960.68
460.218	957.74
460.591	985.77
460.964	989.83
461.337	1028.25
461.71	1016.05
462.083	1022.6
462.456	1035.03
462.829	1068.93
463.201	1073.22
463.574	1067.8
463.947	1088.36
464.32	1095.82
464.692	1148.92
465.065	1129.26
465.438	1140.11
465.81	1154.12
466.183	1177.4
466.555	1183.73
466.928	1224.18
467.3	1224.4
467.672	1221.01
468.045	1248.81
468.417	1281.35
468.789	1296.04
469.161	1282.48
469.534	1323.38
469.906	1360.44
470.278	1375.13
470.65	1401.12
471.022	1414.23
471.394	1429.6
471.766	1497.62
472.138	1486.09
472.51	1528.58
472.882	1581.68
473.253	1579.42
473.625	1618.06
473.997	1662.58
474.369	1695.12
474.74	1712.3
475.112	1758.17
475.484	1812.86
475.855	1820.77
476.227	1907.1
476.598	1892.41
476.97	1974.21
477.341	2035
477.713	2085.85
478.084	2146.64
478.455	2226.86
478.827	2263.02
479.198	2356.12
479.569	2376.69
479.94	2465.73
480.311	2512.05
480.682	2587.53
481.053	2662.11
481.424	2739.62
481.795	2778.26
482.166	2898.03
482.537	2954.98
482.908	3049.21
483.279	3143.67
483.65	3282.43
484.021	3329.66
484.391	3427.06
484.762	3499.15
485.133	3585.24
485.503	3655.98
485.874	3828.18
486.244	3918.34
486.615	3985.69
486.985	4106.13
487.356	4249.18
487.726	4339.58
488.097	4516.29
488.467	4540.02
488.837	4734.59
489.207	4836.74
489.578	4961.03
489.948	5085.54
490.318	5247.35
490.688	5341.58
491.058	5532.31
491.428	5666.55
491.798	5726.21
492.168	5886.2
492.538	6014.79
492.908	6181.33
493.278	6311.95
493.648	6440.76
494.017	6593.75
494.387	6700.87
494.757	6765.73
495.126	6904.25
495.496	7063.8
495.866	7188.09
496.235	7296.79
496.605	7505.59
496.974	7668.08
497.344	7755.76
497.713	7944
498.082	8028.97
498.452	8168.18
498.821	8302.18
499.19	8382.41
499.559	8649.07
499.928	8723.87
500.298	8765.45
500.667	8969.51
501.036	9067.36
501.405	9226.9
501.774	9257.86
502.143	9399.78
502.512	9550.74
502.88	9682.03
503.249	9695.59
503.618	9847.45
503.987	9976.94
504.356	10067.79
504.724	10196.14
505.093	10350.94
505.462	10409.02
505.83	10575.57
506.199	10647.66
506.567	10804.94
506.936	10874.09
507.304	11088.55
507.672	11126.97
508.041	11228.21
508.409	11330.13
508.777	11484.92
509.145	11585.71
509.514	11596.56
509.882	11739.38
510.25	11866.61
510.618	11913.16
510.986	12035.19
511.354	12275.19
511.722	12362.42
512.09	12455.52
512.458	12479.93
512.826	12651.22
513.193	12669.75
513.561	12780.71
513.929	12915.62
514.297	13062.96
514.664	13081.72
515.032	13236.06
515.4	13331.43
515.767	13345.89
516.135	13451.2
516.502	13372.56
516.869	13690.06
517.237	13681.02
517.604	13674.02
517.972	13855.94
518.339	13944.75
518.706	14067.23
519.073	14060.45
519.44	14224.74
519.808	14376.6
520.175	14321.01
520.542	14507.67
520.909	14619.76
521.276	14625.63
521.643	14780.88
522.009	14847.1
522.376	14979.07
522.743	15042.34
523.11	15225.39
523.477	15305.84
523.843	15343.58
524.21	15521.43
524.577	15567.98
524.943	15731.82
525.31	15713.74
525.676	15785.83
526.043	15908.76
526.409	16065.82
526.776	16133.84
527.142	16170.22
527.508	16223.56
527.874	16429.2
528.241	16474.85
528.607	16464.68
528.973	16625.13
529.339	16567.73
529.705	16711.68
530.071	16872.8
530.437	16860.15
530.803	16954.84
531.169	17045
531.535	16950.99
531.901	17024.44
532.267	17058.56
532.632	17275.51
532.998	17167.94
533.364	17297.43
533.73	17426.46
534.095	17553.24
534.461	17419.68
534.826	17513.24
535.192	17502.62
535.557	17595.95
535.923	17616.06
536.288	17619.9
536.653	17733.57
537.019	17675.27
537.384	17751.65
537.749	17735.38
538.114	17869.39
538.479	17820.12
538.845	17818.32
539.21	17788.04
539.575	17796.17
539.94	17966.11
540.305	17994.58
540.67	17859.45
541.034	17958.65
541.399	18040.46
541.764	18108.03
542.129	18093.34
542.494	18108.7
542.858	18084.07
543.223	18209.72
543.587	18266.21
543.952	18186.44
544.316	18245.65
544.681	18218.08
545.045	18280.23
545.41	18338.3
545.774	18287.01
546.138	18265.54
546.503	18342.82
546.867	18283.16
547.231	18475.02
547.595	18476.38
547.959	18512.08
548.324	18460.56
548.688	18501.69
549.052	18467.57
549.416	18480.67
549.779	18404.97
550.143	18563.16
550.507	18673.89
550.871	18592.99
551.235	18581.46
551.599	18668.24
551.962	18675.47
552.326	18740.1
552.689	18746.43
553.053	18694.9
553.417	18748.01
553.78	19016.25
554.143	18781.23
554.507	18791.85
554.87	18857.61
555.234	19040.21
555.597	18943.94
555.96	18962.02
556.323	19068.45
556.686	19050.83
557.05	19183.48
557.413	19202.01
557.776	19136.25
558.139	19274.78
558.502	19276.13
558.865	19295.79
559.228	19456.01
559.59	19424.83
559.953	19416.69
560.316	19671.83
560.679	19576.01
561.041	19711.6
561.404	19728.55
561.767	19796.12
562.129	19626.18
562.492	19894.65
562.854	19873.86
563.217	19920.41
563.579	19997.92
563.941	20127.41
564.304	20206.28
564.666	20215.32
565.028	20286.95
565.39	20380.28
565.753	20422.99
566.115	20518.36
566.477	20526.95
566.839	20614.63
567.201	20659.37
567.563	20601.97
567.925	20687.62
568.287	20742.31
568.648	20825.92
569.01	20858.01
569.372	21020.27
569.734	20855.98
570.095	20916.09
570.457	21017.1
570.819	21085.12
571.18	21148.85
571.542	21207.38
571.903	21167.83
572.265	21323.08
572.626	21317.43
572.987	21366.7
573.349	21441.27
573.71	21430.65
574.071	21524.43
574.432	21535.51
574.794	21696.63
575.155	21590.42
575.516	21606.24
575.877	21529.63
576.238	21689.63
576.599	21785.44
576.96	21726.01
577.32	21770.3
577.681	21935.95
578.042	21948.6
578.403	21898.21
578.763	21951.54
579.124	21919
579.485	22009.85
579.845	22030.64
580.206	22031.31
580.566	22029.05
580.927	22026.12
581.287	22085.1
581.648	22114.02
582.008	22126
582.368	22048.04
582.728	22104.53
583.089	22147.24
583.449	22130.75
583.809	22077.87
584.169	22118.54
584.529	22063.85
584.889	22278.99
585.249	22129.84
585.609	22113.8
585.969	22180.91
586.329	22060.92
586.688	22212.55
587.048	22136.62
587.408	22124.64
587.768	22083.52
588.127	22110.41
588.487	22097.3
588.846	22159.9
589.206	22036.06
589.565	22057.3
589.925	22184.3
590.284	22060.92
590.643	22126.9
591.003	22167.13
591.362	22206
591.721	22163.06
592.08	22219.78
592.44	22185.21
592.799	22207.35
593.158	22242.61
593.517	22142.5
593.876	22159.45
594.235	22207.58
594.593	22271.76
594.952	22262.04
595.311	22203.29
595.67	22212.1
596.029	22323.06
596.387	22339.1
596.746	22355.6
597.104	22255.49
597.463	22239.67
597.822	22289.16
598.18	22240.8
598.538	22247.13
598.897	22375.49
599.255	22201.03
599.613	22541.36
599.972	22383.85
600.33	22441.47
600.688	22308.59
601.046	22378.42
601.404	22497.29
601.762	22371.87
602.12	22476.05
602.478	22494.35
602.836	22439.21
603.194	22435.82
603.552	22524.63
603.91	22457.29
604.268	22556.95
604.625	22492.77
604.983	22593.56
605.341	22383.17
605.698	22630.85
606.056	22591.3
606.413	22633.78
606.771	22605.08
607.128	22629.94
607.485	22640.34
607.843	22563.73
608.2	22747
608.557	22828.81
608.914	22829.71
609.272	22822.7
609.629	22782.71
609.986	22912.87
610.343	22955.58
610.7	22971.18
611.057	23003.27
611.414	22958.52
611.771	22932.76
612.127	23121.68
612.484	23152.19
612.841	23192.86
613.198	23133.21
613.554	23121
613.911	23240.55
614.267	23182.02
614.624	23142.92
614.98	23247.55
615.337	23354.67
615.693	23318.96
616.05	23317.38
616.406	23453.87
616.762	23234.45
617.118	23371.39
617.475	23272.18
617.831	23544.27
618.187	23551.05
618.543	23521.67
618.899	23704.26
619.255	23610.03
619.611	23526.64
619.967	23700.2
620.323	23712.17
620.678	23608.22
621.034	23585.62
621.39	23574.55
621.746	23604.15
622.101	23946.97
622.457	23694.55
622.812	23691.38
623.168	23868.33
623.523	23813.41
623.879	23789.91
624.234	23705.85
624.589	23724.6
624.945	23855.45
625.3	23808.22
625.655	23776.8
626.01	23871.72
626.365	23810.02
626.72	23857.48
627.075	23836.92
627.43	23810.48
627.785	23695.22
628.14	23805.96
628.495	23822.9
628.85	23714.43
629.205	23619.07
629.559	23806.41
629.914	23731.61
630.269	23727.99
630.623	23744.04
630.978	23661.33
631.332	23793.3
631.687	23793.3
632.041	23685.51
632.396	23830.14
632.75	23693.42
633.104	23651.61
633.459	23619.07
633.813	23529.81
634.167	23642.8
634.521	23488.45
634.875	23639.63
635.229	23577.26
635.583	23523.48
635.937	23441.45
636.291	23455
636.645	23528.68
636.999	23346.08
637.352	23423.37
637.706	23358.06
638.06	23401.9
638.413	23245.07
638.767	23290.94
639.121	23328
639.474	23137.05
639.828	23200.55
640.181	23239.87
640.534	23143.83
640.888	23161
641.241	23031.29
641.594	23072.87
641.947	23094.79
642.301	23160.55
642.654	23184.05
643.007	23217.95
643.36	23021.12
643.713	23106.99
644.066	23185.18
644.419	22917.17
644.771	22845.53
645.124	22742.93
645.477	22632.43
645.83	22471.98
646.182	22357.63
646.535	22287.58
646.888	22318.31
647.24	22256.62
647.593	22301.36
647.945	22360.12
648.298	22271.53
648.65	22178.65
649.002	22257.3
649.355	22309.05
649.707	22191.76
650.059	22341.59
650.411	22656.16
650.763	22655.03
651.115	22886.43
651.467	22770.73
651.819	22785.64
652.171	22748.36
652.523	22720.11
652.875	22746.77
653.227	22617.29
653.578	22805.98
653.93	22696.61
654.282	22661.13
654.633	22591.52
654.985	22708.81
655.337	22704.74
655.688	22614.35
656.039	22745.64
656.391	22555.14
656.742	22719.2
657.094	22582.49
657.445	22730.73
657.796	22497.29
658.147	22581.58
658.498	22617.29
658.849	22669.49
659.2	22711.07
659.551	22584.75
659.902	22748.13
660.253	22667.45
660.604	22768.7
660.955	22587
661.306	22610.51
661.656	22639.43
662.007	22506.1
662.358	22593.11
662.708	22644.86
663.059	22556.95
663.409	22595.82
663.76	22603.95
664.11	22602.82
664.461	22674.69
664.811	22686.44
665.161	22526.22
665.511	22521.92
665.862	22612.77
666.212	22656.61
666.562	22657.96
666.912	22586.33
667.262	22565.76
667.612	22606.44
667.962	22607.12
668.312	22458.65
668.662	22610.28
669.011	22642.14
669.361	22503.39
669.711	22617.29
670.06	22560.56
670.41	22549.04
670.76	22490.06
671.109	22466.78
671.459	22621.58
671.808	22430.85
672.157	22542.49
672.507	22373.9
672.856	22461.13
673.205	22498.42
673.554	22524.63
673.904	22360.34
674.253	22455.48
674.602	22341.81
674.951	22020.69
675.3	21956.06
675.649	22275.6
675.998	22270.18
676.346	22343.17
676.695	22403.73
677.044	22158.09
677.393	22190.86
677.741	22217.98
678.09	22179.78
678.438	22227.92
678.787	22232.44
679.135	22124.87
679.484	22060.01
679.832	22222.95
680.181	21946.12
680.529	22086.68
680.877	21977.08
681.225	21929.62
681.573	22050.97
681.922	21966.46
682.27	21847.82
682.618	21806.23
682.966	21782.05
683.314	21816.63
683.661	21720.59
684.009	21739.34
684.357	21606.01
684.705	21619.8
685.053	21557.88
685.4	21452.57
685.748	21455.74
686.095	21430.43
686.443	21332.8
686.79	21280.15
687.138	21280.6
687.485	21363.53
687.832	21250.77
688.18	21233.82
688.527	21078.34
688.874	21128.29
689.221	21053.03
689.568	20982.75
689.915	20947.73
690.262	20949.31
690.609	20744.34
690.956	20860.04
691.303	20912.7
691.65	20761.74
691.997	20640.39
692.344	20594.29
692.69	20516.32
693.037	20600.84
693.383	20312.71
693.73	20470
694.077	20332.15
694.423	20259.61
694.769	20219.38
695.116	20270.68
695.462	20166.28
695.808	20065.72
696.155	20107.07
696.501	19966.51
696.847	19871.14
697.193	19848.32
697.539	19827.53
697.885	19684.71
698.231	19556.8
698.577	19563.36
698.923	19562.9
699.269	19494.88
699.614	19365.85
699.96	19407.2
700.306	19322.91
700.651	19253.08
700.997	19193.65
701.342	19065.06
701.688	19039.3
702.033	18964.28
702.379	18995.91
702.724	18960.43
703.069	18885.63
703.415	18711.85
703.76	18629.14
704.105	18695.13
704.45	18673.66
704.795	18579.65
705.14	18497.39
705.485	18482.93
705.83	18442.03
706.175	18474.8
706.52	18372.2
706.865	18197.97
707.209	18212.88
707.554	18188.7
707.899	18245.2
708.243	18101.93
708.588	18059.89
708.932	17937.41
709.277	17919.11
709.621	17977.18
709.966	17877.52
710.31	17898.54
710.654	17674.59
710.998	17776.06
711.342	17673.69
711.687	17613.8
712.031	17559.57
712.375	17465.56
712.719	17500.36
713.063	17441.83
713.407	17494.03
713.75	17394.83
714.094	17470.76
714.438	17359.12
714.782	17324.54
715.125	17210.42
715.469	17333.13
715.812	17167.71
716.156	17080.26
716.499	17125.91
716.843	17204.77
717.186	16981.73
717.53	17070.99
717.873	17078.68
718.216	17034.83
718.559	16901.96
718.902	16850.43
719.246	16958.9
719.589	16818.12
719.932	16793.94
720.275	16801.85
720.617	16754.16
720.96	16762.53
721.303	16761.85
721.646	16723.66
721.989	16641.62
722.331	16624
722.674	16588.52
723.016	16693.6
723.359	16604.34
723.701	16655.86
724.044	16513.27
724.386	16424.91
724.729	16540.16
725.071	16391.24
725.413	16484.11
725.755	16439.6
726.097	16387.39
726.439	16338.13
726.782	16285.25
727.124	16352.37
727.465	16317.79
727.807	16320.28
728.149	16345.59
728.491	16259.71
728.833	16297.23
729.175	16194.63
729.516	16198.7
729.858	16242.77
730.199	16224.23
730.541	16147.85
730.882	16169.32
731.224	16234.18
731.565	16096.78
731.906	16143.78
732.248	16145.14
732.589	16101.3
732.93	16111.7
733.271	16054.52
733.612	16101.07
733.953	16045.71
734.294	16069.44
734.635	15899.95
734.976	15981.98
735.317	15996.22
735.658	15947.63
735.999	15838.48
736.339	15817.47
736.68	15945.82
737.021	16020.85
737.361	15837.58
737.702	15907.18
738.042	15844.36
738.383	15987.18
738.723	15989.21
739.063	15852.27
739.404	15924.36
739.744	15871.25
740.084	15883.45
740.424	15845.49
740.764	15775.21
741.104	15840.74
741.444	15779.05
741.784	15750.12
742.124	15830.12
742.464	15916.9
742.804	15862.21
743.143	15895.43
743.483	15777.92
743.823	15830.35
744.162	15767.3
744.502	15856.11
744.841	15800.06
745.181	15913.51
745.52	15928.87
745.86	15935.43
746.199	15913.96
746.538	15942.89
746.877	15975.2
747.216	15957.57
747.556	16009.55
747.895	16052.71
748.234	16048.19
748.573	16048.19
748.911	16119.83
749.25	16240.73
749.589	16079.38
749.928	16240.51
750.267	16255.87
750.605	16256.55
750.944	16278.7
751.283	16244.8
751.621	16444.57
751.96	16460.61
752.298	16481.85
752.636	16517.79
752.975	16439.82
753.313	16512.81
753.651	16805.91
753.989	16724.56
754.327	16778.8
754.666	16805.69
755.004	16857.21
755.342	16954.38
755.679	17052.46
756.017	16993.71
756.355	17113.93
756.693	17151.22
757.031	17308.05
757.368	17310.76
757.706	17374.71
758.044	17414.26
758.381	17521.15
758.719	17537.87
759.056	17656.06
759.394	17716.85
759.731	17631.43
760.068	17708.49
760.405	17772.67
760.743	17855.15
761.08	17890.41
761.417	17892.89
761.754	18014.24
762.091	18025.54
762.428	18048.59
762.765	18072.1
763.102	18194.35
763.438	18183.5
763.775	18229.61
764.112	18250.17
764.449	18403.84
764.785	18327.91
765.122	18346.89
765.458	18418.08
765.795	18427.34
766.131	18478.64
766.467	18516.6
766.804	18409.49
767.14	18475.47
767.476	18514.34
767.812	18484.74
768.148	18579.88
768.485	18595.02
768.821	18516.15
769.157	18434.8
769.492	18541.01
769.828	18552.08
770.164	18434.35
770.5	18426.44
770.836	18501.46
771.171	18410.17
771.507	18481.12
771.842	18303.95
772.178	18382.6
772.513	18326.78
772.849	18426.89
773.184	18323.61
773.519	18350.96
773.855	18354.35
774.19	18290.39
774.525	18277.97
774.86	18254.46
775.195	18251.07
775.53	18176.73
775.865	18042.72
776.2	18035.94
776.535	17976.05
776.87	17926.11
777.205	17911.65
777.539	17937.64
777.874	17977.63
778.209	17779.9
778.543	17765.21
778.878	17727.47
779.212	17793.46
779.547	17664.2
779.881	17732.22
780.215	17575.16
780.55	17563.18
780.884	17560.02
781.218	17414.49
781.552	17503.07
781.886	17414.94
782.22	17269.18
782.554	17307.14
782.888	17058.56
783.222	17069.18
783.556	17038.22
783.889	17073.03
784.223	16924.78
784.557	16950.99
784.89	16941.96
785.224	16801.85
785.557	16797.1
785.891	16817.89
786.224	16713.04
786.558	16807.72
786.891	16554.85
787.224	16471.23
787.557	16491.35
787.891	16542.19
788.224	16430.78
788.557	16477.11
788.89	16381.52
789.223	16396.89
789.556	16240.73
789.888	16202.31
790.221	16153.05
790.554	16003
790.887	16073.73
791.219	15988.31
791.552	15918.03
791.884	15892.94
792.217	15868.09
792.549	15738.82
792.882	15729.56
793.214	15612.95
793.546	15690.69
793.879	15528.43
794.211	15426.97
794.543	15483.01
794.875	15426.06
795.207	15457.25
795.539	15389.23
795.871	15371.15
796.203	15279.4
796.535	15146.75
796.867	15078.05
797.198	15111.27
797.53	15063.36
797.862	15000.76
798.193	15109.01
798.525	14954.44
798.856	14918.05
799.188	14820.88
799.519	14694.33
799.85	14628.12
800.182	14642.13
800.513	14682.35
800.844	14494.79
801.175	14627.89
801.506	14612.3
801.837	14480.78
802.168	14463.6
802.499	14449.37
802.83	14379.54
803.161	14313.1
803.491	14251.63
803.822	14252.08
804.153	14205.08
804.483	14102.26
804.814	14075.36
805.145	14103.61
805.475	14117.17
805.805	14028.13
806.136	14001.92
806.466	13977.74
806.796	13973.67
807.126	13848.03
807.457	13882.83
807.787	13707.01
808.117	13721.7
808.447	13735.94
808.777	13744.3
809.107	13605.09
809.436	13665.43
809.766	13605.77
810.096	13545.43
810.426	13498.88
810.755	13521.71
811.085	13471.76
811.414	13489.39
811.744	13371.2
812.073	13313.58
812.403	13328.72
812.732	13237.19
813.061	13313.8
813.39	13206.46
813.719	13175.95
814.049	13179.12
814.378	13163.75
814.707	13080.81
815.036	13052.34
815.365	13069.29
815.693	12939.8
816.022	12966.24
816.351	12919.01
816.68	12812.8
817.008	12831.1
817.337	12710.2
817.665	12723.08
817.994	12717.89
818.322	12839.92
818.651	12641.5
818.979	12687.15
819.307	12716.08
819.636	12672.46
819.964	12538.23
820.292	12617.78
820.62	12559.02
820.948	12529.64
821.276	12537.1
821.604	12479.02
821.932	12616.87
822.259	12549.53
822.587	12485.58
822.915	12462.98
823.243	12539.59
823.57	12467.27
823.898	12472.92
824.225	12373.04
824.553	12467.05
824.88	12441.06
825.207	12538.68
825.535	12393.37
825.862	12549.53
826.189	12434.5
826.516	12478.8
826.843	12536.87
827.17	12493.49
827.497	12454.16
827.824	12523.09
828.151	12498.23
828.478	12525.12
828.805	12524.9
829.131	12412.36
829.458	12410.32
829.785	12353.83
830.111	12387.73
830.438	12514.05
830.764	12485.35
831.09	12485.12
831.417	12455.97
831.743	12415.3
832.069	12405.35
832.395	12369.65
832.722	12441.28
833.048	12353.6
833.374	12381.4
833.7	12314.73
834.026	12307.5
834.351	12287.84
834.677	12324
835.003	12319.03
835.329	12247.16
835.654	12288.97
835.98	12295.3
836.306	12211.68
836.631	12214.85
836.956	12215.98
837.282	12228.63
837.607	12114.29
837.932	12161.97
838.258	12075.87
838.583	12130.56
838.908	12059.37
839.233	12027.51
839.558	11959.04
839.883	11949.77
840.208	12043.33
840.533	12001.52
840.858	11909.32
841.182	12029.54
841.507	11919.26
841.832	11794.29
842.156	11853.5
842.481	11899.83
842.805	11831.36
843.13	11772.15
843.454	11734.18
843.778	11772.37
844.103	11645.6
844.427	11691.25
844.751	11655.09
845.075	11645.6
845.399	11623.23
845.723	11514.3
846.047	11503
846.371	11488.54
846.695	11483.79
847.019	11376.23
847.343	11375.1
847.666	11218.26
847.99	11223.01
848.313	11184.14
848.637	11130.13
848.96	11145.27
849.284	11086.97
849.607	10995.45
849.931	10958.84
850.254	10876.58
850.577	10785.96
850.9	10801.78
851.223	10819.63
851.546	10773.08
851.869	10734.89
852.192	10749.58
852.515	10613.76
852.838	10568.11
853.161	10589.35
853.483	10510.49
853.806	10497.15
854.129	10432.97
854.451	10416.03
854.774	10385.97
855.096	10360.43
855.419	10274.33
855.741	10259.19
856.063	10226.2
856.385	10143.49
856.708	10234.34
857.03	10119.76
857.352	10131.06
857.674	10084.06
857.996	10121.57
858.318	10017.39
858.64	10049.71
858.961	9986.21
859.283	9988.47
859.605	9921.8
859.926	9895.81
860.248	9832.31
860.57	9893.33
860.891	9839.77
861.212	9809.49
861.534	9810.84
861.855	9763.39
862.176	9793.9
862.498	9656.05
862.819	9764.97
863.14	9639.1
863.461	9631.19
863.782	9573.11
864.103	9667.8
864.424	9562.49
864.745	9629.83
865.065	9594.8
865.386	9481.59
865.707	9478.2
866.027	9515.94
866.348	9529.72
866.668	9458.76
866.989	9425.32
867.309	9385.32
867.63	9424.41
867.95	9447.46
868.27	9389.84
868.59	9383.96
868.91	9352.55
869.23	9368.14
869.55	9289.95
869.87	9418.76
870.19	9314.81
870.51	9353.45
870.83	9318.43
871.15	9218.54
871.469	9198.43
871.789	9300.8
872.109	9228.49
872.428	9186.68
872.748	9170.63
873.067	9173.35
873.386	9196.4
873.706	9199.79
874.025	9158.43
874.344	9091.09
874.663	9135.61
874.982	9069.62
875.301	9027.59
875.62	9018.77
875.939	9065.55
876.258	8965.67
876.577	8987.81
876.896	9000.7
877.214	9043.41
877.533	9008.83
877.852	8951.21
878.17	8920.47
878.489	8915.95
878.807	8890.64
879.125	8830.53
879.444	8884.31
879.762	8835.5
880.08	8866.24
880.398	8819.46
880.716	8769.29
881.034	8819.68
881.352	8747.82
881.67	8742.4
881.988	8707.37
882.306	8768.39
882.624	8661.27
882.941	8663.76
883.259	8625.79
883.577	8631.89
883.894	8565
884.212	8577.88
884.529	8495.4
884.846	8508.51
885.164	8500.6
885.481	8548.28
885.798	8536.75
886.115	8429.19
886.432	8483.42
886.75	8459.92
887.067	8405.68
887.383	8420.37
887.7	8348.06
888.017	8346.48
888.334	8392.8
888.651	8305.12
888.967	8264.44
889.284	8209.76
889.6	8295.18
889.917	8168.18
890.233	8195.74
890.55	8175.63
890.866	8183.99
891.182	8136.31
891.498	8153.94
891.815	8058.57
892.131	8063.55
892.447	8041.85
892.763	8018.57
893.079	8009.76
893.395	7981.06
893.71	7913.49
894.026	7934.28
894.342	7921.85
894.657	7864
894.973	7838.47
895.289	7806.83
895.604	7814.06
895.92	7739.26
896.235	7731.35
896.55	7698.81
896.865	7725.02
897.181	7657.68
897.496	7694.06
897.811	7629.66
898.126	7614.07
898.441	7572.26
898.756	7544.91
899.071	7473.28
899.386	7521.19
899.7	7435.09
900.015	7395.09
900.33	7322.1
900.644	7380.4
900.959	7335.43
901.273	7297.92
901.588	7265.6
901.902	7259.05
902.216	7229.44
902.531	7181.53
902.845	7180.18
903.159	7153.29
903.473	7127.98
903.787	7084.36
904.101	7043.46
904.415	7031.03
904.729	7061.54
905.042	6981.31
905.356	6953.29
905.67	6895.89
905.984	6882.33
906.297	6896.57
906.611	6901.99
906.924	6850.02
907.237	6763.01
907.551	6833.29
907.864	6726.63
908.177	6753.97
908.491	6665.62
908.804	6672.4
909.117	6640.08
909.43	6657.03
909.743	6626.07
910.056	6625.62
910.368	6559.18
910.681	6527.77
910.994	6473.53
911.307	6477.82
911.619	6439.41
911.932	6433.53
912.244	6375.91
912.557	6374.32
912.869	6335.23
913.181	6328.22
913.494	6316.02
913.806	6232.86
914.118	6212.52
914.43	6174.33
914.742	6175.69
915.054	6180.66
915.366	6134.56
915.678	6171.62
915.99	6102.92
916.302	6084.84
916.613	6067.89
916.925	6004.84
917.236	6009.14
917.548	5951.74
917.859	5937.73
918.171	5909.93
918.482	5872.64
918.794	5876.71
919.105	5879.87
919.416	5777.5
919.727	5830.16
920.038	5761.01
920.349	5747.67
920.66	5751.97
920.971	5689.82
921.282	5716.71
921.593	5653.44
921.903	5639.88
922.214	5615.7
922.525	5599.43
922.835	5620.67
923.146	5579.54
923.456	5528.7
923.767	5520.79
924.077	5469.49
924.387	5461.58
924.697	5418.87
925.008	5365.99
925.318	5395.59
925.628	5335.93
925.938	5342.03
926.248	5304.97
926.558	5287.12
926.867	5251.87
927.177	5291.64
927.487	5240.57
927.796	5173.45
928.106	5174.81
928.416	5176.39
928.725	5143.62
929.034	5117.41
929.344	5057.75
929.653	5099.33
929.962	5044.87
930.271	5050.97
930.581	4989.73
930.89	5001.7
931.199	4948.82
931.508	4986.34
931.817	4957.64
932.125	4943.18
932.434	4906.34
932.743	4885.78
933.051	4840.35
933.36	4791.77
933.669	4784.76
933.977	4742.73
934.286	4762.84
934.594	4783.86
934.902	4727.81
935.21	4719.45
935.519	4706.35
935.827	4711.32
936.135	4683.97
936.443	4634.93
936.751	4564.2
937.059	4576.63
937.367	4590.87
937.674	4576.86
937.982	4526.46
938.29	4525.78
938.597	4497.76
938.905	4472.45
939.213	4481.72
939.52	4474.49
939.827	4415.96
940.135	4401.95
940.442	4426.8
940.749	4372.79
941.056	4411.66
941.363	4355.62
941.67	4333.02
941.977	4308.62
942.284	4270.88
942.591	4228.84
942.898	4257.32
943.205	4214.15
943.511	4227.49
943.818	4203.99
944.125	4174.16
944.431	4126.93
944.738	4174.38
945.044	4102.07
945.35	4112.01
945.657	4087.38
945.963	4080.15
946.269	4018.23
946.575	4071.79
946.881	3976.65
947.187	4025.46
947.493	3984.33
947.799	3965.8
948.105	3961.28
948.41	3884.67
948.716	3894.16
949.022	3898
949.327	3880.38
949.633	3816.65
949.938	3840.61
950.244	3834.5
950.549	3796.54
950.854	3822.07
951.16	3776.88
951.465	3720.38
951.77	3778.23
952.075	3692.13
952.38	3709.99
952.685	3733.04
952.99	3653.49
953.294	3678.8
953.599	3666.82
953.904	3658.24
954.209	3599.26
954.513	3624.79
954.818	3593.61
955.122	3624.57
955.426	3541.4
955.731	3537.56
956.035	3592.93
956.339	3539.14
956.643	3491.91
956.948	3489.43
957.252	3452.82
957.556	3462.54
957.86	3451.91
958.163	3445.59
958.467	3449.43
958.771	3392.26
959.075	3425.02
959.378	3378.02
959.682	3354.29
959.985	3353.16
960.289	3339.38
960.592	3249.43
960.896	3369.88
961.199	3268.19
961.502	3259.15
961.805	3256.44
962.108	3232.26
962.411	3194.52
962.714	3235.2
963.017	3194.52
963.32	3143
963.623	3176.89
963.926	3164.24
964.228	3185.03
964.531	3141.64
964.833	3143
965.136	3077.01
965.438	3076.56
965.741	3075.88
966.043	3105.48
966.345	3066.61
966.648	3037.24
966.95	3032.04
967.252	3023.68
967.554	3032.72
967.856	2998.14
968.158	2937.13
968.46	2946.39
968.761	2956.56
969.063	2973.06
969.365	2939.61
969.666	2947.07
969.968	2907.52
970.269	2926.5
970.571	2870.01
970.872	2890.35
971.174	2853.74
971.475	2845.6
971.776	2822.1
972.077	2778.26
972.378	2785.72
972.679	2806.28
972.98	2795.43
973.281	2774.42
973.582	2764.02
973.883	2759.73
974.183	2729
974.484	2711.37
974.785	2678.6
975.085	2690.13
975.386	2668.88
975.686	2676.79
975.986	2682.44
976.287	2597.47
976.587	2635.44
976.887	2643.12
977.187	2593.63
977.487	2589.34
977.787	2569.9
978.087	2578.49
978.387	2554.99
978.687	2536.46
978.987	2531.26
979.286	2562.67
979.586	2513.86
979.885	2535.1
980.185	2492.84
980.484	2480.42
980.784	2500.98
981.083	2473.86
981.382	2434.99
981.682	2473.64
981.981	2457.82
982.28	2436.57
982.579	2424.37
982.878	2416.24
983.177	2387.54
983.475	2385.95
983.774	2360.87
984.073	2329.46
984.372	2335.33
984.67	2360.42
984.969	2344.37
985.267	2340.76
985.566	2319.74
985.864	2296.47
986.162	2300.08
986.461	2304.83
986.759	2250.14
987.057	2246.75
987.355	2257.82
987.653	2255.34
987.951	2246.52
988.249	2241.1
988.547	2194.55
988.844	2193.64
989.142	2187.54
989.44	2185.28
989.737	2172.4
990.035	2175.79
990.332	2175.11
990.63	2128.11
990.927	2184.83
991.224	2150.03
991.521	2127.43
991.819	2099.41
992.116	2084.04
992.413	2075.45
992.71	2043.82
993.006	2110.26
993.303	2079.75
993.6	2050.14
993.897	2060.54
994.193	2010.14
994.49	2044.95
994.787	2004.95
995.083	2001.11
995.379	1989.13
995.676	1959.98
995.972	1974.44
996.268	1980.99
996.565	1960.65
996.861	1910.71
997.157	1929.02
997.453	1924.95
997.749	1929.7
998.044	1900.77
998.34	1928.57
998.636	1889.24
998.932	1886.53
999.227	1879.3
999.523	1868
999.818	1855.12
1000.114	1811.05
1000.409	1820.55
1000.704	1833.65
1001	1838.4
1001.295	1811.05
1001.59	1838.17
1001.885	1811.73
1002.18	1724.5
1002.475	1751.39
1002.77	1750.94
1003.065	1758.85
1003.359	1770.38
1003.654	1745.07
1003.949	1720.66
1004.243	1720.66
1004.538	1712.75
1004.832	1720.21
1005.127	1702.81
1005.421	1695.12
1005.715	1661.91
1006.009	1665.52
1006.304	1644.5
1006.598	1646.09
1006.892	1642.47
1007.186	1621.91
1007.48	1621
1007.773	1609.48
1008.067	1602.7
1008.361	1594.56
1008.655	1564.51
1008.948	1575.58
1009.242	1584.39
1009.535	1554.79
1009.829	1533.1
1010.122	1563.83
1010.415	1552.3
1010.708	1552.98
1011.001	1514.79
1011.295	1500.55
1011.588	1512.98
1011.881	1480.22
1012.173	1513.66
1012.466	1466.88
1012.759	1459.42
1013.052	1460.78
1013.344	1467.11
1013.637	1454.91
1013.93	1435.7
1014.222	1437.73
1014.514	1416.26
1014.807	1424.85
1015.099	1405.42
1015.391	1406.54
1015.683	1414
1015.976	1398.64
1016.268	1375.36
1016.56	1361.12
1016.851	1351.63
1017.143	1374.46
1017.435	1326.77
1017.727	1322.71
1018.018	1298.75
1018.31	1305.08
1018.602	1322.48
1018.893	1301.69
1019.185	1292.2
1019.476	1266.44
1019.767	1280.67
1020.058	1263.72
1020.35	1259.88
1020.641	1232.99
1020.932	1254.46
1021.223	1243.84
1021.514	1214.23
1021.804	1188.02
1022.095	1232.09
1022.386	1223.95
1022.677	1216.27
1022.967	1175.59
1023.258	1175.59
1023.548	1160.22
1023.839	1145.76
1024.129	1177.85
1024.419	1145.53
1024.709	1143.05
1025	1137.4
1025.29	1120.68
1025.58	1130.62
1025.87	1139.89
1026.16	1135.59
1026.449	1107.34
1026.739	1089.94
1027.029	1138.76
1027.319	1068.25
1027.608	1067.34
1027.898	1054.69
1028.187	1087.91
1028.477	1068.47
1028.766	1053.79
1029.055	1051.53
1029.344	1032.32
1029.634	1023.28
1029.923	1020.11
1030.212	1033.22
1030.501	1019.66
1030.79	995.48
1031.078	1010.17
1031.367	992.77
1031.656	982.15
1031.945	988.7
1032.233	973.79
1032.522	998.87
1032.81	957.97
1033.099	985.54
1033.387	969.04
1033.675	952.55
1033.963	932.43
1034.251	959.1
1034.54	942.6
1034.828	908.25
1035.116	913
1035.403	948.48
1035.691	912.09
1035.979	931.3
1036.267	893.34
1036.554	895.37
1036.842	881.36
1037.129	890.63
1037.417	871.87
1037.704	887.01
1037.992	867.58
1038.279	840.91
1038.566	863.73
1038.853	863.73
1039.14	863.73
