Data from hue_40_FLMS001491_74.txt Node
Date: Mon Feb 06 15:08:24 GMT 2017
User: dcchb
Spectrometer: FLMS00149
Trigger mode: 0
Integration Time (sec): 2.000000E-2
Scans to average: 10
Electric dark correction enabled: true
Nonlinearity correction enabled: false
Boxcar width: 0
XAxis mode: Wavelengths
Number of Pixels in Spectrum: 2048
>>>>>Begin Spectral Data<<<<<
341.393	7.78
341.776	7.78
342.16	7.78
342.543	-61.59
342.927	-60.46
343.31	-63.63
343.693	-82.16
344.077	-84.42
344.46	-52.33
344.843	-49.84
345.226	-42.16
345.61	-15.95
345.993	-29.73
346.376	-8.04
346.759	21.79
347.142	21.79
347.525	43.49
347.908	72.64
348.291	87.78
348.674	75.13
349.057	105.63
349.44	123.94
349.823	147.67
350.206	183.14
350.588	172.75
350.971	206.2
351.354	228.57
351.737	240.77
352.119	256.36
352.502	257.04
352.884	289.13
353.267	279.87
353.65	291.16
354.032	312.86
354.414	323.25
354.797	311.05
355.179	319.19
355.562	330.71
355.944	333.88
356.326	344.5
356.709	328
357.091	328.9
357.473	330.71
357.855	343.37
358.238	338.62
358.62	344.5
359.002	351.05
359.384	358.06
359.766	348.56
360.148	329.13
360.53	354.21
360.912	324.38
361.294	346.98
361.676	315.34
362.057	327.32
362.439	336.81
362.821	337.04
363.203	310.37
363.584	316.25
363.966	338.17
364.348	319.19
364.729	319.41
365.111	324.84
365.493	325.29
365.874	329.13
366.256	324.38
366.637	312.86
367.019	330.49
367.4	318.06
367.781	335.23
368.163	317.15
368.544	317.83
368.925	334.1
369.306	325.06
369.688	302.92
370.069	304.5
370.45	325.06
370.831	313.31
371.212	313.08
371.593	321.9
371.974	320.09
372.355	310.15
372.736	289.81
373.117	306.76
373.498	326.42
373.879	307.89
374.26	319.19
374.641	326.19
375.021	307.89
375.402	314.44
375.783	312.63
376.163	312.86
376.544	316.02
376.925	325.97
377.305	315.57
377.686	316.47
378.066	325.74
378.447	323.25
378.827	340.65
379.208	326.64
379.588	326.19
379.968	330.26
380.349	332.52
380.729	336.81
381.109	365.51
381.489	363.03
381.87	336.59
382.25	343.82
382.63	332.29
383.01	339.07
383.39	334.78
383.77	332.75
384.15	334.78
384.53	350.6
384.91	334.55
385.29	344.5
385.67	332.07
386.049	351.5
386.429	336.36
386.809	343.82
387.189	359.41
387.568	344.72
387.948	363.48
388.328	357.38
388.707	370.48
389.087	350.82
389.466	372.74
389.846	358.06
390.225	363.48
390.605	365.06
390.984	360.99
391.363	342.69
391.743	360.54
392.122	357.83
392.501	384.72
392.881	372.74
393.26	380.43
393.639	381.11
394.018	367.77
394.397	393.31
394.776	387.66
395.155	361.45
395.534	371.16
395.913	366.64
396.292	390.6
396.671	382.01
397.05	376.36
397.429	374.55
397.808	377.26
398.186	400.99
398.565	382.24
398.944	391.73
399.323	376.13
399.701	382.24
400.08	394.89
400.458	398.05
400.837	379.52
401.215	403.93
401.594	391.28
401.972	403.48
402.351	386.3
402.729	410.03
403.107	407.77
403.486	412.97
403.864	396.25
404.242	403.25
404.62	410.94
404.999	404.38
405.377	423.59
405.755	395.57
406.133	397.38
406.511	419.97
406.889	413.87
407.267	430.6
407.645	418.39
408.023	450.03
408.401	412.07
408.779	425.4
409.156	412.07
409.534	447.77
409.912	431.95
410.29	456.81
410.667	447.77
411.045	451.61
411.422	443.93
411.8	451.39
412.178	450.26
412.555	459.97
412.933	456.58
413.31	449.58
413.687	454.55
414.065	464.49
414.442	467.88
414.819	478.96
415.197	471.95
415.574	464.27
415.951	467.88
416.328	469.92
416.705	480.31
417.082	504.49
417.46	478.05
417.837	479.86
418.214	474.66
418.591	472.63
418.967	477.6
419.344	489.58
419.721	483.25
420.098	489.8
420.475	500.65
420.852	509.01
421.228	532.97
421.605	514.89
421.982	520.09
422.358	524.83
422.735	513.53
423.111	539.97
423.488	535.23
423.864	531.38
424.241	560.99
424.617	555.11
424.994	537.03
425.37	532.29
425.746	530.03
426.123	553.08
426.499	556.24
426.875	565.73
427.251	546.3
427.627	540.88
428.003	556.92
428.379	582.91
428.756	555.11
429.132	566.64
429.507	584.04
429.883	579.52
430.259	588.56
430.635	598.73
431.011	606.41
431.387	582.46
431.763	621.78
432.138	614.32
432.514	620.2
432.89	623.59
433.265	636.47
433.641	649.57
434.016	628.33
434.392	625.17
434.767	648.44
435.143	638.95
435.518	651.16
435.894	662.91
436.269	667.65
436.644	677.82
437.02	666.75
437.395	686.18
437.77	678.95
438.145	682.34
438.52	704.26
438.895	713.75
439.271	685.73
439.646	715.11
440.021	700.42
440.395	711.04
440.77	709.68
441.145	725.28
441.52	715.79
441.895	727.54
442.27	721.89
442.645	742.9
443.019	722.34
443.394	734.09
443.769	758.5
444.143	726.63
444.518	783.36
444.892	765.05
445.267	755.79
445.641	772.73
446.016	782.9
446.39	752.62
446.764	788.55
447.139	768.21
447.513	796.46
447.887	779.06
448.262	808.67
448.636	772.73
449.01	801.21
449.384	779.97
449.758	808.21
450.132	811.83
450.506	810.02
450.88	837.36
451.254	817.7
451.628	834.2
452.002	843.47
452.376	849.79
452.75	814.31
453.123	857.03
453.497	865.61
453.871	899.06
454.244	893.18
454.618	900.19
454.992	921.43
455.365	900.87
455.739	913.3
456.112	936.35
456.486	913.52
456.859	923.92
457.232	949.45
457.606	946.06
457.979	943.8
458.352	969.56
458.725	988.55
459.099	1006.17
459.472	1000.07
459.845	1007.98
460.218	1012.95
460.591	1010.02
460.964	1037.13
461.337	1043.46
461.71	1045.72
462.083	1067.64
462.456	1080.07
462.829	1092.5
463.201	1092.5
463.574	1107.64
463.947	1141.99
464.32	1123.01
464.692	1142.89
465.065	1150.35
465.438	1202.55
465.81	1189.45
466.183	1204.81
466.555	1251.14
466.928	1261.31
467.3	1266.73
467.672	1275.55
468.045	1296.56
468.417	1311.48
468.789	1326.39
469.161	1354.64
469.534	1343.34
469.906	1380.18
470.278	1418.37
470.65	1413.62
471.022	1451.81
471.394	1501.3
471.766	1490
472.138	1513.28
472.51	1567.97
472.882	1603.9
473.253	1609.1
473.625	1656.33
473.997	1683.44
474.369	1706.72
474.74	1742.88
475.112	1744.01
475.484	1803.67
475.855	1861.52
476.227	1846.6
476.598	1935.64
476.97	1961.63
477.341	2009.99
477.713	2080.5
478.084	2101.51
478.455	2162.53
478.827	2161.85
479.198	2232.81
479.569	2311.45
479.94	2369.98
480.311	2454.05
480.682	2472.8
481.053	2557.55
481.424	2635.74
481.795	2689.75
482.166	2750.08
482.537	2827.37
482.908	2906.24
483.279	2961.6
483.65	3023.3
484.021	3152.56
484.391	3196.62
484.762	3237.75
485.133	3354.13
485.503	3415.6
485.874	3528.59
486.244	3569.27
486.615	3714.35
486.985	3799.1
487.356	3899.21
487.726	3969.26
488.097	4047.9
488.467	4106.21
488.837	4200.44
489.207	4360.89
489.578	4453.09
489.948	4546.65
490.318	4598.62
490.688	4713.42
491.058	4850.82
491.428	4909.12
491.798	4972.17
492.168	5083.58
492.538	5188.44
492.908	5306.63
493.278	5432.5
493.648	5453.06
494.017	5543.46
494.387	5672.49
494.757	5790.46
495.126	5877.01
495.496	5916.55
495.866	6062.99
496.235	6143.21
496.605	6234.74
496.974	6291.46
497.344	6472.25
497.713	6540.04
498.082	6573.26
498.452	6699.81
498.821	6790.65
499.19	6848.96
499.559	6955.17
499.928	7061.61
500.298	7083.08
500.667	7161.27
501.036	7226.35
501.405	7358.78
501.774	7425.89
502.143	7497.53
502.512	7581.14
502.88	7656.39
503.249	7738.88
503.618	7741.59
503.987	7843.28
504.356	7951.75
504.724	8040.34
505.093	8066.78
505.462	8174.12
505.83	8267
506.199	8316.26
506.567	8383.61
506.936	8481.68
507.304	8603.49
507.672	8688.46
508.041	8702.69
508.409	8819.53
508.777	8909.92
509.145	8970.26
509.514	9001.67
509.882	9018.17
510.25	9091.61
510.618	9204.6
510.986	9227.65
511.354	9315.33
511.722	9397.59
512.09	9514.88
512.458	9497.48
512.826	9534.99
513.193	9636
513.561	9742.44
513.929	9768.43
514.297	9861.31
514.664	9977.24
515.032	9934.98
515.4	10049.1
515.767	10128.19
516.135	10144.69
516.502	10121.19
516.869	10311.01
517.237	10351.24
517.604	10295.65
517.972	10427.85
518.339	10581.97
518.706	10563.66
519.073	10567.5
519.44	10645.02
519.808	10809.98
520.175	10817.89
520.542	10979.47
520.909	11077.1
521.276	10992.13
521.643	11120.48
522.009	11232.35
522.376	11314.6
522.743	11310.99
523.11	11470.53
523.477	11554.6
523.843	11609.06
524.21	11689.96
524.577	11727.7
524.943	11836.17
525.31	11815.61
525.676	11908.26
526.043	12050.4
526.409	12091.98
526.776	12250.4
527.142	12294.24
527.508	12336.5
527.874	12407.23
528.241	12528.81
528.607	12494.01
528.973	12693.32
529.339	12703.04
529.705	12748.46
530.071	12920.44
530.437	13012.64
530.803	13111.62
531.169	13118.17
531.535	13142.13
531.901	13049.25
532.267	13157.72
532.632	13262.8
532.998	13367.88
533.364	13389.8
533.73	13511.61
534.095	13583.24
534.461	13625.05
534.826	13653.3
535.192	13719.96
535.557	13854.88
535.923	13816.01
536.288	13886.51
536.653	13954.08
537.019	13997.7
537.384	14093.29
537.749	14130.57
538.114	14229.78
538.479	14175.32
538.845	14321.08
539.21	14282.21
539.575	14408.76
539.94	14303.68
540.305	14511.81
540.67	14468.64
541.034	14594.29
541.399	14643.78
541.764	14674.52
542.129	14734.63
542.494	14821.86
542.858	14827.73
543.223	14898.69
543.587	14911.8
543.952	15022.75
544.316	15016.2
544.681	14998.57
545.045	15141.62
545.41	15282.86
545.774	15300.49
546.138	15325.35
546.503	15337.1
546.867	15392.69
547.231	15606.24
547.595	15575.73
547.959	15602.85
548.324	15584.55
548.688	15723.08
549.052	15739.57
549.416	15813.69
549.779	15826.58
550.143	15824.77
550.507	15949.28
550.871	15978.66
551.235	16031.54
551.599	16079
551.962	16122.61
552.326	16281.93
552.689	16324.42
553.053	16319.44
553.417	16375.49
553.78	16552.21
554.143	16419.55
554.507	16660.23
554.87	16560.79
555.234	16840.79
555.597	16685.54
555.96	16750.17
556.323	16850.05
556.686	16849.6
557.05	16949.26
557.413	17000.1
557.776	17015.92
558.139	17147.22
558.502	17208.46
558.865	17248.01
559.228	17405.29
559.59	17462.01
559.953	17382.69
560.316	17611.61
560.679	17643.7
561.041	17676.02
561.404	17759.86
561.767	17859.74
562.129	17798.05
562.492	18004.82
562.854	18040.53
563.217	18120.07
563.579	18061.77
563.941	18226.29
564.304	18344.02
564.666	18417.02
565.028	18453.4
565.39	18514.19
565.753	18585.15
566.115	18619.95
566.477	18753.28
566.839	18644.13
567.201	18871.24
567.563	18865.37
567.925	18987.4
568.287	19078.47
568.648	19092.25
569.01	19169.54
569.372	19321.4
569.734	19201.63
570.095	19462.41
570.457	19536.08
570.819	19479.13
571.18	19584.67
571.542	19729.52
571.903	19734.5
572.265	19909.63
572.626	19942.85
572.987	20029.4
573.349	20084.99
573.71	20254.26
574.071	20274.82
574.432	20460.8
574.794	20515.27
575.155	20565.21
575.516	20541.71
575.877	20789.61
576.238	20722.27
576.599	20938.98
576.96	20973.33
577.32	21127.23
577.681	21190.28
578.042	21392.76
578.403	21461.46
578.763	21585.29
579.124	21664.61
579.485	21757.04
579.845	22022.8
580.206	21931.05
580.566	22173.3
580.927	22192.06
581.287	22483.8
581.648	22443.58
582.008	22733.29
582.368	22797.69
582.728	23006.05
583.089	23023.22
583.449	23270.67
583.809	23264.35
584.169	23500.05
584.529	23734.84
584.889	23987.72
585.249	24003.31
585.609	24080.14
585.969	24385.22
586.329	24517.87
586.688	24646.46
587.048	24798.54
587.408	24892.78
587.768	25215.03
588.127	25350.84
588.487	25550.84
588.846	25918.97
589.206	25894.79
589.565	25892.98
589.925	26325.73
590.284	26436.47
590.643	26608.21
591.003	26841.88
591.362	27134.75
591.721	27155.09
592.08	27435.54
592.44	27647.51
592.799	27739.93
593.158	27934.28
593.517	28150.55
593.876	28277.77
594.235	28427.37
594.593	28668.05
594.952	28954.82
595.311	28952.56
595.67	29158.88
596.029	29536.27
596.387	29710.28
596.746	29934.68
597.104	29898.07
597.463	30176.71
597.822	30479.52
598.18	30368.11
598.538	30569.69
598.897	30894.88
599.255	30756.58
599.613	31389.33
599.972	31317.24
600.33	31560.85
600.688	31493.73
601.046	31847.4
601.404	32003.1
601.762	32182.08
602.12	32317.22
602.478	32617.77
602.836	32636.3
603.194	32680.14
603.552	32858.67
603.91	32778.45
604.268	33054.15
604.625	33169.4
604.983	33301.37
605.341	33359.45
605.698	33565.77
606.056	33699.78
606.413	33842.37
606.771	33938.87
607.128	34187.22
607.485	34120.78
607.843	34185.41
608.2	34519.87
608.557	34774.1
608.914	34636.25
609.272	34876.92
609.629	34968.9
609.986	35120.53
610.343	35217.48
610.7	35456.12
611.057	35613.85
611.414	35598.48
611.771	35691.82
612.127	35915.99
612.484	35945.37
612.841	35963.67
613.198	36143.33
613.554	36151.24
613.911	36400.5
614.267	36485.47
614.624	36458.8
614.98	36648.17
615.337	36842.75
615.693	36799.13
616.05	36815.18
616.406	37108.73
616.762	37098.33
617.118	37054.72
617.475	37216.97
617.831	37255.16
618.187	37339.68
618.543	37383.75
618.899	37756.85
619.255	37624.65
619.611	37643.85
619.967	37777.64
620.323	37844.08
620.678	37971.98
621.034	37813.57
621.39	37857.63
621.746	37878.42
622.101	38373.1
622.457	38201.13
622.812	38154.8
623.168	38378.3
623.523	38303.05
623.879	38405.87
624.234	38145.54
624.589	38467.11
624.945	38495.13
625.3	38597.95
625.655	38658.29
626.01	38529.71
626.365	38669.59
626.72	38625.3
627.075	38798.63
627.43	38788.23
627.785	38599.54
628.14	38790.94
628.495	38865.29
628.85	38780.1
629.205	38769.02
629.559	38962.92
629.914	38919.53
630.269	38857.61
630.623	38867.33
630.978	38812.19
631.332	38930.15
631.687	38971.73
632.041	38743.26
632.396	38854.44
632.75	38740.32
633.104	38809.25
633.459	38821
633.813	38688.35
634.167	38677.5
634.521	38577.39
634.875	38812.41
635.229	38663.94
635.583	38673.21
635.937	38597.73
636.291	38651.74
636.645	38600.21
636.999	38654.9
637.352	38643.38
637.706	38538.75
638.06	38591.85
638.413	38588.01
638.767	38442.48
639.121	38442.03
639.474	38264.18
639.828	38451.97
640.181	38526.09
640.534	38365.42
640.888	38347.34
641.241	38188.7
641.594	38321.58
641.947	38383.72
642.301	38353.21
642.654	38389.15
643.007	38314.8
643.36	38373.55
643.713	38291.75
644.066	38349.6
644.419	38085.43
644.771	37821.93
645.124	37618.54
645.477	37597.53
645.83	37209.52
646.182	37060.37
646.535	37038.9
646.888	37212.68
647.24	36914.38
647.593	37053.36
647.945	37213.81
648.298	37011.78
648.65	36826.25
649.002	36736.76
649.355	36914.16
649.707	36810.43
650.059	36939.01
650.411	37376.74
650.763	37273.24
651.115	37840.69
651.467	37612.67
651.819	37653.12
652.171	37664.19
652.523	37490.19
652.875	37680.01
653.227	37406.57
653.578	37613.35
653.93	37543.29
654.282	37437.53
654.633	37446.57
654.985	37452.9
655.337	37370.19
655.688	37445.89
656.039	37620.35
656.391	37261.49
656.742	37336.52
657.094	37311.43
657.445	37327.7
657.796	37324.77
658.147	37296.75
658.498	37224.2
658.849	37333.13
659.2	37367.03
659.551	37259.68
659.902	37406.57
660.253	37245.45
660.604	37355.5
660.955	37117.09
661.306	37337.87
661.656	37109.63
662.007	37134.49
662.358	37087.71
662.708	37165.9
663.059	37194.83
663.409	36865.57
663.76	37153.47
664.11	37040.93
664.461	37141.5
664.811	37100.14
665.161	36951.9
665.511	36984.66
665.862	37039.58
666.212	37106.69
666.562	37072.57
666.912	37023.76
667.262	37032.8
667.612	37065.79
667.962	37164.09
668.312	37043.42
668.662	37221.27
669.011	36974.04
669.361	36945.79
669.711	36937.43
670.06	36903.99
670.41	36916.64
670.76	36881.39
671.109	36980.82
671.459	36895.85
671.808	36896.76
672.157	36989.86
672.507	36709.42
672.856	36839.13
673.205	36778.11
673.554	36955.29
673.904	36743.09
674.253	36904.44
674.602	36755.97
674.951	36289.31
675.3	36227.17
675.649	36672.13
675.998	36579.48
676.346	36552.13
676.695	36820.83
677.044	36436.43
677.393	36488.86
677.741	36601.4
678.09	36447.05
678.438	36265.59
678.787	36491.57
679.135	36381.74
679.484	36277.79
679.832	36313.95
680.181	36152.37
680.529	36296.55
680.877	36274.4
681.225	36124.12
681.573	36491.79
681.922	36141.07
682.27	36048.64
682.618	36159.83
682.966	35979.72
683.314	36099.04
683.661	35876.44
684.009	35696.11
684.357	35717.35
684.705	35681.87
685.053	35676.67
685.4	35522.33
685.748	35481.2
686.095	35426.74
686.443	35367.98
686.79	35274.65
687.138	35447.53
687.485	35300.19
687.832	35214.54
688.18	35287.76
688.527	34927.54
688.874	35029.69
689.221	35015
689.568	34823.36
689.915	34696.81
690.262	34735.46
690.609	34563.03
690.956	34531.17
691.303	34464.96
691.65	34351.74
691.997	34472.86
692.344	34211.18
692.69	34100.67
693.037	34032.65
693.383	33875.14
693.73	34012.54
694.077	33786.33
694.423	33774.35
694.769	33669.95
695.116	33601.7
695.462	33557.41
695.808	33449.16
696.155	33571.19
696.501	33229.28
696.847	33257.53
697.193	33064.99
697.539	33135.5
697.885	32897.76
698.231	32934.15
698.577	32834.94
698.923	32773.02
699.269	32669.07
699.614	32552.24
699.96	32572.8
700.306	32465.23
700.651	32377.78
700.997	32171.46
701.342	32244
701.688	32115.19
702.033	31995.42
702.379	31968.75
702.724	31927.85
703.069	31824.57
703.415	31568.08
703.76	31591.58
704.105	31543
704.45	31627.52
704.795	31262.78
705.14	31282.89
705.485	31239.73
705.83	31108.43
706.175	31203.12
706.52	31077.02
706.865	30948.89
707.209	30875.67
707.554	30699.18
707.899	30780.98
708.243	30859.17
708.588	30713.64
708.932	30527.66
709.277	30343.48
709.621	30430.03
709.966	30239.08
710.31	30295.35
710.654	30127.44
710.998	30096.93
711.342	30178.51
711.687	30056.94
712.031	29914.34
712.375	29686.1
712.719	29827.11
713.063	29656.49
713.407	29845.19
713.75	29729.03
714.094	29741.92
714.438	29543.5
714.782	29603.39
715.125	29458.99
715.469	29394.58
715.812	29291.53
716.156	29221.7
716.499	29272.55
716.843	29095.61
717.186	29004.99
717.53	29197.07
717.873	29187.58
718.216	29083.18
718.559	28978.77
718.902	28737.42
719.246	28832.56
719.589	28786.46
719.932	28650.64
720.275	28616.3
720.617	28614.94
720.96	28531.55
721.303	28489.07
721.646	28427.6
721.989	28256.08
722.331	28346.7
722.674	28302.86
723.016	28253.82
723.359	28207.49
723.701	28235.06
724.044	28043.88
724.386	27869.2
724.729	27926.6
725.071	27892.02
725.413	27905.35
725.755	27822.87
726.097	27779.48
726.439	27596.44
726.782	27654.51
727.124	27705.59
727.465	27696.32
727.807	27562.31
728.149	27412.26
728.491	27365.26
728.833	27452.48
729.175	27550.11
729.516	27425.37
729.858	27220.85
730.199	27257.01
730.541	27323.9
730.882	27282.77
731.224	27288.19
731.565	27059.73
731.906	27183.56
732.248	26945.83
732.589	26968.66
732.93	26901.31
733.271	26953.51
733.612	27017.92
733.953	26908.77
734.294	26853.18
734.635	26815.21
734.976	26767.08
735.317	26691.15
735.658	26676.69
735.999	26582.9
736.339	26634.2
736.68	26651.38
737.021	26609.34
737.361	26403.92
737.702	26574.77
738.042	26462.68
738.383	26396.92
738.723	26452.51
739.063	26259.75
739.404	26359.18
739.744	26323.93
740.084	26214.1
740.424	26196.92
740.764	26155.57
741.104	26173.2
741.444	25970.49
741.784	25945.86
742.124	26011.17
742.464	25944.73
742.804	25846.2
743.143	25769.82
743.483	25828.57
743.823	25688.69
744.162	25791.74
744.502	25883.26
744.841	25579.09
745.181	25716.03
745.52	25512.65
745.86	25688.46
746.199	25545.19
746.538	25588.35
746.877	25568.24
747.216	25483.27
747.556	25504.74
747.895	25466.77
748.234	25360.34
748.573	25300.68
748.911	25193.79
749.25	25170.74
749.589	25188.14
749.928	25256.61
750.267	25149.72
750.605	25051.42
750.944	25027.01
751.283	24835.15
751.621	24915.6
751.96	24766.68
752.298	24820.24
752.636	24874.02
752.975	24651.43
753.313	24665.89
753.651	24718.32
753.989	24530.53
754.327	24483.3
754.666	24422.73
755.004	24435.39
755.342	24432
755.679	24349.52
756.017	24196.98
756.355	24360.81
756.693	24257.99
757.031	24165.11
757.368	24073.82
757.706	24016.64
758.044	24007.15
758.381	23963.54
758.719	23886.7
759.056	23889.19
759.394	23785.46
759.731	23703.2
760.068	23595.18
760.405	23504.79
760.743	23471.57
761.08	23591.34
761.417	23326.94
761.754	23315.42
762.091	23249.43
762.428	23185.03
762.765	23097.8
763.102	23105.71
763.438	23044.92
763.775	23029.1
764.112	22859.16
764.449	22895.77
764.785	22685.83
765.122	22581.43
765.458	22582.56
765.795	22463.01
766.131	22467.3
766.467	22407.42
766.804	22190.02
767.14	22189.57
767.476	22204.71
767.812	22135.79
768.148	22107.09
768.485	21978.28
768.821	21782.13
769.157	21760.43
769.492	21773.54
769.828	21713.2
770.164	21614.45
770.5	21531.96
770.836	21408.58
771.171	21301.91
771.507	21265.98
771.842	21191.63
772.178	21138.07
772.513	21103.72
772.849	20986.44
773.184	20924.97
773.519	20876.39
773.855	20832.55
774.19	20756.39
774.525	20605.66
774.86	20736.73
775.195	20674.58
775.53	20504.87
775.865	20420.58
776.2	20218.32
776.535	20177.87
776.87	20169.74
777.205	20000.02
777.539	19937.88
777.874	20065.11
778.209	19846.13
778.543	19796.64
778.878	19624.89
779.212	19604.33
779.547	19501.51
779.881	19625.12
780.215	19499.47
780.55	19491.56
780.884	19322.75
781.218	19319.36
781.552	19311
781.886	19210.22
782.22	19101.74
782.554	18991.92
782.888	18831.92
783.222	18748.53
783.556	18754.41
783.889	18673.96
784.223	18564.81
784.557	18522.78
784.89	18535.43
785.224	18372.05
785.557	18378.37
785.891	18237.81
786.224	18240.75
786.558	18165.72
786.891	18134.54
787.224	18001.89
787.557	17981.77
787.891	17824.49
788.224	17890.02
788.557	17873.53
788.89	17780.42
789.223	17758.5
789.556	17577.94
789.888	17552.41
790.221	17335.91
790.554	17366.87
790.887	17285.52
791.219	17212.3
791.552	17162.13
791.884	17116.48
792.217	17116.94
792.549	17003.95
792.882	16890.5
793.214	16937.96
793.546	16888.24
793.879	16791.97
794.211	16751.75
794.543	16815.02
794.875	16636.27
795.207	16690.51
795.539	16528.03
795.871	16505.88
796.203	16378.43
796.535	16300.91
796.867	16356.05
797.198	16259.11
797.53	16151.76
797.862	16136.85
798.193	16221.59
798.525	16006.01
798.856	16035.61
799.188	15961.49
799.519	15837.2
799.85	15812.34
800.182	15832.22
800.513	15802.4
800.844	15673.13
801.175	15778.89
801.506	15639.69
801.837	15606.69
802.168	15546.81
802.499	15478.56
802.83	15370.77
803.161	15318.57
803.491	15387.72
803.822	15354.27
804.153	15260.71
804.483	15155.18
804.814	15072.47
805.145	15107.72
805.475	15088.74
805.805	15000.83
806.136	15039.03
806.466	15021.62
806.796	14951.12
807.126	14810.33
807.457	14864.57
807.787	14742.08
808.117	14815.3
808.447	14683.33
808.777	14676.55
809.107	14608.3
809.436	14583.67
809.766	14539.83
810.096	14451.92
810.426	14320.4
810.755	14480.85
811.085	14379.38
811.414	14359.27
811.744	14241.98
812.073	14232.49
812.403	14238.37
812.732	14079.95
813.061	14150.24
813.39	14044.25
813.719	13970.35
814.049	14121.54
814.378	14010.35
814.707	13938.26
815.036	13937.36
815.365	13851.71
815.693	13818.27
816.022	13863.92
816.351	13698.5
816.68	13653.53
817.008	13709.12
817.337	13500.99
817.665	13542.79
817.994	13607.42
818.322	13482.23
818.651	13483.36
818.979	13451.95
819.307	13466.64
819.636	13407.2
819.964	13323.14
820.292	13392.52
820.62	13324.49
820.948	13299.64
821.276	13455.56
821.604	13326.08
821.932	13374.44
822.259	13315
822.587	13269.58
822.915	13224.61
823.243	13275.23
823.57	13257.83
823.898	13215.12
824.225	13258.51
824.553	13214.44
824.88	13248.79
825.207	13269.58
825.535	13267.09
825.862	13207.44
826.189	13193.65
826.516	13263.48
826.843	13334.89
827.17	13307.09
827.497	13383.48
827.824	13199.53
828.151	13278.62
828.478	13318.17
828.805	13319.52
829.131	13176.25
829.458	13180.54
829.785	13135.35
830.111	13207.89
830.438	13212.63
830.764	13181
831.09	13213.08
831.417	13085.18
831.743	13261.9
832.069	13116.14
832.395	13147.32
832.722	13122.47
833.048	13220.09
833.374	13068
833.7	13090.15
834.026	12969.48
834.351	13115.46
834.677	13042.02
835.003	13082.24
835.329	13135.8
835.654	13011.73
835.98	12921.34
836.306	12951.62
836.631	12920.44
836.956	13041.56
837.282	12998.85
837.607	12836.6
837.932	12886.77
838.258	12903.26
838.583	12828.91
838.908	12805.86
839.233	12820.55
839.558	12806.09
839.883	12760.89
840.208	12703.27
840.533	12632.08
840.858	12671.86
841.182	12679.99
841.507	12689.26
841.832	12651.07
842.156	12553.89
842.481	12557.28
842.805	12528.81
843.13	12515.25
843.454	12479.77
843.778	12396.38
844.103	12412.2
844.427	12355.48
844.751	12368.59
845.075	12270.06
845.399	12249.72
845.723	12228.25
846.047	12222.38
846.371	12058.31
846.695	12087.46
847.019	12040.91
847.343	11980.35
847.666	11949.84
847.99	11881.14
848.313	11919.33
848.637	11803.63
848.96	11732.9
849.284	11707.59
849.607	11713.92
849.931	11648.15
850.254	11539.23
850.577	11534.71
850.9	11380.82
851.223	11430.08
851.546	11399.35
851.869	11230.09
852.192	11287.94
852.515	11115.96
852.838	11203.42
853.161	11193.93
853.483	11106.7
853.806	11045.68
854.129	10998.68
854.451	10994.61
854.774	10972.47
855.096	10895.63
855.419	10934.27
855.741	10828.29
856.063	10837.55
856.385	10803.88
856.708	10724.79
857.03	10696.77
857.352	10762.3
857.674	10639.82
857.996	10672.81
858.318	10553.04
858.64	10546.71
858.961	10569.31
859.283	10494.74
859.605	10428.07
859.926	10504.46
860.248	10466.04
860.57	10446.38
860.891	10476.89
861.212	10335.42
861.534	10313.73
861.855	10229.21
862.176	10322.31
862.498	10295.42
862.819	10246.84
863.14	10223.11
863.461	10196.44
863.782	10170
864.103	10184.69
864.424	10143.79
864.745	10137.46
865.065	10097.23
865.386	10092.26
865.707	10051.13
866.027	10080.51
866.348	10049.78
866.668	10040.96
866.989	9964.13
867.309	9906.28
867.63	9911.7
867.95	9921.42
868.27	9888.88
868.59	9898.14
868.91	9903.79
869.23	9810.69
869.55	9789.67
869.87	9864.47
870.19	9870.12
870.51	9855.88
870.83	9853.63
871.15	9746.96
871.469	9695.66
871.789	9742.89
872.109	9736.34
872.428	9676.45
872.748	9711.26
873.067	9694.08
873.386	9697.7
873.706	9771.14
874.025	9607.53
874.344	9650.01
874.663	9561.66
874.982	9587.19
875.301	9586.29
875.62	9568.89
875.939	9493.86
876.258	9558.04
876.577	9424.71
876.896	9518.72
877.214	9490.02
877.533	9461.55
877.852	9455.9
878.17	9438.95
878.489	9411.83
878.807	9459.96
879.125	9397.37
879.444	9442.56
879.762	9371.38
880.08	9346.29
880.398	9298.61
880.716	9273.98
881.034	9285.28
881.352	9302.91
881.67	9264.04
881.988	9229.46
882.306	9258.39
882.624	9199.63
882.941	9136.58
883.259	9140.65
883.577	9095.68
883.894	9074.44
884.212	9081.44
884.529	9070.59
884.846	9044.15
885.164	8982.24
885.481	8938.85
885.798	9002.57
886.115	8959.19
886.432	8920.77
886.75	8895.91
887.067	8897.72
887.383	8828.79
887.7	8835.12
888.017	8741.79
888.334	8850.49
888.651	8806.87
888.967	8731.62
889.284	8744.28
889.6	8674.67
889.917	8661.57
890.233	8560.78
890.55	8625.18
890.866	8604.17
891.182	8594.45
891.498	8506.09
891.815	8491.85
892.131	8511.06
892.447	8513.32
892.763	8528.01
893.079	8402.36
893.395	8395.13
893.71	8374.34
894.026	8356.26
894.342	8356.04
894.657	8248.47
894.973	8290.28
895.289	8270.39
895.604	8245.31
895.92	8188.81
896.235	8121.69
896.55	8171.18
896.865	8119.89
897.181	8052.99
897.496	8085.31
897.811	8085.99
898.126	7958.31
898.441	7912.21
898.756	7908.59
899.071	7951.98
899.386	7933.22
899.7	7854.58
900.015	7799.22
900.33	7749.05
900.644	7764.19
900.959	7766.45
901.273	7746.79
901.588	7721.48
901.902	7663.85
902.216	7619.33
902.531	7631.31
902.845	7646
903.159	7535.49
903.473	7524.19
903.787	7482.84
904.101	7441.49
904.415	7384.09
904.729	7383.63
905.042	7391.54
905.356	7341.15
905.67	7392.9
905.984	7318.1
906.297	7316.06
906.611	7261.38
906.924	7251.21
907.237	7167.37
907.551	7213.24
907.864	7147.48
908.177	7141.38
908.491	7110.42
908.804	7084.43
909.117	7035.62
909.43	6995.17
909.743	6941.84
910.056	6921.95
910.368	6969.18
910.681	6914.95
910.994	6892.35
911.307	6850.31
911.619	6785.01
911.932	6813.93
912.244	6780.71
912.557	6717.66
912.869	6657.55
913.181	6645.8
913.494	6688.51
913.806	6598.57
914.118	6630.21
914.43	6530.1
914.742	6541.85
915.054	6578.91
915.366	6541.4
915.678	6514.73
915.99	6413.26
916.302	6429.53
916.613	6369.65
916.925	6357.45
917.236	6338.92
917.548	6257.56
917.859	6282.87
918.171	6263.21
918.482	6200.61
918.794	6191.57
919.105	6199.94
919.416	6153.38
919.727	6126.72
920.038	6095.76
920.349	6057.34
920.66	6036.1
920.971	6018.92
921.282	6042.43
921.593	5968.3
921.903	5991.35
922.214	5906.61
922.525	5879.94
922.835	5892.83
923.146	5873.39
923.456	5818.48
923.767	5786.61
924.077	5826.39
924.387	5770.12
924.697	5734.86
925.008	5724.24
925.318	5677.01
925.628	5650.35
925.938	5630.46
926.248	5565.6
926.558	5540.29
926.867	5519.5
927.177	5518.15
927.487	5471.59
927.796	5459.62
928.106	5486.73
928.416	5430.24
928.725	5442.44
929.034	5383.91
929.344	5382.56
929.653	5348.43
929.962	5349.56
930.271	5249
930.581	5242.67
930.89	5288.32
931.199	5226.85
931.508	5205.39
931.817	5227.31
932.125	5172.17
932.434	5166.29
932.743	5069.8
933.051	5060.76
933.36	5114.09
933.669	5044.49
933.977	5042
934.286	5024.37
934.594	5034.09
934.902	4956.8
935.21	4932.85
935.519	4968.78
935.827	4944.6
936.135	4884.04
936.443	4848.56
936.751	4853.98
937.059	4809.01
937.367	4850.82
937.674	4800.88
937.982	4772.63
938.29	4795.45
938.597	4750.03
938.905	4714.33
939.213	4702.35
939.52	4658.51
939.827	4658.51
940.135	4642.24
940.442	4588.68
940.749	4629.13
941.056	4582.13
941.363	4511.39
941.67	4546.42
941.977	4495.8
942.284	4454.67
942.591	4456.7
942.898	4437.27
943.205	4447.21
943.511	4427.55
943.818	4430.94
944.125	4382.13
944.431	4358.85
944.738	4388.68
945.044	4339.87
945.35	4283.83
945.657	4246.99
945.963	4303.49
946.269	4288.8
946.575	4301
946.881	4231.63
947.187	4218.75
947.493	4179.65
947.799	4166.99
948.105	4124.96
948.41	4096.94
948.716	4085.64
949.022	4105.75
949.327	4084.06
949.633	4054.68
949.938	4080.44
950.244	4022.14
950.549	4013.33
950.854	3994.34
951.16	3981.69
951.465	3972.88
951.77	3937.17
952.075	3922.93
952.38	3889.71
952.685	3864.86
952.99	3847.46
953.294	3859.43
953.599	3827.57
953.904	3841.13
954.209	3815.14
954.513	3736.72
954.818	3770.4
955.122	3734.92
955.426	3729.04
955.731	3691.75
956.035	3702.15
956.339	3660.57
956.643	3667.12
956.948	3645.43
957.252	3620.79
957.556	3628.48
957.86	3591.87
958.163	3596.39
958.467	3532.66
958.771	3583.51
959.075	3564.98
959.378	3527.46
959.682	3524.3
959.985	3490.85
960.289	3448.14
960.592	3479.1
960.896	3433
961.199	3462.38
961.502	3462.61
961.805	3412.44
962.108	3371.54
962.411	3403.17
962.714	3356.85
963.017	3357.75
963.32	3346.9
963.623	3337.86
963.926	3336.28
964.228	3313.91
964.531	3294.93
964.833	3260.8
965.136	3267.58
965.438	3248.83
965.741	3233.01
966.043	3227.13
966.345	3160.02
966.648	3165.89
966.95	3200.92
967.252	3120.24
967.554	3150.07
967.856	3137.64
968.158	3090.19
968.46	3084.31
968.761	3113.46
969.063	3077.98
969.365	3053.8
969.666	3051.77
969.968	3025.56
970.269	3049.28
970.571	3028.27
970.872	2993.69
971.174	3007.25
971.475	2982.39
971.776	2953.69
972.077	2948.04
972.378	2960.47
972.679	2957.31
972.98	2899.01
973.281	2860.59
973.582	2859.46
973.883	2867.59
974.183	2867.14
974.484	2846.35
974.785	2821.27
975.085	2852.45
975.386	2859.23
975.686	2803.41
975.986	2738.11
976.287	2729.52
976.587	2723.87
976.887	2756.86
977.187	2782.17
977.487	2708.73
977.787	2684.1
978.087	2683.42
978.387	2656.3
978.687	2697.66
978.987	2668.96
979.286	2670.09
979.586	2628.28
979.885	2635.28
980.185	2627.83
980.484	2591.22
980.784	2600.71
981.083	2568.84
981.382	2550.54
981.682	2567.71
981.981	2556.87
982.28	2569.52
982.579	2491.56
982.878	2581.95
983.177	2510.99
983.475	2474.16
983.774	2491.78
984.073	2509.86
984.372	2473.03
984.67	2441.16
984.969	2489.75
985.267	2454.5
985.566	2378.57
985.864	2426.25
986.162	2418.57
986.461	2420.37
986.759	2383.77
987.057	2362.75
987.355	2353.94
987.653	2382.41
987.951	2343.31
988.249	2306.25
988.547	2368.85
988.844	2292.24
989.142	2288.4
989.44	2273.03
989.737	2283.88
990.035	2228.29
990.332	2264.45
990.63	2268.97
990.927	2255.86
991.224	2212.24
991.521	2194.39
991.819	2206.82
992.116	2172.7
992.413	2194.39
992.71	2170.44
993.006	2176.76
993.303	2134.51
993.6	2169.53
993.897	2141.74
994.193	2162.98
994.49	2117.78
994.787	2061.97
995.083	2101.96
995.379	2098.35
995.676	2056.09
995.972	2079.82
996.268	2082.76
996.565	2038.24
996.861	2038.24
997.157	2012.02
997.453	2019.71
997.749	2006.83
998.044	1988.07
998.34	1968.86
998.636	1964.79
998.932	1984
999.227	1966.15
999.523	1965.02
999.818	1934.51
1000.114	1900.84
1000.409	1933.61
1000.704	1900.84
1001	1927.28
1001.295	1917.34
1001.59	1878.24
1001.885	1899.03
1002.18	1858.36
1002.475	1840.73
1002.77	1860.84
1003.065	1841.41
1003.359	1824.01
1003.654	1844.57
1003.949	1827.17
1004.243	1818.81
1004.538	1797.34
1004.832	1746.49
1005.127	1751.69
1005.421	1738.13
1005.715	1720.96
1006.009	1755.08
1006.304	1770.9
1006.598	1708.08
1006.892	1710.34
1007.186	1709.88
1007.48	1692.71
1007.773	1670.34
1008.067	1687.96
1008.361	1667.4
1008.655	1665.14
1008.948	1655.87
1009.242	1603.22
1009.535	1604.12
1009.829	1597.57
1010.122	1593.5
1010.415	1606.84
1010.708	1578.36
1011.001	1564.8
1011.295	1558.93
1011.588	1582.43
1011.881	1541.53
1012.173	1548.08
1012.466	1512.83
1012.759	1523.67
1013.052	1510.12
1013.344	1540.62
1013.637	1513.51
1013.93	1496.33
1014.222	1522.77
1014.514	1489.33
1014.807	1458.37
1015.099	1457.69
1015.391	1471.47
1015.683	1470.57
1015.976	1446.61
1016.268	1405.49
1016.56	1417.01
1016.851	1411.36
1017.143	1393.51
1017.435	1381.31
1017.727	1382.89
1018.018	1372.04
1018.31	1384.02
1018.602	1371.14
1018.893	1350.8
1019.185	1304.92
1019.476	1311.48
1019.767	1354.64
1020.058	1326.17
1020.35	1332.49
1020.641	1290.01
1020.932	1301.76
1021.223	1299.27
1021.514	1307.41
1021.804	1280.52
1022.095	1264.92
1022.386	1268.31
1022.677	1247.3
1022.967	1238.94
1023.258	1231.03
1023.548	1211.37
1023.839	1240.07
1024.129	1207.52
1024.419	1215.89
1024.709	1188.09
1025	1200.75
1025.29	1209.33
1025.58	1185.38
1025.87	1179.05
1026.16	1180.63
1026.449	1176.79
1026.739	1172.5
1027.029	1165.94
1027.319	1088.21
1027.608	1149.9
1027.898	1119.62
1028.187	1122.1
1028.477	1085.49
1028.766	1092.05
1029.055	1078.04
1029.344	1078.49
1029.634	1092.05
1029.923	1060.86
1030.212	1057.7
1030.501	1066.96
1030.79	1060.64
1031.078	1062.9
1031.367	1041.65
1031.656	1005.27
1031.945	1036.68
1032.233	1019.06
1032.522	998.49
1032.81	1001.43
1033.099	984.03
1033.387	971.82
1033.675	970.24
1033.963	973.86
1034.251	985.84
1034.54	938.61
1034.828	950.58
1035.116	982.45
1035.403	954.2
1035.691	935.67
1035.979	952.62
1036.267	930.02
1036.554	917.81
1036.842	900.41
1037.129	918.04
1037.417	893.18
1037.704	897.02
1037.992	892.28
1038.279	891.6
1038.566	893.41
1038.853	893.41
1039.14	893.41
