Data from hue_310_FLMS001491_91.txt Node
Date: Mon Feb 06 15:50:28 GMT 2017
User: dcchb
Spectrometer: FLMS00149
Trigger mode: 0
Integration Time (sec): 2.000000E-2
Scans to average: 10
Electric dark correction enabled: true
Nonlinearity correction enabled: false
Boxcar width: 0
XAxis mode: Wavelengths
Number of Pixels in Spectrum: 2048
>>>>>Begin Spectral Data<<<<<
341.393	12.61
341.776	12.61
342.16	12.61
342.543	-58.57
342.927	-61.28
343.31	-56.54
343.693	-75.07
344.077	-64
344.46	-65.35
344.843	-60.61
345.226	-40.04
345.61	-16.31
345.993	-10.66
346.376	-14.96
346.759	-9.31
347.142	35.21
347.525	42.22
347.908	64.59
348.291	80.18
348.674	81.76
349.057	108.88
349.44	118.37
349.823	140.52
350.206	183.68
350.588	177.58
350.971	208.99
351.354	216.9
351.737	252.61
352.119	252.38
352.502	268.88
352.884	292.61
353.267	285.15
353.65	293.28
354.032	302.55
354.414	317.01
354.797	321.08
355.179	326.05
355.562	337.8
355.944	324.24
356.326	327.86
356.709	328.31
357.091	335.99
357.473	347.52
357.855	317.01
358.238	336.67
358.62	336.9
359.002	338.48
359.384	353.17
359.766	341.42
360.148	334.41
360.53	345.71
360.912	357.91
361.294	343.23
361.676	342.77
362.057	320.85
362.439	333.96
362.821	334.19
363.203	321.08
363.584	323.11
363.966	311.81
364.348	325.82
364.729	330.8
365.111	340.74
365.493	313.17
365.874	326.5
366.256	315.43
366.637	314.75
367.019	333.28
367.4	317.01
367.781	321.08
368.163	316.79
368.544	304.58
368.925	301.64
369.306	329.67
369.688	323.79
370.069	316.56
370.45	305.03
370.831	311.59
371.212	327.63
371.593	317.46
371.974	297.35
372.355	301.64
372.736	309.33
373.117	302.32
373.498	328.08
373.879	291.48
374.26	309.78
374.641	322.66
375.021	325.6
375.402	328.08
375.783	313.4
376.163	333.06
376.544	343.68
376.925	321.98
377.305	329.44
377.686	342.32
378.066	332.83
378.447	330.8
378.827	334.64
379.208	328.54
379.588	330.12
379.968	326.95
380.349	321.98
380.729	316.56
381.109	350.68
381.489	350.68
381.87	365.37
382.25	350
382.63	342.32
383.01	335.77
383.39	350.91
383.77	348.65
384.15	337.8
384.53	351.36
384.91	350.46
385.29	347.07
385.67	365.6
386.049	343.9
386.429	349.78
386.809	371.93
387.189	364.69
387.568	344.58
387.948	362.66
388.328	353.85
388.707	356.78
389.087	359.72
389.466	378.03
389.846	353.62
390.225	384.58
390.605	355.88
390.984	380.74
391.363	344.58
391.743	368.76
392.122	384.13
392.501	356.78
392.881	383.68
393.26	381.42
393.639	381.64
394.018	382.55
394.397	363.11
394.776	362.89
395.155	376.44
395.534	385.94
395.913	392.94
396.292	395.2
396.671	376.9
397.05	380.51
397.429	402.88
397.808	385.26
398.186	393.62
398.565	394.52
398.944	408.08
399.323	420.74
399.701	400.63
400.08	414.64
400.458	411.02
400.837	419.83
401.215	414.86
401.594	410.34
401.972	405.37
402.351	410.12
402.729	415.09
403.107	429.55
403.486	417.8
403.864	432.26
404.242	433.62
404.62	430.91
404.999	429.32
405.377	437.23
405.755	455.09
406.133	440.4
406.511	457.8
406.889	445.37
407.267	464.35
407.645	466.39
408.023	459.83
408.401	469.32
408.779	480.17
409.156	476.1
409.534	484.69
409.912	479.27
410.29	495.76
410.667	506.38
411.045	489.21
411.422	543.9
411.8	525.59
412.178	550.45
412.555	543.67
412.933	540.96
413.31	565.59
413.687	570.79
414.065	571.02
414.442	580.06
414.819	581.86
415.197	597.23
415.574	587.06
415.951	608.3
416.328	604.24
416.705	597.91
417.082	624.35
417.46	630.9
417.837	649.88
418.214	648.08
418.591	676.78
418.967	685.14
419.344	688.3
419.721	679.04
420.098	679.94
420.475	706.15
420.852	695.76
421.228	714.97
421.605	723.78
421.982	733.05
422.358	733.72
422.735	751.12
423.111	746.83
423.488	777.79
423.864	765.36
424.241	774.4
424.617	780.73
424.994	793.16
425.37	789.32
425.746	823.44
426.123	830.22
426.499	826.83
426.875	822.76
427.251	853.72
427.627	869.54
428.003	865.92
428.379	886.49
428.756	886.94
429.132	889.88
429.507	906.37
429.883	920.16
430.259	905.92
430.635	914.96
431.011	913.61
431.387	975.98
431.763	976.43
432.138	972.36
432.514	985.69
432.89	983.21
433.265	1003.55
433.641	1010.1
434.016	1043.77
434.392	1057.56
434.767	1039.48
435.143	1037.44
435.518	1088.74
435.894	1077.22
436.269	1079.93
436.644	1106.14
437.02	1087.61
437.395	1115.41
437.77	1129.87
438.145	1146.37
438.52	1150.44
438.895	1167.84
439.271	1176.65
439.646	1210.77
440.021	1199.47
440.395	1194.5
440.77	1202.86
441.145	1215.29
441.52	1226.14
441.895	1200.83
442.27	1262.3
442.645	1253.03
443.019	1273.6
443.394	1252.35
443.769	1265.46
444.143	1237.21
444.518	1270.43
444.892	1258.46
445.267	1268.17
445.641	1293.71
446.016	1287.38
446.39	1297.1
446.764	1295.97
447.139	1288.96
447.513	1310.21
447.887	1293.26
448.262	1293.03
448.636	1332.58
449.01	1315.86
449.384	1346.81
449.758	1311.11
450.132	1337.55
450.506	1357.66
450.88	1340.71
451.254	1333.71
451.628	1367.61
452.002	1379.13
452.376	1353.37
452.75	1400.6
453.123	1404.89
453.497	1427.49
453.871	1414.38
454.244	1427.72
454.618	1456.19
454.992	1434.95
455.365	1452.8
455.739	1499.13
456.112	1481.05
456.486	1485.57
456.859	1491.22
457.232	1508.17
457.606	1519.92
457.979	1559.92
458.352	1533.02
458.725	1570.09
459.099	1560.82
459.472	1590.65
459.845	1603.08
460.218	1610.31
460.591	1622.74
460.964	1610.31
461.337	1606.24
461.71	1662.29
462.083	1679.69
462.456	1679.69
462.829	1666.58
463.201	1691.89
463.574	1692.79
463.947	1712
464.32	1772.57
464.692	1758.33
465.065	1756.52
465.438	1776.63
465.81	1782.51
466.183	1831.77
466.555	1822.73
466.928	1841.27
467.3	1806.46
467.672	1857.76
468.045	1861.15
468.417	1885.78
468.789	1884.2
469.161	1898.21
469.534	1916.29
469.906	1952.67
470.278	1968.04
470.65	1980.7
471.022	2011.88
471.394	1984.54
471.766	2050.53
472.138	2066.12
472.51	2095.04
472.882	2075.38
473.253	2128.94
473.625	2144.53
473.997	2187.24
474.369	2199.9
474.74	2191.54
475.112	2222.72
475.484	2220.01
475.855	2257.75
476.227	2266.56
476.598	2311.54
476.97	2344.98
477.341	2336.62
477.713	2405.54
478.084	2386.11
478.455	2414.58
478.827	2453.9
479.198	2498.42
479.569	2527.57
479.94	2569.16
480.311	2586.56
480.682	2606.22
481.053	2650.74
481.424	2676.95
481.795	2700.68
482.166	2717.85
482.537	2735.25
482.908	2817.06
483.279	2806.44
483.65	2830.39
484.021	2872.42
484.391	2908.81
484.762	2916.27
485.133	2921.91
485.503	2940.45
485.874	3024.06
486.244	3058.41
486.615	3067.22
486.985	3099.99
487.356	3142.7
487.726	3132.53
488.097	3194
488.467	3181.34
488.837	3214.79
489.207	3279.65
489.578	3290.72
489.948	3361.23
490.318	3337.95
490.688	3352.19
491.058	3390.38
491.428	3393.77
491.798	3430.15
492.168	3487.1
492.538	3516.48
492.908	3513.09
493.278	3591.05
493.648	3572.75
494.017	3613.65
494.387	3628.34
494.757	3619.98
495.126	3642.35
495.496	3653.87
495.866	3699.97
496.235	3702.01
496.605	3764.6
496.974	3766.64
497.344	3819.74
497.713	3812.29
498.082	3798.28
498.452	3826.75
498.821	3875.11
499.19	3866.75
499.559	3923.24
499.928	3887.99
500.298	3902.23
500.667	3910.59
501.036	3955.33
501.405	4017.48
501.774	3993.75
502.143	3995.56
502.512	4020.87
502.88	4064.26
503.249	4032.17
503.618	4102.67
503.987	4064.03
504.356	4089.34
504.724	4132.73
505.093	4147.42
505.462	4101.77
505.83	4156.46
506.199	4191.49
506.567	4227.87
506.936	4198.27
507.304	4295.66
507.672	4252.28
508.041	4250.92
508.409	4329.56
508.777	4276.46
509.145	4276.91
509.514	4283.23
509.882	4357.81
510.25	4320.3
510.618	4325.95
510.986	4367.75
511.354	4398.03
511.722	4417.92
512.09	4410.01
512.458	4409.56
512.826	4468.31
513.193	4484.59
513.561	4463.8
513.929	4497.24
514.297	4549.22
514.664	4503.34
515.032	4518.48
515.4	4546.96
515.767	4552.15
516.135	4576.79
516.502	4486.17
516.869	4594.41
517.237	4590.35
517.604	4583.11
517.972	4614.98
518.339	4637.58
518.706	4633.28
519.073	4656.11
519.44	4650.68
519.808	4742.66
520.175	4699.27
520.542	4689.33
520.909	4732.26
521.276	4711.25
521.643	4737.46
522.009	4812.03
522.376	4803.45
522.743	4817.23
523.11	4809.32
523.477	4899.26
523.843	4892.94
524.21	4928.64
524.577	4976.32
524.943	4964.57
525.31	4974.74
525.676	4987.17
526.043	4996.66
526.409	5071.69
526.776	5090.9
527.142	5104.91
527.508	5150.56
527.874	5137.45
528.241	5156.21
528.607	5152.59
528.973	5200.72
529.339	5236.2
529.705	5308.52
530.071	5297.67
530.437	5335.86
530.803	5359.59
531.169	5391
531.535	5354.39
531.901	5404.34
532.267	5384.67
532.632	5455.86
532.998	5436.42
533.364	5485.46
533.73	5532.02
534.095	5561.39
534.461	5535.86
534.826	5574.27
535.192	5573.82
535.557	5647.94
535.923	5640.94
536.288	5662.41
536.653	5696.31
537.019	5635.97
537.384	5710.99
537.749	5748.96
538.114	5765.91
538.479	5764.1
538.845	5836.64
539.21	5811.56
539.575	5797.77
539.94	5822.63
540.305	5899.01
540.67	5890.2
541.034	5925.68
541.399	5963.19
541.764	5962.51
542.129	6012.68
542.494	6023.98
542.858	6086.35
543.223	6084.09
543.587	6111.44
543.952	6117.54
544.316	6143.52
544.681	6169.29
545.045	6130.42
545.41	6198.44
545.774	6243.18
546.138	6224.65
546.503	6265.78
546.867	6284.54
547.231	6345.55
547.595	6320.47
547.959	6366.8
548.324	6453.8
548.688	6372.9
549.052	6401.6
549.416	6428.26
549.779	6480.69
550.143	6532.89
550.507	6513.01
550.871	6583.74
551.235	6571.99
551.599	6586.23
551.962	6583.74
552.326	6624.64
552.689	6641.14
553.053	6630.52
553.417	6655.38
553.78	6726.33
554.143	6734.92
554.507	6821.47
554.87	6825.31
555.234	6857.4
555.597	6823.73
555.96	6838.2
556.323	6827.12
556.686	6845.88
557.05	6910.51
557.413	6918.87
557.776	6923.39
558.139	6945.54
558.502	6948.7
558.865	6979.21
559.228	7028.7
559.59	7059.21
559.953	7062.37
560.316	7149.37
560.679	7096.95
561.041	7133.1
561.404	7110.28
561.767	7224.4
562.129	7111.64
562.492	7202.71
562.854	7243.16
563.217	7243.61
563.579	7293.78
563.941	7266.43
564.304	7339.88
564.666	7382.81
565.028	7360.22
565.39	7455.58
565.753	7422.36
566.115	7481.12
566.477	7477.28
566.839	7476.15
567.201	7561.34
567.563	7539.42
567.925	7610.15
568.287	7632.3
568.648	7655.12
569.01	7682.69
569.372	7735.12
569.734	7743.48
570.095	7746.87
570.457	7783.93
570.819	7830.94
571.18	7824.38
571.542	7920.43
571.903	7941.67
572.265	8000.65
572.626	8001.56
572.987	8051.05
573.349	8091.5
573.71	8157.71
574.071	8259.4
574.432	8285.39
574.794	8336.91
575.155	8371.49
575.516	8356.12
575.877	8464.14
576.238	8522.67
576.599	8632.05
576.96	8638.15
577.32	8738.48
577.681	8884.02
578.042	8895.99
578.403	8971.93
578.763	9072.94
579.124	9186.83
579.485	9295.08
579.845	9340.73
580.206	9405.81
580.566	9583.66
580.927	9753.37
581.287	9863.2
581.648	9956.08
582.008	10154.27
582.368	10265.45
582.728	10386.35
583.089	10608.49
583.449	10733.91
583.809	10966.67
584.169	11172.77
584.529	11194.47
584.889	11567.56
585.249	11683.94
585.609	11804.17
585.969	12088.91
586.329	12318.5
586.688	12561.89
587.048	12790.36
587.408	13008.88
587.768	13194.41
588.127	13453.84
588.487	13768.41
588.846	14068.29
589.206	14138.79
589.565	14440.26
589.925	14785.56
590.284	15026.91
590.643	15409.27
591.003	15673.67
591.362	15887.22
591.721	16171.28
592.08	16530.37
592.44	16828.89
592.799	17162.22
593.158	17458.48
593.517	17649.66
593.876	18032.7
594.235	18226.82
594.593	18653.25
594.952	18915.62
595.311	19182.96
595.67	19578.43
596.029	19941.58
596.387	20351.29
596.746	20621.56
597.104	20760.77
597.463	21124.15
597.822	21517.58
598.18	21696.56
598.538	22040.51
598.897	22556.65
599.255	22641.85
599.613	23264.88
599.972	23348.72
600.33	23690.41
600.688	23853.12
601.046	24390.05
601.404	24654.22
601.762	24870.72
602.12	25136.92
602.478	25451.72
602.836	25780.75
603.194	26056.9
603.552	26248.76
603.91	26506.83
604.268	26852.13
604.625	27007.61
604.983	27484.21
605.341	27550.42
605.698	27892.33
606.056	28182.49
606.413	28376.39
606.771	28851.63
607.128	29034
607.485	29134.11
607.843	29295.23
608.2	29814.77
608.557	30060.41
608.914	30116.23
609.272	30581.98
609.629	30782.65
609.986	31079.14
610.343	31161.85
610.7	31555.06
611.057	31722.29
611.414	31849.29
611.771	31981.26
612.127	32315.72
612.484	32476.84
612.841	32720.68
613.198	32911.63
613.554	32929.94
613.911	33301.23
614.267	33414.45
614.624	33509.36
614.98	33901.44
615.337	34124.48
615.693	34165.61
616.05	34171.94
616.406	34658.26
616.762	34717.01
617.118	34702.1
617.475	34962.65
617.831	35196.55
618.187	35295.75
618.543	35356.77
618.899	35722.41
619.255	35937.09
619.611	35927.6
619.967	36093.47
620.323	36316.97
620.678	36159.01
621.034	36293.01
621.39	36413.24
621.746	36439.45
622.101	36968.25
622.457	36766.45
622.812	37018.65
623.168	37142.03
623.523	37426.32
623.879	37537.73
624.234	37339.99
624.589	37462.93
624.945	37688.46
625.3	37765.52
625.655	37833.09
626.01	37916.02
626.365	37977.26
626.72	38038.51
627.075	38068.11
627.43	38115.11
627.785	38125.06
628.14	38249.12
628.495	38294.54
628.85	38322.34
629.205	38411.6
629.559	38499.06
629.914	38393.07
630.269	38513.97
630.623	38609.79
630.978	38324.6
631.332	38543.58
631.687	38774.31
632.041	38756.45
632.396	38760.97
632.75	38751.26
633.104	38744.02
633.459	38619.06
633.813	38782.89
634.167	38734.98
634.521	38739.96
634.875	38794.19
635.229	38698.15
635.583	38679.84
635.937	38622.44
636.291	38723.01
636.645	38791.93
636.999	38771.14
637.352	38824.47
637.706	38721.88
638.06	38871.48
638.413	38805.72
638.767	38675.32
639.121	38881.87
639.474	38535.89
639.828	38609.34
640.181	38666.96
640.534	38783.57
640.888	38674.87
641.241	38478.95
641.594	38747.87
641.947	38673.74
642.301	38567.76
642.654	38789.9
643.007	38782.44
643.36	38606.85
643.713	38455.9
644.066	38780.86
644.419	38420.64
644.771	38306.75
645.124	37843.71
645.477	38047.32
645.83	37625.63
646.182	37502.93
646.535	37497.73
646.888	37576.82
647.24	37398.75
647.593	37601.23
647.945	37400.33
648.298	37329.15
648.65	37278.53
649.002	37287.56
649.355	37397.84
649.707	37440.56
650.059	37405.3
650.411	37911.73
650.763	38049.8
651.115	38225.62
651.467	38194.66
651.819	38244.6
652.171	38123.25
652.523	38256.58
652.875	38152.4
653.227	37936.59
653.578	38225.85
653.93	38080.31
654.282	38036.02
654.633	37892.75
654.985	37946.76
655.337	37955.57
655.688	38062.46
656.039	38135.9
656.391	37807.33
656.742	37931.84
657.094	37960.99
657.445	38037.15
657.796	37903.37
658.147	37831.28
658.498	37856.14
658.849	38065.85
659.2	37928
659.551	37813.2
659.902	38004.61
660.253	37889.58
660.604	37887.77
660.955	37764.39
661.306	37950.15
661.656	37883.48
662.007	37775.24
662.358	37855.23
662.708	37763.71
663.059	37860.21
663.409	37664.73
663.76	37873.99
664.11	37758.06
664.461	37909.47
664.811	37755.35
665.161	37776.82
665.511	37719.19
665.862	37799.19
666.212	37767.33
666.562	37961.67
666.912	37753.99
667.262	37660.89
667.612	37692.75
667.962	37707.44
668.312	37587.22
668.662	37758.74
669.011	37530.72
669.361	37739.76
669.711	37592.64
670.06	37594
670.41	37591.74
670.76	37566.88
671.109	37728.46
671.459	37564.17
671.808	37504.51
672.157	37569.37
672.507	37407.11
672.856	37463.61
673.205	37527.11
673.554	37557.84
673.904	37421.8
674.253	37516.49
674.602	37526.65
674.951	37024.29
675.3	36742.04
675.649	37451.63
675.998	37245.98
676.346	37442.14
676.695	37384.29
677.044	37253.89
677.393	37283.27
677.741	37457.96
678.09	37288.69
678.438	37117.17
678.787	37325.76
679.135	37252.76
679.484	37011.41
679.832	37237.4
680.181	36992.21
680.529	37004.86
680.877	37003.05
681.225	36905.88
681.573	37047.35
681.922	36881.02
682.27	36738.43
682.618	36666.79
682.966	36726.9
683.314	36794.92
683.661	36707.47
684.009	36458.21
684.357	36566.23
684.705	36430.41
685.053	36369.4
685.4	36277.42
685.748	36207.37
686.095	36171.89
686.443	36119.91
686.79	35897.09
687.138	36092.12
687.485	36118.56
687.832	36043.53
688.18	35833.82
688.527	35794.04
688.874	35720.15
689.221	35745.01
689.568	35687.61
689.915	35515.63
690.262	35541.17
690.609	35386.6
690.956	35198.58
691.303	35246.94
691.65	35114.74
691.997	35100.96
692.344	34918.81
692.69	34958.81
693.037	34988.87
693.383	34663.23
693.73	34784.13
694.077	34627.97
694.423	34594.53
694.769	34400.64
695.116	34324.48
695.462	34220.53
695.808	34204.03
696.155	34205.61
696.501	34031.38
696.847	34063.02
697.193	33829.8
697.539	33910.25
697.885	33657.38
698.231	33575.57
698.577	33610.15
698.923	33527.66
699.269	33424.39
699.614	33262.36
699.96	33195.02
700.306	33237.05
700.651	33038.18
700.997	33061.01
701.342	32944.4
701.688	32958.41
702.033	32714.13
702.379	32843.16
702.724	32600.46
703.069	32629.38
703.415	32417.18
703.76	32493.11
704.105	32462.61
704.45	32249.96
704.795	32147.59
705.14	32145.55
705.485	31950.98
705.83	31932
706.175	31816.52
706.52	31905.11
706.865	31748.5
707.209	31708.28
707.554	31530.88
707.899	31698.33
708.243	31485.68
708.588	31475.51
708.932	31223.32
709.277	31253.15
709.621	31344.44
709.966	30988.97
710.31	31111.46
710.654	30859.94
710.998	30917.79
711.342	30960.73
711.687	30734.97
712.031	30743.1
712.375	30614.07
712.719	30615.88
713.063	30540.4
713.407	30590.34
713.75	30393.28
714.094	30469.44
714.438	30307.41
714.782	30294.98
715.125	30146.06
715.469	30111.71
715.812	30131.82
716.156	29829.91
716.499	29734.77
716.843	29863.35
717.186	29820.19
717.53	29905.39
717.873	29861.55
718.216	29770.47
718.559	29543.81
718.902	29406.42
719.246	29575.45
719.589	29440.31
719.932	29211.39
720.275	29315.57
720.617	29286.65
720.96	29210.71
721.303	29278.06
721.646	29211.84
721.989	29024.28
722.331	29000.55
722.674	29096.82
723.016	29144.05
723.359	28932.98
723.701	29012.75
724.044	28871.06
724.386	28770.73
724.729	28838.3
725.071	28603.27
725.413	28639.66
725.755	28646.44
726.097	28624.29
726.439	28400.11
726.782	28458.19
727.124	28554.24
727.465	28388.59
727.807	28402.37
728.149	28323.28
728.491	28313.56
728.833	28260.91
729.175	28142.27
729.516	28122.83
729.858	28114.47
730.199	28141.36
730.541	28007.81
730.882	27992.67
731.224	28034.93
731.565	27862.73
731.906	27759.68
732.248	27929.17
732.589	27794.71
732.93	27703.18
733.271	27730.53
733.612	27692.11
733.953	27642.17
734.294	27580.93
734.635	27476.75
734.976	27604.88
735.317	27334.61
735.658	27503.42
735.999	27522.85
736.339	27352.91
736.68	27378.9
737.021	27350.2
737.361	27214.16
737.702	27368.73
738.042	27225.68
738.383	27126.25
738.723	27171.9
739.063	27192.91
739.404	27053.03
739.744	27075.4
740.084	26838.8
740.424	26801.51
740.764	26805.81
741.104	26829.08
741.444	26723.77
741.784	26605.36
742.124	26683.78
742.464	26704.11
742.804	26571.46
743.143	26618.47
743.483	26538.69
743.823	26375.08
744.162	26479.94
744.502	26509.09
744.841	26230.68
745.181	26488.53
745.52	26351.58
745.86	26382.77
746.199	26192.04
746.538	26166.28
746.877	26246.5
747.216	26039.72
747.556	26076.33
747.895	26051.48
748.234	26011.25
748.573	25996.79
748.911	25880.41
749.25	25857.58
749.589	25753.18
749.928	25718.38
750.267	25834.31
750.605	25712.05
750.944	25652.62
751.283	25495.11
751.621	25580.98
751.96	25453.07
752.298	25435.9
752.636	25396.35
752.975	25289.91
753.313	25267.77
753.651	25339.4
753.989	25219.63
754.327	25158.84
754.666	25084.95
755.004	25098.51
755.342	24983.93
755.679	25034.33
756.017	24817.84
756.355	24845.18
756.693	24725.64
757.031	24785.29
757.368	24545.53
757.706	24648.58
758.044	24488.81
758.381	24519.31
758.719	24488.58
759.056	24474.79
759.394	24289.26
759.731	24252.88
760.068	24117.52
760.405	24094.69
760.743	23890.85
761.08	24000.23
761.417	23978.76
761.754	23813.12
762.091	23835.26
762.428	23690.18
762.765	23523.86
763.102	23754.81
763.438	23453.8
763.775	23357.08
764.112	23492.67
764.449	23437.53
764.785	23303.3
765.122	23128.62
765.458	23038
765.795	23007.71
766.131	23096.3
766.467	22866.7
766.804	22733.37
767.14	22656.31
767.476	22711.45
767.812	22589.87
768.148	22670.1
768.485	22405.92
768.821	22351.23
769.157	22345.13
769.492	22216.77
769.828	22249.99
770.164	22130.9
770.5	22016.1
770.836	21957.35
771.171	21851.59
771.507	21743.11
771.842	21671.25
772.178	21698.37
772.513	21632.61
772.849	21475.55
773.184	21377.47
773.519	21343.8
773.855	21322.79
774.19	21195.33
774.525	21177.48
774.86	21165.73
775.195	20991.72
775.53	20967.77
775.865	20901.55
776.2	20713.54
776.535	20683.71
776.87	20657.27
777.205	20488.46
777.539	20398.07
777.874	20361.91
778.209	20257.73
778.543	20252.08
778.878	20114.23
779.212	20064.97
779.547	20018.87
779.881	20000.11
780.215	19952.43
780.55	19915.37
780.884	19753.56
781.218	19745.43
781.552	19750.4
781.886	19513.57
782.22	19570.74
782.554	19466.79
782.888	19302.5
783.222	19131.88
783.556	19137.76
783.889	19060.02
784.223	18947.93
784.557	18910.19
784.89	18842.4
785.224	18756.75
785.557	18741.39
785.891	18653.48
786.224	18608.28
786.558	18636.98
786.891	18451
787.224	18428.63
787.557	18320.38
787.891	18307.27
788.224	18152.47
788.557	18226.82
788.89	18178.91
789.223	18062.31
789.556	17954.06
789.888	17958.58
790.221	17901.86
790.554	17756.78
790.887	17780.28
791.219	17702.32
791.552	17671.36
791.884	17493.51
792.217	17502.1
792.549	17475.66
792.882	17303.68
793.214	17251.48
793.546	17299.62
793.879	17170.58
794.211	17043.58
794.543	17166.74
794.875	17049.23
795.207	17159.28
795.539	16988.89
795.871	16947.31
796.203	16857.82
796.535	16787.09
796.867	16608.11
797.198	16596.81
797.53	16667.09
797.862	16415.12
798.193	16552.97
798.525	16515.91
798.856	16546.87
799.188	16275.91
799.519	16208.35
799.85	16102.13
800.182	16168.57
800.513	16045.41
800.844	16019.2
801.175	16098.74
801.506	16006.32
801.837	15968.35
802.168	15961.35
802.499	15923.15
802.83	15719.09
803.161	15672.09
803.491	15806.1
803.822	15671.18
804.153	15626.44
804.483	15530.17
804.814	15425.77
805.145	15441.81
805.475	15439.1
805.805	15364.3
806.136	15390.51
806.466	15374.47
806.796	15252.21
807.126	15098.32
807.457	15182.16
807.787	15130.63
808.117	14992.33
808.447	14915.5
808.777	15035.72
809.107	14971.99
809.436	14912.56
809.766	14828.95
810.096	14908.27
810.426	14774.26
810.755	14765.67
811.085	14691.1
811.414	14720.47
811.744	14526.36
812.073	14568.16
812.403	14535.39
812.732	14525.9
813.061	14517.54
813.39	14396.19
813.719	14309.19
814.049	14409.97
814.378	14350.54
814.707	14311.22
815.036	14274.84
815.365	14148.06
815.693	14094.05
816.022	14056.09
816.351	14028.06
816.68	13999.36
817.008	14006.14
817.337	13878.91
817.665	13734.29
817.994	13892.02
818.322	13911.68
818.651	13782.19
818.979	13827.62
819.307	13733.38
819.636	13663.55
819.964	13608.64
820.292	13715.3
820.62	13642.99
820.948	13692.93
821.276	13608.64
821.604	13640.28
821.932	13617.9
822.259	13673.27
822.587	13566.15
822.915	13531.58
823.243	13630.79
823.57	13555.53
823.898	13564.57
824.225	13533.84
824.553	13558.02
824.88	13529.77
825.207	13617.9
825.535	13510.79
825.862	13475.31
826.189	13482.31
826.516	13564.57
826.843	13569.09
827.17	13592.59
827.497	13499.72
827.824	13526.61
828.151	13558.7
828.478	13520.96
828.805	13594.18
829.131	13415.65
829.458	13442.77
829.785	13416.55
830.111	13484.35
830.438	13544.01
830.764	13466.04
831.09	13426.95
831.417	13410.45
831.743	13520.28
832.069	13478.47
832.395	13367.74
832.722	13495.42
833.048	13304.24
833.374	13391.7
833.7	13301.75
834.026	13266.73
834.351	13380.4
834.677	13336.78
835.003	13383.56
835.329	13325.26
835.654	13229.44
835.98	13223.79
836.306	13273.05
836.631	13224.47
836.956	13228.54
837.282	13283.22
837.607	13168.88
837.932	13189.89
838.258	13154.87
838.583	13104.02
838.908	13104.7
839.233	13149.89
839.558	13061.08
839.883	13036.9
840.208	13014.08
840.533	12938.37
840.858	12895.21
841.182	12917.58
841.507	12962.78
841.832	12971.14
842.156	12906.06
842.481	12856.12
842.805	12824.25
843.13	12793.97
843.454	12745.61
843.778	12705.61
844.103	12662
844.427	12690.92
844.751	12680.75
845.075	12592.85
845.399	12618.38
845.723	12531.38
846.047	12537.26
846.371	12458.84
846.695	12391.5
847.019	12311.05
847.343	12337.49
847.666	12230.37
847.99	12135.91
848.313	12132.29
848.637	12063.37
848.96	12096.81
849.284	12004.84
849.607	11888.46
849.931	11855.47
850.254	11786.77
850.577	11770.72
850.9	11652.31
851.223	11610.5
851.546	11595.13
851.869	11478.53
852.192	11603.27
852.515	11498.64
852.838	11476.04
853.161	11518.75
853.483	11414.35
853.806	11308.36
854.129	11261.81
854.451	11243.28
854.774	11238.76
855.096	11060.68
855.419	11199.66
855.741	11170.96
856.063	11056.16
856.385	11052.77
856.708	11002.15
857.03	11011.65
857.352	10949.5
857.674	10934.59
857.996	10885.32
858.318	10834.93
858.64	10871.76
858.961	10775.49
859.283	10778.43
859.605	10677.87
859.926	10698.66
860.248	10668.6
860.57	10582.96
860.891	10649.17
861.212	10619.11
861.534	10594.26
861.855	10615.72
862.176	10499.57
862.498	10461.38
862.819	10527.14
863.14	10436.29
863.461	10412.34
863.782	10344.32
864.103	10427.93
864.424	10326.69
864.745	10374.6
865.065	10274.26
865.386	10276.52
865.707	10231.1
866.027	10312
866.348	10234.72
866.668	10295.28
866.989	10259.57
867.309	10085.12
867.63	10198.11
867.95	10144.55
868.27	10120.14
868.59	10091.9
868.91	10079.69
869.23	10157.66
869.55	10011.9
869.87	10076.98
870.19	10072.91
870.51	10023.42
870.83	10063.2
871.15	10008.96
871.469	9952.01
871.789	9994.27
872.109	9934.16
872.428	9965.35
872.748	9938
873.067	9944.33
873.386	9890.55
873.706	9954.5
874.025	9804.45
874.344	9804.45
874.663	9782.75
874.982	9774.84
875.301	9803.77
875.62	9758.35
875.939	9674.51
876.258	9775.07
876.577	9672.47
876.896	9721.74
877.214	9604.45
877.533	9661.85
877.852	9665.01
878.17	9606.71
878.489	9665.24
878.807	9653.26
879.125	9613.49
879.444	9575.53
879.762	9627.05
880.08	9525.81
880.398	9552.02
880.716	9558.8
881.034	9464.34
881.352	9481.52
881.67	9417.56
881.988	9466.15
882.306	9453.49
882.624	9390.9
882.941	9342.54
883.259	9327.4
883.577	9298.7
883.894	9274.97
884.212	9203.56
884.529	9210.34
884.846	9203.11
885.164	9153.62
885.481	9190
885.798	9169.43
886.115	9099.38
886.432	9079.27
886.75	9098.93
887.067	9106.61
887.383	8971.47
887.7	9061.41
888.017	8975.54
888.334	9008.53
888.651	8921.08
888.967	8900.51
889.284	8867.07
889.6	8857.13
889.917	8790.01
890.233	8844.47
890.55	8802.44
890.866	8756.56
891.182	8766.73
891.498	8714.08
891.815	8754.08
892.131	8635.89
892.447	8654.65
892.763	8668.43
893.079	8639.28
893.395	8588.21
893.71	8567.87
894.026	8523.58
894.342	8546.85
894.657	8495.1
894.973	8500.07
895.289	8486.06
895.604	8405.84
895.92	8412.84
896.235	8355.9
896.55	8389.57
896.865	8351.15
897.181	8288.55
897.496	8296.69
897.811	8236.58
898.126	8177.37
898.441	8258.5
898.756	8179.4
899.071	8085.85
899.386	8107.54
899.7	8042.91
900.015	8058.28
900.33	7937.38
900.644	7964.27
900.959	7973.08
901.273	7911.84
901.588	7875.46
901.902	7857.38
902.216	7844.5
902.531	7855.8
902.845	7840.2
903.159	7688.34
903.473	7701.9
903.787	7718.85
904.101	7595.24
904.415	7623.03
904.729	7581
905.042	7555.01
905.356	7476.6
905.67	7508.23
905.984	7492.42
906.297	7479.53
906.611	7415.81
906.924	7380.55
907.237	7368.13
907.551	7390.5
907.864	7344.17
908.177	7264.63
908.491	7277.73
908.804	7261.69
909.117	7139.2
909.43	7139.88
909.743	7144.18
910.056	7100.56
910.368	7050.85
910.681	6994.8
910.994	7014.01
911.307	6979.44
911.619	7036.16
911.932	6963.39
912.244	6881.13
912.557	6934.01
912.869	6863.28
913.181	6824.86
913.494	6781.47
913.806	6798.65
914.118	6764.75
914.43	6728.82
914.742	6743.51
915.054	6627.13
915.366	6662.16
915.678	6600.24
915.99	6566.79
916.302	6520.01
916.613	6503.29
916.925	6497.19
917.236	6525.89
917.548	6409.96
917.859	6445.21
918.171	6407.92
918.482	6327.7
918.794	6329.73
919.105	6350.3
919.416	6281.37
919.727	6308.27
920.038	6279.79
920.349	6194.82
920.66	6164.32
920.971	6161.15
921.282	6113.47
921.593	6135.84
921.903	6132.45
922.214	6045.67
922.525	6028.73
922.835	6032.57
923.146	5934.49
923.456	5910.54
923.767	5948.73
924.077	5971.78
924.387	5892.91
924.697	5810.88
925.008	5825.79
925.318	5864.21
925.628	5827.83
925.938	5769.52
926.248	5739.69
926.558	5711.67
926.867	5686.14
927.177	5671.9
927.487	5657.44
927.796	5629.41
928.106	5571.34
928.416	5580.38
928.725	5563.88
929.034	5544.67
929.344	5503.54
929.653	5499.93
929.962	5408.18
930.271	5445.46
930.581	5400.72
930.89	5364.56
931.199	5376.09
931.508	5367.95
931.817	5313.72
932.125	5343.77
932.434	5268.75
932.743	5201.4
933.051	5238.01
933.36	5171.8
933.669	5154.85
933.977	5186.26
934.286	5160.95
934.594	5115.08
934.902	5065.81
935.21	5097.9
935.519	5040.28
935.827	5032.14
936.135	4958.92
936.443	5008.87
936.751	4931.81
937.059	4972.26
937.367	4937.45
937.674	4926.61
937.982	4886.38
938.29	4853.39
938.597	4830.79
938.905	4791.92
939.213	4769.32
939.52	4776.56
939.827	4793.5
940.135	4734.97
940.442	4724.35
940.749	4699.72
941.056	4700.85
941.363	4642.1
941.67	4610.23
941.977	4584.92
942.284	4621.08
942.591	4573.62
942.898	4576.79
943.205	4532.95
943.511	4532.27
943.818	4516.22
944.125	4431.03
944.431	4481.42
944.738	4436.9
945.044	4393.51
945.35	4420.63
945.657	4392.61
945.963	4365.49
946.269	4295.44
946.575	4331.82
946.881	4256.57
947.187	4277.13
947.493	4269.9
947.799	4271.71
948.105	4262.44
948.41	4192.84
948.716	4253.63
949.022	4164.14
949.327	4149.45
949.633	4149.91
949.938	4102
950.244	4102.22
950.549	4064.94
950.854	4085.95
951.16	4015.9
951.465	4020.42
951.77	4025.61
952.075	3988.33
952.38	4021.09
952.685	3979.97
952.99	3956.46
953.294	3973.41
953.599	3911.72
953.904	3879.86
954.209	3898.16
954.513	3872.62
954.818	3849.12
955.122	3834.21
955.426	3888.22
955.731	3793.98
956.035	3766.64
956.339	3770.93
956.643	3763.7
956.948	3744.72
957.252	3732.74
957.556	3758.73
957.86	3667.66
958.163	3633.99
958.467	3642.57
958.771	3637.38
959.075	3640.77
959.378	3603.48
959.682	3580.65
959.985	3592.86
960.289	3529.36
960.592	3541.79
960.896	3527.77
961.199	3506.98
961.502	3496.81
961.805	3523.71
962.108	3468.12
962.411	3479.19
962.714	3479.41
963.017	3402.58
963.32	3454.78
963.623	3412.07
963.926	3426.08
964.228	3396.48
964.531	3336.14
964.833	3361.9
965.136	3335.46
965.438	3316.48
965.741	3278.97
966.043	3265.18
966.345	3301.34
966.648	3275.8
966.95	3260.89
967.252	3230.16
967.554	3211.17
967.856	3219.53
968.158	3198.29
968.46	3193.09
968.761	3149.25
969.063	3153.77
969.365	3147.45
969.666	3097.73
969.968	3111.29
970.269	3073.78
970.571	3059.76
970.872	3083.27
971.174	3050.27
971.475	3068.35
971.776	3053.89
972.077	3003.04
972.378	2989.03
972.679	3008.01
972.98	2964.17
973.281	2971.18
973.582	2979.99
973.883	2951.07
974.183	2915.14
974.484	2925.76
974.785	2911.29
975.085	2890.28
975.386	2920.33
975.686	2838.08
975.986	2860
976.287	2836.95
976.587	2808.92
976.887	2801.24
977.187	2823.84
977.487	2799.43
977.787	2748.81
978.087	2775.93
978.387	2757.85
978.687	2738.19
978.987	2710.17
979.286	2709.72
979.586	2724.86
979.885	2711.98
980.185	2709.04
980.484	2662.03
980.784	2650.74
981.083	2642.6
981.382	2657.97
981.682	2652.54
981.981	2597.4
982.28	2606.89
982.579	2565.77
982.878	2581.36
983.177	2580.45
983.475	2565.31
983.774	2551.75
984.073	2540
984.372	2552.66
984.67	2527.35
984.969	2504.75
985.267	2497.29
985.566	2491.42
985.864	2455.26
986.162	2459.33
986.461	2434.24
986.759	2428.14
987.057	2420.23
987.355	2425.88
987.653	2390.86
987.951	2398.09
988.249	2411.65
988.547	2380.91
988.844	2337.52
989.142	2370.52
989.44	2349.5
989.737	2335.94
990.035	2305.89
990.332	2298.43
990.63	2274.02
990.927	2295.49
991.224	2294.59
991.521	2258.43
991.819	2284.87
992.116	2218.43
992.413	2239.22
992.71	2199.67
993.006	2209.84
993.303	2198.32
993.6	2197.19
993.897	2203.52
994.193	2171.88
994.49	2144.53
994.787	2160.13
995.083	2152.67
995.379	2134.14
995.676	2116.06
995.972	2086.46
996.268	2090.52
996.565	2041.94
996.861	2085.33
997.157	2082.16
997.453	2042.84
997.749	2053.91
998.044	2040.81
998.34	2021.83
998.636	1999.23
998.932	2015.95
999.227	1980.7
999.523	1989.96
999.818	1983.41
1000.114	1974.82
1000.409	1960.13
1000.704	1948.15
1001	1931.43
1001.295	1947.03
1001.59	1917.42
1001.885	1923.52
1002.18	1887.59
1002.475	1883.07
1002.77	1868.16
1003.065	1903.64
1003.359	1885.33
1003.654	1875.84
1003.949	1847.59
1004.243	1831.1
1004.538	1822.51
1004.832	1789.06
1005.127	1815.5
1005.421	1785.22
1005.715	1787.93
1006.009	1750.19
1006.304	1749.52
1006.598	1754.49
1006.892	1766.24
1007.186	1754.49
1007.48	1701.61
1007.773	1750.87
1008.067	1670.87
1008.361	1691.89
1008.655	1682.4
1008.948	1686.69
1009.242	1690.08
1009.535	1653.02
1009.829	1653.25
1010.122	1650.54
1010.415	1615.73
1010.708	1630.2
1011.001	1618.45
1011.295	1607.82
1011.588	1600.59
1011.881	1601.95
1012.173	1580.71
1012.466	1595.62
1012.759	1553.36
1013.052	1556.07
1013.344	1547.71
1013.637	1533.93
1013.93	1530.31
1014.222	1524.44
1014.514	1471.56
1014.807	1474.5
1015.099	1480.82
1015.391	1473.37
1015.683	1480.6
1015.976	1466.59
1016.268	1465.68
1016.56	1430.65
1016.851	1453.25
1017.143	1459.35
1017.435	1435.85
1017.727	1385.01
1018.018	1425.68
1018.31	1432.46
1018.602	1393.37
1018.893	1393.37
1019.185	1374.16
1019.476	1362.86
1019.767	1383.88
1020.058	1336.87
1020.35	1337.32
1020.641	1338.45
1020.932	1327.83
1021.223	1304.56
1021.514	1305.01
1021.804	1271.79
1022.095	1295.06
1022.386	1295.52
1022.677	1268.62
1022.967	1272.47
1023.258	1253.03
1023.548	1232.47
1023.839	1223.2
1024.129	1235.63
1024.419	1208.74
1024.709	1211.9
1025	1220.04
1025.29	1209.19
1025.58	1187.27
1025.87	1181.62
1026.16	1179.14
1026.449	1187.5
1026.739	1171.23
1027.029	1147.27
1027.319	1157.89
1027.608	1136.42
1027.898	1148.85
1028.187	1131.68
1028.477	1133.94
1028.766	1114.05
1029.055	1101.4
1029.344	1108.63
1029.634	1086.48
1029.923	1079.25
1030.212	1070.66
1030.501	1049.65
1030.79	1070.44
1031.078	1039.48
1031.367	1039.7
1031.656	1072.92
1031.945	1036.99
1032.233	1017.78
1032.522	999.48
1032.81	1014.85
1033.099	1035.86
1033.387	1022.08
1033.675	988.63
1033.963	975.3
1034.251	1002.19
1034.54	968.52
1034.828	984.11
1035.116	954.96
1035.403	988.41
1035.691	970.78
1035.979	964.45
1036.267	943.21
1036.554	943.66
1036.842	912.7
1037.129	931.68
1037.417	935.98
1037.704	911.57
1037.992	931.68
1038.279	910.89
1038.566	900.5
1038.853	900.5
1039.14	900.5
