Data from hue_70_FLMS001491_79.txt Node
Date: Mon Feb 06 15:21:25 GMT 2017
User: dcchb
Spectrometer: FLMS00149
Trigger mode: 0
Integration Time (sec): 2.000000E-2
Scans to average: 10
Electric dark correction enabled: true
Nonlinearity correction enabled: false
Boxcar width: 0
XAxis mode: Wavelengths
Number of Pixels in Spectrum: 2048
>>>>>Begin Spectral Data<<<<<
341.393	-1.62
341.776	-1.62
342.16	-1.62
342.543	-63.54
342.927	-65.8
343.31	-57.22
343.693	-57.67
344.077	-76.88
344.46	-48.4
344.843	-75.07
345.226	-60.38
345.61	-29.87
345.993	-13.83
346.376	-9.53
346.759	-7.05
347.142	13.06
347.525	50.8
347.908	79.96
348.291	92.61
348.674	78.6
349.057	120.86
349.44	150.46
349.823	138.03
350.206	159.73
350.588	205.38
350.971	210.57
351.354	218.48
351.737	237.01
352.119	248.54
352.502	233.85
352.884	271.36
353.267	294.87
353.65	303.9
354.032	294.19
354.414	305.26
354.797	309.33
355.179	323.79
355.562	327.86
355.944	321.08
356.326	345.03
356.709	310.46
357.091	336.45
357.473	338.25
357.855	324.47
358.238	340.97
358.62	343.9
359.002	335.54
359.384	340.97
359.766	350.23
360.148	347.97
360.53	324.47
360.912	311.81
361.294	342.1
361.676	315.66
362.057	340.74
362.439	326.05
362.821	330.8
363.203	341.64
363.584	321.53
363.966	318.59
364.348	309.1
364.729	315.88
365.111	326.95
365.493	316.33
365.874	294.19
366.256	300.97
366.637	314.98
367.019	310.68
367.4	335.09
367.781	310.01
368.163	325.37
368.544	302.55
368.925	319.27
369.306	309.1
369.688	308.65
370.069	325.6
370.45	312.27
370.831	295.32
371.212	316.11
371.593	307.29
371.974	296.45
372.355	303.68
372.736	297.35
373.117	309.78
373.498	316.56
373.879	304.58
374.26	312.27
374.641	318.82
375.021	317.69
375.402	306.62
375.783	327.41
376.163	325.82
376.544	289.89
376.925	307.75
377.305	322.44
377.686	322.66
378.066	335.99
378.447	322.21
378.827	323.56
379.208	326.5
379.588	313.17
379.968	331.25
380.349	327.86
380.729	328.31
381.109	329.44
381.489	341.42
381.87	306.62
382.25	319.05
382.63	350.46
383.01	331.25
383.39	346.62
383.77	341.87
384.15	335.32
384.53	329.89
384.91	352.04
385.29	327.41
385.67	349.1
386.049	360.4
386.429	343.23
386.809	352.72
387.189	342.1
387.568	356.56
387.948	346.16
388.328	337.12
388.707	348.42
389.087	326.05
389.466	337.12
389.846	347.52
390.225	355.2
390.605	377.8
390.984	343
391.363	344.58
391.743	355.65
392.122	343
392.501	361.98
392.881	355.2
393.26	358.59
393.639	359.5
394.018	372.15
394.397	360.85
394.776	340.74
395.155	365.6
395.534	375.31
395.913	354.98
396.292	349.1
396.671	373.73
397.05	369.67
397.429	354.07
397.808	384.58
398.186	369.21
398.565	373.06
398.944	376.44
399.323	378.25
399.701	377.12
400.08	394.07
400.458	380.96
400.837	400.63
401.215	373.28
401.594	373.96
401.972	378.03
402.351	394.3
402.729	396.33
403.107	388.42
403.486	390.68
403.864	398.59
404.242	402.43
404.62	391.59
404.999	412.83
405.377	399.72
405.755	403.11
406.133	403.11
406.511	397.69
406.889	412.15
407.267	409.89
407.645	417.12
408.023	400.4
408.401	414.86
408.779	406.27
409.156	430.68
409.534	445.6
409.912	407.4
410.29	396.33
410.667	422.77
411.045	420.51
411.422	446.95
411.8	443.34
412.178	449.66
412.555	440.17
412.933	431.13
413.31	450.79
413.687	454.63
414.065	446.73
414.442	455.76
414.819	444.47
415.197	464.58
415.574	445.14
415.951	455.54
416.328	487.18
416.705	465.48
417.082	482.66
417.46	474.97
417.837	489.44
418.214	463.9
418.591	481.3
418.967	472.94
419.344	490.34
419.721	479.04
420.098	495.99
420.475	514.52
420.852	485.37
421.228	509.32
421.605	488.76
421.982	499.38
422.358	494.63
422.735	512.03
423.111	486.05
423.488	499.15
423.864	499.15
424.241	534.86
424.617	532.82
424.994	541.86
425.37	539.6
425.746	541.86
426.123	506.16
426.499	531.7
426.875	531.47
427.251	551.13
427.627	548.42
428.003	546.84
428.379	554.52
428.756	571.02
429.132	576.21
429.507	571.92
429.883	572.6
430.259	564.01
430.635	566.95
431.011	579.15
431.387	588.19
431.763	564.01
432.138	583.67
432.514	606.5
432.89	630.22
433.265	622.54
433.641	602.65
434.016	623.22
434.392	606.5
434.767	623.9
435.143	636.33
435.518	633.84
435.894	636.33
436.269	665.25
436.644	648.3
437.02	662.99
437.395	659.38
437.77	668.64
438.145	660.96
438.52	665.25
438.895	675.19
439.271	687.17
439.646	683.1
440.021	706.15
440.395	710
440.77	692.14
441.145	695.76
441.52	704.12
441.895	713.39
442.27	718.36
442.645	701.63
443.019	732.14
443.394	733.95
443.769	722.88
444.143	738.7
444.518	733.5
444.892	733.95
445.267	741.18
445.641	743.44
446.016	758.36
446.39	753.61
446.764	750.22
447.139	776.21
447.513	773.27
447.887	773.5
448.262	785.25
448.636	771.69
449.01	800.84
449.384	793.16
449.758	776.43
450.132	823.89
450.506	818.47
450.88	817.34
451.254	826.38
451.628	811.91
452.002	826.6
452.376	862.99
452.75	870.9
453.123	834.06
453.497	842.65
453.871	865.92
454.244	884
454.618	888.3
454.992	873.16
455.365	900.95
455.739	923.1
456.112	905.47
456.486	912.93
456.859	932.14
457.232	936.2
457.606	949.31
457.979	971.01
458.352	962.64
458.725	973.04
459.099	1006.71
459.472	1006.26
459.845	1007.61
460.218	1013.94
460.591	1027.73
460.964	1045.58
461.337	1069.53
461.71	1075.18
462.083	1045.81
462.456	1079.48
462.829	1082.42
463.201	1113.6
463.574	1118.35
463.947	1107.73
464.32	1154.5
464.692	1151.79
465.065	1177.78
465.438	1192.24
465.81	1206.03
466.183	1213.49
466.555	1246.25
466.928	1253.94
467.3	1275.86
467.672	1322.18
468.045	1299.13
468.417	1353.59
468.789	1340.71
469.161	1359.47
469.534	1387.49
469.906	1393.37
470.278	1418.9
470.65	1451.67
471.022	1463.87
471.394	1498.22
471.766	1546.13
472.138	1552.01
472.51	1594.27
472.882	1643.76
473.253	1665.45
473.625	1694.6
473.997	1747.71
474.369	1772.57
474.74	1810.31
475.112	1835.84
475.484	1889.17
475.855	1928.04
476.227	1975.05
476.598	2038.32
476.97	2083.97
477.341	2138.88
477.713	2184.31
478.084	2203.06
478.455	2280.8
478.827	2361.48
479.198	2440.12
479.569	2441.7
479.94	2561.25
480.311	2655.26
480.682	2669.04
481.053	2784.97
481.424	2833.33
481.795	2959.43
482.166	3006.43
482.537	3088.24
482.908	3183.6
483.279	3269.02
483.65	3386.99
484.021	3436.48
484.391	3528.9
484.762	3673.53
485.133	3688.45
485.503	3816.58
485.874	3967.31
486.244	4026.74
486.615	4176.57
486.985	4269.68
487.356	4379.28
487.726	4488.43
488.097	4677.8
488.467	4741.53
488.837	4927.74
489.207	5013.61
489.578	5131.12
489.948	5211.8
490.318	5379.25
490.688	5513.94
491.058	5689.75
491.428	5776.98
491.798	5909.41
492.168	6102.62
492.538	6175.61
492.908	6380.81
493.278	6483.63
493.648	6567.24
494.017	6773.56
494.387	6916.16
494.757	7041.35
495.126	7155.48
495.496	7263.04
495.866	7444.28
496.235	7590.27
496.605	7692.64
496.974	7725.86
497.344	8020.54
497.713	8069.35
498.082	8204.71
498.452	8428.66
498.821	8462.11
499.19	8578.49
499.559	8736
499.928	8940.29
500.298	8994.3
500.667	9181.19
501.036	9265.7
501.405	9430.67
501.774	9471.57
502.143	9605.13
502.512	9728.52
502.88	9860.04
503.249	9964.44
503.618	10086.25
503.987	10158.56
504.356	10306.13
504.724	10469.96
505.093	10558.78
505.462	10684.42
505.83	10784.98
506.199	10873.12
506.567	11083.96
506.936	11074.92
507.304	11258.42
507.672	11366.44
508.041	11411.18
508.409	11564.4
508.777	11718.52
509.145	11845.97
509.514	11853.88
509.882	12047.32
510.25	12017.27
510.618	12227.43
510.986	12238.96
511.354	12358.5
511.722	12544.94
512.09	12717.59
512.458	12638.72
512.826	12844.37
513.193	12883.01
513.561	12974.08
513.929	13127.75
514.297	13236.45
514.664	13395.31
515.032	13364.35
515.4	13509.88
515.767	13575.19
516.135	13648.86
516.502	13788.97
516.869	13895.19
517.237	13952.13
517.604	13918.01
517.972	14200.94
518.339	14192.58
518.706	14316.64
519.073	14326.36
519.44	14437.54
519.808	14597.77
520.175	14637.31
520.542	14819.91
520.909	14746.46
521.276	14904.88
521.643	15029.17
522.009	15141.25
522.376	15261.48
522.743	15288.14
523.11	15470.51
523.477	15557.51
523.843	15628.47
524.21	15795.02
524.577	15903.49
524.943	15895.13
525.31	16000.89
525.676	16105.52
526.043	16205.86
526.409	16317.27
526.776	16441.11
527.142	16485.17
527.508	16564.95
527.874	16639.52
528.241	16754.32
528.607	16696.92
528.973	16959.96
529.339	16894.88
529.705	17036.8
530.071	17132.84
530.437	17191.82
530.803	17237.47
531.169	17343.91
531.535	17308.43
531.901	17274.53
532.267	17332.38
532.632	17470.01
532.998	17522.21
533.364	17667.97
533.73	17538.03
534.095	17797.68
534.461	17787.06
534.826	17919.26
535.192	17871.58
535.557	18035.64
535.923	18015.76
536.288	18058.92
536.653	18156.77
537.019	17928.53
537.384	18042.42
537.749	18208.29
538.114	18225.24
538.479	18171.23
538.845	18246.71
539.21	18160.38
539.575	18197.9
539.94	18311.34
540.305	18416.87
540.67	18278.57
541.034	18351.11
541.399	18353.15
541.764	18390.21
542.129	18479.25
542.494	18453.48
542.858	18447.61
543.223	18493.71
543.587	18663.42
543.952	18434.05
544.316	18622.97
544.681	18561.28
545.045	18527.83
545.41	18716.53
545.774	18684.21
546.138	18638.79
546.503	18731.22
546.867	18636.76
547.231	18863.42
547.595	18821.16
547.959	18780.93
548.324	18704.78
548.688	18802.85
549.052	18820.25
549.416	18935.05
549.779	18907.03
550.143	18834.94
550.507	18917.88
550.871	18968.05
551.235	18898.44
551.599	19134.6
551.962	18973.92
552.326	19047.59
552.689	19092.34
553.053	19148.15
553.417	19103.64
553.78	19287.13
554.143	19151.77
554.507	19281.94
554.87	19263.63
555.234	19459.33
555.597	19254.14
555.96	19423.63
556.323	19373.91
556.686	19362.39
557.05	19567.8
557.413	19468.15
557.776	19620.46
558.139	19731.19
558.502	19713.34
558.865	19733.22
559.228	19828.81
559.59	19861.36
559.953	19891.86
560.316	19958.3
560.679	20004.63
561.041	20038.98
561.404	20059.09
561.767	20320.78
562.129	20177.05
562.492	20265.41
562.854	20288.24
563.217	20317.84
563.579	20224.74
563.941	20437.39
564.304	20479.87
564.666	20651.39
565.028	20609.59
565.39	20747.21
565.753	20658.4
566.115	20790.6
566.477	20869.69
566.839	20832.63
567.201	20959.86
567.563	21072.62
567.925	21163.24
568.287	21096.13
568.648	21173.64
569.01	21258.83
569.372	21347.64
569.734	21313.52
570.095	21340.19
570.457	21399.85
570.819	21518.49
571.18	21409.34
571.542	21668.54
571.903	21618.82
572.265	21732.49
572.626	21725.49
572.987	21777.46
573.349	21790.8
573.71	21850
574.071	21999.15
574.432	21959.61
574.794	22137.91
575.155	22026.27
575.516	22012.03
575.877	22052.03
576.238	22081.86
576.599	22042.54
576.96	22053.84
577.32	22220.62
577.681	22338.58
578.042	22261.97
578.403	22313.27
578.763	22259.03
579.124	22366.38
579.485	22369.31
579.845	22484.79
580.206	22373.61
580.566	22427.84
580.927	22408.41
581.287	22503.77
581.648	22457.45
582.008	22509.42
582.368	22513.04
582.728	22572.92
583.089	22622.64
583.449	22511.91
583.809	22514.17
584.169	22552.58
584.529	22546.03
584.889	22638.01
585.249	22484.34
585.609	22442.76
585.969	22611.11
586.329	22532.7
586.688	22611.79
587.048	22555.75
587.408	22506.03
587.768	22541.51
588.127	22536.31
588.487	22593.49
588.846	22628.06
589.206	22430.55
589.565	22436.2
589.925	22561.4
590.284	22522.53
590.643	22610.21
591.003	22682.53
591.362	22579.93
591.721	22606.82
592.08	22577.44
592.44	22640.94
592.799	22647.95
593.158	22576.54
593.517	22519.82
593.876	22653.15
594.235	22529.99
594.593	22612.24
594.952	22622.41
595.311	22547.16
595.67	22574.51
596.029	22722.98
596.387	22769.75
596.746	22735.41
597.104	22651.57
597.463	22594.62
597.822	22750.32
598.18	22590.78
598.538	22660.6
598.897	22638.91
599.255	22536.31
599.613	22833.93
599.972	22735.86
600.33	22867.6
600.688	22710.32
601.046	22781.28
601.404	22871.67
601.762	22798.23
602.12	22942.18
602.478	22883.2
602.836	22941.28
603.194	22813.37
603.552	22814.05
603.91	22809.08
604.268	22956.87
604.625	22840.94
604.983	22943.54
605.341	22876.87
605.698	22989.64
606.056	23007.04
606.413	22994.61
606.771	22957.32
607.128	23080.25
607.485	23019.69
607.843	23000.26
608.2	23143.76
608.557	23122.74
608.914	23077.54
609.272	23160.48
609.629	23278.22
609.986	23288.84
610.343	23170.65
610.7	23388.5
611.057	23381.94
611.414	23256.75
611.771	23273.24
612.127	23401.6
612.484	23398.44
612.841	23463.97
613.198	23348.95
613.554	23465.56
613.911	23616.29
614.267	23504.2
614.624	23555.72
614.98	23603.86
615.337	23711.65
615.693	23652.67
616.05	23679.11
616.406	23823.51
616.762	23755.27
617.118	23680.24
617.475	23805.89
617.831	23868.93
618.187	23921.36
618.543	23844.75
618.899	24058.53
619.255	23877.07
619.611	23939.67
619.967	23974.24
620.323	24055.6
620.678	23895.83
621.034	23991.42
621.39	24089.04
621.746	24000.68
622.101	24271.64
622.457	24056.95
622.812	24180.79
623.168	24148.93
623.523	24071.42
623.879	24155.93
624.234	24059.66
624.589	24218.53
624.945	24185.76
625.3	24125.88
625.655	24197.51
626.01	24150.96
626.365	24153.45
626.72	24222.37
627.075	24179.21
627.43	24193.22
627.785	24123.84
628.14	24171.98
628.495	24163.84
628.85	24126.78
629.205	24066.67
629.559	24270.96
629.914	24168.81
630.269	24196.84
630.623	24037.52
630.978	23992.77
631.332	24223.5
631.687	24222.15
632.041	24034.35
632.396	24226.44
632.75	24006.11
633.104	24021.25
633.459	23937.63
633.813	23854.7
634.167	23881.36
634.521	23856.96
634.875	24067.35
635.229	23847.47
635.583	23870.06
635.937	23865.09
636.291	23705.1
636.645	23775.83
636.999	23802.72
637.352	23836.62
637.706	23712.78
638.06	23752.55
638.413	23664.65
638.767	23730.63
639.121	23724.08
639.474	23570.19
639.828	23537.42
640.181	23562.05
640.534	23582.61
640.888	23428.04
641.241	23409.06
641.594	23480.02
641.947	23635.72
642.301	23549.85
642.654	23489.28
643.007	23577.19
643.36	23390.53
643.713	23457.19
644.066	23594.37
644.419	23393.47
644.771	23315.05
645.124	23190.31
645.477	23065.79
645.83	22930.43
646.182	22752.13
646.535	22733.15
646.888	22878.9
647.24	22624.45
647.593	22793.71
647.945	22602.98
648.298	22702.41
648.65	22579.25
649.002	22492.7
649.355	22614.5
649.707	22518.91
650.059	22748.96
650.411	23023.31
650.763	22920.26
651.115	23242.96
651.467	23159.12
651.819	23091.78
652.171	23092.91
652.523	23059.92
652.875	23103.53
653.227	23020.82
653.578	23147.37
653.93	23091.55
654.282	22902.41
654.633	22992.35
654.985	23020.6
655.337	23025.79
655.688	23126.36
656.039	23242.51
656.391	22888.62
656.742	23031.22
657.094	22936.08
657.445	23040.03
657.796	22964.33
658.147	22921.16
658.498	23008.62
658.849	23126.58
659.2	22980.37
659.551	22894.5
659.902	22992.35
660.253	22961.39
660.604	23046.13
660.955	22917.55
661.306	22928.39
661.656	22946.02
662.007	22975.17
662.358	22987.38
662.708	22958.9
663.059	22939.02
663.409	22842.97
663.76	23028.05
664.11	22961.39
664.461	22854.27
664.811	22969.75
665.161	23028.05
665.511	22917.32
665.862	22996.42
666.212	23030.09
666.562	23023.99
666.912	22993.25
667.262	22968.17
667.612	22969.75
667.962	22991.44
668.312	22936.08
668.662	22985.79
669.011	22851.79
669.361	22806.36
669.711	22834.84
670.06	22944.67
670.41	22853.82
670.76	22797.1
671.109	22857.89
671.459	22764.1
671.808	22958.68
672.157	22845.91
672.507	22754.16
672.856	22707.84
673.205	22792.8
673.554	22794.39
673.904	22764.33
674.253	22782.64
674.602	22828.28
674.951	22406.6
675.3	22314.4
675.649	22744.67
675.998	22652.02
676.346	22778.34
676.695	22845.91
677.044	22640.72
677.393	22668.74
677.741	22654.05
678.09	22606.37
678.438	22485.92
678.787	22540.83
679.135	22532.47
679.484	22344.91
679.832	22482.76
680.181	22372.25
680.529	22496.09
680.877	22375.64
681.225	22278.69
681.573	22446.37
681.922	22251.8
682.27	22276.43
682.618	22297.9
682.966	22177.91
683.314	22130
683.661	22099.26
684.009	21996.44
684.357	21914.86
684.705	21899.49
685.053	21933.62
685.4	21751.93
685.748	21798.71
686.095	21801.19
686.443	21700.86
686.79	21729.33
687.138	21746.73
687.485	21679.16
687.832	21525.95
688.18	21610.91
688.527	21450.24
688.874	21410.92
689.221	21450.69
689.568	21370.7
689.915	21320.53
690.262	21267.42
690.609	21242.56
690.956	21149.23
691.303	21037.37
691.65	20922.57
691.997	21027.2
692.344	20864.95
692.69	20904.72
693.037	20894.1
693.383	20626.76
693.73	20825.17
694.077	20561.68
694.423	20650.94
694.769	20558.29
695.116	20463.6
695.462	20467.22
695.808	20358.52
696.155	20319.65
696.501	20244.17
696.847	20223.38
697.193	20154.91
697.539	20190.61
697.885	20007.79
698.231	19916.04
698.577	19919.89
698.923	19810.96
699.269	19780.68
699.614	19644.19
699.96	19720.8
700.306	19679.21
700.651	19546.79
700.997	19394.25
701.342	19432.67
701.688	19404.42
702.033	19295.5
702.379	19304.08
702.724	19235.16
703.069	19309.05
703.415	18979.35
703.76	19030.19
704.105	18991.77
704.45	18901.16
704.795	18800.14
705.14	18759.01
705.485	18692.8
705.83	18649.18
706.175	18653.93
706.52	18538
706.865	18546.59
707.209	18434.73
707.554	18448.06
707.899	18492.8
708.243	18429.98
708.588	18323.77
708.932	18145.7
709.277	18149.99
709.621	18198.58
709.966	18036.32
710.31	18075.64
710.654	17974.17
710.998	17939.6
711.342	17972.59
711.687	17921.75
712.031	17844.46
712.375	17782.54
712.719	17896.89
713.063	17736.44
713.407	17764.46
713.75	17683.33
714.094	17700.96
714.438	17611.7
714.782	17625.71
715.125	17497.35
715.469	17571.47
715.812	17411.7
716.156	17286.28
716.499	17320.18
716.843	17404.02
717.186	17268.2
717.53	17331.03
717.873	17280.63
718.216	17221.88
718.559	17291.25
718.902	17026.4
719.246	17106.85
719.589	17119.73
719.932	17005.39
720.275	16979.85
720.617	16976.23
720.96	16980.75
721.303	16997.7
721.646	16932.17
721.989	16969.45
722.331	16956.57
722.674	16940.3
723.016	16870.47
723.359	16894.65
723.701	16927.87
724.044	16750.7
724.386	16669.35
724.729	16804.04
725.071	16761.55
725.413	16716.35
725.755	16693.53
726.097	16669.8
726.439	16535.79
726.782	16547.55
727.124	16663.25
727.465	16529.47
727.807	16526.53
728.149	16576.02
728.491	16577.37
728.833	16571.05
729.175	16427.32
729.516	16388.68
729.858	16445.63
730.199	16470.49
730.541	16385.52
730.882	16364.27
731.224	16405.63
731.565	16443.37
731.906	16379.41
732.248	16407.66
732.589	16321.79
732.93	16251.28
733.271	16269.13
733.612	16315.01
733.953	16355.91
734.294	16247.21
734.635	16235.69
734.976	16279.3
735.317	16169.7
735.658	16148.23
735.999	16274.78
736.339	16096.48
736.68	16291.96
737.021	16228.46
737.361	16070.72
737.702	16245.63
738.042	16168.12
738.383	16111.17
738.723	16213.09
739.063	16079.53
739.404	16231.17
739.744	16162.92
740.084	16185.75
740.424	16151.17
740.764	16077.05
741.104	16206.09
741.444	16091.06
741.784	15992.08
742.124	16194.11
742.464	16122.7
742.804	16039.54
743.143	16161.11
743.483	16117.05
743.823	16074.11
744.162	16151.4
744.502	16147.1
744.841	16191.17
745.181	16213.99
745.52	16293.09
745.86	16218.51
746.199	16230.04
746.538	16280.21
746.877	16379.41
747.216	16382.8
747.556	16376.48
747.895	16372.86
748.234	16384.61
748.573	16394.1
748.911	16501.67
749.25	16464.61
749.589	16470.26
749.928	16570.82
750.267	16619.63
750.605	16611.95
750.944	16622.12
751.283	16706.64
751.621	16845.84
751.96	16721.1
752.298	16824.37
752.636	16839.06
752.975	16911.15
753.313	16952.05
753.651	17108.89
753.989	16967.87
754.327	17134.87
754.666	17074.31
755.004	17178.71
755.342	17306.4
755.679	17434.53
756.017	17325.15
756.355	17474.3
756.693	17511.36
757.031	17664.8
757.368	17678.59
757.706	17705.25
758.044	17780.51
758.381	17825.25
758.719	17925.14
759.056	17969.88
759.394	17977.79
759.731	18043.55
760.068	18144.11
760.405	18118.13
760.743	18288.52
761.08	18380.94
761.417	18302.08
761.754	18283.09
762.091	18399.7
762.428	18476.53
762.765	18455.74
763.102	18557.66
763.438	18524.22
763.775	18634.72
764.112	18646.7
764.449	18730.99
764.785	18725.79
765.122	18737.54
765.458	18645.34
765.795	18736.41
766.131	18757.66
766.467	18743.42
766.804	18737.77
767.14	18745.68
767.476	18800.14
767.812	18849.86
768.148	18839.69
768.485	18908.84
768.821	18770.09
769.157	18854.15
769.492	18769.86
769.828	18879.46
770.164	18717.21
770.5	18799.24
770.836	18827.26
771.171	18809.86
771.507	18801.72
771.842	18704.78
772.178	18770.31
772.513	18675.17
772.849	18683.99
773.184	18669.52
773.519	18740.48
773.855	18619.58
774.19	18463.65
774.525	18582.29
774.86	18575.51
775.195	18600.15
775.53	18417.1
775.865	18374.84
776.2	18366.25
776.535	18244.9
776.87	18331.9
777.205	18227.73
777.539	18156.32
777.874	18238.12
778.209	18196.32
778.543	18087.62
778.878	17989.77
779.212	18017.11
779.547	17889.43
779.881	17905.02
780.215	17900.5
780.55	17929.43
780.884	17778.25
781.218	17863.22
781.552	17738.47
781.886	17707.06
782.22	17730.79
782.554	17693.05
782.888	17427.97
783.222	17434.98
783.556	17316.79
783.889	17382.1
784.223	17317.47
784.557	17238.6
784.89	17239.73
785.224	17197.92
785.557	17145.04
785.891	17069.79
786.224	17068.21
786.558	17003.13
786.891	16792.06
787.224	16778.5
787.557	16907.99
787.891	16828.22
788.224	16771.72
788.557	16759.52
788.89	16712.51
789.223	16681.33
789.556	16523.82
789.888	16500.99
790.221	16458.96
790.554	16265.97
790.887	16249.7
791.219	16277.27
791.552	16259.42
791.884	16240.89
792.217	16089.03
792.549	16172.87
792.882	16033.43
793.214	15869.37
793.546	15959.31
793.879	15865.76
794.211	15841.57
794.543	15811.07
794.875	15782.37
795.207	15751.41
795.539	15575.14
795.871	15641.81
796.203	15603.62
796.535	15501.02
796.867	15351.19
797.198	15334.7
797.53	15404.75
797.862	15317.75
798.193	15252.89
798.525	15174.25
798.856	15237.3
799.188	15082.72
799.519	15024.42
799.85	15010.86
800.182	15066.68
800.513	14968.15
800.844	14881.15
801.175	14941.49
801.506	14823.75
801.837	14853.35
802.168	14681.83
802.499	14733.36
802.83	14562.74
803.161	14582.17
803.491	14565.9
803.822	14625.11
804.153	14482.74
804.483	14363.87
804.814	14329.52
805.145	14327.72
805.475	14317.77
805.805	14270.32
806.136	14263.99
806.466	14271.45
806.796	14252.01
807.126	14154.16
807.457	14107.38
807.787	14051.79
808.117	14025.8
808.447	13972.02
808.777	14004.34
809.107	13998.01
809.436	13846.15
809.766	13911.91
810.096	13854.96
810.426	13791.46
810.755	13770.22
811.085	13685.02
811.414	13696.32
811.744	13575.19
812.073	13611.35
812.403	13628.07
812.732	13526.83
813.061	13475.76
813.39	13431.92
813.719	13414.52
814.049	13479.6
814.378	13388.53
814.707	13321.19
815.036	13280.96
815.365	13246.61
815.693	13165.94
816.022	13246.61
816.351	13137.01
816.68	12979.73
817.008	13073.29
817.337	12887.08
817.665	12937.02
817.994	12980.63
818.322	12847.98
818.651	12915.1
818.979	12867.19
819.307	12917.58
819.636	12860.18
819.964	12750.36
820.292	12856.57
820.62	12893.18
820.948	12732.5
821.276	12762.79
821.604	12700.19
821.932	12799.85
822.259	12814.76
822.587	12694.31
822.915	12714.43
823.243	12748.1
823.57	12705.39
823.898	12737.7
824.225	12648.89
824.553	12666.29
824.88	12691.83
825.207	12737.25
825.535	12667.87
825.862	12769.11
826.189	12694.31
826.516	12734.09
826.843	12767.31
827.17	12756.91
827.497	12724.59
827.824	12752.16
828.151	12727.53
828.478	12680.98
828.805	12710.58
829.131	12670.36
829.458	12692.05
829.785	12594.43
830.111	12599.4
830.438	12669.68
830.764	12759.17
831.09	12681.88
831.417	12651.15
831.743	12609.12
832.069	12634.43
832.395	12638.04
832.722	12638.04
833.048	12614.32
833.374	12622.45
833.7	12588.78
834.026	12553.75
834.351	12568.89
834.677	12561.44
835.003	12536.8
835.329	12534.77
835.654	12549.91
835.98	12401.89
836.306	12513.75
836.631	12464.94
836.956	12498.61
837.282	12460.65
837.607	12412.51
837.932	12417.94
838.258	12437.82
838.583	12396.92
838.908	12274.44
839.233	12357.6
839.558	12275.34
839.883	12278.05
840.208	12203.25
840.533	12166.64
840.858	12079.19
841.182	12179.52
841.507	12177.94
841.832	12116.48
842.156	12083.48
842.481	12122.35
842.805	12091.17
843.13	11937.95
843.454	11929.36
843.778	12000.09
844.103	11855.01
844.427	11852.98
844.751	11893.88
845.075	11861.57
845.399	11805.07
845.723	11727.33
846.047	11744.51
846.371	11730.04
846.695	11681.01
847.019	11572.53
847.343	11471.52
847.666	11546.55
847.99	11410.28
848.313	11437.17
848.637	11405.76
848.96	11349.49
849.284	11363.05
849.607	11239.44
849.931	11232.2
850.254	11117.86
850.577	11070.85
850.9	10978.43
851.223	11006
851.546	10968.71
851.869	10916.73
852.192	10953.12
852.515	10765.78
852.838	10802.16
853.161	10775.72
853.483	10679
853.806	10627.25
854.129	10651.65
854.451	10652.78
854.774	10578.44
855.096	10585.44
855.419	10485.11
855.741	10473.58
856.063	10364.2
856.385	10390.64
856.708	10406.92
857.03	10307.71
857.352	10334.38
857.674	10259.12
857.996	10259.35
858.318	10199.24
858.64	10213.47
858.961	10150.43
859.283	10064.33
859.605	10024.55
859.926	10059.13
860.248	10017.55
860.57	10027.72
860.891	10007.38
861.212	9953.82
861.534	9955.4
861.855	9865.01
862.176	9891
862.498	9934.16
862.819	9917.89
863.14	9851.22
863.461	9783.2
863.782	9809.19
864.103	9775.97
864.424	9810.1
864.745	9766.93
865.065	9686.93
865.386	9752.92
865.707	9638.12
866.027	9733.04
866.348	9636.99
866.668	9720.38
866.989	9656.65
867.309	9592.7
867.63	9544.11
867.95	9556.09
868.27	9526.49
868.59	9538.69
868.91	9509.76
869.23	9481.29
869.55	9434.74
869.87	9459.6
870.19	9507.05
870.51	9507.96
870.83	9433.61
871.15	9392.93
871.469	9361.29
871.789	9451.69
872.109	9397.22
872.428	9289.43
872.748	9358.36
873.067	9320.39
873.386	9355.87
873.706	9334.4
874.025	9281.52
874.344	9224.57
874.663	9239.94
874.982	9217.57
875.301	9186.38
875.62	9187.96
875.939	9167.85
876.258	9120.17
876.577	9165.37
876.896	9198.81
877.214	9075.43
877.533	9098.48
877.852	9093.28
878.17	9138.02
878.489	9119.04
878.807	9055.09
879.125	9037.69
879.444	9063.22
879.762	9019.16
880.08	9016.67
880.398	8977.35
880.716	8947.52
881.034	8896.45
881.352	8939.16
881.67	8925.37
881.988	8952.72
882.306	8879.5
882.624	8842.21
882.941	8786.62
883.259	8764.25
883.577	8763.57
883.894	8790.46
884.212	8789.33
884.529	8686.73
884.846	8706.4
885.164	8696.9
885.481	8694.19
885.798	8672.5
886.115	8579.62
886.432	8636.79
886.75	8584.82
887.067	8550.02
887.383	8530.81
887.7	8498.94
888.017	8465.27
888.334	8536
888.651	8425.95
888.967	8435.67
889.284	8380.75
889.6	8409.68
889.917	8358.38
890.233	8309.8
890.55	8241.55
890.866	8259.4
891.182	8299.63
891.498	8269.12
891.815	8210.82
892.131	8178.05
892.447	8113.87
892.763	8113.19
893.079	8089.91
893.395	8070.25
893.71	8082.91
894.026	8089.46
894.342	8008.56
894.657	7947.32
894.973	8025.74
895.289	7984.15
895.604	7895.12
895.92	7893.76
896.235	7783.03
896.55	7891.73
896.865	7811.73
897.181	7795.91
897.496	7781
897.811	7745.29
898.126	7643.37
898.441	7679.76
898.756	7682.24
899.071	7628.68
899.386	7597.27
899.7	7547.78
900.015	7525.64
900.33	7574.67
900.644	7522.02
900.959	7512.08
901.273	7416.49
901.588	7414.45
901.902	7371.52
902.216	7343.95
902.531	7325.19
902.845	7288.81
903.159	7293.33
903.473	7277.28
903.787	7219.43
904.101	7212.65
904.415	7183.5
904.729	7129.71
905.042	7052.2
905.356	7103.95
905.67	7038.19
905.984	7051.75
906.297	7022.82
906.611	6940.11
906.924	6976.5
907.237	6938.98
907.551	6891.98
907.864	6889.27
908.177	6852.66
908.491	6889.72
908.804	6778.99
909.117	6795.03
909.43	6738.54
909.743	6734.24
910.056	6729.27
910.368	6681.82
910.681	6691.08
910.994	6603.4
911.307	6562.72
911.619	6545.55
911.932	6508.71
912.244	6499.67
912.557	6469.17
912.869	6440.92
913.181	6411.77
913.494	6433.23
913.806	6335.84
914.118	6321.37
914.43	6317.31
914.742	6317.08
915.054	6219
915.366	6317.53
915.678	6238.89
915.99	6216.97
916.302	6190.76
916.613	6109.63
916.925	6137.42
917.236	6120.25
917.548	6098.1
917.859	6019.01
918.171	6054.26
918.482	5993.47
918.794	5948.5
919.105	6007.26
919.416	5883.19
919.727	5940.59
920.038	5888.84
920.349	5820.14
920.66	5864.89
920.971	5822.63
921.282	5775.4
921.593	5764.1
921.903	5746.47
922.214	5684.1
922.525	5692.46
922.835	5638.45
923.146	5637.55
923.456	5615.63
923.767	5621.05
924.077	5576.76
924.387	5577.89
924.697	5549.64
925.008	5516.2
925.318	5457.67
925.628	5507.61
925.938	5428.97
926.248	5411.79
926.558	5393.04
926.867	5368.86
927.177	5326.15
927.487	5302.19
927.796	5256.09
928.106	5254.96
928.416	5253.6
928.725	5271.91
929.034	5192.14
929.344	5204.11
929.653	5193.95
929.962	5146.49
930.271	5160.95
930.581	5096.55
930.89	5065.36
931.199	5043.21
931.508	5068.75
931.817	5064.23
932.125	4953.5
932.434	4983.33
932.743	4952.6
933.051	4903.11
933.36	4925.7
933.669	4873.5
933.977	4883.67
934.286	4884.35
934.594	4826.72
934.902	4768.42
935.21	4789.66
935.519	4776.78
935.827	4746.05
936.135	4726.84
936.443	4687.97
936.751	4688.2
937.059	4636.45
937.367	4660.4
937.674	4578.14
937.982	4635.99
938.29	4602.1
938.597	4612.04
938.905	4511.25
939.213	4501.08
939.52	4513.74
939.827	4495.43
940.135	4499.95
940.442	4456.79
940.749	4416.56
941.056	4394.64
941.363	4390.12
941.67	4412.05
941.977	4354.42
942.284	4327.75
942.591	4338.15
942.898	4295.44
943.205	4278.49
943.511	4257.92
943.818	4252.5
944.125	4262.44
944.431	4228.77
944.738	4176.12
945.044	4179.73
945.35	4169.79
945.657	4146.29
945.963	4199.85
946.269	4124.82
946.575	4120.98
946.881	4116.69
947.187	4114.2
947.493	4084.6
947.799	4029.23
948.105	3994.2
948.41	3976.8
948.716	3985.84
949.022	3945.62
949.327	3972.96
949.633	3943.13
949.938	3949.68
950.244	3931.83
950.549	3847.54
950.854	3878.95
951.16	3843.7
951.465	3811.83
951.77	3771.61
952.075	3792.63
952.38	3782.91
952.685	3788.56
952.99	3736.13
953.294	3709.69
953.599	3679.86
953.904	3737.94
954.209	3658.84
954.513	3693.19
954.818	3635.79
955.122	3633.99
955.426	3575
955.731	3602.8
956.035	3568.45
956.339	3602.35
956.643	3553.31
956.948	3537.49
957.252	3478.51
957.556	3492.97
957.86	3478.74
958.163	3523.93
958.467	3472.63
958.771	3470.15
959.075	3471.05
959.378	3402.58
959.682	3432.64
959.985	3374.33
960.289	3378.17
960.592	3334.56
960.896	3347.44
961.199	3367.78
961.502	3339.98
961.805	3313.32
962.108	3293.2
962.411	3321
962.714	3245.97
963.017	3256.6
963.32	3248.46
963.623	3222.7
963.926	3242.81
964.228	3181.57
964.531	3175.02
964.833	3182.02
965.136	3184.05
965.438	3100.89
965.741	3105.41
966.043	3124.4
966.345	3111.29
966.648	3099.99
966.95	3059.31
967.252	3085.07
967.554	3010.27
967.856	3055.7
968.158	3002.82
968.46	3026.54
968.761	2949.48
969.063	3024.51
969.365	2963.04
969.666	2959.43
969.968	2893.67
970.269	2917.17
970.571	2929.82
970.872	2913.78
971.174	2884.18
971.475	2922.14
971.776	2834.46
972.077	2847.34
972.378	2810.05
972.679	2807.12
972.98	2824.29
973.281	2814.8
973.582	2780.9
973.883	2800.34
974.183	2779.32
974.484	2747
974.785	2771.41
975.085	2759.21
975.386	2715.37
975.686	2708.59
975.986	2696.61
976.287	2695.03
976.587	2663.62
976.887	2657.74
977.187	2666.33
977.487	2640.11
977.787	2629.49
978.087	2612.77
978.387	2638.76
978.687	2622.49
978.987	2590.62
979.286	2546.56
979.586	2579.32
979.885	2541.59
980.185	2522.38
980.484	2512.89
980.784	2517.63
981.083	2511.98
981.382	2503.39
981.682	2488.71
981.981	2519.67
982.28	2476.28
982.579	2466.11
982.878	2462.72
983.177	2421.36
983.475	2430.18
983.774	2394.7
984.073	2413
984.372	2373
984.67	2389.27
984.969	2385.88
985.267	2374.36
985.566	2391.76
985.864	2368.26
986.162	2347.24
986.461	2338.65
986.759	2348.14
987.057	2286.45
987.355	2329.84
987.653	2280.58
987.951	2266.56
988.249	2295.04
988.547	2254.81
988.844	2220.46
989.142	2210.52
989.44	2226.79
989.737	2208.04
990.035	2233.35
990.332	2182.73
990.63	2197.64
990.927	2220.69
991.224	2176.17
991.521	2152.22
991.819	2148.15
992.116	2121.71
992.413	2125.1
992.71	2109.73
993.006	2106.79
993.303	2104.54
993.6	2076.06
993.897	2082.84
994.193	2092.78
994.49	2053.69
994.787	2057.76
995.083	2092.11
995.379	2060.02
995.676	2016.18
995.972	1986.8
996.268	2008.27
996.565	2012.79
996.861	1960.81
997.157	2003.52
997.453	1971.88
997.749	1974.37
998.044	1945.9
998.34	1935.95
998.636	1914.26
998.932	1916.74
999.227	1892.34
999.523	1886.46
999.818	1901.15
1000.114	1873.13
1000.409	1878.33
1000.704	1833.13
1001	1838.33
1001.295	1846.01
1001.59	1792.68
1001.885	1818.21
1002.18	1824.54
1002.475	1798.33
1002.77	1794.49
1003.065	1778.22
1003.359	1783.19
1003.654	1756.07
1003.949	1749.74
1004.243	1763.08
1004.538	1733.47
1004.832	1739.35
1005.127	1721.04
1005.421	1700.93
1005.715	1685.56
1006.009	1700.93
1006.304	1686.47
1006.598	1652.12
1006.892	1649.18
1007.186	1648.5
1007.48	1632.46
1007.773	1636.3
1008.067	1662.06
1008.361	1603.31
1008.655	1623.64
1008.948	1564.44
1009.242	1588.84
1009.535	1569.86
1009.829	1551.33
1010.122	1575.96
1010.415	1571.89
1010.708	1555.4
1011.001	1579.13
1011.295	1500.94
1011.588	1521.27
1011.881	1484.66
1012.173	1476.08
1012.466	1486.7
1012.759	1490.09
1013.052	1459.81
1013.344	1460.48
1013.637	1477.88
1013.93	1470.88
1014.222	1471.33
1014.514	1414.16
1014.807	1418.9
1015.099	1422.29
1015.391	1439.47
1015.683	1409.19
1015.976	1391.56
1016.268	1417.77
1016.56	1358.79
1016.851	1377.77
1017.143	1364.89
1017.435	1306.14
1017.727	1348.62
1018.018	1336.65
1018.31	1326.93
1018.602	1328.74
1018.893	1313.14
1019.185	1334.16
1019.476	1305.23
1019.767	1279.92
1020.058	1286.25
1020.35	1270.66
1020.641	1278.57
1020.932	1255.52
1021.223	1275.86
1021.514	1237.67
1021.804	1236.99
1022.095	1237.21
1022.386	1231.56
1022.677	1222.98
1022.967	1209.64
1023.258	1178.46
1023.548	1176.88
1023.839	1206.03
1024.129	1178.91
1024.419	1163.99
1024.709	1180.49
1025	1135.3
1025.29	1187.72
1025.58	1138.91
1025.87	1151.57
1026.16	1126.03
1026.449	1141.62
1026.739	1136.88
1027.029	1094.17
1027.319	1105.47
1027.608	1097.1
1027.898	1095.75
1028.187	1063.88
1028.477	1067.73
1028.766	1057.78
1029.055	1062.53
1029.344	1057.1
1029.634	1035.18
1029.923	1035.86
1030.212	1013.72
1030.501	1030.89
1030.79	1003.1
1031.078	1027.95
1031.367	1016.2
1031.656	999.48
1031.945	982.98
1032.233	988.86
1032.522	967.84
1032.81	964.9
1033.099	979.59
1033.387	955.19
1033.675	954.06
1033.963	945.92
1034.251	960.61
1034.54	935.53
1034.828	934.17
1035.116	923.78
1035.403	926.03
1035.691	923.55
1035.979	918.35
1036.267	910.22
1036.554	901.63
1036.842	898.69
1037.129	876.09
1037.417	889.2
1037.704	889.2
1037.992	887.17
1038.279	861.18
1038.566	847.62
1038.853	847.62
1039.14	847.62
