Data from hue_220_FLMS001491_00023.txt Node
Date: Tue Feb 07 16:39:11 GMT 2017
User: dcchb
Spectrometer: FLMS00149
Trigger mode: 0
Integration Time (sec): 2.000000E-2
Scans to average: 10
Electric dark correction enabled: true
Nonlinearity correction enabled: false
Boxcar width: 0
XAxis mode: Wavelengths
Number of Pixels in Spectrum: 2048
>>>>>Begin Spectral Data<<<<<
341.393	-14
341.776	-14
342.16	-14
342.543	-44.5
342.927	-61.91
343.31	-68.68
343.693	-69.36
344.077	-66.2
344.46	-58.74
344.843	-69.36
345.226	-39.98
345.61	-23.04
345.993	-14.45
346.376	-11.96
346.759	6.34
347.142	24.42
347.525	40.47
347.908	61.03
348.291	91.76
348.674	97.41
349.057	100.35
349.44	121.14
349.823	144.19
350.206	161.59
350.588	201.82
350.971	214.92
351.354	211.08
351.737	228.71
352.119	240.01
352.502	252.44
352.884	267.13
353.267	269.39
353.65	284.75
354.032	292.89
354.414	287.69
354.797	310.51
355.179	298.76
355.562	316.39
355.944	328.59
356.326	338.08
356.709	342.15
357.091	327.69
357.473	325.88
357.855	340.34
358.238	335.6
358.62	341.47
359.002	323.4
359.384	332.89
359.766	313
360.148	326.11
360.53	351.42
360.912	338.76
361.294	336.28
361.676	345.32
362.057	332.89
362.439	338.54
362.821	321.59
363.203	320.46
363.584	332.66
363.966	329.72
364.348	341.25
364.729	317.29
365.111	327.24
365.493	311.42
365.874	328.14
366.256	320.46
366.637	318.88
367.019	317.52
367.4	322.94
367.781	310.97
368.163	301.02
368.544	314.13
368.925	296.96
369.306	324.98
369.688	305.32
370.069	297.63
370.45	314.13
370.831	305.09
371.212	321.59
371.593	346.9
371.974	327.69
372.355	312.32
372.736	304.64
373.117	325.43
373.498	306.22
373.879	333.56
374.26	327.69
374.641	318.2
375.021	310.74
375.402	308.48
375.783	321.59
376.163	335.6
376.544	313.9
376.925	315.71
377.305	318.65
377.686	300.57
378.066	323.4
378.447	335.6
378.827	319.55
379.208	347.8
379.588	335.37
379.968	334.69
380.349	341.25
380.729	316.16
381.109	328.82
381.489	329.95
381.87	329.27
382.25	343.06
382.63	324.07
383.01	346.9
383.39	358.2
383.77	333.34
384.15	346.45
384.53	339.89
384.91	322.72
385.29	331.76
385.67	362.72
386.049	351.87
386.429	341.25
386.809	344.64
387.189	332.21
387.568	349.84
387.948	352.32
388.328	354.13
388.707	340.57
389.087	339.67
389.466	358.87
389.846	354.36
390.225	366.56
390.605	335.6
390.984	338.99
391.363	334.92
391.743	372.21
392.122	370.85
392.501	352.1
392.881	369.95
393.26	372.66
393.639	373.11
394.018	372.21
394.397	352.32
394.776	369.72
395.155	368.82
395.534	363.17
395.913	366.56
396.292	386.9
396.671	372.66
397.05	380.8
397.429	375.15
397.808	393
398.186	371.3
398.565	387.12
398.944	381.7
399.323	396.39
399.701	382.38
400.08	418.99
400.458	408.36
400.837	396.84
401.215	417.18
401.594	410.85
401.972	403.39
402.351	408.14
402.729	399.1
403.107	409.27
403.486	404.3
403.864	446.56
404.242	449.27
404.62	416.73
404.999	439.32
405.377	430.96
405.755	446.1
406.133	438.87
406.511	420.79
406.889	435.03
407.267	479.55
407.645	459.89
408.023	473
408.401	487.01
408.779	494.69
409.156	484.97
409.534	470.06
409.912	506.44
410.29	524.07
410.667	504.41
411.045	506.22
411.422	512.54
411.8	520
412.178	541.92
412.555	524.97
412.933	537.18
413.31	557.74
413.687	551.19
414.065	536.5
414.442	563.62
414.819	591.41
415.197	560.23
415.574	601.58
415.951	620.34
416.328	603.84
416.705	602.26
417.082	645.87
417.46	633.44
417.837	618.98
418.214	654.01
418.591	658.75
418.967	668.92
419.344	665.08
419.721	679.09
420.098	687.68
420.475	701.01
420.852	728.36
421.228	717.28
421.605	731.75
421.982	754.8
422.358	756.83
422.735	769.26
423.111	773.33
423.488	792.99
423.864	806.77
424.241	827.11
424.617	830.05
424.994	839.99
425.37	849.48
425.746	860.78
426.123	869.14
426.499	896.71
426.875	902.59
427.251	922.7
427.627	932.64
428.003	937.39
428.379	920.44
428.756	947.11
429.132	974.9
429.507	982.36
429.883	970.84
430.259	998.63
430.635	974.23
431.011	990.27
431.387	1054.45
431.763	1060.78
432.138	1063.04
432.514	1069.82
432.89	1075.69
433.265	1133.32
433.641	1142.81
434.016	1139.42
434.392	1179.42
434.767	1188.46
435.143	1190.72
435.518	1225.97
435.894	1251.73
436.269	1269.13
436.644	1285.4
437.02	1315.23
437.395	1315.69
437.77	1336.93
438.145	1358.85
438.52	1404.95
438.895	1395.68
439.271	1442.24
439.646	1460.09
440.021	1474.1
440.395	1508.22
440.77	1472.97
441.145	1548
441.52	1547.32
441.895	1551.84
442.27	1583.25
442.645	1573.76
443.019	1600.88
443.394	1606.53
443.769	1623.47
444.143	1616.24
444.518	1649.46
444.892	1668.9
445.267	1702.34
445.641	1685.85
446.016	1718.39
446.39	1736.24
446.764	1715.9
447.139	1761.32
447.513	1775.56
447.887	1776.24
448.262	1780.98
448.636	1802.9
449.01	1795
449.384	1820.31
449.758	1802.68
450.132	1843.36
450.506	1874.32
450.88	1894.43
451.254	1890.81
451.628	1923.35
452.002	1919.51
452.376	1928.55
452.75	1951.15
453.123	1995.67
453.497	2011.49
453.871	2012.84
454.244	2036.8
454.618	2103.01
454.992	2076.57
455.365	2055.1
455.739	2107.53
456.112	2137.13
456.486	2150.24
456.859	2190.47
457.232	2214.87
457.606	2217.81
457.979	2258.71
458.352	2267.53
458.725	2280.41
459.099	2324.92
459.472	2391.82
459.845	2386.62
460.218	2399.27
460.591	2429.55
460.964	2422.78
461.337	2494.64
461.71	2488.76
462.083	2543.9
462.456	2532.38
462.829	2548.87
463.201	2581.64
463.574	2588.19
463.947	2640.4
464.32	2690.11
464.692	2659.15
465.065	2724.24
465.438	2767.85
465.81	2767.17
466.183	2827.06
466.555	2861.63
466.928	2895.53
467.3	2861.63
467.672	2919.26
468.045	2953.61
468.417	2952.03
468.789	3011.69
469.161	3031.35
469.534	3053.49
469.906	3142.53
470.278	3171
470.65	3169.87
471.022	3215.75
471.394	3260.72
471.766	3300.94
472.138	3364.22
472.51	3423.2
472.882	3476.08
473.253	3478.11
473.625	3525.35
473.997	3599.47
474.369	3615.96
474.74	3594.72
475.112	3716.98
475.484	3757.88
475.855	3752.01
476.227	3832
476.598	3919.01
476.97	3908.84
477.341	4009.4
477.713	4053.01
478.084	4067.48
478.455	4181.6
478.827	4231.09
479.198	4279.68
479.569	4311.99
479.94	4429.73
480.311	4450.74
480.682	4538.43
481.053	4617.97
481.424	4618.65
481.795	4744.3
482.166	4747.46
482.537	4786.33
482.908	4907.68
483.279	4957.62
483.65	4987
484.021	5084.63
484.391	5158.97
484.762	5210.95
485.133	5151.52
485.503	5228.13
485.874	5362.36
486.244	5390.61
486.615	5450.72
486.985	5490.04
487.356	5544.05
487.726	5617.72
488.097	5715.8
488.467	5744.72
488.837	5837.6
489.207	5951.27
489.578	6020.87
489.948	6024.04
490.318	6170.93
490.688	6108.33
491.058	6203.92
491.428	6273.3
491.798	6288.66
492.168	6412.27
492.538	6371.6
492.908	6447.98
493.278	6490.24
493.648	6512.39
494.017	6547.19
494.387	6707.63
494.757	6720.97
495.126	6676.67
495.496	6734.53
495.866	6815.88
496.235	6773.4
496.605	6861.3
496.974	6823.56
497.344	6916.89
497.713	6881.64
498.082	6988.08
498.452	7098.13
498.821	7055.87
499.19	7076.44
499.559	7112.37
499.928	7144.23
500.298	7211.12
500.667	7252.03
501.036	7134.97
501.405	7288.18
501.774	7237.56
502.143	7305.36
502.512	7302.42
502.88	7402.98
503.249	7398.01
503.618	7433.27
503.987	7402.76
504.356	7412.7
504.724	7442.3
505.093	7466.03
505.462	7505.13
505.83	7540.61
506.199	7567.27
506.567	7603.88
506.936	7605.92
507.304	7662.86
507.672	7702.64
508.041	7649.76
508.409	7700.15
508.777	7800.49
509.145	7774.95
509.514	7707.61
509.882	7791
510.25	7729.53
510.618	7833.71
510.986	7801.39
511.354	7799.13
511.722	7873.03
512.09	7914.16
512.458	7846.81
512.826	7921.16
513.193	7879.58
513.561	7868.06
513.929	7914.16
514.297	7960.93
514.664	8030.76
515.032	7994.15
515.4	8045.23
515.767	8005
516.135	8013.36
516.502	7941.73
516.869	7992.35
517.237	7996.64
517.604	8003.19
517.972	8082.97
518.339	8054.27
518.706	8021.05
519.073	8021.95
519.44	8033.7
519.808	8085.68
520.175	8061.5
520.542	8104.43
520.909	8115.73
521.276	8068.28
521.643	8112.34
522.009	8121.16
522.376	8166.58
522.743	8198.22
523.11	8157.54
523.477	8203.41
523.843	8219.01
524.21	8263.53
524.577	8208.16
524.943	8244.32
525.31	8232.11
525.676	8274.15
526.043	8272.56
526.409	8244.09
526.776	8305.11
527.142	8264.66
527.508	8270.76
527.874	8272.34
528.241	8298.78
528.607	8206.13
528.973	8263.98
529.339	8194.6
529.705	8290.19
530.071	8348.72
530.437	8267.14
530.803	8313.47
531.169	8284.32
531.535	8230.08
531.901	8252
532.267	8226.92
532.632	8188.95
532.998	8261.49
533.364	8257.65
533.73	8167.03
534.095	8235.5
534.461	8215.62
534.826	8236.41
535.192	8155.51
535.557	8253.81
535.923	8136.52
536.288	8135.62
536.653	8155.28
537.019	8091.33
537.384	8084.1
537.749	8030.09
538.114	7996.41
538.479	7995.06
538.845	7999.58
539.21	7939.92
539.575	7955.96
539.94	7946.02
540.305	7976.75
540.67	7887.26
541.034	7891.78
541.399	7895.85
541.764	7831.45
542.129	7803.42
542.494	7809.53
542.858	7780.83
543.223	7755.29
543.587	7768.62
543.952	7696.53
544.316	7726.36
544.681	7649.98
545.045	7667.16
545.41	7702.86
545.774	7649.98
546.138	7626.03
546.503	7598.91
546.867	7578.35
547.231	7602.98
547.595	7549.87
547.959	7531.79
548.324	7482.98
548.688	7447.5
549.052	7454.73
549.416	7402.31
549.779	7423.32
550.143	7354.17
550.507	7436.2
550.871	7311.01
551.235	7320.73
551.599	7306.71
551.962	7262.87
552.326	7232.82
552.689	7304.45
553.053	7165.48
553.417	7171.35
553.78	7252.25
554.143	7200.28
554.507	7157.79
554.87	7135.42
555.234	7194.85
555.597	7169.77
555.96	7130.22
556.323	7104.23
556.686	7057.68
557.05	7107.85
557.413	7109.66
557.776	7135.42
558.139	7074.4
558.502	7033.5
558.865	7025.59
559.228	7054.29
559.59	7008.87
559.953	7038.25
560.316	7080.28
560.679	7111.69
561.041	7110.56
561.404	6989.66
561.767	7074.4
562.129	7069.21
562.492	7111.24
562.854	7063.56
563.217	7014.97
563.579	6974.52
563.941	7002.09
564.304	7095.65
564.666	7168.19
565.028	7097.91
565.39	7036.21
565.753	7128.87
566.115	7093.61
566.477	7162.99
566.839	7085.48
567.201	7118.7
567.563	7107.85
567.925	7174.97
568.287	7189.2
568.648	7182.88
569.01	7226.04
569.372	7236.66
569.734	7177.45
570.095	7231.24
570.457	7218.36
570.819	7183.1
571.18	7153.72
571.542	7242.99
571.903	7194.4
572.265	7323.89
572.626	7290.9
572.987	7303.78
573.349	7299.94
573.71	7336.77
574.071	7329.31
574.432	7351.91
574.794	7357.11
575.155	7374.06
575.516	7342.65
575.877	7380.61
576.238	7381.06
576.599	7398.24
576.96	7391.46
577.32	7405.92
577.681	7405.02
578.042	7434.17
578.403	7451.8
578.763	7516.88
579.124	7459.03
579.485	7499.7
579.845	7628.29
580.206	7566.59
580.566	7558.23
580.927	7563.66
581.287	7584.9
581.648	7569.31
582.008	7568.4
582.368	7656.31
582.728	7659.47
583.089	7633.71
583.449	7661.06
583.809	7643.65
584.169	7672.81
584.529	7679.36
584.889	7742.64
585.249	7688.4
585.609	7714.16
585.969	7769.53
586.329	7809.75
586.688	7758.23
587.048	7780.15
587.408	7772.47
587.768	7766.82
588.127	7828.51
588.487	7789.87
588.846	7875.97
589.206	7862.18
589.565	7855.4
589.925	7868.06
590.284	7897.66
590.643	7888.39
591.003	7873.03
591.362	7910.99
591.721	7967.71
592.08	7962.06
592.44	7930.88
592.799	7988.05
593.158	8011.33
593.517	7970.88
593.876	8043.87
594.235	7942.63
594.593	7912.35
594.952	8009.52
595.311	8035.74
595.67	7990.31
596.029	8083.87
596.387	8038.9
596.746	8047.49
597.104	8065.11
597.463	7958.22
597.822	8110.76
598.18	8049.75
598.538	8041.84
598.897	8063.53
599.255	8013.14
599.613	8128.39
599.972	8072.12
600.33	8099.24
600.688	8118.22
601.046	8120.03
601.404	8172.23
601.762	8122.96
602.12	8216.75
602.478	8216.52
602.836	8156.18
603.194	8110.99
603.552	8180.82
603.91	8131.55
604.268	8207.26
604.625	8141.04
604.983	8159.12
605.341	8149.63
605.698	8176.07
606.056	8194.15
606.413	8173.36
606.771	8233.24
607.128	8217.2
607.485	8154.15
607.843	8153.47
608.2	8226.01
608.557	8282.06
608.914	8267.37
609.272	8237.31
609.629	8308.27
609.986	8258.33
610.343	8228.05
610.7	8325.44
611.057	8252.9
611.414	8292.23
611.771	8301.49
612.127	8330.19
612.484	8295.84
612.841	8398.44
613.198	8300.13
613.554	8322.73
613.911	8365.22
614.267	8426.69
614.624	8400.92
614.98	8356.86
615.337	8374.71
615.693	8405.89
616.05	8388.27
616.406	8420.58
616.762	8429.17
617.118	8371.32
617.475	8463.52
617.831	8460.81
618.187	8497.64
618.543	8436.4
618.899	8498.32
619.255	8461.26
619.611	8378.1
619.967	8493.35
620.323	8474.82
620.678	8499
621.034	8423.97
621.39	8433.01
621.746	8428.04
622.101	8533.12
622.457	8507.36
622.812	8430.3
623.168	8467.59
623.523	8466.23
623.879	8556.4
624.234	8451.09
624.589	8486.8
624.945	8504.88
625.3	8553.46
625.655	8511.88
626.01	8503.52
626.365	8481.15
626.72	8479.79
627.075	8443.41
627.43	8460.81
627.785	8419.23
628.14	8467.59
628.495	8496.29
628.85	8404.99
629.205	8437.98
629.559	8460.81
629.914	8458.32
630.269	8392.34
630.623	8417.42
630.978	8357.76
631.332	8440.02
631.687	8467.59
632.041	8346.69
632.396	8390.53
632.75	8387.59
633.104	8391.43
633.459	8297.42
633.813	8311.66
634.167	8335.16
634.521	8298.55
634.875	8342.39
635.229	8282.73
635.583	8286.8
635.937	8264.88
636.291	8244.54
636.645	8294.26
636.999	8261.27
637.352	8273.02
637.706	8180.59
638.06	8206.35
638.413	8243.41
638.767	8237.76
639.121	8257.2
639.474	8151.66
639.828	8242.74
640.181	8164.55
640.534	8141.72
640.888	8197.31
641.241	8118.67
641.594	8094.72
641.947	8170.87
642.301	8094.94
642.654	8123.19
643.007	8175.17
643.36	8214.49
643.713	8052.91
644.066	8144.21
644.419	8067.37
644.771	8080.71
645.124	8006.13
645.477	8042.97
645.83	7903.31
646.182	7878
646.535	7881.16
646.888	7860.37
647.24	7869.19
647.593	7897.21
647.945	7874.61
648.298	7832.12
648.65	7804.33
649.002	7865.34
649.355	7816.31
649.707	7858.56
650.059	7839.13
650.411	7926.59
650.763	7985.11
651.115	8047.03
651.467	7971.56
651.819	8028.96
652.171	8021.72
652.523	8004.1
652.875	8028.96
653.227	7964.55
653.578	7998.22
653.93	8032.57
654.282	7967.26
654.633	7995.28
654.985	8033.02
655.337	8047.03
655.688	7963.42
656.039	8025.57
656.391	7939.47
656.742	7970.65
657.094	7990.76
657.445	7987.6
657.796	7987.6
658.147	7998.9
658.498	8041.84
658.849	8037.32
659.2	8042.06
659.551	8052.23
659.902	8068.05
660.253	8039.12
660.604	8057.2
660.955	8043.42
661.306	8072.12
661.656	8062.63
662.007	8077.09
662.358	8036.64
662.708	8071.21
663.059	8050.2
663.409	8093.59
663.76	8088.62
664.11	8099.24
664.461	8056.75
664.811	8113.25
665.161	8061.5
665.511	8131.1
665.862	8077.99
666.212	8098.33
666.562	8128.16
666.912	8078.67
667.262	8124.09
667.612	8086.58
667.962	8009.97
668.312	8123.19
668.662	8109.86
669.011	8098.33
669.361	8030.09
669.711	8093.13
670.06	8055.62
670.41	8037.77
670.76	7989.63
671.109	8055.85
671.459	8071.44
671.808	7992.35
672.157	8054.72
672.507	7999.13
672.856	8015.4
673.205	7980.14
673.554	8026.92
673.904	8019.92
674.253	8029.86
674.602	8013.59
674.951	7910.31
675.3	7806.36
675.649	7959.58
675.998	7977.66
676.346	7933.59
676.695	7957.55
677.044	7903.54
677.393	7975.4
677.741	7961.61
678.09	7902.63
678.438	7969.52
678.787	7923.2
679.135	7948.51
679.484	7848.4
679.832	7886.59
680.181	7904.89
680.529	7890.88
680.877	7852.91
681.225	7788.51
681.573	7853.82
681.922	7825.8
682.27	7756.87
682.618	7726.14
682.966	7715.74
683.314	7794.39
683.661	7732.69
684.009	7693.15
684.357	7675.07
684.705	7655.86
685.053	7573.37
685.4	7620.6
685.748	7602.98
686.095	7596.2
686.443	7574.5
686.79	7543.54
687.138	7579.02
687.485	7519.36
687.832	7524.56
688.18	7521.17
688.527	7469.42
688.874	7444.56
689.221	7404.57
689.568	7407.73
689.915	7391.46
690.262	7354.17
690.609	7419.71
690.956	7317.34
691.303	7308.07
691.65	7309.65
691.997	7274.85
692.344	7207.96
692.69	7223.78
693.037	7177
693.383	7151.01
693.73	7158.47
694.077	7085.48
694.423	7100.62
694.769	7056.55
695.116	7100.84
695.462	7057
695.808	6980.62
696.155	6989.89
696.501	6972.49
696.847	6911.02
697.193	6921.19
697.539	6859.72
697.885	6865.14
698.231	6784.69
698.577	6782.21
698.923	6819.72
699.269	6812.72
699.614	6715.77
699.96	6738.59
700.306	6668.77
700.651	6684.36
700.997	6632.16
701.342	6626.51
701.688	6637.81
702.033	6560.07
702.379	6580.86
702.724	6543.57
703.069	6550.12
703.415	6492.95
703.76	6495.89
704.105	6470.35
704.45	6472.16
704.795	6428.77
705.14	6399.17
705.485	6365.27
705.83	6338.38
706.175	6367.53
706.52	6366.63
706.865	6306.74
707.209	6253.41
707.554	6234.2
707.899	6249.12
708.243	6211.15
708.588	6245.95
708.932	6132.51
709.277	6168.89
709.621	6119.85
709.966	6095.67
710.31	6116.24
710.654	6093.87
710.998	6107.2
711.342	6120.31
711.687	6063.81
712.031	5973.19
712.375	6000.53
712.719	6052.06
713.063	6033.98
713.407	6105.16
713.75	5965.96
714.094	5955.56
714.438	5976.35
714.782	5930.93
715.125	5900.42
715.469	5994.66
715.812	5882.57
716.156	5861.1
716.499	5859.75
716.843	5866.75
717.186	5801.9
717.53	5877.6
717.873	5865.85
718.216	5867.66
718.559	5827.43
718.902	5763.48
719.246	5800.31
719.589	5798.96
719.932	5781.11
720.275	5767.09
720.617	5794.89
720.96	5793.53
721.303	5774.1
721.646	5790.82
721.989	5744.04
722.331	5777.26
722.674	5726.87
723.016	5745.17
723.359	5780.2
723.701	5734.1
724.044	5745.63
724.386	5713.31
724.729	5720.54
725.071	5683.71
725.413	5702.92
725.755	5723.48
726.097	5665.85
726.439	5693.2
726.782	5690.71
727.124	5680.77
727.465	5721.45
727.807	5677.83
728.149	5678.06
728.491	5638.06
728.833	5690.49
729.175	5659.07
729.516	5680.54
729.858	5694.78
730.199	5648.91
730.541	5683.71
730.882	5627.21
731.224	5676.7
731.565	5661.33
731.906	5622.47
732.248	5682.12
732.589	5655.01
732.93	5644.61
733.271	5653.88
733.612	5660.66
733.953	5727.1
734.294	5673.31
734.635	5653.65
734.976	5639.87
735.317	5647.55
735.658	5654.1
735.999	5614.1
736.339	5668.57
736.68	5682.12
737.021	5682.12
737.361	5646.19
737.702	5699.53
738.042	5694.33
738.383	5662.01
738.723	5680.99
739.063	5675.57
739.404	5714.44
739.744	5751.28
740.084	5730.03
740.424	5742.69
740.764	5752.86
741.104	5782.69
741.444	5778.17
741.784	5792.86
742.124	5832.86
742.464	5844.38
742.804	5812.74
743.143	5848.9
743.483	5843.48
743.823	5846.41
744.162	5856.58
744.502	5927.32
744.841	5966.18
745.181	5993.75
745.52	5972.29
745.86	6066.75
746.199	6104.71
746.538	6076.01
746.877	6172.06
747.216	6217.93
747.556	6235.56
747.895	6226.52
748.234	6270.81
748.573	6306.06
748.911	6388.77
749.25	6452.5
749.589	6521.88
749.928	6587.64
750.267	6579.28
750.605	6705.6
750.944	6711.25
751.283	6782.43
751.621	6898.36
751.96	6893.62
752.298	6969.32
752.636	7133.61
752.975	7170.67
753.313	7268.75
753.651	7404.79
753.989	7500.61
754.327	7615.63
754.666	7602.75
755.004	7759.81
755.342	7917.32
755.679	8105.11
756.017	8089.74
756.355	8301.72
756.693	8379
757.031	8535.61
757.368	8694.02
757.706	8735.83
758.044	8953.68
758.381	9071.64
758.719	9234.8
759.056	9412.42
759.394	9545.3
759.731	9609.03
760.068	9786.2
760.405	9996.14
760.743	10100.31
761.08	10372.17
761.417	10418.72
761.754	10653.52
762.091	10790.69
762.428	10912.95
762.765	11021.87
763.102	11346.38
763.438	11409.88
763.775	11611.69
764.112	11762.42
764.449	11957.44
764.785	12123.09
765.122	12268.84
765.458	12403.3
765.795	12573.92
766.131	12778.44
766.467	12886.91
766.804	13012.55
767.14	13143.62
767.476	13328.48
767.812	13465.2
768.148	13559.88
768.485	13646.43
768.821	13860.44
769.157	13909.25
769.492	14008.23
769.828	14177.04
770.164	14260.88
770.5	14436.47
770.836	14596.92
771.171	14601.66
771.507	14755.11
771.842	14746.07
772.178	14913.75
772.513	14974.76
772.849	15107.64
773.184	15156
773.519	15321.87
773.855	15377.69
774.19	15489.1
774.525	15561.64
774.86	15536.33
775.195	15647.74
775.53	15777.68
775.865	15790.56
776.2	15797.34
776.535	15855.42
776.87	15921.63
777.205	15938.8
777.539	15904.68
777.874	16033.72
778.209	16056.09
778.543	16090.89
778.878	16105.35
779.212	16163.2
779.547	16171.57
779.881	16247.27
780.215	16266.71
780.55	16406.81
780.884	16329.53
781.218	16350.54
781.552	16480.03
781.886	16487.49
782.22	16388.28
782.554	16383.76
782.888	16311
783.222	16350.09
783.556	16304.22
783.889	16365.69
784.223	16268.06
784.557	16328.17
784.89	16398.68
785.224	16263.54
785.557	16382.63
785.891	16371.56
786.224	16373.14
786.558	16358.91
786.891	16172.47
787.224	16247.27
787.557	16260.83
787.891	16350.54
788.224	16237.78
788.557	16349.19
788.89	16253.6
789.223	16330.21
789.556	16179.25
789.888	16206.14
790.221	16260.6
790.554	16148.97
790.887	16230.55
791.219	16137.89
791.552	16153.49
791.884	16016.32
792.217	16052.02
792.549	16056.09
792.882	15977.22
793.214	15865.36
793.546	15935.64
793.879	15832.14
794.211	15845.25
794.543	15949.65
794.875	15840.5
795.207	15956.2
795.539	15889.77
795.871	15801.41
796.203	15701.97
796.535	15615.2
796.867	15663.33
797.198	15657.91
797.53	15567.51
797.862	15570.23
798.193	15595.08
798.525	15518.02
798.856	15563.9
799.188	15310.35
799.519	15315.77
799.85	15221.53
800.182	15372.49
800.513	15316.67
800.844	15188.54
801.175	15329.33
801.506	15285.26
801.837	15170.24
802.168	15143.8
802.499	15126.17
802.83	14989.22
803.161	14963.46
803.491	15098.15
803.822	15029.45
804.153	14990.13
804.483	14914.65
804.814	14890.7
805.145	14854.31
805.475	14801.43
805.805	14825.16
806.136	14788.78
806.466	14833.07
806.796	14762.79
807.126	14612.29
807.457	14681.44
807.787	14627.88
808.117	14522.57
808.447	14533.64
808.777	14547.65
809.107	14516.47
809.436	14409.35
809.766	14437.15
810.096	14357.83
810.426	14452.06
810.755	14391.95
811.085	14361.22
811.414	14311.5
811.744	14238.28
812.073	14175.01
812.403	14212.75
812.732	14218.17
813.061	14214.33
813.39	14086.42
813.719	14107.21
814.049	14106.31
814.378	14110.6
814.707	14037.39
815.036	13990.83
815.365	13956.94
815.693	13816.6
816.022	13871.06
816.351	13877.84
816.68	13770.95
817.008	13842.59
817.337	13763.72
817.665	13746.32
817.994	13736.15
818.322	13751.74
818.651	13702.7
818.979	13576.61
819.307	13752.42
819.636	13631.97
819.964	13535.7
820.292	13680.56
820.62	13579.54
820.948	13556.95
821.276	13592.88
821.604	13605.31
821.932	13633.78
822.259	13625.64
822.587	13459.1
822.915	13566.89
823.243	13625.87
823.57	13479.89
823.898	13534.57
824.225	13558.98
824.553	13527.12
824.88	13544.74
825.207	13588.13
825.535	13597.17
825.862	13575.48
826.189	13536.38
826.516	13556.95
826.843	13601.69
827.17	13598.98
827.497	13660.22
827.824	13630.84
828.151	13582.93
828.478	13586.1
828.805	13634.01
829.131	13574.8
829.458	13524.86
829.785	13500.9
830.111	13531.41
830.438	13656.83
830.764	13587.91
831.09	13558.3
831.417	13558.53
831.743	13546.1
832.069	13590.84
832.395	13504.97
832.722	13550.39
833.048	13567.12
833.374	13568.24
833.7	13469.94
834.026	13534.57
834.351	13514.91
834.677	13528.92
835.003	13467.91
835.329	13470.62
835.654	13525.99
835.98	13409.38
836.306	13417.51
836.631	13352.66
836.956	13415.48
837.282	13392.66
837.607	13442.82
837.932	13297.52
838.258	13325.99
838.583	13299.33
838.908	13209.84
839.233	13240.8
839.558	13191.76
839.883	13161.02
840.208	13128.48
840.533	13087.13
840.858	13107.92
841.182	13212.32
841.507	13129.61
841.832	13062.04
842.156	13059.33
842.481	12960.58
842.805	12993.34
843.13	12954.93
843.454	12929.62
843.778	12893.46
844.103	12850.52
844.427	12947.47
844.751	12880.35
845.075	12825.89
845.399	12737.98
845.723	12695.95
846.047	12737.76
846.371	12677.42
846.695	12577.31
847.019	12590.42
847.343	12472.23
847.666	12369.63
847.99	12345.23
848.313	12276.08
848.637	12270.43
848.96	12185.68
849.284	12240.37
849.607	12178.68
849.931	12085.57
850.254	12016.87
850.577	11965.12
850.9	11897.55
851.223	11860.49
851.546	11839.48
851.869	11757.9
852.192	11764.9
852.515	11708.41
852.838	11680.16
853.161	11633.15
853.483	11597
853.806	11565.59
854.129	11534.17
854.451	11443.33
854.774	11410.11
855.096	11376.66
855.419	11422.54
855.741	11342.31
856.063	11278.81
856.385	11239.49
856.708	11259.38
857.03	11257.35
857.352	11194.07
857.674	11128.99
857.996	11180.74
858.318	11030.68
858.64	11110.23
858.961	11042.44
859.283	10989.33
859.605	10911.82
859.926	10924.47
860.248	10962.66
860.57	10887.64
860.891	10874.98
861.212	10809.22
861.534	10793.4
861.855	10763.12
862.176	10754.76
862.498	10737.81
862.819	10821.42
863.14	10676.57
863.461	10660.07
863.782	10684.7
864.103	10632.28
864.424	10564.03
864.745	10658.94
865.065	10570.36
865.386	10493.07
865.707	10554.54
866.027	10515.9
866.348	10439.29
866.668	10469.8
866.989	10446.75
867.309	10383.47
867.63	10438.84
867.95	10450.13
868.27	10305.05
868.59	10390.48
868.91	10368.33
869.23	10306.86
869.55	10243.36
869.87	10348.67
870.19	10189.12
870.51	10234.32
870.83	10287.88
871.15	10243.81
871.469	10200.65
871.789	10186.41
872.109	10194.1
872.428	10130.37
872.748	10162.01
873.067	10122.91
873.386	10091.5
873.706	10093.08
874.025	10051.73
874.344	10055.57
874.663	10037.49
874.982	10036.59
875.301	10021.67
875.62	9964.05
875.939	9970.37
876.258	10007.43
876.577	10013.99
876.896	9918.62
877.214	9911.84
877.533	9952.75
877.852	9873.88
878.17	9877.27
878.489	9894.22
878.807	9849.47
879.125	9846.99
879.444	9887.89
879.762	9779.64
880.08	9843.15
880.398	9778.74
880.716	9801.11
881.034	9689.02
881.352	9719.31
881.67	9627.33
881.988	9708.46
882.306	9629.59
882.624	9647.9
882.941	9611.29
883.259	9582.81
883.577	9602.7
883.894	9612.64
884.212	9554.34
884.529	9590.04
884.846	9474.12
885.164	9423.27
885.481	9473.89
885.798	9413.55
886.115	9356.15
886.432	9375.13
886.75	9294.91
887.067	9365.42
887.383	9303.95
887.7	9301.69
888.017	9272.54
888.334	9256.49
888.651	9211.3
888.967	9160.45
889.284	9143.5
889.6	9129.04
889.917	9083.62
890.233	9089.27
890.55	9001.81
890.866	9030.74
891.182	8967.46
891.498	8967.01
891.815	8917.52
892.131	8905.99
892.447	8891.08
892.763	8923.17
893.079	8868.26
893.395	8795.94
893.71	8773.34
894.026	8825.77
894.342	8776.05
894.657	8676.4
894.973	8658.54
895.289	8675.04
895.604	8654.25
895.92	8545.33
896.235	8495.16
896.55	8525.89
896.865	8469.85
897.181	8461.71
897.496	8432.11
897.811	8430.07
898.126	8423.52
898.441	8339.23
898.756	8355.73
899.071	8279.57
899.386	8312.56
899.7	8212.45
900.015	8165
900.33	8058.79
900.644	8127.94
900.959	8197.31
901.273	8157.09
901.588	8080.03
901.902	7981.73
902.216	7954.38
902.531	8009.75
902.845	7962.06
903.159	7922.52
903.473	7872.8
903.787	7830.77
904.101	7790.54
904.415	7817.44
904.729	7786.48
905.042	7716.65
905.356	7709.87
905.67	7668.29
905.984	7675.07
906.297	7660.83
906.611	7571.79
906.924	7586.48
907.237	7539.02
907.551	7495.41
907.864	7467.16
908.177	7441.85
908.491	7436.65
908.804	7376.54
909.117	7367.73
909.43	7280.05
909.743	7244.34
910.056	7264.68
910.368	7220.62
910.681	7154.85
910.994	7134.29
911.307	7164.8
911.619	7139.26
911.932	7106.49
912.244	7017.23
912.557	6972.26
912.869	6945.37
913.181	6977.23
913.494	6909.89
913.806	6880.74
914.118	6894.97
914.43	6873.05
914.742	6810.23
915.054	6798.48
915.366	6823.34
915.678	6748.99
915.99	6730.23
916.302	6678.03
916.613	6620.63
916.925	6647.97
917.236	6643.23
917.548	6534.08
917.859	6595.77
918.171	6496.79
918.482	6520.29
918.794	6480.07
919.105	6469.67
919.416	6406.85
919.727	6390.58
920.038	6431.26
920.349	6305.84
920.66	6333.41
920.971	6331.15
921.282	6313.29
921.593	6228.55
921.903	6206.63
922.214	6166.63
922.525	6179.06
922.835	6102
923.146	6119.4
923.456	6134.99
923.767	6087.54
924.077	6042.34
924.387	5980.2
924.697	5989.69
925.008	5981.78
925.318	5920.08
925.628	5918.5
925.938	5962.8
926.248	5855.23
926.558	5815.91
926.867	5800.54
927.177	5818.84
927.487	5749.24
927.796	5697.72
928.106	5694.1
928.416	5711.5
928.725	5721.67
929.034	5644.84
929.344	5635.35
929.653	5646.19
929.962	5607.32
930.271	5544.05
930.581	5557.38
930.89	5492.07
931.199	5532.75
931.508	5503.82
931.817	5488.23
932.125	5463.37
932.434	5403.94
932.743	5353.55
933.051	5380.89
933.36	5365.75
933.669	5342.7
933.977	5339.76
934.286	5296.37
934.594	5323.49
934.902	5245.53
935.21	5198.3
935.519	5198.52
935.827	5157.39
936.135	5172.99
936.443	5125.3
936.751	5087.79
937.059	5080.56
937.367	5083.5
937.674	5090.05
937.982	5040.79
938.29	4988.58
938.597	4995.81
938.905	4989.49
939.213	4944.06
939.52	4849.6
939.827	4900.9
940.135	4885.08
940.442	4840.11
940.749	4884.86
941.056	4857.97
941.363	4779.32
941.67	4794.24
941.977	4724.86
942.284	4736.84
942.591	4706.33
942.898	4684.64
943.205	4719.89
943.511	4690.96
943.818	4661.81
944.125	4641.47
944.431	4589.72
944.738	4577.97
945.044	4537.3
945.35	4536.62
945.657	4516.28
945.963	4522.61
946.269	4498.65
946.575	4464.98
946.881	4446.22
947.187	4400.35
947.493	4420.91
947.799	4359.22
948.105	4368.49
948.41	4354.93
948.716	4344.98
949.022	4348.83
949.327	4316.06
949.633	4290.97
949.938	4270.41
950.244	4276.96
950.549	4237.42
950.854	4205.33
951.16	4218.21
951.465	4198.55
951.77	4136.18
952.075	4120.81
952.38	4130.3
952.685	4105.89
952.99	4092.11
953.294	4067.93
953.599	4029.74
953.904	4032.68
954.209	4018.67
954.513	4023.19
954.818	3959.91
955.122	3947.03
955.426	3978.44
955.731	3930.98
956.035	3933.02
956.339	3908.39
956.643	3902.51
956.948	3892.12
957.252	3855.51
957.556	3810.99
957.86	3843.98
958.163	3780.71
958.467	3795.17
958.771	3754.27
959.075	3729.63
959.378	3740.93
959.682	3726.7
959.985	3735.51
960.289	3724.44
960.592	3671.1
960.896	3639.24
961.199	3641.73
961.502	3629.3
961.805	3620.94
962.108	3591.33
962.411	3604.89
962.714	3521.73
963.017	3557.43
963.32	3555.17
963.623	3520.15
963.926	3523.09
964.228	3465.01
964.531	3479.02
964.833	3464.1
965.136	3458.91
965.438	3426.14
965.741	3395.18
966.043	3404.67
966.345	3375.29
966.648	3395.18
966.95	3359.25
967.252	3327.84
967.554	3332.81
967.856	3279.48
968.158	3293.26
968.46	3339.36
968.761	3296.42
969.063	3243.77
969.365	3223.66
969.666	3224.34
969.968	3183.21
970.269	3202.42
970.571	3152.02
970.872	3169.87
971.174	3156.54
971.475	3155.41
971.776	3114.73
972.077	3143.89
972.378	3114.28
972.679	3067.05
972.98	3082.64
973.281	3105.02
973.582	3070.44
973.883	3033.15
974.183	3039.03
974.484	2980.05
974.785	2990.44
975.085	2985.02
975.386	2953.38
975.686	2953.38
975.986	2960.84
976.287	2981.4
976.587	2936.43
976.887	2920.62
977.187	2907.51
977.487	2915.42
977.787	2858.02
978.087	2839.04
978.387	2869.54
978.687	2829.32
978.987	2802.2
979.286	2848.53
979.586	2836.78
979.885	2824.12
980.185	2758.59
980.484	2765.82
980.784	2759.72
981.083	2732.6
981.382	2741.41
981.682	2693.05
981.981	2727.63
982.28	2693.73
982.579	2666.38
982.878	2700.51
983.177	2654.18
983.475	2650.79
983.774	2625.71
984.073	2602.21
984.372	2621.19
984.67	2604.47
984.969	2608.08
985.267	2602.66
985.566	2571.47
985.864	2560.17
986.162	2525.37
986.461	2524.47
986.759	2525.15
987.057	2509.33
987.355	2481.08
987.653	2477.92
987.951	2491.25
988.249	2433.17
988.547	2456.9
988.844	2480.17
989.142	2460.51
989.44	2420.29
989.737	2415.54
990.035	2411.48
990.332	2366.28
990.63	2396.34
990.927	2348.2
991.224	2367.86
991.521	2348.43
991.819	2358.37
992.116	2324.92
992.413	2302.78
992.71	2286.96
993.006	2291.03
993.303	2253.29
993.6	2264.14
993.897	2244.47
994.193	2270.46
994.49	2208.77
994.787	2236.79
995.083	2197.24
995.379	2151.6
995.676	2176
995.972	2195.66
996.268	2165.83
996.565	2122.67
996.861	2189.11
997.157	2141.65
997.453	2137.81
997.749	2082.9
998.044	2135.1
998.34	2092.39
998.636	2101.2
998.932	2057.81
999.227	2089.45
999.523	2066.85
999.818	2038.15
1000.114	2044.93
1000.409	2035.21
1000.704	1997.7
1001	2003.35
1001.295	1966.52
1001.59	2002.67
1001.885	1987.98
1002.18	1969.91
1002.475	1960.41
1002.77	1928.78
1003.065	1930.81
1003.359	1924.26
1003.654	1928.78
1003.949	1918.38
1004.243	1876.57
1004.538	1864.6
1004.832	1847.42
1005.127	1884.48
1005.421	1830.47
1005.715	1861.43
1006.009	1817.37
1006.304	1780.08
1006.598	1816.24
1006.892	1811.04
1007.186	1801.77
1007.48	1768.56
1007.773	1750.02
1008.067	1770.82
1008.361	1736.92
1008.655	1766.97
1008.948	1738.05
1009.242	1711.61
1009.535	1701.44
1009.829	1681.78
1010.122	1667.31
1010.415	1695.56
1010.708	1657.15
1011.001	1643.81
1011.295	1615.79
1011.588	1662.57
1011.881	1625.51
1012.173	1618.95
1012.466	1604.72
1012.759	1601.55
1013.052	1599.97
1013.344	1609.92
1013.637	1583.7
1013.93	1549.58
1014.222	1547.54
1014.514	1546.87
1014.807	1514.55
1015.099	1523.82
1015.391	1516.13
1015.683	1513.65
1015.976	1497.83
1016.268	1506.64
1016.56	1502.8
1016.851	1482.46
1017.143	1464.61
1017.435	1468
1017.727	1451.05
1018.018	1412.86
1018.31	1469.13
1018.602	1436.36
1018.893	1411.05
1019.185	1404.72
1019.476	1410.6
1019.767	1427.1
1020.058	1389.58
1020.35	1364.72
1020.641	1361.33
1020.932	1358.85
1021.223	1365.63
1021.514	1321.79
1021.804	1260.09
1022.095	1321.56
1022.386	1325.85
1022.677	1304.84
1022.967	1308
1023.258	1304.84
1023.548	1261
1023.839	1290.38
1024.129	1274.78
1024.419	1256.7
1024.709	1215.12
1025	1231.39
1025.29	1234.33
1025.58	1239.98
1025.87	1198.63
1026.16	1211.06
1026.449	1198.4
1026.739	1203.82
1027.029	1192.98
1027.319	1163.83
1027.608	1171.06
1027.898	1155.46
1028.187	1173.54
1028.477	1165.86
1028.766	1128.12
1029.055	1129.93
1029.344	1143.94
1029.634	1088.57
1029.923	1096.93
1030.212	1101.91
1030.501	1093.54
1030.79	1102.58
1031.078	1097.61
1031.367	1063.94
1031.656	1067.33
1031.945	1049.48
1032.233	1063.71
1032.522	1020.33
1032.81	1040.44
1033.099	1044.28
1033.387	1030.95
1033.675	1034.79
1033.963	1032.98
1034.251	1035.47
1034.54	1007.22
1034.828	987.33
1035.116	994.56
1035.403	985.52
1035.691	959.76
1035.979	971.97
1036.267	969.03
1036.554	976.71
1036.842	963.15
1037.129	964.73
1037.417	948.46
1037.704	925.41
1037.992	953.66
1038.279	959.31
1038.566	913.66
1038.853	913.66
1039.14	913.66
