Data from hue_70_FLMS001491_88.txt Node
Date: Mon Feb 06 15:21:34 GMT 2017
User: dcchb
Spectrometer: FLMS00149
Trigger mode: 0
Integration Time (sec): 2.000000E-2
Scans to average: 10
Electric dark correction enabled: true
Nonlinearity correction enabled: false
Boxcar width: 0
XAxis mode: Wavelengths
Number of Pixels in Spectrum: 2048
>>>>>Begin Spectral Data<<<<<
341.393	-11.37
341.776	-11.37
342.16	-11.37
342.543	-38.49
342.927	-75.55
343.31	-85.27
343.693	-76
344.077	-65.83
344.46	-70.8
344.843	-40.97
345.226	-34.42
345.61	-23.57
345.993	-30.58
346.376	14.62
346.759	18.46
347.142	13.49
347.525	33.37
347.908	65.92
348.291	62.75
348.674	102.07
349.057	116.76
349.44	142.75
349.823	154.5
350.206	173.48
350.588	208.06
350.971	210.32
351.354	235.18
351.737	255.06
352.119	245.12
352.502	258.45
352.884	247.83
353.267	264.33
353.65	292.35
354.032	300.49
354.414	315.18
354.797	311.33
355.179	316.98
355.562	319.47
355.944	333.03
356.326	349.98
356.709	305.68
357.091	329.64
357.473	324.44
357.855	352.24
358.238	344.55
358.62	344.33
359.002	350.2
359.384	352.01
359.766	348.39
360.148	347.72
360.53	338.23
360.912	336.19
361.294	338.23
361.676	348.85
362.057	340.94
362.439	329.86
362.821	333.93
363.203	312.46
363.584	340.26
363.966	328.51
364.348	328.73
364.729	307.04
365.111	316.31
365.493	326.7
365.874	310.88
366.256	315.63
366.637	317.44
367.019	320.6
367.4	294.16
367.781	340.26
368.163	331.9
368.544	313.59
368.925	315.4
369.306	316.53
369.688	319.69
370.069	330.77
370.45	319.47
370.831	304.55
371.212	312.92
371.593	325.12
371.974	315.63
372.355	317.89
372.736	324.21
373.117	327.6
373.498	304.78
373.879	322.63
374.26	328.06
374.641	300.49
375.021	317.66
375.402	332.58
375.783	319.92
376.163	309.07
376.544	340.94
376.925	331.9
377.305	330.99
377.686	330.54
378.066	337.1
378.447	311.56
378.827	338
379.208	334.84
379.588	336.19
379.968	312.69
380.349	323.08
380.729	335.51
381.109	358.56
381.489	322.63
381.87	332.35
382.25	331.22
382.63	333.71
383.01	363.31
383.39	338.68
383.77	335.51
384.15	340.03
384.53	362.63
384.91	367.38
385.29	349.75
385.67	375.06
386.049	360.82
386.429	339.81
386.809	361.28
387.189	344.78
387.568	319.69
387.948	347.94
388.328	371.22
388.707	343.2
389.087	363.31
389.466	339.81
389.846	369.86
390.225	362.63
390.605	382.74
390.984	358.79
391.363	360.6
391.743	356.53
392.122	352.69
392.501	383.65
392.881	385.23
393.26	365.57
393.639	377.77
394.018	361.05
394.397	382.29
394.776	375.74
395.155	373.7
395.534	377.32
395.913	387.26
396.292	377.32
396.671	391.33
397.05	374.83
397.429	381.61
397.808	360.15
398.186	378
398.565	381.84
398.944	392.91
399.323	398.11
399.701	394.95
400.08	390.65
400.458	408.96
400.837	386.13
401.215	387.72
401.594	411.67
401.972	410.09
402.351	405.79
402.729	403.31
403.107	390.43
403.486	420.48
403.864	395.17
404.242	428.84
404.62	405.12
404.999	414.16
405.377	394.95
405.755	393.14
406.133	417.32
406.511	430.88
406.889	386.36
407.267	411.67
407.645	449.64
408.023	421.39
408.401	425.45
408.779	410.99
409.156	430.2
409.534	424.33
409.912	448.05
410.29	428.17
410.667	447.15
411.045	446.47
411.422	442.4
411.8	454.15
412.178	467.04
412.555	451.22
412.933	455.28
413.31	458.9
413.687	470.65
414.065	453.7
414.442	474.72
414.819	474.04
415.197	476.98
415.574	458.67
415.951	482.63
416.328	482.63
416.705	470.88
417.082	482.18
417.46	487.15
417.837	476.3
418.214	506.36
418.591	493.02
418.967	479.92
419.344	498
419.721	488.5
420.098	503.42
420.475	493.02
420.852	501.61
421.228	535.06
421.605	505.45
421.982	524.89
422.358	522.85
422.735	538.45
423.111	512.91
423.488	546.36
423.864	549.52
424.241	536.64
424.617	541.84
424.994	544.77
425.37	546.13
425.746	544.32
426.123	562.85
426.499	540.03
426.875	566.02
427.251	551.1
427.627	597.43
428.003	580.93
428.379	572.34
428.756	598.11
429.132	559.24
429.507	567.37
429.883	602.85
430.259	602.85
430.635	595.39
431.011	604.89
431.387	623.64
431.763	599.01
432.138	614.6
432.514	617.31
432.89	621.16
433.265	620.48
433.641	636.97
434.016	629.52
434.392	632.91
434.767	670.65
435.143	655.51
435.518	656.41
435.894	678.56
436.269	655.05
436.644	681.72
437.02	676.07
437.395	679.01
437.77	691.66
438.145	683.3
438.52	716.29
438.895	687.59
439.271	698.22
439.646	724.66
440.021	731.89
440.395	720.36
440.77	716.52
441.145	725.11
441.52	737.76
441.895	727.59
442.27	742.06
442.645	763.75
443.019	741.6
443.394	752.9
443.769	765.78
444.143	745.22
444.518	754.03
444.892	756.29
445.267	774.6
445.641	802.85
446.016	779.34
446.39	760.81
446.764	785.45
447.139	798.78
447.513	805.11
447.887	797.2
448.262	803.3
448.636	779.34
449.01	803.3
449.384	797.42
449.758	842.85
450.132	801.26
450.506	824.77
450.88	839.23
451.254	858.89
451.628	867.48
452.002	871.32
452.376	861.15
452.75	874.48
453.123	876.97
453.497	922.62
453.871	881.04
454.244	916.29
454.618	914.26
454.992	926.91
455.365	923.07
455.739	944.76
456.112	939.79
456.486	962.84
456.859	968.27
457.232	1003.29
457.606	961.94
457.979	997.87
458.352	990.19
458.725	1021.37
459.099	1020.24
459.472	1030.86
459.845	1051.2
460.218	1060.92
460.591	1055.04
460.964	1079.68
461.337	1113.57
461.71	1131.88
462.083	1111.76
462.456	1114.25
462.829	1119
463.201	1149.73
463.574	1159.9
463.947	1169.16
464.32	1207.13
464.692	1218.65
465.065	1244.42
465.438	1243.29
465.81	1260.24
466.183	1275.83
466.555	1305.88
466.928	1347.24
467.3	1334.58
467.672	1368.71
468.045	1374.58
468.417	1394.92
468.789	1464.3
469.161	1426.11
469.534	1444.86
469.906	1483.96
470.278	1512.43
470.65	1533.45
471.022	1568.25
471.394	1599.66
471.766	1620.45
472.138	1641.69
472.51	1705.87
472.882	1708.13
473.253	1759.88
473.625	1782.26
473.997	1869.03
474.369	1858.41
474.74	1905.42
475.112	1942.93
475.484	1987.9
475.855	2016.83
476.227	2087.11
476.598	2136.82
476.97	2214.11
477.341	2257.27
477.713	2299.98
478.084	2376.82
478.455	2471.5
478.827	2473.31
479.198	2616.81
479.569	2606.19
479.94	2704.04
480.311	2760.08
480.682	2860.65
481.053	2970.47
481.424	3076.46
481.795	3124.14
482.166	3193.74
482.537	3295.44
482.908	3333.18
483.279	3492.27
483.65	3569.55
484.021	3701.98
484.391	3789.89
484.762	3861.97
485.133	3972.71
485.503	4089.77
485.874	4229.65
486.244	4350.78
486.615	4478.68
486.985	4550.77
487.356	4725.45
487.726	4866.02
488.097	4963.87
488.467	5077.54
488.837	5211.32
489.207	5332.67
489.578	5518.65
489.948	5677.75
490.318	5754.58
490.688	5863.28
491.058	6070.28
491.428	6161.12
491.798	6348.69
492.168	6553.66
492.538	6620.32
492.908	6792.29
493.278	6983.47
493.648	7069.12
494.017	7267.53
494.387	7414.42
494.757	7542.33
495.126	7684.7
495.496	7808.76
495.866	8027.97
496.235	8136.89
496.605	8287.85
496.974	8408.07
497.344	8537.33
497.713	8683.77
498.082	8877.21
498.452	8994.5
498.821	9125.11
499.19	9256.18
499.559	9439.23
499.928	9509.51
500.298	9716.28
500.667	9799.67
501.036	9943.62
501.405	10104.75
501.774	10170.74
502.143	10317.4
502.512	10469.26
502.88	10638.07
503.249	10678.29
503.618	10821.79
503.987	10927.55
504.356	11085.29
504.724	11220.65
505.093	11347.2
505.462	11406.86
505.83	11618.38
506.199	11685.27
506.567	11903.8
506.936	11940.41
507.304	12167.29
507.672	12158.03
508.041	12373.39
508.409	12521.41
508.777	12653.61
509.145	12728.18
509.514	12767.5
509.882	12911.91
510.25	13014.05
510.618	13146.7
510.986	13267.6
511.354	13355.96
511.722	13560.02
512.09	13653.36
512.458	13760.47
512.826	13913.69
513.193	13869.4
513.561	13960.24
513.929	14144.42
514.297	14277.75
514.664	14355.71
515.032	14428.02
515.4	14589.83
515.767	14646.78
516.135	14822.82
516.502	14690.62
516.869	15016.48
517.237	14995.02
517.604	15092.87
517.972	15273.65
518.339	15339.64
518.706	15344.84
519.073	15469.58
519.44	15585.96
519.808	15740.53
520.175	15648.33
520.542	15861.43
520.909	16091.26
521.276	16032.73
521.643	16175.1
522.009	16234.98
522.376	16380.06
522.743	16448.08
523.11	16639.04
523.477	16815.76
523.843	16824.12
524.21	17054.4
524.577	17107.05
524.943	17181.17
525.31	17351.56
525.676	17415.29
526.043	17521.95
526.409	17633.82
526.776	17765.34
527.142	17813.25
527.508	17857.76
527.874	17984.09
528.241	18089.85
528.607	18193.35
528.973	18237.42
529.339	18241.71
529.705	18432.21
530.071	18440.8
530.437	18517.41
530.803	18552.89
531.169	18671.3
531.535	18776.61
531.901	18745.88
532.267	18900.9
532.632	18961.24
532.998	18919.43
533.364	19053.89
533.73	19001.24
534.095	19288.69
534.461	19211.18
534.826	19355.8
535.192	19331.4
535.557	19365.75
535.923	19471.28
536.288	19412.53
536.653	19479.64
537.019	19497.27
537.384	19571.62
537.749	19603.93
538.114	19622.24
538.479	19479.87
538.845	19662.01
539.21	19709.92
539.575	19711.95
539.94	19707.21
540.305	19765.96
540.67	19754.89
541.034	19868.11
541.399	19880.99
541.764	19854.77
542.129	19936.35
542.494	19993.3
542.858	19998.5
543.223	19984.94
543.587	20005.51
543.952	19920.76
544.316	19996.69
544.681	20034.43
545.045	20170.25
545.41	20093.64
545.774	20147.42
546.138	20189.23
546.503	20156.46
546.867	20080.31
547.231	20318.27
547.595	20304.93
547.959	20287.98
548.324	20375.66
548.688	20306.06
549.052	20443.01
549.416	20411.6
549.779	20273.97
550.143	20330.47
550.507	20523.68
550.871	20505.83
551.235	20548.09
551.599	20492.72
551.962	20596.68
552.326	20602.1
552.689	20691.59
553.053	20648.2
553.417	20635.32
553.78	20848.87
554.143	20662.21
554.507	20769.78
554.87	20802.09
555.234	21087.74
555.597	20842.32
555.96	20866.27
556.323	20963.67
556.686	21041.64
557.05	21162.54
557.413	21177.23
557.776	21066.27
558.139	21202.31
558.502	21184.23
558.865	21250.67
559.228	21410.89
559.59	21362.98
559.953	21451.79
560.316	21566.37
560.679	21591
561.041	21675.07
561.404	21848.39
561.767	21796.64
562.129	21781.28
562.492	21995.74
562.854	21902.63
563.217	21823.08
563.579	22050.42
563.941	22107.6
564.304	22233.02
564.666	22324.54
565.028	22371.32
565.39	22303.52
565.753	22430.53
566.115	22429.4
566.477	22532.22
566.839	22598.88
567.201	22700.35
567.563	22679.56
567.925	22865.99
568.287	22825.77
568.648	22894.69
569.01	23063.96
569.372	23081.13
569.734	23025.09
570.095	23170.62
570.457	23265.53
570.819	23208.36
571.18	23158.19
571.542	23275.02
571.903	23411.29
572.265	23483.83
572.626	23464.62
572.987	23549.59
573.349	23535.36
573.71	23675.69
574.071	23685.63
574.432	23717.95
574.794	23944.61
575.155	23796.37
575.516	23742.81
575.877	23899.19
576.238	23971.28
576.599	23933.09
576.96	24044.72
577.32	23996.36
577.681	24103.25
578.042	24115.23
578.403	24024.83
578.763	24089.69
579.124	24087.43
579.485	24252.17
579.845	24245.85
580.206	24223.47
580.566	24247.43
580.927	24226.41
581.287	24300.99
581.648	24317.71
582.008	24353.41
582.368	24218.28
582.728	24301.44
583.089	24351.61
583.449	24222.8
583.809	24314.77
584.169	24404.94
584.529	24329.46
584.889	24363.81
585.249	24334.66
585.609	24254.66
585.969	24377.37
586.329	24272.06
586.688	24337.14
587.048	24274.55
587.408	24268.9
587.768	24383.47
588.127	24262.12
588.487	24249.69
588.846	24448.78
589.206	24280.87
589.565	24375.79
589.925	24503.92
590.284	24346.63
590.643	24350.25
591.003	24318.16
591.362	24502.11
591.721	24446.29
592.08	24328.1
592.44	24413.07
592.799	24468.44
593.158	24278.61
593.517	24406.97
593.876	24421.21
594.235	24380.31
594.593	24383.02
594.952	24460.76
595.311	24437.48
595.67	24404.26
596.029	24504.6
596.387	24576.91
596.746	24533.97
597.104	24509.57
597.463	24366.97
597.822	24532.39
598.18	24389.8
598.538	24432.28
598.897	24505.27
599.255	24345.28
599.613	24618.49
599.972	24461.43
600.33	24470.02
600.688	24429.8
601.046	24607.19
601.404	24629.34
601.762	24532.17
602.12	24686.51
602.478	24698.71
602.836	24699.84
603.194	24679.51
603.552	24605.61
603.91	24568.1
604.268	24745.04
604.625	24609.23
604.983	24700.52
605.341	24651.03
605.698	24704.36
606.056	24870.46
606.413	24711.6
606.771	24793.63
607.128	24981.87
607.485	24909.78
607.843	24939.16
608.2	25020.06
608.557	24931.25
608.914	24957.47
609.272	24977.8
609.629	25096.67
609.986	25087.63
610.343	25019.38
610.7	25154.75
611.057	25295.08
611.414	25215.31
611.771	25174.41
612.127	25285.37
612.484	25291.24
612.841	25430
613.198	25286.27
613.554	25358.81
613.911	25565.58
614.267	25539.37
614.624	25411.69
614.98	25549.54
615.337	25639.48
615.693	25614.4
616.05	25697.78
616.406	25725.35
616.762	25704.56
617.118	25606.04
617.475	25687.16
617.831	25835.41
618.187	25773.04
618.543	25746.6
618.899	26003.54
619.255	25889.87
619.611	25945.01
619.967	25926.03
620.323	26001.28
620.678	25914.28
621.034	25942.07
621.39	25981.62
621.746	25853.03
622.101	26141.39
622.457	25970.55
622.812	25953.6
623.168	26078.79
623.523	26051.67
623.879	26149.52
624.234	25980.04
624.589	26107.27
624.945	26180.26
625.3	26108.62
625.655	26147.94
626.01	26198.11
626.365	26407.82
626.72	26065.91
627.075	26213.48
627.43	26226.81
627.785	26061.62
628.14	26079.24
628.495	26240.82
628.85	26201.27
629.205	26123.54
629.559	26133.48
629.914	26021.62
630.269	26041.73
630.623	26073.37
630.978	26128.06
631.332	26148.85
631.687	26075.18
632.041	26126.25
632.396	26154.95
632.75	25915.86
633.104	26132.12
633.459	26003.54
633.813	26061.17
634.167	26021.62
634.521	25826.14
634.875	25985.46
635.229	25962.64
635.583	25785.47
635.937	25744.56
636.291	25779.82
636.645	25770.33
636.999	25768.07
637.352	25779.59
637.706	25695.07
638.06	25848.06
638.413	25579.14
638.767	25542.76
639.121	25764
639.474	25509.09
639.828	25599.48
640.181	25563.1
640.534	25514.74
640.888	25353.16
641.241	25358.13
641.594	25423.44
641.947	25463.67
642.301	25436.1
642.654	25461.86
643.007	25449.66
643.36	25381.18
643.713	25228.42
644.066	25478.13
644.419	25211.47
644.771	25122.66
645.124	24896.45
645.477	24875.21
645.83	24693.29
646.182	24644.25
646.535	24617.36
646.888	24576.68
647.24	24415.33
647.593	24670.02
647.945	24601.32
648.298	24546.63
648.65	24412.17
649.002	24355.45
649.355	24431.15
649.707	24418.72
650.059	24561.09
650.411	24780.07
650.763	24856
651.115	25086.28
651.467	24983.23
651.819	25006.05
652.171	25007.63
652.523	24920.63
652.875	24975.32
653.227	24839.28
653.578	24940.97
653.93	24927.86
654.282	24800.63
654.633	24796.79
654.985	24878.82
655.337	24907.3
655.688	24897.35
656.039	25024.36
656.391	24780.29
656.742	24858.26
657.094	24773.06
657.445	24818.26
657.796	24865.94
658.147	24759.73
658.498	24881.99
658.849	24865.49
659.2	24832.27
659.551	24733.52
659.902	24912.95
660.253	24872.95
660.604	24792.27
660.955	24773.52
661.306	24876.34
661.656	24865.49
662.007	24852.61
662.358	24862.33
662.708	24841.76
663.059	24807.19
663.409	24717.02
663.76	24903.91
664.11	24850.58
664.461	24922.66
664.811	24880.86
665.161	24986.17
665.511	24777.36
665.862	24972.38
666.212	24957.24
666.562	24931.03
666.912	24895.09
667.262	24838.6
667.612	24805.38
667.962	24892.16
668.312	24833.4
668.662	24887.86
669.011	24886.05
669.361	24718.15
669.711	24695.55
670.06	24802.67
670.41	24753.18
670.76	24793.85
671.109	24780.75
671.459	24723.8
671.808	24638.6
672.157	24843.8
672.507	24569.9
672.856	24556.35
673.205	24736
673.554	24656
673.904	24474.09
674.253	24785.49
674.602	24628.21
674.951	24346.41
675.3	24252.17
675.649	24656.91
675.998	24556.57
676.346	24519.96
676.695	24613.97
677.044	24423.02
677.393	24438.16
677.741	24504.14
678.09	24490.13
678.438	24388.44
678.787	24382.11
679.135	24443.81
679.484	24134.89
679.832	24313.41
680.181	24169.69
680.529	24250.37
680.877	24026.42
681.225	24110.93
681.573	24221.44
681.922	24027.77
682.27	23957.72
682.618	24074.78
682.966	24009.02
683.314	24033.2
683.661	23935.35
684.009	23801.34
684.357	23798.4
684.705	23758.4
685.053	23704.39
685.4	23639.76
685.748	23642.25
686.095	23623.04
686.443	23495.13
686.79	23472.31
687.138	23548.46
687.485	23510.05
687.832	23485.87
688.18	23410.39
688.527	23399.77
688.874	23324.74
689.221	23196.83
689.568	23143.05
689.915	23077.51
690.262	23177.17
690.609	23009.49
690.956	22963.17
691.303	22876.62
691.65	22783.96
691.997	22795.71
692.344	22634.36
692.69	22616.74
693.037	22575.38
693.383	22358.89
693.73	22605.66
694.077	22299.23
694.423	22348.04
694.769	22253.58
695.116	22208.38
695.462	22076.86
695.808	22088.84
696.155	22139.23
696.501	21905.79
696.847	21877.77
697.193	21758.23
697.539	21782.63
697.885	21623.32
698.231	21542.41
698.577	21501.06
698.923	21528.18
699.269	21405.24
699.614	21291.12
699.96	21251.57
700.306	21162.99
700.651	21132.03
700.997	21055.19
701.342	21015.87
701.688	20912.6
702.033	20944.69
702.379	20796.44
702.724	20832.15
703.069	20825.37
703.415	20596
703.76	20675.77
704.105	20558.94
704.45	20424.48
704.795	20434.87
705.14	20287.76
705.485	20283.01
705.83	20269.23
706.175	20210.7
706.52	20105.16
706.865	20092.06
707.209	19993.98
707.554	19931.83
707.899	20090.47
708.243	19951.27
708.588	19912.63
708.932	19806.87
709.277	19791.05
709.621	19749.47
709.966	19610.71
710.31	19671.05
710.654	19535.46
710.998	19476.93
711.342	19586.98
711.687	19497.27
712.031	19373.43
712.375	19337.05
712.719	19339.31
713.063	19275.58
713.407	19231.06
713.75	19164.17
714.094	19078.75
714.438	19045.08
714.782	19085.53
715.125	19032.65
715.469	19082.37
715.812	18855.03
716.156	18767.8
716.499	18823.84
716.843	18770.51
717.186	18681.25
717.53	18773
717.873	18797.18
718.216	18734.35
718.559	18618.42
718.902	18531.19
719.246	18554.92
719.589	18547.92
719.932	18487.35
720.275	18418.88
720.617	18427.92
720.96	18363.74
721.303	18416.62
721.646	18425.21
721.989	18313.57
722.331	18363.51
722.674	18316.96
723.016	18318.09
723.359	18180.02
723.701	18275.38
724.044	18141.6
724.386	18060.25
724.729	18178.89
725.071	18109.28
725.413	18117.19
725.755	18144.09
726.097	17983.86
726.439	17989.51
726.782	18016.4
727.124	17972.56
727.465	17919.23
727.807	17872.68
728.149	17849.86
728.491	17832.68
728.833	17857.31
729.175	17787.71
729.516	17845.56
729.858	17874.71
730.199	17820.48
730.541	17729.86
730.882	17740.25
731.224	17781.38
731.565	17657.77
731.906	17769.18
732.248	17737.77
732.589	17613.48
732.93	17590.2
733.271	17541.39
733.612	17588.17
733.953	17753.59
734.294	17559.69
734.635	17559.47
734.976	17603.53
735.317	17550.43
735.658	17560.15
735.999	17622.06
736.339	17492.12
736.68	17596.75
737.021	17610.77
737.361	17465.23
737.702	17453.03
738.042	17526.47
738.383	17565.57
738.723	17506.36
739.063	17498.23
739.404	17503.42
739.744	17452.58
740.084	17520.15
740.424	17408.06
740.764	17381.17
741.104	17541.84
741.444	17335.97
741.784	17404.22
742.124	17368.51
742.464	17434.27
742.804	17451.67
743.143	17412.35
743.483	17521.95
743.823	17340.26
744.162	17458.68
744.502	17549.98
744.841	17520.82
745.181	17516.53
745.52	17525.8
745.86	17615.06
746.199	17553.59
746.538	17616.19
746.877	17698.9
747.216	17690.54
747.556	17658.22
747.895	17770.54
748.234	17732.12
748.573	17787.26
748.911	17716.07
749.25	17869.06
749.589	17883.75
749.928	17921.27
750.267	18019.57
750.605	17931.44
750.944	17962.17
751.283	17879.23
751.621	18153.58
751.96	18053.47
752.298	18148.15
752.636	18206.23
752.975	18217.76
753.313	18264.31
753.651	18435.38
753.989	18441.25
754.327	18508.82
754.666	18389.28
755.004	18631.53
755.342	18728.48
755.679	18693
756.017	18798.98
756.355	18959.43
756.693	18889.15
757.031	18982.48
757.368	19042.37
757.706	19127.34
758.044	19044.85
758.381	19309.7
758.719	19249.14
759.056	19380.21
759.394	19403.04
759.731	19316.26
760.068	19465.63
760.405	19364.84
760.743	19516.03
761.08	19634.44
761.417	19537.04
761.754	19738.39
762.091	19710.37
762.428	19690.49
762.765	19845.06
763.102	19922.8
763.438	19929.35
763.775	19926.86
764.112	20012.28
764.449	20105.84
764.785	20056.8
765.122	20062.9
765.458	19968.9
765.795	19980.42
766.131	20181.55
766.467	20114.43
766.804	20185.16
767.14	20114.65
767.476	20154.65
767.812	20210.02
768.148	20244.59
768.485	20156.69
768.821	20148.33
769.157	20070.59
769.492	20161.89
769.828	20225.39
770.164	20062.45
770.5	20101.32
770.836	20161.66
771.171	20064.26
771.507	20071.94
771.842	20023.81
772.178	19996.24
772.513	20083.24
772.849	19983.36
773.184	19872.18
773.519	20011.15
773.855	19961.66
774.19	19829.24
774.525	19826.98
774.86	19911.04
775.195	19767.32
775.53	19760.77
775.865	19739.07
776.2	19692.97
776.535	19377.72
776.87	19515.8
777.205	19405.52
777.539	19535.01
777.874	19441
778.209	19324.39
778.543	19388.57
778.878	19176.15
779.212	19280.55
779.547	19137.96
779.881	19243.94
780.215	19024.97
780.55	19095.92
780.884	19048.02
781.218	19016.15
781.552	18958.75
781.886	18919.21
782.22	18757.18
782.554	18725.99
782.888	18553.11
783.222	18474.92
783.556	18413
783.889	18424.76
784.223	18320.58
784.557	18350.41
784.89	18361.71
785.224	18314.93
785.557	18177.53
785.891	18187.7
786.224	18121.71
786.558	18102.28
786.891	18000.36
787.224	17921.94
787.557	17890.53
787.891	17791.78
788.224	17845.34
788.557	17854.38
788.89	17935.28
789.223	17681.5
789.556	17563.99
789.888	17605.12
790.221	17474.95
790.554	17335.52
790.887	17453.03
791.219	17373.71
791.552	17369.42
791.884	17162.42
792.217	17192.25
792.549	17226.6
792.882	17131.23
793.214	17013.04
793.546	17058.01
793.879	16882.65
794.211	16784.57
794.543	16878.81
794.875	16789.09
795.207	16823.44
795.539	16722.2
795.871	16667.29
796.203	16570.79
796.535	16479.95
796.867	16445.6
797.198	16435.2
797.53	16364.47
797.862	16323.12
798.193	16325.38
798.525	16117.25
798.856	16228.43
799.188	16090.13
799.519	16039.73
799.85	16022.78
800.182	15947.31
800.513	15933.97
800.844	15851.49
801.175	15869.12
801.506	15832.28
801.837	15690.36
802.168	15688.33
802.499	15596.13
802.83	15560.65
803.161	15557.03
803.491	15599.75
803.822	15627.77
804.153	15447.66
804.483	15315.91
804.814	15303.93
805.145	15298.74
805.475	15299.64
805.805	15227.78
806.136	15129.48
806.466	15141.23
806.796	15116.82
807.126	15007.67
807.457	14992.3
807.787	14909.14
808.117	14858.07
808.447	14812.87
808.777	14905.98
809.107	14778.3
809.436	14753.21
809.766	14828.01
810.096	14754.57
810.426	14733.55
810.755	14689.49
811.085	14606.1
811.414	14591.41
811.744	14464.41
812.073	14407.23
812.403	14443.84
812.732	14318.42
813.061	14322.72
813.39	14218.76
813.719	14287.92
814.049	14344.86
814.378	14150.52
814.707	14178.99
815.036	14104.87
815.365	14181.03
815.693	13923.86
816.022	14078.43
816.351	13995.49
816.68	13835.72
817.008	13920.47
817.337	13777.19
817.665	13802.96
817.994	13780.36
818.322	13717.53
818.651	13651.55
818.979	13690.64
819.307	13743.52
819.636	13700.81
819.964	13572.23
820.292	13655.84
820.62	13615.16
820.948	13560.25
821.276	13650.42
821.604	13621.49
821.932	13574.04
822.259	13574.94
822.587	13567.03
822.915	13513.7
823.243	13588.72
823.57	13458.11
823.898	13557.31
824.225	13477.09
824.553	13511.66
824.88	13456.75
825.207	13474.15
825.535	13480.03
825.862	13508.5
826.189	13539.46
826.516	13522.29
826.843	13563.19
827.17	13498.11
827.497	13525.68
827.824	13539.46
828.151	13610.87
828.478	13541.04
828.805	13555.96
829.131	13489.29
829.458	13482.74
829.785	13422.4
830.111	13359.58
830.438	13567.03
830.764	13420.82
831.09	13435.06
831.417	13367.04
831.743	13414.27
832.069	13450.88
832.395	13391.22
832.722	13468.28
833.048	13347.38
833.374	13397.09
833.7	13260.15
834.026	13300.6
834.351	13316.19
834.677	13307.6
835.003	13327.49
835.329	13295.85
835.654	13249.98
835.98	13206.81
836.306	13311.44
836.631	13220.6
836.956	13294.04
837.282	13197.55
837.607	13176.08
837.932	13111
838.258	13146.48
838.583	13126.36
838.908	13063.09
839.233	13021.28
839.558	13053.15
839.883	13031.45
840.208	12967.05
840.533	13013.6
840.858	13020.6
841.182	12988.51
841.507	12959.81
841.832	12935.41
842.156	12780.61
842.481	12838.69
842.805	12856.99
843.13	12760.05
843.454	12712.36
843.778	12749.65
844.103	12693.61
844.427	12567.51
844.751	12609.32
845.075	12513.72
845.399	12503.33
845.723	12516.44
846.047	12507.4
846.371	12412.03
846.695	12404.35
847.019	12296.78
847.343	12265.14
847.666	12143.79
847.99	12136.33
848.313	12127.52
848.637	12025.15
848.96	12115.77
849.284	12003.91
849.607	11937.02
849.931	11840.52
850.254	11722.11
850.577	11710.36
850.9	11709.45
851.223	11622.9
851.546	11597.82
851.869	11539.96
852.192	11541.09
852.515	11490.93
852.838	11451.83
853.161	11385.62
853.483	11408.22
853.806	11349.91
854.129	11391.49
854.451	11232.4
854.774	11206.41
855.096	11187.21
855.419	11173.42
855.741	11112.41
856.063	11053.2
856.385	11100.2
856.708	11018.62
857.03	10980.21
857.352	11011.62
857.674	10930.72
857.996	10903.82
858.318	10794.67
858.64	10904.28
858.961	10762.81
859.283	10749.25
859.605	10711.51
859.926	10722.59
860.248	10722.59
860.57	10624.06
860.891	10599.42
861.212	10574.34
861.534	10532.76
861.855	10476.04
862.176	10615.47
862.498	10529.82
862.819	10488.47
863.14	10504.06
863.461	10477.17
863.782	10377.06
864.103	10425.42
864.424	10385.87
864.745	10431.29
865.065	10268.81
865.386	10380
865.707	10222.94
866.027	10298.64
866.348	10248.7
866.668	10256.83
866.989	10235.37
867.309	10114.24
867.63	10183.16
867.95	10204.86
868.27	10124.63
868.59	10121.47
868.91	10167.12
869.23	10099.78
869.55	10019.1
869.87	10088.25
870.19	9991.98
870.51	10035.37
870.83	10051.64
871.15	10026.11
871.469	9982.72
871.789	9910.86
872.109	9968.48
872.428	9915.37
872.748	10005.32
873.067	9906.79
873.386	9911.99
873.706	9917.63
874.025	9829.5
874.344	9784.08
874.663	9850.74
874.982	9817.98
875.301	9795.6
875.62	9776.4
875.939	9778.2
876.258	9768.94
876.577	9691.88
876.896	9698.21
877.214	9680.58
877.533	9697.98
877.852	9657.3
878.17	9596.06
878.489	9741.14
878.807	9648.94
879.125	9631.31
879.444	9581.37
879.762	9589.96
880.08	9600.58
880.398	9496.18
880.716	9517.19
881.034	9433.13
881.352	9462.05
881.67	9419.57
881.988	9476.74
882.306	9436.52
882.624	9413.47
882.941	9377.08
883.259	9297.99
883.577	9270.42
883.894	9254.15
884.212	9261.61
884.529	9278.78
884.846	9239.01
885.164	9216.64
885.481	9181.61
885.798	9214.6
886.115	9081.05
886.432	9112.01
886.75	9114.27
887.067	9190.42
887.383	9116.07
887.7	9102.74
888.017	9054.15
888.334	9062.74
888.651	9010.09
888.967	8923.99
889.284	8901.84
889.6	8855.74
889.917	8801.51
890.233	8868.4
890.55	8787.95
890.866	8780.94
891.182	8762.64
891.498	8743.2
891.815	8711.56
892.131	8683.54
892.447	8642.64
892.763	8641.28
893.079	8582.98
893.395	8595.18
893.71	8556.31
894.026	8487.16
894.342	8517.9
894.657	8486.94
894.973	8465.7
895.289	8427.05
895.604	8384.57
895.92	8322.2
896.235	8329.88
896.55	8297.11
896.865	8306.83
897.181	8260.73
897.496	8328.07
897.811	8286.27
898.126	8210.56
898.441	8098.93
898.756	8130.34
899.071	8144.57
899.386	8100.06
899.7	8057.12
900.015	8040.4
900.33	7955.2
900.644	7978.7
900.959	7933.96
901.273	7879.27
901.588	7866.84
901.902	7814.41
902.216	7832.72
902.531	7764.25
902.845	7740.74
903.159	7702.55
903.473	7626.4
903.787	7681.76
904.101	7561.09
904.415	7624.14
904.729	7564.48
905.042	7529.9
905.356	7503.69
905.67	7491.48
905.984	7481.09
906.297	7479.51
906.611	7375.78
906.924	7371.49
907.237	7350.24
907.551	7302.34
907.864	7291.94
908.177	7271.38
908.491	7272.05
908.804	7202.9
909.117	7124.94
909.43	7176.01
909.743	7100.99
910.056	7104.6
910.368	7016.02
910.681	7048.78
910.994	7012.85
911.307	6962.23
911.619	6957.94
911.932	6934.66
912.244	6921.78
912.557	6860.31
912.869	6857.83
913.181	6805.63
913.494	6838.85
913.806	6771.28
914.118	6773.31
914.43	6685.4
914.742	6708.23
915.054	6684.95
915.366	6612.41
915.678	6587.55
915.99	6559.98
916.302	6537.61
916.613	6487.44
916.925	6484.96
917.236	6426.2
917.548	6464.39
917.859	6416.26
918.171	6389.14
918.482	6357.05
918.794	6301.46
919.105	6314.79
919.416	6249.93
919.727	6234.12
920.038	6262.59
920.349	6192.31
920.66	6173.33
920.971	6218.07
921.282	6130.84
921.593	6115.93
921.903	6054.01
922.214	6056.72
922.525	6034.8
922.835	5999.77
923.146	5951.86
923.456	5920.23
923.767	5943.95
924.077	5925.2
924.387	5901.92
924.697	5862.6
925.008	5824.18
925.318	5838.42
925.628	5786.22
925.938	5800
926.248	5779.89
926.558	5757.74
926.867	5645.43
927.177	5622.38
927.487	5629.61
927.796	5616.5
928.106	5611.31
928.416	5606.79
928.725	5568.82
929.034	5506
929.344	5523.4
929.653	5496.96
929.962	5424.19
930.271	5413.57
930.581	5439.79
930.89	5336.06
931.199	5326.79
931.508	5309.85
931.817	5282.5
932.125	5263.52
932.434	5265.1
932.743	5257.19
933.051	5212.9
933.36	5199.57
933.669	5214.48
933.977	5154.14
934.286	5123.86
934.594	5126.8
934.902	5086.8
935.21	5077.76
935.519	5066.91
935.827	5077.08
936.135	5032.11
936.443	5002.51
936.751	4939.69
937.059	4960.02
937.367	4972
937.674	4876.86
937.982	4900.82
938.29	4903.3
938.597	4846.81
938.905	4817.66
939.213	4793.7
939.52	4777.88
939.827	4761.16
940.135	4730.43
940.442	4723.87
940.749	4725
941.056	4699.47
941.363	4661.73
941.67	4654.95
941.977	4629.64
942.284	4577.44
942.591	4580.15
942.898	4581.73
943.205	4524.1
943.511	4494.5
943.818	4531.79
944.125	4465.8
944.431	4527.95
944.738	4426.25
945.044	4449.3
945.35	4421.06
945.657	4374.73
945.963	4356.43
946.269	4345.13
946.575	4350.78
946.881	4304.22
947.187	4280.95
947.493	4296.09
947.799	4231.23
948.105	4238.01
948.41	4206.6
948.716	4134.06
949.022	4210.89
949.327	4181.06
949.633	4112.14
949.938	4137
950.244	4169.76
950.549	4062.65
950.854	4071.91
951.16	4065.13
951.465	4049.09
951.77	3971.35
952.075	4016.55
952.38	4014.51
952.685	3993.95
952.99	3956.66
953.294	3985.59
953.599	3924.35
953.904	3913.72
954.209	3871.69
954.513	3863.33
954.818	3853.16
955.122	3838.7
955.426	3841.86
955.731	3831.47
956.035	3799.15
956.339	3755.31
956.643	3791.92
956.948	3737.46
957.252	3709.66
957.556	3733.39
957.86	3704.24
958.163	3675.99
958.467	3696.1
958.771	3664.47
959.075	3659.95
959.378	3615.88
959.682	3604.81
959.985	3622.66
960.289	3589.21
960.592	3577.91
960.896	3526.84
961.199	3549.89
961.502	3531.81
961.805	3499.72
962.108	3476.9
962.411	3488.43
962.714	3404.13
963.017	3475.54
963.32	3447.52
963.623	3400.52
963.926	3406.17
964.228	3387.41
964.531	3335.89
964.833	3386.51
965.136	3321.88
965.438	3329.33
965.741	3304.7
966.043	3285.27
966.345	3295.44
966.648	3275.78
966.95	3250.24
967.252	3221.09
967.554	3247.98
967.856	3232.61
968.158	3173.41
968.46	3151.71
968.761	3188.09
969.063	3158.94
969.365	3137.93
969.666	3102.45
969.968	3116.23
970.269	3099.73
970.571	3077.36
970.872	3057.25
971.174	3062.22
971.475	3038.95
971.776	3038.72
972.077	3029.45
972.378	2998.04
972.679	2999.85
972.98	2988.55
973.281	2977.7
973.582	2954.88
973.883	2943.58
974.183	2958.5
974.484	2912.17
974.785	2912.4
975.085	2904.03
975.386	2919.63
975.686	2844.83
975.986	2850.48
976.287	2872.62
976.587	2808.44
976.887	2838.72
977.187	2794.88
977.487	2773.19
977.787	2805.96
978.087	2759.86
978.387	2752.63
978.687	2742
978.987	2715.79
979.286	2722.8
979.586	2746.98
979.885	2690.71
980.185	2724.38
980.484	2655.68
980.784	2657.49
981.083	2593.31
981.382	2651.84
981.682	2619.97
981.981	2624.04
982.28	2588.34
982.579	2533.2
982.878	2558.73
983.177	2564.38
983.475	2537.04
983.774	2589.92
984.073	2544.27
984.372	2524.16
984.67	2533.2
984.969	2518.73
985.267	2500.2
985.566	2467.21
985.864	2474.21
986.162	2452.07
986.461	2441.9
986.759	2427.89
987.057	2404.16
987.355	2429.7
987.653	2435.8
987.951	2381.34
988.249	2353.99
988.547	2395.12
988.844	2355.12
989.142	2353.99
989.44	2302.69
989.737	2306.54
990.035	2292.3
990.332	2313.31
990.63	2316.7
990.927	2281.9
991.224	2271.51
991.521	2258.4
991.819	2259.53
992.116	2250.94
992.413	2239.87
992.71	2238.97
993.006	2189.93
993.303	2229.02
993.6	2214.33
993.897	2199.42
994.193	2196.03
994.49	2143.6
994.787	2197.39
995.083	2190.38
995.379	2129.36
995.676	2145.18
995.972	2107.9
996.268	2105.64
996.565	2110.61
996.861	2096.6
997.157	2064.06
997.453	2064.73
997.749	2072.64
998.044	2018.63
998.34	2030.16
998.636	2035.58
998.932	1990.16
999.227	1992.65
999.523	1963.95
999.818	1937.28
1000.114	1980.89
1000.409	2004.17
1000.704	1952.19
1001	1967.79
1001.295	1949.71
1001.59	1913.1
1001.885	1931.63
1002.18	1892.76
1002.475	1896.83
1002.77	1902.25
1003.065	1879.2
1003.359	1858.19
1003.654	1872.2
1003.949	1858.41
1004.243	1831.97
1004.538	1834.01
1004.832	1820.9
1005.127	1794.91
1005.421	1789.94
1005.715	1787.23
1006.009	1758.98
1006.304	1775.02
1006.598	1775.02
1006.892	1731.18
1007.186	1722.14
1007.48	1721.24
1007.773	1744.97
1008.067	1695.25
1008.361	1684.63
1008.655	1657.96
1008.948	1669.26
1009.242	1661.58
1009.535	1634.46
1009.829	1649.15
1010.122	1654.58
1010.415	1618.64
1010.708	1618.64
1011.001	1632.43
1011.295	1615.03
1011.588	1614.58
1011.881	1605.76
1012.173	1558.31
1012.466	1582.71
1012.759	1575.71
1013.052	1579.77
1013.344	1571.41
1013.637	1530.51
1013.93	1523.28
1014.222	1523.05
1014.514	1532.54
1014.807	1510.17
1015.099	1495.94
1015.391	1485.54
1015.683	1511.08
1015.976	1472.66
1016.268	1488.7
1016.56	1440.8
1016.851	1447.8
1017.143	1439.89
1017.435	1422.94
1017.727	1434.24
1018.018	1388.59
1018.31	1389.95
1018.602	1380.68
1018.893	1366.22
1019.185	1361.7
1019.476	1361.7
1019.767	1362.83
1020.058	1344.75
1020.35	1312.21
1020.641	1347.46
1020.932	1340.01
1021.223	1322.15
1021.514	1314.47
1021.804	1292.32
1022.095	1299.1
1022.386	1273.57
1022.677	1257.98
1022.967	1274.47
1023.258	1257.98
1023.548	1246.68
1023.839	1242.38
1024.129	1246.22
1024.419	1227.47
1024.709	1196.96
1025	1215.72
1025.29	1174.59
1025.58	1184.53
1025.87	1183.4
1026.16	1166.9
1026.449	1180.46
1026.739	1157.87
1027.029	1122.39
1027.319	1148.83
1027.608	1158.09
1027.898	1121.48
1028.187	1121.71
1028.477	1121.93
1028.766	1102.27
1029.055	1112.89
1029.344	1085.55
1029.634	1100.92
1029.923	1079.9
1030.212	1083.97
1030.501	1065.44
1030.79	1059.34
1031.078	1067.02
1031.367	1062.5
1031.656	1055.49
1031.945	1053.46
1032.233	1040.81
1032.522	1042.84
1032.81	1038.32
1033.099	1002.39
1033.387	1001.48
1033.675	1018.43
1033.963	987.02
1034.251	985.44
1034.54	956.97
1034.828	1004.42
1035.116	959.45
1035.403	987.47
1035.691	954.93
1035.979	954.71
1036.267	943.86
1036.554	930.53
1036.842	947.7
1037.129	912.45
1037.417	924.2
1037.704	945.89
1037.992	919.23
1038.279	893.24
1038.566	903.63
1038.853	903.63
1039.14	903.63
