Data from hue_150_FLMS001491_00099.txt Node
Date: Tue Feb 07 16:54:48 GMT 2017
User: dcchb
Spectrometer: FLMS00149
Trigger mode: 0
Integration Time (sec): 2.000000E-2
Scans to average: 10
Electric dark correction enabled: true
Nonlinearity correction enabled: false
Boxcar width: 0
XAxis mode: Wavelengths
Number of Pixels in Spectrum: 2048
>>>>>Begin Spectral Data<<<<<
341.393	-6.68
341.776	-6.68
342.16	-6.68
342.543	-55.27
342.927	-76.28
343.31	-86
343.693	-59.56
344.077	-82.84
344.46	-57.98
344.843	-55.49
345.226	-16.17
345.61	-33.8
345.993	-33.35
346.376	5.3
346.759	6.43
347.142	35.8
347.525	32.41
347.908	59.76
348.291	89.14
348.674	77.16
349.057	119.19
349.44	134.33
349.823	164.16
350.206	153.32
350.588	197.38
350.971	207.33
351.354	231.05
351.737	245.97
352.119	257.95
352.502	256.14
352.884	273.54
353.267	283.48
353.65	292.29
354.032	309.92
354.414	295.68
354.797	318.96
355.179	330.49
355.562	306.53
355.944	311.5
356.326	324.16
356.709	348.11
357.091	329.13
357.473	313.08
357.855	340.88
358.238	313.99
358.62	325.74
359.002	321.22
359.384	331.62
359.766	336.36
360.148	333.42
360.53	344.95
360.912	357.83
361.294	333.2
361.676	330.26
362.057	335.91
362.439	332.07
362.821	342.24
363.203	315.12
363.584	312.63
363.966	321.9
364.348	302.69
364.729	332.75
365.111	313.31
365.493	307.44
365.874	323.03
366.256	320.99
366.637	311.73
367.019	312.86
367.4	307.66
367.781	305.18
368.163	312.18
368.544	312.41
368.925	319.41
369.306	301.79
369.688	313.08
370.069	316.7
370.45	313.54
370.831	292.29
371.212	328.45
371.593	307.44
371.974	305.63
372.355	324.61
372.736	316.7
373.117	321.22
373.498	316.02
373.879	297.72
374.26	308.11
374.641	302.46
375.021	311.73
375.402	294.1
375.783	313.08
376.163	333.88
376.544	335.68
376.925	314.44
377.305	332.52
377.686	327.32
378.066	336.14
378.447	332.29
378.827	342.24
379.208	316.47
379.588	320.54
379.968	322.58
380.349	346.98
380.729	323.03
381.109	328.45
381.489	314.44
381.87	324.16
382.25	302.92
382.63	326.42
383.01	346.76
383.39	348.56
383.77	336.81
384.15	326.19
384.53	330.94
384.91	349.47
385.29	335.01
385.67	333.2
386.049	344.72
386.429	339.98
386.809	351.95
387.189	349.92
387.568	342.01
387.948	349.47
388.328	362.35
388.707	339.75
389.087	359.19
389.466	350.82
389.846	366.64
390.225	350.15
390.605	372.74
390.984	359.19
391.363	354.89
391.743	353.99
392.122	351.73
392.501	374.1
392.881	371.61
393.26	357.6
393.639	359.64
394.018	384.72
394.397	359.64
394.776	375.68
395.155	367.77
395.534	355.12
395.913	346.98
396.292	366.42
396.671	360.09
397.05	398.73
397.429	370.48
397.808	359.19
398.186	366.42
398.565	363.48
398.944	389.92
399.323	377.72
399.701	379.07
400.08	393.08
400.458	381.78
400.837	379.52
401.215	386.98
401.594	391.05
401.972	393.76
402.351	398.73
402.729	414.33
403.107	415.68
403.486	389.92
403.864	418.17
404.242	380.88
404.62	414.1
404.999	415
405.377	404.83
405.755	407.77
406.133	435.34
406.511	405.29
406.889	426.53
407.267	441.22
407.645	410.48
408.023	427.43
408.401	426.75
408.779	402.35
409.156	438.05
409.534	440.09
409.912	439.18
410.29	442.35
410.667	450.71
411.045	432.86
411.422	450.48
411.8	444.15
412.178	449.58
412.555	471.5
412.933	448.67
413.31	471.05
413.687	460.2
414.065	462.91
414.442	494.55
414.819	468.79
415.197	467.21
415.574	467.88
415.951	500.2
416.328	477.37
416.705	472.85
417.082	488.22
417.46	474.44
417.837	465.85
418.214	489.35
418.591	502.01
418.967	503.81
419.344	502.68
419.721	506.75
420.098	486.64
420.475	498.16
420.852	495.68
421.228	512.18
421.605	510.14
421.982	510.37
422.358	502.01
422.735	547.43
423.111	514.44
423.488	547.2
423.864	512.18
424.241	507.88
424.617	533.19
424.994	526.19
425.37	549.01
425.746	549.91
426.123	560.76
426.499	541.78
426.875	546.98
427.251	552.85
427.627	569.35
428.003	579.29
428.379	568.67
428.756	586.3
429.132	573.42
429.507	570.71
429.883	593.76
430.259	588.78
430.635	577.03
431.011	586.98
431.387	592.63
431.763	600.76
432.138	609.35
432.514	608.22
432.89	634.21
433.265	638.73
433.641	633.75
434.016	644.15
434.392	643.02
434.767	668.56
435.143	652.51
435.518	652.96
435.894	672.62
436.269	659.74
436.644	663.13
437.02	654.77
437.395	672.62
437.77	668.78
438.145	695
438.52	723.7
438.895	707.42
439.271	712.4
439.646	737.03
440.021	719.85
440.395	724.37
440.77	745.62
441.145	734.09
441.52	739.06
441.895	748.78
442.27	764.37
442.645	775.9
443.019	743.58
443.394	756.92
443.769	760.76
444.143	765.73
444.518	761.66
444.892	784.03
445.267	790.36
445.641	801.21
446.016	817.03
446.39	794.65
446.764	814.09
447.139	811.15
447.513	835.11
447.887	800.3
448.262	807.54
448.636	842.79
449.01	851.15
449.384	854.09
449.758	834.2
450.132	838.95
450.506	862
450.88	850.47
451.254	869.91
451.628	883.01
452.002	867.65
452.376	897.25
452.75	908.32
453.123	891.15
453.497	930.47
453.871	916.46
454.244	915.78
454.618	915.56
454.992	944.03
455.365	975.89
455.739	976.57
456.112	994.2
456.486	983.58
456.859	992.62
457.232	1000.07
457.606	1006.63
457.979	1040.98
458.352	1026.06
458.725	1059.73
459.099	1036
459.472	1068.32
459.845	1077.36
460.218	1106.06
460.591	1109.9
460.964	1093.86
461.337	1145.38
461.71	1174.98
462.083	1181.54
462.456	1171.82
462.829	1208.2
463.201	1218.6
463.574	1221.76
463.947	1249.78
464.32	1273.74
464.692	1271.03
465.065	1291.59
465.438	1285.94
465.81	1323.45
466.183	1334.75
466.555	1351.25
466.928	1362.55
467.3	1410.68
467.672	1395.99
468.045	1426.95
468.417	1465.82
468.789	1470.34
469.161	1506.27
469.534	1514.18
469.906	1558.48
470.278	1600.96
470.65	1590.79
471.022	1631.92
471.394	1674.63
471.766	1740.84
472.138	1734.29
472.51	1768.19
472.882	1793.5
473.253	1806.83
473.625	1871.69
473.997	1925.47
474.369	1955.08
474.74	1953.27
475.112	2037.33
475.484	2079.14
475.855	2151.45
476.227	2132.25
476.598	2226.93
476.97	2278.23
477.341	2345.12
477.713	2360.26
478.084	2408.62
478.455	2509.19
478.827	2555.29
479.198	2668.28
479.569	2681.61
479.94	2787.37
480.311	2784.43
480.682	2907.59
481.053	3019
481.424	3111.66
481.795	3170.19
482.166	3260.58
482.537	3323.85
482.908	3447.92
483.279	3534.24
483.65	3654.01
484.021	3723.16
484.391	3789.38
484.762	3844.52
485.133	3922.48
485.503	4073.21
485.874	4197.05
486.244	4299.87
486.615	4409.93
486.985	4533.09
487.356	4615.34
487.726	4736.47
488.097	4925.85
488.467	4988.89
488.837	5151.15
489.207	5266.18
489.578	5386.62
489.948	5460.75
490.318	5588.88
490.688	5728.54
491.058	5806.27
491.428	5991.13
491.798	6042.65
492.168	6247.17
492.538	6338.24
492.908	6528.51
493.278	6596.99
493.648	6642.64
494.017	6849.18
494.387	6869.07
494.757	7081.04
495.126	7182.51
495.496	7293.47
495.866	7374.59
496.235	7487.81
496.605	7620.46
496.974	7759.22
497.344	7821.81
497.713	7897.29
498.082	8064.52
498.452	8110.62
498.821	8231.07
499.19	8292.08
499.559	8459.09
499.928	8567.56
500.298	8654.56
500.667	8674.22
501.036	8825.63
501.405	8874.44
501.774	8918.96
502.143	9072.63
502.512	9148.33
502.88	9240.99
503.249	9323.02
503.618	9378.38
503.987	9442.34
504.356	9519.62
504.724	9579.28
505.093	9685.27
505.462	9761.65
505.83	9875.77
506.199	9909.22
506.567	10018.82
506.936	9965.26
507.304	10139.72
507.672	10154.86
508.041	10210.68
508.409	10264.24
508.777	10356.44
509.145	10477.56
509.514	10470.11
509.882	10464.23
510.25	10511.23
510.618	10559.82
510.986	10705.58
511.354	10771.34
511.722	10768.18
512.09	10847.95
512.458	10846.37
512.826	10892.69
513.193	10938.34
513.561	10982.63
513.929	11104.44
514.297	11172.91
514.664	11210.65
515.032	11155.51
515.4	11256.75
515.767	11245
516.135	11268.96
516.502	11235.28
516.869	11376.97
517.237	11403.41
517.604	11338.33
517.972	11452.23
518.339	11476.18
518.706	11425.56
519.073	11472.79
519.44	11543.98
519.808	11606.57
520.175	11527.93
520.542	11660.36
520.909	11715.27
521.276	11608.83
521.643	11709.85
522.009	11730.64
522.376	11822.16
522.743	11805.66
523.11	11832.1
523.477	11926.34
523.843	11893.57
524.21	11972.67
524.577	12081.82
524.943	12059.44
525.31	12024.42
525.676	12106.45
526.043	12055.15
526.409	12043.17
526.776	12183.73
527.142	12188.93
527.508	12240.23
527.874	12234.58
528.241	12251.53
528.607	12183.06
528.973	12233.68
529.339	12199.1
529.705	12270.74
530.071	12293.56
530.437	12292.66
530.803	12254.69
531.169	12322.71
531.535	12191.19
531.901	12180.34
532.267	12228.48
532.632	12208.59
532.998	12166.11
533.364	12264.86
533.73	12191.19
534.095	12232.77
534.461	12131.98
534.826	12187.8
535.192	12137.63
535.557	12243.39
535.923	12126.56
536.288	12146.45
536.653	12075.94
537.019	12008.82
537.384	12005.21
537.749	11988.48
538.114	11990.07
538.479	11915.27
538.845	11891.99
539.21	11807.02
539.575	11875.72
539.94	11800.69
540.305	11757.3
540.67	11751.88
541.034	11772.67
541.399	11692.22
541.764	11701.26
542.129	11723.41
542.494	11637.31
542.858	11628.95
543.223	11572.9
543.587	11485.22
543.952	11548.95
544.316	11462.62
544.681	11457.65
545.045	11374.04
545.41	11425.56
545.774	11389.4
546.138	11384.88
546.503	11308.28
546.867	11232.57
547.231	11343.53
547.595	11243.87
547.959	11176.3
548.324	11115.74
548.688	11153.25
549.052	11109.41
549.416	11026.25
549.779	11017.66
550.143	10980.15
550.507	10949.64
550.871	10957.1
551.235	10876.2
551.599	10953.26
551.962	10861.28
552.326	10896.08
552.689	10839.59
553.053	10840.49
553.417	10778.57
553.78	10826.48
554.143	10734.28
554.507	10734.51
554.87	10757.78
555.234	10776.99
555.597	10630.55
555.96	10659.03
556.323	10677.33
556.686	10643.66
557.05	10676.43
557.413	10650.67
557.776	10600.5
558.139	10715.3
558.502	10664.9
558.865	10599.14
559.228	10548.07
559.59	10618.12
559.953	10570.67
560.316	10679.59
560.679	10549.65
561.041	10605.47
561.404	10574.28
561.767	10549.88
562.129	10580.61
562.492	10674.85
562.854	10584.68
563.217	10541.06
563.579	10542.19
563.941	10621.51
564.304	10588.07
564.666	10654.73
565.028	10620.61
565.39	10584.68
565.753	10696.99
566.115	10660.16
566.477	10654.06
566.839	10664.68
567.201	10751.45
567.563	10718.69
567.925	10716.2
568.287	10722.98
568.648	10714.62
569.01	10708.97
569.372	10744.22
569.734	10666.26
570.095	10742.42
570.457	10766.6
570.819	10784
571.18	10744.9
571.542	10728.63
571.903	10762.98
572.265	10771.34
572.626	10795.3
572.987	10818.35
573.349	10827.16
573.71	10845.69
574.071	10829.87
574.432	10838.91
574.794	10871
575.155	10832.81
575.516	10775.41
575.877	10858.57
576.238	10860.83
576.599	10908.29
576.96	10914.16
577.32	10877.55
577.681	10881.62
578.042	10916.87
578.403	10889.98
578.763	10848.4
579.124	10897.21
579.485	10897.89
579.845	10995.74
580.206	10907.61
580.566	10876.88
580.927	10817.67
581.287	10899.93
581.648	10890.43
582.008	10905.35
582.368	10802.07
582.728	10846.82
583.089	10850.21
583.449	10815.41
583.809	10832.58
584.169	10853.6
584.529	10812.02
584.889	10878
585.249	10810.21
585.609	10712.13
585.969	10840.49
586.329	10757.56
586.688	10792.36
587.048	10787.84
587.408	10745.35
587.768	10726.14
588.127	10738.35
588.487	10767.95
588.846	10786.26
589.206	10620.84
589.565	10633.49
589.925	10655.64
590.284	10622.87
590.643	10776.09
591.003	10730.66
591.362	10715.98
591.721	10623.77
592.08	10643.21
592.44	10721.4
592.799	10710.55
593.158	10735.18
593.517	10640.72
593.876	10610.44
594.235	10611.12
594.593	10650.89
594.952	10711
595.311	10586.94
595.67	10636.88
596.029	10669.42
596.387	10671
596.746	10693.6
597.104	10614.06
597.463	10533.38
597.822	10581.52
598.18	10613.38
598.538	10592.59
598.897	10618.58
599.255	10514.17
599.613	10694.51
599.972	10561.4
600.33	10639.82
600.688	10582.42
601.046	10599.82
601.404	10681.17
601.762	10635.98
602.12	10654.96
602.478	10617.9
602.836	10618.35
603.194	10532.03
603.552	10570.22
603.91	10616.77
604.268	10600.05
604.625	10542.87
604.983	10620.61
605.341	10552.82
605.698	10622.19
606.056	10552.36
606.413	10619.03
606.771	10628.52
607.128	10571.8
607.485	10528.86
607.843	10585.81
608.2	10694.05
608.557	10672.81
608.914	10573.83
609.272	10706.03
609.629	10715.52
609.986	10671.91
610.343	10626.71
610.7	10755.52
611.057	10701.74
611.414	10728.63
611.771	10712.81
612.127	10690.21
612.484	10720.04
612.841	10813.6
613.198	10667.16
613.554	10663.55
613.911	10708.07
614.267	10757.56
614.624	10750.1
614.98	10719.82
615.337	10770.66
615.693	10794.17
616.05	10800.94
616.406	10815.86
616.762	10729.99
617.118	10824.45
617.475	10801.4
617.831	10844.56
618.187	10841.62
618.543	10799.14
618.899	10881.17
619.255	10866.93
619.611	10883.65
619.967	10843.43
620.323	10880.26
620.678	10872.13
621.034	10797.1
621.39	10861.28
621.746	10852.02
622.101	10943.54
622.457	10858.34
622.812	10947.16
623.168	10886.59
623.523	10916.2
623.879	10903.54
624.234	10874.39
624.589	10816.54
624.945	10861.28
625.3	10925.46
625.655	10921.62
626.01	10978.79
626.365	10918.23
626.72	10870.32
627.075	10893.82
627.43	10843.66
627.785	10853.37
628.14	10871
628.495	10827.61
628.85	10853.37
629.205	10869.87
629.559	10852.02
629.914	10794.39
630.269	10857.44
630.623	10767.05
630.978	10788.06
631.332	10777.22
631.687	10773.37
632.041	10707.16
632.396	10757.1
632.75	10697.9
633.104	10824.67
633.459	10644.56
633.813	10664.68
634.167	10685.02
634.521	10724.11
634.875	10722.98
635.229	10656.99
635.583	10607.96
635.937	10599.37
636.291	10622.87
636.645	10661.51
636.999	10634.62
637.352	10592.81
637.706	10570.44
638.06	10624.68
638.413	10534.51
638.767	10539.03
639.121	10589.88
639.474	10543.1
639.828	10493.83
640.181	10462.42
640.534	10509.2
640.888	10460.84
641.241	10423.33
641.594	10529.31
641.947	10436.43
642.301	10445.47
642.654	10504.68
643.007	10518.24
643.36	10454.06
643.713	10461.97
644.066	10428.53
644.419	10373.84
644.771	10304.01
645.124	10264.91
645.477	10272.6
645.83	10179.72
646.182	10134.07
646.535	10090
646.888	10123.67
647.24	10074.41
647.593	10169.77
647.945	10130.91
648.298	10070.79
648.65	10096.1
649.002	10072.83
649.355	10090.91
649.707	10070.79
650.059	10123.22
650.411	10234.18
650.763	10204.58
651.115	10311.24
651.467	10291.58
651.819	10361.18
652.171	10297
652.523	10264.46
652.875	10276.44
653.227	10254.29
653.578	10251.13
653.93	10292.03
654.282	10209.55
654.633	10237.57
654.985	10299.94
655.337	10271.24
655.688	10337.45
656.039	10317.12
656.391	10259.72
656.742	10280.73
657.094	10305.14
657.445	10422.88
657.796	10328.19
658.147	10265.14
658.498	10257.46
658.849	10348.75
659.2	10358.7
659.551	10310.11
659.902	10392.37
660.253	10286.83
660.604	10313.27
660.955	10254.07
661.306	10322.77
661.656	10284.35
662.007	10345.14
662.358	10327.51
662.708	10357.11
663.059	10330
663.409	10234.41
663.76	10373.16
664.11	10322.77
664.461	10315.99
664.811	10396.44
665.161	10346.95
665.511	10303.1
665.862	10361.18
666.212	10351.01
666.562	10333.61
666.912	10317.57
667.262	10306.95
667.612	10387.4
667.962	10263.33
668.312	10323.9
668.662	10383.55
669.011	10321.86
669.361	10440.05
669.711	10284.8
670.06	10389.2
670.41	10361.86
670.76	10292.48
671.109	10247.97
671.459	10340.39
671.808	10251.58
672.157	10325.03
672.507	10255.42
672.856	10260.39
673.205	10235.99
673.554	10271.47
673.904	10295.42
674.253	10340.84
674.602	10222.43
674.951	10126.61
675.3	10047.74
675.649	10224.46
675.998	10226.5
676.346	10208.42
676.695	10204.35
677.044	10252.94
677.393	10118.48
677.741	10206.84
678.09	10199.6
678.438	10148.53
678.787	10117.57
679.135	10136.1
679.484	10005.49
679.832	10069.66
680.181	10110.12
680.529	10071.02
680.877	10013.39
681.225	10023.11
681.573	10045.26
681.922	10023.34
682.27	9990.57
682.618	9941.31
682.966	9954.41
683.314	10013.17
683.661	9975.43
684.009	9874.87
684.357	9885.26
684.705	9839.61
685.053	9803.23
685.4	9816.56
685.748	9725.04
686.095	9803.91
686.443	9750.12
686.79	9740.18
687.138	9695.89
687.485	9715.1
687.832	9645.72
688.18	9599.85
688.527	9637.59
688.874	9600.52
689.221	9550.58
689.568	9546.06
689.915	9465.16
690.262	9518.04
690.609	9502
690.956	9421.77
691.303	9426.97
691.65	9337.25
691.997	9420.42
692.344	9313.07
692.69	9317.14
693.037	9289.35
693.383	9190.14
693.73	9229.91
694.077	9188.11
694.423	9115.11
694.769	9119.41
695.116	9105.62
695.462	9090.48
695.808	9078.05
696.155	9051.84
696.501	8978.85
696.847	8941.33
697.193	8869.24
697.539	8904.05
697.885	8875.35
698.231	8833.99
698.577	8780.88
698.923	8782.47
699.269	8786.08
699.614	8712.19
699.96	8709.93
700.306	8648.23
700.651	8560.78
700.997	8520.55
701.342	8547.67
701.688	8491.18
702.033	8478.97
702.379	8463.83
702.724	8470.61
703.069	8468.35
703.415	8349.03
703.76	8365.53
704.105	8325.3
704.45	8305.64
704.795	8221.35
705.14	8282.14
705.485	8252.54
705.83	8201.47
706.175	8196.27
706.52	8186.78
706.865	8108.81
707.209	8178.41
707.554	8150.17
707.899	8096.16
708.243	8066.33
708.588	8007.57
708.932	7979.78
709.277	7943.39
709.621	7983.62
709.966	7905.65
710.31	7950.4
710.654	7835.6
710.998	7876.05
711.342	7841.93
711.687	7803.96
712.031	7840.34
712.375	7744.08
712.719	7791.76
713.063	7723.06
713.407	7720.12
713.75	7721.93
714.094	7740.23
714.438	7696.62
714.782	7665.66
715.125	7618.43
715.469	7613.91
715.812	7620.69
716.156	7554.48
716.499	7635.83
716.843	7618.43
717.186	7490.07
717.53	7542.95
717.873	7596.51
718.216	7505.21
718.559	7505.21
718.902	7411.43
719.246	7478.77
719.589	7437.64
719.932	7431.99
720.275	7431.77
720.617	7386.35
720.96	7438.1
721.303	7440.13
721.646	7410.98
721.989	7411.43
722.331	7401.71
722.674	7409.4
723.016	7391.54
723.359	7350.64
723.701	7376.4
724.044	7352.9
724.386	7332.34
724.729	7349.74
725.071	7313.58
725.413	7327.59
725.755	7308.61
726.097	7334.82
726.439	7341.15
726.782	7276.97
727.124	7333.47
727.465	7298.21
727.807	7250.98
728.149	7276.97
728.491	7309.96
728.833	7304.99
729.175	7316.74
729.516	7263.18
729.858	7284.43
730.199	7275.16
730.541	7248.27
730.882	7319.23
731.224	7268.16
731.565	7276.97
731.906	7300.47
732.248	7320.13
732.589	7221.6
732.93	7229.06
733.271	7226.12
733.612	7239.23
733.953	7281.72
734.294	7272.68
734.635	7225.67
734.976	7322.39
735.317	7246.69
735.658	7274.03
735.999	7261.38
736.339	7250.3
736.68	7289.4
737.021	7290.98
737.361	7192
737.702	7305.67
738.042	7264.99
738.383	7242.85
738.723	7303.18
739.063	7292.79
739.404	7305.44
739.744	7284.43
740.084	7265.67
740.424	7274.03
740.764	7340.47
741.104	7382.96
741.444	7353.35
741.784	7376.63
742.124	7382.96
742.464	7446.23
742.804	7412.11
743.143	7440.36
743.483	7463.41
743.823	7441.26
744.162	7519
744.502	7495.27
744.841	7541.6
745.181	7610.29
745.52	7644.87
745.86	7695.04
746.199	7703.17
746.538	7758.31
746.877	7765.54
747.216	7760.12
747.556	7859.33
747.895	7932.77
748.234	7986.33
748.573	7941.81
748.911	8053.9
749.25	8064.97
749.589	8138.64
749.928	8210.28
750.267	8279.88
750.605	8316.72
750.944	8413.89
751.283	8413.66
751.621	8539.99
751.96	8584.51
752.298	8661.57
752.636	8781.79
752.975	8828.34
753.313	8857.04
753.651	9060.88
753.989	9105.4
754.327	9255.9
754.666	9373.41
755.004	9415.67
755.342	9569.11
755.679	9713.52
756.017	9738.37
756.355	9932.04
756.693	10040.06
757.031	10149.21
757.368	10260.17
757.706	10406.38
758.044	10541.29
758.381	10723.21
758.719	10802.07
759.056	10970.21
759.394	11112.35
759.731	11213.59
760.068	11369.74
760.405	11480.7
760.743	11605.44
761.08	11899.67
761.417	11952.78
761.754	12150.06
762.091	12297.4
762.428	12485.42
762.765	12536.72
763.102	12793.21
763.438	12877.05
763.775	13083.6
764.112	13237.94
764.449	13491.27
764.785	13489.91
765.122	13682.68
765.458	13766.74
765.795	13949.34
766.131	14148.2
766.467	14227.07
766.804	14337.35
767.14	14374.18
767.476	14605.36
767.812	14615.76
768.148	14940.27
768.485	14915.64
768.821	15006.94
769.157	15216.87
769.492	15362.86
769.828	15480.14
770.164	15414.61
770.5	15587.94
770.836	15702.06
771.171	15835.16
771.507	15852.79
771.842	15886.69
772.178	16109.96
772.513	16103.18
772.849	16161.71
773.184	16263.4
773.519	16401.02
773.855	16394.47
774.19	16432.44
774.525	16533
774.86	16646.44
775.195	16632.88
775.53	16752.88
775.865	16691.86
776.2	16645.76
776.535	16787.45
776.87	16805.76
777.205	16791.97
777.539	16798.98
777.874	16934.79
778.209	16918.07
778.543	16923.27
778.878	16885.08
779.212	17020.44
779.547	16923.04
779.881	17195.58
780.215	17062.48
780.55	17098.63
780.884	17025.64
781.218	17035.13
781.552	17164.39
781.886	17050.05
782.22	17030.84
782.554	17022.7
782.888	17030.39
783.222	16970.73
783.556	16955.36
783.889	16975.7
784.223	16934.79
784.557	16970.73
784.89	17061.57
785.224	16969.82
785.557	16840.33
785.891	16964.62
786.224	16956.94
786.558	16888.92
786.891	16817.06
787.224	16903.16
787.557	16837.62
787.891	16796.72
788.224	16803.72
788.557	16782.71
788.89	16754.69
789.223	16801.01
789.556	16719.43
789.888	16723.05
790.221	16640.79
790.554	16520.79
790.887	16629.72
791.219	16564.64
791.552	16523.73
791.884	16438.54
792.217	16426.79
792.549	16451.42
792.882	16439.67
793.214	16361.02
793.546	16366.45
793.879	16348.82
794.211	16247.58
794.543	16262.72
794.875	16261.14
795.207	16300.24
795.539	16267.69
795.871	16215.04
796.203	16001.03
796.535	16036.74
796.867	16004.65
797.198	16001.94
797.53	15959.68
797.862	15859.34
798.193	15859.34
798.525	15798.78
798.856	15806.01
799.188	15678.33
799.519	15673.81
799.85	15645.34
800.182	15547.03
800.513	15596.75
800.844	15498
801.175	15631.33
801.506	15504.32
801.837	15467.04
802.168	15360.15
802.499	15345.01
802.83	15240.83
803.161	15298.68
803.491	15289.64
803.822	15319.47
804.153	15230.21
804.483	15113.83
804.814	15027.73
805.145	15065.69
805.475	15028.63
805.805	15048.74
806.136	15034.73
806.466	14954.06
806.796	14967.61
807.126	14841.52
807.457	14897.11
807.787	14828.86
808.117	14768.52
808.447	14782.76
808.777	14767.85
809.107	14727.17
809.436	14613.5
809.766	14627.28
810.096	14595.2
810.426	14589.55
810.755	14591.58
811.085	14529.89
811.414	14502.99
811.744	14494.63
812.073	14459.61
812.403	14378.48
812.732	14328.08
813.061	14365.14
813.39	14343
813.719	14263.23
814.049	14324.02
814.378	14229.56
814.707	14189.1
815.036	14133.06
815.365	14040.63
815.693	14025.94
816.022	14016.91
816.351	14034.31
816.68	13927.19
817.008	13980.3
817.337	13886.29
817.665	13824.37
817.994	13851.03
818.322	13858.04
818.651	13774.88
818.979	13695.78
819.307	13804.71
819.636	13801.09
819.964	13745.05
820.292	13800.87
820.62	13731.49
820.948	13641.1
821.276	13711.38
821.604	13682
821.932	13724.48
822.259	13648.33
822.587	13622.34
822.915	13654.88
823.243	13700.53
823.57	13629.57
823.898	13663.24
824.225	13634.99
824.553	13676.8
824.88	13645.16
825.207	13715.9
825.535	13642.9
825.862	13769
826.189	13606.29
826.516	13715.44
826.843	13740.75
827.17	13632.73
827.497	13797.48
827.824	13708.21
828.151	13753.41
828.478	13710.02
828.805	13858.04
829.131	13680.42
829.458	13621.66
829.785	13716.8
830.111	13672.96
830.438	13786.63
830.764	13761.54
831.09	13705.28
831.417	13686.52
831.743	13684.03
832.069	13705.95
832.395	13728.55
832.722	13607.88
833.048	13625.05
833.374	13682.68
833.7	13547.99
834.026	13590.48
834.351	13670.93
834.677	13560.65
835.003	13597.93
835.329	13611.94
835.654	13480.65
835.98	13532.62
836.306	13570.59
836.631	13463.02
836.956	13526.3
837.282	13528.56
837.607	13505.28
837.932	13360.2
838.258	13483.36
838.583	13395.23
838.908	13365.85
839.233	13358.62
839.558	13302.35
839.883	13305.74
840.208	13192.07
840.533	13219.41
840.858	13308
841.182	13191.39
841.507	13232.29
841.832	13120.66
842.156	13117.72
842.481	13163.37
842.805	13093.99
843.13	13094.67
843.454	13032.75
843.778	12972.41
844.103	12929.48
844.427	12890.16
844.751	12924.28
845.075	12857.84
845.399	12841.34
845.723	12746.66
846.047	12800.44
846.371	12662.82
846.695	12729.93
847.019	12673.66
847.343	12588.47
847.666	12523.84
847.99	12427.34
848.313	12453.78
848.637	12285.2
848.96	12373.78
849.284	12291.3
849.607	12192.55
849.931	12191.87
850.254	12115.03
850.577	12041.82
850.9	11917.53
851.223	12019.9
851.546	11821.48
851.869	11863.06
852.192	11879.79
852.515	11729.51
852.838	11762.5
853.161	11738.1
853.483	11647.7
853.806	11564.99
854.129	11600.02
854.451	11566.12
854.774	11422.17
855.096	11469.63
855.419	11355.28
855.741	11456.52
856.063	11345.56
856.385	11345.56
856.708	11260.82
857.03	11187.83
857.352	11212.91
857.674	11189.64
857.996	11163.65
858.318	11113.25
858.64	11145.79
858.961	11096.98
859.283	11033.93
859.605	10947.83
859.926	10989.87
860.248	10917.1
860.57	10891.11
860.891	10958
861.212	10795.07
861.534	10817.67
861.855	10823.32
862.176	10791.91
862.498	10776.99
862.819	10815.63
863.14	10701.06
863.461	10729.08
863.782	10680.04
864.103	10665.13
864.424	10670.78
864.745	10625.13
865.065	10613.38
865.386	10579.03
865.707	10545.81
866.027	10575.41
866.348	10569.09
866.668	10537.22
866.989	10515.08
867.309	10415.87
867.63	10508.52
867.95	10525.7
868.27	10389.88
868.59	10399.6
868.91	10402.54
869.23	10368.64
869.55	10308.08
869.87	10307.62
870.19	10300.39
870.51	10358.24
870.83	10351.01
871.15	10279.83
871.469	10290.9
871.789	10279.38
872.109	10294.74
872.428	10199.6
872.748	10198.93
873.067	10167.52
873.386	10249.32
873.706	10140.85
874.025	10090.91
874.344	10070.34
874.663	10081.87
874.982	10010.91
875.301	9986.95
875.62	10018.82
875.939	10071.02
876.258	10031.02
876.577	9948.09
876.896	9981.76
877.214	9920.74
877.533	9920.29
877.852	9952.38
878.17	9955.77
878.489	9963.68
878.807	9874.42
879.125	9829.9
879.444	9891.82
879.762	9835.77
880.08	9836.45
880.398	9796.45
880.716	9726.62
881.034	9730.69
881.352	9745.38
881.67	9695.44
881.988	9704.7
882.306	9676
882.624	9652.5
882.941	9662.67
883.259	9560.3
883.577	9638.04
883.894	9505.16
884.212	9568.66
884.529	9496.57
884.846	9429
885.164	9478.04
885.481	9452.51
885.798	9513.3
886.115	9422.45
886.432	9440.3
886.75	9349.68
887.067	9412.05
887.383	9399.17
887.7	9325.28
888.017	9249.12
888.334	9278.5
888.651	9242.79
888.967	9260.19
889.284	9250.7
889.6	9151.5
889.917	9122.57
890.233	9081.44
890.55	9123.93
890.866	9050.93
891.182	9023.82
891.498	9035.34
891.815	8956.93
892.131	8995.79
892.447	8918.96
892.763	8826.31
893.079	8868.11
893.395	8842.8
893.71	8782.69
894.026	8732.98
894.342	8788.12
894.657	8746.54
894.973	8689.36
895.289	8712.19
895.604	8669.02
895.92	8658.63
896.235	8537.5
896.55	8603.26
896.865	8533.89
897.181	8510.84
897.496	8521.91
897.811	8497.73
898.126	8429.03
898.441	8409.37
898.756	8381.8
899.071	8356.94
899.386	8275.81
899.7	8205.98
900.015	8215.25
900.33	8130.73
900.644	8184.97
900.959	8156.72
901.273	8139.09
901.588	8093.9
901.902	8003.28
902.216	8008.93
902.531	7967.57
902.845	7970.51
903.159	7973.45
903.473	7898.87
903.787	7838.54
904.101	7893.68
904.415	7764.41
904.729	7765.77
905.042	7749.05
905.356	7720.12
905.67	7731.65
905.984	7614.59
906.297	7649.39
906.611	7584.98
906.924	7587.92
907.237	7552.44
907.551	7529.17
907.864	7501.6
908.177	7439.68
908.491	7422.95
908.804	7400.36
909.117	7362.17
909.43	7296.4
909.743	7296.86
910.056	7283.3
910.368	7275.84
910.681	7233.36
910.994	7196.52
911.307	7169.85
911.619	7087.37
911.932	7074.26
912.244	7051.66
912.557	7083.98
912.869	6975.96
913.181	6993.59
913.494	6962.4
913.806	6948.62
914.118	6886.92
914.43	6815.51
914.742	6846.92
915.054	6803.76
915.366	6791.78
915.678	6714.95
915.99	6729.64
916.302	6698.68
916.613	6662.07
916.925	6632.01
917.236	6597.21
917.548	6611.22
917.859	6619.13
918.171	6579.13
918.482	6530.1
918.794	6469.76
919.105	6439.93
919.416	6415.07
919.727	6407.84
920.038	6370.78
920.349	6347.95
920.66	6284.91
920.971	6346.6
921.282	6347.5
921.593	6261.18
921.903	6220.95
922.214	6220.27
922.525	6201.97
922.835	6120.16
923.146	6120.16
923.456	6126.94
923.767	6067.74
924.077	6069.32
924.387	6050.34
924.697	6034.06
925.008	6016.21
925.318	5992.03
925.628	5967.63
925.938	5919.94
926.248	5872.26
926.558	5869.78
926.867	5861.19
927.177	5823.9
927.487	5776.67
927.796	5765.6
928.106	5734.64
928.416	5720.85
928.725	5701.19
929.034	5655.77
929.344	5692.15
929.653	5675.88
929.962	5604.7
930.271	5554.3
930.581	5556.56
930.89	5531.93
931.199	5540.52
931.508	5471.37
931.817	5502.55
932.125	5492.84
932.434	5460.29
932.743	5404.7
933.051	5354.08
933.36	5392.73
933.669	5362.22
933.977	5275.44
934.286	5274.54
934.594	5248.55
934.902	5213.75
935.21	5272.05
935.519	5181.21
935.827	5150.02
936.135	5150.47
936.443	5126.29
936.751	5055.33
937.059	5127.2
937.367	5072.06
937.674	5108.21
937.982	5048.33
938.29	5047.42
938.597	5047.65
938.905	4926.75
939.213	4936.69
939.52	4926.75
939.827	4909.8
940.135	4866.19
940.442	4889.91
940.749	4870.03
941.056	4822.34
941.363	4847.66
941.67	4764.49
941.977	4749.13
942.284	4685.17
942.591	4743.03
942.898	4705.51
943.205	4723.36
943.511	4662.8
943.818	4690.37
944.125	4617.83
944.431	4602.46
944.738	4635.23
945.044	4539.87
945.35	4544.61
945.657	4522.47
945.963	4491.28
946.269	4456.25
946.575	4505.07
946.881	4428.01
947.187	4463.03
947.493	4435.24
947.799	4367.44
948.105	4389.36
948.41	4327.44
948.716	4329.02
949.022	4315.69
949.327	4331.96
949.633	4237.05
949.938	4261.46
950.244	4240.21
950.549	4189.59
950.854	4235.24
951.16	4202.25
951.465	4209.71
951.77	4167.9
952.075	4152.31
952.38	4098.75
952.685	4111.4
952.99	4051.74
953.294	4091.52
953.599	4015.81
953.904	4042.48
954.209	3974.01
954.513	3980.56
954.818	3984.17
955.122	3955.02
955.426	3979.2
955.731	3933.1
956.035	3940.33
956.339	3912.54
956.643	3897.4
956.948	3868.47
957.252	3837.74
957.556	3807.46
957.86	3816.04
958.163	3794.12
958.467	3783.05
958.771	3752.09
959.075	3755.25
959.378	3759.1
959.682	3719.1
959.985	3710.28
960.289	3684.75
960.592	3699.21
960.896	3677.74
961.199	3664.64
961.502	3668.25
961.805	3648.82
962.108	3625.31
962.411	3568.37
962.714	3537.86
963.017	3557.75
963.32	3610.85
963.623	3543.96
963.926	3501.7
964.228	3485.66
964.531	3480.23
964.833	3481.36
965.136	3483.85
965.438	3446.56
965.741	3421.03
966.043	3397.07
966.345	3397.07
966.648	3357.07
966.95	3351.65
967.252	3361.82
967.554	3344.64
967.856	3309.62
968.158	3280.24
968.46	3279.56
968.761	3323.85
969.063	3270.97
969.365	3250.41
969.666	3246.34
969.968	3201.82
970.269	3198.88
970.571	3205.44
970.872	3187.36
971.174	3163.86
971.475	3127.7
971.776	3112.33
972.077	3058.32
972.378	3089.96
972.679	3103.29
972.98	3114.82
973.281	3044.76
973.582	3052.45
973.883	3029.62
974.183	3007.7
974.484	3012
974.785	2978.33
975.085	2995.73
975.386	2986.01
975.686	2958.44
975.986	2971.55
976.287	2936.29
976.587	2886.8
976.887	2895.84
977.187	2921.83
977.487	2856.97
977.787	2882.06
978.087	2868.72
978.387	2834.83
978.687	2803.41
978.987	2798.44
979.286	2792.79
979.586	2816.3
979.885	2805
980.185	2770.87
980.484	2726.13
980.784	2773.81
981.083	2768.61
981.382	2717.99
981.682	2739.24
981.981	2713.02
982.28	2685.68
982.579	2651.1
982.878	2683.87
983.177	2659.24
983.475	2651.1
983.774	2641.84
984.073	2631.44
984.372	2622.18
984.67	2586.92
984.969	2585.34
985.267	2548.73
985.566	2558.45
985.864	2542.86
986.162	2539.02
986.461	2540.82
986.759	2526.36
987.057	2464.89
987.355	2502.18
987.653	2465.12
987.951	2437.1
988.249	2465.34
988.547	2447.49
988.844	2435.52
989.142	2424.44
989.44	2407.49
989.737	2384.44
990.035	2395.52
990.332	2381.05
990.63	2354.16
990.927	2379.7
991.224	2364.56
991.521	2332.24
991.819	2335.63
992.116	2353.48
992.413	2296.08
992.71	2280.04
993.006	2279.81
993.303	2290.43
993.6	2267.61
993.897	2248.85
994.193	2270.1
994.49	2274.62
994.787	2206.82
995.083	2235.52
995.379	2186.03
995.676	2219.02
995.972	2171.12
996.268	2155.52
996.565	2173.6
996.861	2133.6
997.157	2139.25
997.453	2131.12
997.749	2115.98
998.044	2102.42
998.34	2112.81
998.636	2085.69
998.932	2078.24
999.227	2050.21
999.523	2060.61
999.818	2027.84
1000.114	2036.88
1000.409	2014.28
1000.704	2005.47
1001	2008.41
1001.295	2013.61
1001.59	1983.55
1001.885	1991.01
1002.18	1988.75
1002.475	1966.37
1002.77	1942.87
1003.065	1941.06
1003.359	1933.61
1003.654	1891.12
1003.949	1864.46
1004.243	1879.37
1004.538	1873.27
1004.832	1848.41
1005.127	1859.94
1005.421	1858.36
1005.715	1816.32
1006.009	1822.65
1006.304	1832.14
1006.598	1805.93
1006.892	1776.55
1007.186	1775.65
1007.48	1788.98
1007.773	1764.35
1008.067	1792.37
1008.361	1726.38
1008.655	1733.39
1008.948	1726.61
1009.242	1714.18
1009.535	1711.92
1009.829	1710.11
1010.122	1675.31
1010.415	1678.47
1010.708	1647.51
1011.001	1655.87
1011.295	1613.84
1011.588	1634.86
1011.881	1625.37
1012.173	1627.63
1012.466	1611.13
1012.759	1578.81
1013.052	1603.67
1013.344	1571.13
1013.637	1589.66
1013.93	1586.72
1014.222	1575.65
1014.514	1552.15
1014.807	1541.08
1015.099	1542.88
1015.391	1512.15
1015.683	1548.08
1015.976	1499.95
1016.268	1466.95
1016.56	1466.28
1016.851	1466.28
1017.143	1478.7
1017.435	1462.66
1017.727	1471.25
1018.018	1440.96
1018.31	1459.27
1018.602	1442.09
1018.893	1413.62
1019.185	1424.24
1019.476	1374.98
1019.767	1405.94
1020.058	1372.72
1020.35	1351.7
1020.641	1373.17
1020.932	1347.41
1021.223	1370.01
1021.514	1346.28
1021.804	1332.27
1022.095	1313.74
1022.386	1324.36
1022.677	1304.02
1022.967	1303.12
1023.258	1288.88
1023.548	1297.69
1023.839	1275.55
1024.129	1278.71
1024.419	1250.91
1024.709	1228.32
1025	1241.42
1025.29	1273.51
1025.58	1257.69
1025.87	1227.86
1026.16	1177.47
1026.449	1212.27
1026.739	1188.09
1027.029	1192.16
1027.319	1168.88
1027.608	1163.23
1027.898	1183.57
1028.187	1131.14
1028.477	1150.13
1028.766	1143.8
1029.055	1137.92
1029.344	1129.33
1029.634	1131.59
1029.923	1119.62
1030.212	1123.69
1030.501	1116.23
1030.79	1072.39
1031.078	1106.28
1031.367	1082.33
1031.656	1039.62
1031.945	1075.32
1032.233	1060.86
1032.522	1023.12
1032.81	1052.05
1033.099	1050.47
1033.387	1045.27
1033.675	1045.04
1033.963	1015.21
1034.251	983.58
1034.54	1006.85
1034.828	1024.25
1035.116	978.6
1035.403	1001.2
1035.691	1002.11
1035.979	976.8
1036.267	963.92
1036.554	942.67
1036.842	951.94
1037.129	927.76
1037.417	954.42
1037.704	937.93
1037.992	915.1
1038.279	919.62
1038.566	919.17
1038.853	919.17
1039.14	919.17
