Data from hue_140_FLMS001491_00051.txt Node
Date: Tue Feb 07 16:56:06 GMT 2017
User: dcchb
Spectrometer: FLMS00149
Trigger mode: 0
Integration Time (sec): 2.000000E-2
Scans to average: 10
Electric dark correction enabled: true
Nonlinearity correction enabled: false
Boxcar width: 0
XAxis mode: Wavelengths
Number of Pixels in Spectrum: 2048
>>>>>Begin Spectral Data<<<<<
341.393	-16.09
341.776	-16.09
342.16	-16.09
342.543	-59.48
342.927	-58.8
343.31	-61.51
343.693	-58.8
344.077	-50.89
344.46	-61.74
344.843	-58.57
345.226	-49.31
345.61	-35.75
345.993	-4.11
346.376	12.84
346.759	6.51
347.142	19.39
347.525	27.53
347.908	48.54
348.291	81.09
348.674	78.37
349.057	106.4
349.44	119.73
349.823	160.41
350.206	146.85
350.588	183.46
350.971	212.83
351.354	221.19
351.737	230.46
352.119	244.7
352.502	270.91
352.884	259.16
353.267	301.19
353.65	287.18
354.032	311.59
354.414	322.89
354.797	322.44
355.179	325.6
355.562	330.8
355.944	346.84
356.326	331.7
356.709	317.46
357.091	345.94
357.473	357.01
357.855	337.35
358.238	329.67
358.62	331.02
359.002	341.19
359.384	343
359.766	358.14
360.148	334.41
360.53	349.55
360.912	349.78
361.294	326.05
361.676	347.07
362.057	338.03
362.439	349.33
362.821	333.96
363.203	332.6
363.584	315.43
363.966	335.54
364.348	340.29
364.729	323.34
365.111	320.18
365.493	326.28
365.874	334.86
366.256	306.39
366.637	328.08
367.019	321.08
367.4	317.46
367.781	328.31
368.163	329.44
368.544	303.68
368.925	304.36
369.306	324.24
369.688	318.82
370.069	316.11
370.45	310.91
370.831	311.59
371.212	300.51
371.593	310.01
371.974	309.1
372.355	317.01
372.736	307.75
373.117	313.4
373.498	317.24
373.879	317.69
374.26	326.05
374.641	322.89
375.021	319.95
375.402	328.76
375.783	313.85
376.163	312.94
376.544	322.44
376.925	340.06
377.305	344.36
377.686	335.54
378.066	332.38
378.447	332.15
378.827	317.92
379.208	326.28
379.588	349.1
379.968	348.42
380.349	363.11
380.729	358.59
381.109	322.21
381.489	341.42
381.87	343.23
382.25	361.98
382.63	332.15
383.01	354.07
383.39	346.16
383.77	347.52
384.15	376.44
384.53	348.65
384.91	355.2
385.29	366.5
385.67	339.16
386.049	349.78
386.429	361.08
386.809	345.71
387.189	361.98
387.568	354.07
387.948	346.39
388.328	366.73
388.707	359.95
389.087	376.44
389.466	371.02
389.846	359.72
390.225	377.35
390.605	374.19
390.984	401.98
391.363	372.83
391.743	380.06
392.122	378.7
392.501	387.97
392.881	385.71
393.26	387.74
393.639	382.32
394.018	384.13
394.397	383.22
394.776	385.94
395.155	392.04
395.534	403.56
395.913	384.35
396.292	398.37
396.671	385.71
397.05	409.44
397.429	391.13
397.808	417.35
398.186	401.53
398.565	398.14
398.944	399.5
399.323	409.21
399.701	381.42
400.08	416.67
400.458	421.42
400.837	412.83
401.215	430.91
401.594	415.77
401.972	407.86
402.351	429.1
402.729	415.31
403.107	409.44
403.486	402.43
403.864	437.46
404.242	421.42
404.62	439.72
404.999	442.21
405.377	429.1
405.755	443.79
406.133	410.79
406.511	439.95
406.889	451.7
407.267	449.89
407.645	459.15
408.023	456.89
408.401	446.95
408.779	456.44
409.156	491.02
409.534	482.88
409.912	470.23
410.29	460.06
410.667	464.58
411.045	486.27
411.422	488.76
411.8	484.01
412.178	474.52
412.555	473.39
412.933	510
413.31	511.81
413.687	497.12
414.065	507.06
414.442	503.67
414.819	504.8
415.197	515.88
415.574	515.42
415.951	531.7
416.328	527.63
416.705	509.1
417.082	519.72
417.46	535.76
417.837	548.87
418.214	515.42
418.591	524.01
418.967	515.88
419.344	575.54
419.721	544.35
420.098	548.64
420.475	523.79
420.852	547.29
421.228	557.01
421.605	575.99
421.982	571.02
422.358	585.93
422.735	578.93
423.111	593.39
423.488	563.33
423.864	575.31
424.241	571.47
424.617	595.2
424.994	610.11
425.37	590
425.746	601.98
426.123	601.07
426.499	611.69
426.875	599.26
427.251	609.21
427.627	630.9
428.003	644.91
428.379	647.85
428.756	657.79
429.132	642.43
429.507	646.95
429.883	670.45
430.259	660.96
430.635	688.3
431.011	677.23
431.387	688.53
431.763	695.98
432.138	685.14
432.514	694.4
432.89	699.83
433.265	729.43
433.641	722.2
434.016	728.98
434.392	738.92
434.767	750.67
435.143	778.69
435.518	757
435.894	754.06
436.269	785.47
436.644	784.8
437.02	787.96
437.395	766.27
437.77	794.96
438.145	812.59
438.52	791.8
438.895	826.83
439.271	822.99
439.646	843.78
440.021	837.9
440.395	852.14
440.77	831.57
441.145	831.35
441.52	868.64
441.895	846.72
442.27	859.37
442.645	854.17
443.019	880.84
443.394	866.83
443.769	907.05
444.143	854.4
444.518	869.99
444.892	898.69
445.267	900.72
445.641	922.65
446.016	915.87
446.39	932.14
446.764	910.89
447.139	933.94
447.513	930.1
447.887	936.43
448.262	950.22
448.636	940.27
449.01	942.76
449.384	980.95
449.758	978.24
450.132	1004.45
450.506	984.79
450.88	1004.68
451.254	989.99
451.628	1025.24
452.002	1004.23
452.376	1031.12
452.75	1012.81
453.123	1042.87
453.497	1057.33
453.871	1064.56
454.244	1078.8
454.618	1061.4
454.992	1091.45
455.365	1103.66
455.739	1125.58
456.112	1154.5
456.486	1133.04
456.859	1195.18
457.232	1161.96
457.606	1177.33
457.979	1192.24
458.352	1207.38
458.725	1221.85
459.099	1234.95
459.472	1251.45
459.845	1262.52
460.218	1280.38
460.591	1307.04
460.964	1314.05
461.337	1322.63
461.71	1366.7
462.083	1385.01
462.456	1364.22
462.829	1393.37
463.201	1407.15
463.574	1444.44
463.947	1450.31
464.32	1485.79
464.692	1485.57
465.065	1500.48
465.438	1519.24
465.81	1538.45
466.183	1540.48
466.555	1572.57
466.928	1599.24
467.3	1606.47
467.672	1644.43
468.045	1673.59
468.417	1698.67
468.789	1708.84
469.161	1728.27
469.534	1766.01
469.906	1812.34
470.278	1821.83
470.65	1875.16
471.022	1933.01
471.394	1952.45
471.766	1933.69
472.138	2016.18
472.51	2047.81
472.882	2097.08
473.253	2130.52
473.625	2160.8
473.997	2192.89
474.369	2260.92
474.74	2289.16
475.112	2352.21
475.484	2415.71
475.855	2507.01
476.227	2527.12
476.598	2564.86
476.97	2652.32
477.341	2740.68
477.713	2806.21
478.084	2850.5
478.455	2955.81
478.827	2987.68
479.198	3109.93
479.569	3151.06
479.94	3237.61
480.311	3330.04
480.682	3419.53
481.053	3541.79
481.424	3579.98
481.795	3686.19
482.166	3809.57
482.537	3885.28
482.908	3970.93
483.279	4036.24
483.65	4149.23
484.021	4360.52
484.391	4423.8
484.762	4511.48
485.133	4610.68
485.503	4714.18
485.874	4859.04
486.244	4956.44
486.615	5105.36
486.985	5199.59
487.356	5398.69
487.726	5471
488.097	5654.5
488.467	5729.07
488.837	5924.77
489.207	6051.78
489.578	6156.63
489.948	6354.59
490.318	6464.19
490.688	6579.9
491.058	6702.61
491.428	6870.06
491.798	6980.57
492.168	7197.06
492.538	7295.81
492.908	7392.53
493.278	7563.83
493.648	7597.72
494.017	7844.27
494.387	7931.95
494.757	8139.18
495.126	8235
495.496	8334.88
495.866	8457.14
496.235	8607.87
496.605	8755.89
496.974	8849.44
497.344	8996.78
497.713	9102.54
498.082	9201.98
498.452	9397.9
498.821	9399.71
499.19	9520.16
499.559	9673.83
499.928	9749.98
500.298	9875.86
500.667	9993.37
501.036	10111.1
501.405	10198.33
501.774	10274.49
502.143	10426.58
502.512	10392.23
502.88	10611.66
503.249	10651.2
503.618	10738.43
503.987	10778.21
504.356	10908.6
504.724	11002.83
505.093	11145.88
505.462	11161.92
505.83	11239.89
506.199	11331.19
506.567	11510.84
506.936	11471.52
507.304	11609.6
507.672	11677.16
508.041	11722.59
508.409	11852.75
508.777	11916.03
509.145	11995.57
509.514	11993.54
509.882	12161.45
510.25	12112.63
510.618	12236.47
510.986	12284.83
511.354	12435.34
511.722	12386.98
512.09	12527.76
512.458	12497.03
512.826	12688.44
513.193	12741.09
513.561	12726.63
513.929	12797.14
514.297	12882.33
514.664	12961.88
515.032	12920.52
515.4	13085.26
515.767	12960.52
516.135	13069.22
516.502	12993.51
516.869	13182.21
517.237	13276.9
517.604	13265.37
517.972	13378.59
518.339	13330.68
518.706	13339.95
519.073	13417.46
519.44	13465.82
519.808	13470.34
520.175	13543.33
520.542	13589.43
520.909	13653.84
521.276	13606.38
521.643	13737
522.009	13676.66
522.376	13764.34
522.743	13833.94
523.11	13876.65
523.477	14102.19
523.843	13959.82
524.21	14048.4
524.577	14182.64
524.943	14119.59
525.31	14187.83
525.676	14295.85
526.043	14297.66
526.409	14213.82
526.776	14293.37
527.142	14296.98
527.508	14366.59
527.874	14344.21
528.241	14456.75
528.607	14449.07
528.973	14560.03
529.339	14412.46
529.705	14562.96
530.071	14561.61
530.437	14562.06
530.803	14606.35
531.169	14621.72
531.535	14568.84
531.901	14511.89
532.267	14570.87
532.632	14529.75
532.998	14629.4
533.364	14712.11
533.73	14586.01
534.095	14620.14
534.461	14582.85
534.826	14638.89
535.192	14560.25
535.557	14644.54
535.923	14506.02
536.288	14447.26
536.653	14576.52
537.019	14420.6
537.384	14448.84
537.749	14494.94
538.114	14519.12
538.479	14332.24
538.845	14465.57
539.21	14351.22
539.575	14336.76
539.94	14328.62
540.305	14393.48
540.67	14262.41
541.034	14255.4
541.399	14308.06
541.764	14230.32
542.129	14243.42
542.494	14215.18
542.858	14186.7
543.223	14235.29
543.587	14150.32
543.952	14042.98
544.316	14137.44
544.681	14024.22
545.045	13973.83
545.41	13951.46
545.774	14005.24
546.138	13933.15
546.503	13909.2
546.867	13886.15
547.231	13907.61
547.595	13881.63
547.959	13954.84
548.324	13773.83
548.688	13791.01
549.052	13732.03
549.416	13754.17
549.779	13656.1
550.143	13685.7
550.507	13573.16
550.871	13642.31
551.235	13575.65
551.599	13605.7
551.962	13539.49
552.326	13549.21
552.689	13599.6
553.053	13452.71
553.417	13435.31
553.78	13534.52
554.143	13390.79
554.507	13444.8
554.87	13438.93
555.234	13569.54
555.597	13308.99
555.96	13442.77
556.323	13421.53
556.686	13338.14
557.05	13411.58
557.413	13309.66
557.776	13359.83
558.139	13330.91
558.502	13360.28
558.865	13302.88
559.228	13400.06
559.59	13453.16
559.953	13310.57
560.316	13500.85
560.679	13424.92
561.041	13450.9
561.404	13423.33
561.767	13526.83
562.129	13374.07
562.492	13520.51
562.854	13406.84
563.217	13462.88
563.579	13409.55
563.941	13552.37
564.304	13528.87
564.666	13551.01
565.028	13542.65
565.39	13473.28
565.753	13605.48
566.115	13621.97
566.477	13680.95
566.839	13619.49
567.201	13691.8
567.563	13687.51
567.925	13776.32
568.287	13747.84
568.648	13688.86
569.01	13725.92
569.372	13807.28
569.734	13764.34
570.095	13826.03
570.457	13861.29
570.819	13766.6
571.18	13733.16
571.542	13877.78
571.903	13893.38
572.265	13933.6
572.626	13876.2
572.987	13926.6
573.349	13888.86
573.71	13917.11
574.071	13924.79
574.432	14040.94
574.794	14105.8
575.155	14008.85
575.516	13998.46
575.877	14024.45
576.238	13997.78
576.599	14051.57
576.96	14045.92
577.32	13959.59
577.681	13973.38
578.042	14070.32
578.403	14054.05
578.763	14096.31
579.124	14156.65
579.485	14058.57
579.845	14042.75
580.206	14054.05
580.566	14128.63
580.927	14003.43
581.287	14057.89
581.648	14083.43
582.008	14146.48
582.368	14021.96
582.728	14069.87
583.089	14049.31
583.449	14027.16
583.809	14099.93
584.169	14052.24
584.529	14067.61
584.889	14187.83
585.249	13988.06
585.609	13949.87
585.969	14024.45
586.329	13942.19
586.688	14010.89
587.048	13997.78
587.408	14005.01
587.768	13903.55
588.127	13870.78
588.487	13938.57
588.846	14053.37
589.206	13903.09
589.565	13929.99
589.925	14056.31
590.284	13867.39
590.643	13891.57
591.003	14002.3
591.362	13883.66
591.721	13897.22
592.08	13899.48
592.44	13922.53
592.799	13952.36
593.158	13902.87
593.517	13835.75
593.876	13858.8
594.235	13833.94
594.593	13788.97
594.952	13868.07
595.311	13815.64
595.67	13835.3
596.029	13946.71
596.387	13922.76
596.746	13977.67
597.104	13827.62
597.463	13880.27
597.822	13932.02
598.18	13796.21
598.538	13830.55
598.897	13827.16
599.255	13746.49
599.613	13941.06
599.972	13869.65
600.33	13929.08
600.688	13810.67
601.046	13928.86
601.404	13955.75
601.762	13853.15
602.12	13944.68
602.478	13899.48
602.836	13929.76
603.194	13826.26
603.552	13821.74
603.91	13763.66
604.268	13814.74
604.625	13750.56
604.983	13883.66
605.341	13770.44
605.698	13858.12
606.056	13913.49
606.413	13869.42
606.771	13895.19
607.128	13934.05
607.485	13822.65
607.843	13821.97
608.2	13958.01
608.557	13990.32
608.914	13895.64
609.272	14097.67
609.629	13955.75
609.986	14111.68
610.343	13963.21
610.7	14033.71
611.057	14091.34
611.414	14047.05
611.771	14011.11
612.127	14042.3
612.484	14089.76
612.841	14205.46
613.198	14088.63
613.554	14024.9
613.911	14120.72
614.267	14162.3
614.624	14077.33
614.98	14147.16
615.337	14179.25
615.693	14215.18
616.05	14139.7
616.406	14202.97
616.762	14208.4
617.118	14209.3
617.475	14236.19
617.831	14311.9
618.187	14232.13
618.543	14211.34
618.899	14308.73
619.255	14239.81
619.611	14262.63
619.967	14317.55
620.323	14321.16
620.678	14249.98
621.034	14192.35
621.39	14284.55
621.746	14246.59
622.101	14343.99
622.457	14255.85
622.812	14283.2
623.168	14360.94
623.523	14306.93
623.879	14323.87
624.234	14282.29
624.589	14308.73
624.945	14361.16
625.3	14286.81
625.655	14231
626.01	14298.11
626.365	14217.44
626.72	14292.46
627.075	14252.24
627.43	14281.39
627.785	14261.05
628.14	14329.07
628.495	14328.17
628.85	14324.1
629.205	14213.82
629.559	14291.79
629.914	14195.97
630.269	14287.27
630.623	14232.8
630.978	14199.13
631.332	14322.29
631.687	14226.93
632.041	14118.46
632.396	14240.94
632.75	14085.69
633.104	14225.57
633.459	14132.47
633.813	14088.85
634.167	14087.5
634.521	14075.97
634.875	14106.48
635.229	14010.66
635.583	14020.15
635.937	13966.6
636.291	13889.54
636.645	13961.85
636.999	13864.9
637.352	13957.78
637.706	13778.35
638.06	13811.8
638.413	13869.65
638.767	13841.85
639.121	13880.5
639.474	13820.16
639.828	13763.89
640.181	13855.41
640.534	13811.35
640.888	13803.44
641.241	13614.06
641.594	13689.54
641.947	13780.61
642.301	13727.05
642.654	13851.34
643.007	13850.89
643.36	13686.6
643.713	13784.23
644.066	13724.34
644.419	13581.97
644.771	13630.79
645.124	13509.21
645.477	13462.2
645.83	13333.62
646.182	13308.99
646.535	13263.56
646.888	13327.06
647.24	13228.76
647.593	13286.16
647.945	13158.71
648.298	13097.24
648.65	13191.25
649.002	13102.89
649.355	13223.34
649.707	13146.5
650.059	13287.74
650.411	13421.53
650.763	13351.7
651.115	13519.83
651.467	13525.25
651.819	13526.38
652.171	13570.45
652.523	13469.21
652.875	13487.06
653.227	13479.38
653.578	13555.99
653.93	13501.07
654.282	13417.68
654.633	13447.51
654.985	13491.35
655.337	13482.99
655.688	13513.95
656.039	13568.41
656.391	13406.16
656.742	13437.57
657.094	13450.9
657.445	13465.82
657.796	13519.6
658.147	13474.18
658.498	13574.29
658.849	13414.07
659.2	13413.16
659.551	13450.23
659.902	13477.12
660.253	13510.11
660.604	13427.85
660.955	13380.62
661.306	13486.61
661.656	13411.13
662.007	13508.98
662.358	13517.79
662.708	13463.78
663.059	13411.36
663.409	13391.7
663.76	13517.12
664.11	13449.55
664.461	13544.91
664.811	13539.04
665.161	13463.11
665.511	13436.21
665.862	13447.97
666.212	13510.56
666.562	13572.26
666.912	13540.39
667.262	13477.34
667.612	13477.8
667.962	13510.34
668.312	13479.15
668.662	13535.65
669.011	13515.53
669.361	13518.7
669.711	13419.72
670.06	13517.79
670.41	13451.13
670.76	13431.47
671.109	13467.63
671.459	13475.76
671.808	13477.8
672.157	13549.43
672.507	13386.5
672.856	13366.84
673.205	13304.69
673.554	13430.34
673.904	13392.15
674.253	13499.26
674.602	13424.46
674.951	13202.1
675.3	13112.83
675.649	13325.93
675.998	13351.92
676.346	13308.08
676.695	13288.42
677.044	13218.82
677.393	13251.36
677.741	13271.02
678.09	13233.28
678.438	13170.68
678.787	13215.88
679.135	13273.51
679.484	13130.69
679.832	13174.3
680.181	13076.45
680.529	13072.38
680.877	13019.95
681.225	13050.46
681.573	13119.16
681.922	13092.72
682.27	13081.65
682.618	13066.05
682.966	12976.34
683.314	12919.84
683.661	12936.79
684.009	12874.2
684.357	12763.92
684.705	12844.59
685.053	12836
685.4	12812.5
685.748	12611.6
686.095	12720.75
686.443	12685.27
686.79	12629.68
687.138	12593.3
687.485	12737.25
687.832	12588.55
688.18	12571.38
688.527	12433.3
688.874	12486.63
689.221	12427.88
689.568	12403.25
689.915	12380.2
690.262	12378.62
690.609	12355.11
690.956	12248.22
691.303	12373.42
691.65	12217.94
691.997	12163.25
692.344	12067.44
692.69	12045.06
693.037	12035.57
693.383	11952.86
693.73	12006.42
694.077	11866.99
694.423	11937.72
694.769	11849.14
695.116	11811.62
695.462	11810.27
695.808	11737.73
696.155	11764.39
696.501	11610.27
696.847	11745.41
697.193	11659.99
697.539	11569.14
697.885	11576.15
698.231	11473.78
698.577	11474.91
698.923	11504.97
699.269	11362.6
699.614	11331.64
699.96	11323.5
700.306	11316.95
700.651	11274.92
700.997	11146.56
701.342	11126.67
701.688	11164.41
702.033	11170.96
702.379	11030.63
702.724	10984.75
703.069	11115.6
703.415	10907.47
703.76	10971.65
704.105	10926.9
704.45	10860.69
704.795	10756.28
705.14	10811.88
705.485	10775.04
705.83	10699.34
706.175	10821.14
706.52	10692.33
706.865	10652.33
707.209	10642.39
707.554	10574.37
707.899	10552.45
708.243	10501.15
708.588	10544.99
708.932	10443.07
709.277	10424.77
709.621	10424.09
709.966	10303.64
710.31	10366.46
710.654	10314.04
710.998	10321.27
711.342	10280.37
711.687	10156.75
712.031	10189.29
712.375	10202.4
712.719	10216.41
713.063	10187.03
713.407	10211.21
713.75	10129.63
714.094	10068.85
714.438	10043.99
714.782	10080.37
715.125	10006.47
715.469	9974.38
715.812	9924.44
716.156	9939.13
716.499	9921.05
716.843	10012.8
717.186	9900.49
717.53	9874.27
717.873	9937.32
718.216	9903.2
718.559	9832.47
718.902	9804.67
719.246	9794.05
719.589	9764.67
719.932	9798.8
720.275	9844.22
720.617	9747.05
720.96	9746.82
721.303	9724.9
721.646	9750.89
721.989	9653.49
722.331	9690.1
722.674	9671.57
723.016	9704.11
723.359	9716.76
723.701	9764.22
724.044	9592.93
724.386	9530.33
724.729	9634.73
725.071	9567.84
725.413	9596.99
725.755	9605.13
726.097	9510.44
726.439	9524.9
726.782	9496.43
727.124	9548.18
727.465	9506.6
727.807	9540.05
728.149	9548.63
728.491	9463.21
728.833	9464.12
729.175	9542.08
729.516	9477.9
729.858	9484.45
730.199	9475.19
730.541	9475.41
730.882	9471.8
731.224	9460.5
731.565	9468.64
731.906	9419.14
732.248	9472.93
732.589	9401.52
732.93	9377.11
733.271	9501.4
733.612	9398.58
733.953	9395.64
734.294	9453.49
734.635	9367.17
734.976	9444
735.317	9441.74
735.658	9409.43
735.999	9386.38
736.339	9407.62
736.68	9401.52
737.021	9467.96
737.361	9408.52
737.702	9399.94
738.042	9369.88
738.383	9404.91
738.723	9471.12
739.063	9452.82
739.404	9520.84
739.744	9435.87
740.084	9491.01
740.424	9467.73
740.764	9484.91
741.104	9538.46
741.444	9519.71
741.784	9483.55
742.124	9544.34
742.464	9546.83
742.804	9581.17
743.143	9546.15
743.483	9576.88
743.823	9521.74
744.162	9526.71
744.502	9667.73
744.841	9556.77
745.181	9782.07
745.52	9759.25
745.86	9793.6
746.199	9731.91
746.538	9739.59
746.877	9910.43
747.216	9895.29
747.556	9890.55
747.895	9932.13
748.234	9983.65
748.573	10004.21
748.911	10116.3
749.25	10247.37
749.589	10202.63
749.928	10260.93
750.267	10386.58
750.605	10374.83
750.944	10442.39
751.283	10518.33
751.621	10666.8
751.96	10696.63
752.298	10772.78
752.636	10904.53
752.975	10794.02
753.313	10921.7
753.651	11112.43
753.989	11186.33
754.327	11278.08
754.666	11394.69
755.004	11512.42
755.342	11570.27
755.679	11748.58
756.017	11894.11
756.355	12021.11
756.693	12090.71
757.031	12236.47
757.368	12354.44
757.706	12571.38
758.044	12696.57
758.381	12815.21
758.719	13019.5
759.056	13087.07
759.394	13269.89
759.731	13386.72
760.068	13590.11
760.405	13725.47
760.743	13838.01
761.08	13963.88
761.417	14137.89
761.754	14314.84
762.091	14397.55
762.428	14556.19
762.765	14617.2
763.102	14991.2
763.438	14989.17
763.775	15168.6
764.112	15376.73
764.449	15489.04
764.785	15656.72
765.122	15751.18
765.458	15896.49
765.795	16080.66
766.131	16164.73
766.467	16403.59
766.804	16477.26
767.14	16526.3
767.476	16834.32
767.812	16805.84
768.148	17014.43
768.485	17068.89
768.821	17164.48
769.157	17285.83
769.492	17377.81
769.828	17583
770.164	17611.25
770.5	17671.58
770.836	17777.12
771.171	17759.94
771.507	17959.26
771.842	17942.99
772.178	18208.29
772.513	18255.52
772.849	18260.49
773.184	18276.99
773.519	18488.06
773.855	18512.01
774.19	18454.39
774.525	18620.03
774.86	18707.26
775.195	18792.68
775.53	18668.39
775.865	18759.24
776.2	18685.79
776.535	18701.61
776.87	18826.81
777.205	18899.35
777.539	18869.52
777.874	18930.08
778.209	18884.21
778.543	19011.44
778.878	18945.67
779.212	19008.72
779.547	18972.57
779.881	19110.64
780.215	19070.42
780.55	19076.07
780.884	19018.44
781.218	19013.92
781.552	19054.6
781.886	19025.45
782.22	19037.65
782.554	19099.79
782.888	18993.36
783.222	18876.3
783.556	18956.07
783.889	18868.84
784.223	18818.22
784.557	18881.5
784.89	18928.5
785.224	18849.41
785.557	18832.68
785.891	18877.2
786.224	18896.41
786.558	18833.59
786.891	18688.28
787.224	18713.14
787.557	18689.86
787.891	18711.33
788.224	18615.97
788.557	18646.25
788.89	18601.73
789.223	18672.69
789.556	18492.35
789.888	18471.79
790.221	18502.07
790.554	18259.82
790.887	18437.89
791.219	18419.13
791.552	18321.06
791.884	18159.48
792.217	18358.8
792.549	18256.2
792.882	18194.73
793.214	18138.92
793.546	18117.9
793.879	18025.7
794.211	17881.97
794.543	18044.91
794.875	18021.18
795.207	18053.27
795.539	17954.74
795.871	17979.82
796.203	17715.42
796.535	17742.09
796.867	17691.47
797.198	17718.14
797.53	17615.09
797.862	17618.7
798.193	17597.24
798.525	17496.67
798.856	17511.59
799.188	17450.8
799.519	17355.21
799.85	17286.06
800.182	17342.78
800.513	17281.99
800.844	17084.25
801.175	17215.78
801.506	17255.78
801.837	17070.92
802.168	17144.82
802.499	16995.22
802.83	16988.66
803.161	16980.98
803.491	16963.81
803.822	16943.92
804.153	16819.4
804.483	16757.94
804.814	16692.4
805.145	16690.59
805.475	16706.19
805.805	16494.89
806.136	16583.48
806.466	16534.21
806.796	16668.45
807.126	16507.55
807.457	16368.79
807.787	16467.32
808.117	16391.62
808.447	16274.33
808.777	16371.96
809.107	16301.22
809.436	16298.74
809.766	16164.28
810.096	16163.6
810.426	16068.46
810.755	16161.57
811.085	16086.31
811.414	16070.72
811.744	16056.26
812.073	15910.73
812.403	15970.61
812.732	15767.9
813.061	15898.3
813.39	15725.65
813.719	15767
814.049	15829.6
814.378	15781.24
814.707	15732.43
815.036	15763.16
815.365	15643.61
815.693	15462.15
816.022	15511.41
816.351	15488.36
816.68	15456.73
817.008	15403.62
817.337	15316.84
817.665	15321.36
817.994	15322.04
818.322	15284.98
818.651	15309.39
818.979	15166.56
819.307	15278.88
819.636	15214.25
819.964	15133.12
820.292	15237.3
820.62	15182.38
820.948	15175.6
821.276	15263.29
821.604	15123.63
821.932	15186.68
822.259	15166.56
822.587	15154.59
822.915	14992.56
823.243	15120.92
823.57	15039.79
823.898	15109.16
824.225	15071.43
824.553	15108.03
824.88	15132.89
825.207	15089.96
825.535	15086.34
825.862	15121.14
826.189	15093.35
826.516	15176.28
826.843	15152.78
827.17	15131.31
827.497	15182.38
827.824	15121.14
828.151	15098.32
828.478	15113.46
828.805	15108.26
829.131	15155.49
829.458	15096.51
829.785	15075.95
830.111	15096.28
830.438	15145.77
830.764	15143.06
831.09	15195.49
831.417	15072.33
831.743	15078.88
832.069	15104.42
832.395	15079.34
832.722	15119.56
833.048	14987.13
833.374	15066.45
833.7	14976.29
834.026	15034.14
834.351	14999.34
834.677	14981.48
835.003	15067.13
835.329	14980.35
835.654	14889.74
835.98	14843.18
836.306	14863.52
836.631	14886.57
836.956	14939.9
837.282	14923.86
837.607	14825.33
837.932	14832.34
838.258	14812.9
838.583	14751.89
838.908	14665.79
839.233	14655.62
839.558	14623.08
839.883	14680.7
840.208	14552.57
840.533	14579.69
840.858	14587.14
841.182	14556.41
841.507	14567.94
841.832	14425.57
842.156	14490.42
842.481	14473.25
842.805	14496.3
843.13	14398.45
843.454	14319.36
843.778	14337.21
844.103	14287.49
844.427	14242.52
844.751	14313.03
845.075	14195.74
845.399	14206.36
845.723	14004.34
846.047	14122.75
846.371	14029.87
846.695	14011.79
847.019	13883.43
847.343	13817.9
847.666	13806.6
847.99	13725.25
848.313	13737.68
848.637	13696.77
848.96	13682.54
849.284	13518.7
849.607	13489.55
849.931	13379.27
850.254	13343.56
850.577	13301.98
850.9	13258.37
851.223	13165.49
851.546	13084.36
851.869	13046.17
852.192	13185.15
852.515	12940.18
852.838	12861.54
853.161	12845.95
853.483	12844.59
853.806	12782.22
854.129	12778.6
854.451	12704.71
854.774	12649.12
855.096	12604.37
855.419	12586.07
855.741	12577.25
856.063	12549.01
856.385	12534.09
856.708	12511.04
857.03	12420.87
857.352	12430.14
857.674	12391.95
857.996	12335.23
858.318	12234.21
858.64	12220.88
858.961	12285.51
859.283	12186.53
859.605	12088.68
859.926	12106.98
860.248	12001.68
860.57	12009.36
860.891	12027.44
861.212	11897.05
861.534	11892.3
861.855	11887.33
862.176	11914.9
862.498	11921.68
862.819	11806.2
863.14	11859.31
863.461	11728.01
863.782	11725.07
864.103	11760.33
864.424	11690.05
864.745	11717.39
865.065	11643.72
865.386	11628.35
865.707	11622.48
866.027	11591.52
866.348	11594.46
866.668	11647.33
866.989	11552.2
867.309	11432.43
867.63	11514.46
867.95	11545.87
868.27	11515.81
868.59	11498.86
868.91	11389.04
869.23	11440.79
869.55	11332.99
869.87	11384.74
870.19	11356.5
870.51	11362.14
870.83	11358.53
871.15	11280.11
871.469	11358.76
871.789	11351.52
872.109	11342.03
872.428	11145.65
872.748	11307.23
873.067	11256.38
873.386	11177.97
873.706	11197.4
874.025	11135.03
874.344	11138.87
874.663	11079.89
874.982	11116.5
875.301	11105.88
875.62	11104.07
875.939	11088.93
876.258	11030.63
876.577	10969.16
876.896	10990.18
877.214	10949.5
877.533	10991.08
877.852	10912.21
878.17	10959.22
878.489	10914.7
878.807	10873.57
879.125	10827.24
879.444	10872.21
879.762	10864.76
880.08	10781.82
880.398	10777.75
880.716	10721.03
881.034	10726.23
881.352	10769.62
881.67	10763.06
881.988	10668.6
882.306	10613.01
882.624	10660.24
882.941	10587.25
883.259	10622.73
883.577	10615.95
883.894	10528.27
884.212	10463.64
884.529	10499.79
884.846	10476.74
885.164	10498.89
885.481	10385.22
885.798	10385.9
886.115	10333.7
886.432	10313.36
886.75	10269.29
887.067	10230.88
887.383	10336.86
887.7	10281.72
888.017	10249.18
888.334	10170.99
888.651	10187.71
888.967	10136.41
889.284	10113.36
889.6	10024.33
889.917	10052.57
890.233	10041.95
890.55	9979.81
890.866	9971.9
891.182	9913.82
891.498	9872.69
891.815	9858.68
892.131	9818
892.447	9816.42
892.763	9744.33
893.079	9752.24
893.395	9709.98
893.71	9729.87
894.026	9679.03
894.342	9621.85
894.657	9614.85
894.973	9514.06
895.289	9525.58
895.604	9500.27
895.92	9404.23
896.235	9386.6
896.55	9399.26
896.865	9344.57
897.181	9304.12
897.496	9319.26
897.811	9263.22
898.126	9234.29
898.441	9181.19
898.756	9161.52
899.071	9182.54
899.386	9099.61
899.7	9038.82
900.015	9033.17
900.33	8958.14
900.644	8990
900.959	8980.06
901.273	8901.42
901.588	8909.78
901.902	8826.39
902.216	8792.49
902.531	8761.99
902.845	8781.2
903.159	8757.47
903.473	8658.94
903.787	8653.29
904.101	8583.01
904.415	8611.71
904.729	8579.17
905.042	8508.89
905.356	8462.79
905.67	8487.87
905.984	8435.22
906.297	8420.75
906.611	8332.17
906.924	8394.54
907.237	8291.72
907.551	8310.25
907.864	8231.38
908.177	8221.89
908.491	8192.06
908.804	8114.09
909.117	8137.14
909.43	8108.67
909.743	8073.87
910.056	8042.46
910.368	7949.58
910.681	7904.38
910.994	7949.58
911.307	7905.06
911.619	7820.77
911.932	7850.6
912.244	7817.38
912.557	7751.17
912.869	7717.27
913.181	7641.79
913.494	7645.63
913.806	7593.88
914.118	7597.27
914.43	7497.84
914.742	7531.51
915.054	7506.88
915.366	7424.17
915.678	7401.12
915.99	7406.54
916.302	7324.74
916.613	7356.6
916.925	7307.11
917.236	7310.95
917.548	7158.64
917.859	7257.85
918.171	7170.62
918.482	7139.2
918.794	7178.07
919.105	7112.54
919.416	7018.53
919.727	7074.12
920.038	7034.57
920.349	6959.1
920.66	6936.72
920.971	6939.21
921.282	6825.99
921.593	6850.85
921.903	6791.64
922.214	6849.95
922.525	6765.2
922.835	6746.45
923.146	6726.56
923.456	6712.32
923.767	6662.83
924.077	6696.05
924.387	6618.09
924.697	6595.04
925.008	6533.8
925.318	6556.62
925.628	6550.07
925.938	6505.32
926.248	6436.4
926.558	6414.7
926.867	6402.73
927.177	6453.35
927.487	6364.99
927.796	6275.05
928.106	6321.83
928.416	6281.37
928.725	6265.78
929.034	6228.95
929.344	6230.53
929.653	6190.98
929.962	6149.4
930.271	6168.38
930.581	6095.16
930.89	6064.66
931.199	6006.35
931.508	6036.86
931.817	6009.74
932.125	5993.47
932.434	5993.25
932.743	5908.5
933.051	5880.48
933.36	5864.89
933.669	5870.54
933.977	5900.59
934.286	5813.59
934.594	5767.26
934.902	5749.41
935.21	5691.56
935.519	5729.3
935.827	5669.19
936.135	5635.29
936.443	5600.94
936.751	5578.57
937.059	5587.38
937.367	5622.86
937.674	5522.3
937.982	5497.89
938.29	5474.16
938.597	5423.77
938.905	5445.01
939.213	5412.47
939.52	5374.28
939.827	5406.37
940.135	5291.12
940.442	5302.87
940.749	5330.66
941.056	5336.09
941.363	5241.63
941.67	5290.89
941.977	5207.96
942.284	5160.5
942.591	5208.18
942.898	5134.51
943.205	5146.49
943.511	5115.98
943.818	5076.43
944.125	5114.63
944.431	5075.76
944.738	5074.17
945.044	5004.57
945.35	5000.5
945.657	4952.6
945.963	4964.12
946.269	4912.6
946.575	4854.29
946.881	4817.23
947.187	4875.31
947.493	4815.42
947.799	4795.99
948.105	4788.76
948.41	4750.12
948.716	4782.43
949.022	4728.19
949.327	4755.54
949.633	4667.18
949.938	4619.5
950.244	4627.63
950.549	4589.89
950.854	4570.46
951.16	4589.22
951.465	4587.41
951.77	4558.26
952.075	4509.44
952.38	4498.37
952.685	4454.3
952.99	4467.41
953.294	4433.51
953.599	4409.33
953.904	4411.82
954.209	4362.33
954.513	4386.73
954.818	4373.85
955.122	4320.07
955.426	4301.77
955.731	4318.49
956.035	4267.87
956.339	4261.54
956.643	4292.95
956.948	4213.63
957.252	4212.28
957.556	4178.15
957.86	4170.7
958.163	4152.84
958.467	4175.67
958.771	4095.9
959.075	4144.93
959.378	4080.3
959.682	4097.48
959.985	4044.82
960.289	4013.19
960.592	4062.22
960.896	4025.39
961.199	3982.23
961.502	3960.98
961.805	3926.41
962.108	3904.49
962.411	3912.85
962.714	3897.93
963.017	3867.88
963.32	3910.14
963.623	3875.11
963.926	3878.27
964.228	3856.58
964.531	3786.52
964.833	3775
965.136	3736.58
965.438	3791.27
965.741	3715.34
966.043	3715.57
966.345	3690.93
966.648	3707.66
966.95	3655.23
967.252	3638.73
967.554	3628.34
967.856	3644.83
968.158	3647.32
968.46	3603.03
968.761	3616.59
969.063	3557.15
969.365	3561.9
969.666	3499.98
969.968	3484.61
970.269	3494.33
970.571	3465.63
970.872	3452.3
971.174	3420.43
971.475	3464.05
971.776	3388.57
972.077	3423.82
972.378	3396.93
972.679	3376.37
972.98	3335.92
973.281	3352.64
973.582	3370.49
973.883	3352.41
974.183	3315.8
974.484	3270.38
974.785	3271.28
975.085	3227.44
975.386	3255.24
975.686	3247.56
975.986	3233.77
976.287	3255.92
976.587	3175.24
976.887	3153.55
977.187	3147.9
977.487	3155.35
977.787	3149.93
978.087	3096.15
978.387	3121.23
978.687	3101.12
978.987	3106.54
979.286	3059.76
979.586	3059.99
979.885	3060.67
980.185	3014.57
980.484	3023.83
980.784	3031.97
981.083	3009.82
981.382	2997.17
981.682	3015.7
981.981	2975.47
982.28	2923.95
982.579	2898.86
982.878	2936.6
983.177	2909.26
983.475	2892.31
983.774	2880.33
984.073	2844.18
984.372	2853.22
984.67	2854.35
984.969	2855.7
985.267	2829.71
985.566	2782.26
985.864	2778.19
986.162	2767.79
986.461	2740
986.759	2736.16
987.057	2693.22
987.355	2694.8
987.653	2736.83
987.951	2703.16
988.249	2670.17
988.547	2659.32
988.844	2677.4
989.142	2663.62
989.44	2632.66
989.737	2600.79
990.035	2590.85
990.332	2612.09
990.63	2539.55
990.927	2546.56
991.224	2543.39
991.521	2553.34
991.819	2525.09
992.116	2509.95
992.413	2496.39
992.71	2513.34
993.006	2494.58
993.303	2454.13
993.6	2451.87
993.897	2398.54
994.193	2473.34
994.49	2452.32
994.787	2373.45
995.083	2377.07
995.379	2383.62
995.676	2400.12
995.972	2370.97
996.268	2329.16
996.565	2336.62
996.861	2360.8
997.157	2320.57
997.453	2277.86
997.749	2300.46
998.044	2302.04
998.34	2271.31
998.636	2304.98
998.932	2252.55
999.227	2248.03
999.523	2238.09
999.818	2226.57
1000.114	2205.1
1000.409	2166.45
1000.704	2162.39
1001	2191.09
1001.295	2169.17
1001.59	2132.33
1001.885	2141.37
1002.18	2134.14
1002.475	2128.49
1002.77	2111.31
1003.065	2088.26
1003.359	2078.77
1003.654	2055.5
1003.949	2065.44
1004.243	2062.5
1004.538	2007.14
1004.832	2028.6
1005.127	1996.29
1005.421	1985.22
1005.715	1999.23
1006.009	1966.01
1006.304	1970.3
1006.598	1953.8
1006.892	1917.87
1007.186	1937.53
1007.48	1923.97
1007.773	1924.88
1008.067	1941.83
1008.361	1895.5
1008.655	1870.87
1008.948	1881.72
1009.242	1869.06
1009.535	1834.71
1009.829	1838.55
1010.122	1811.66
1010.415	1822.96
1010.708	1786.58
1011.001	1803.3
1011.295	1766.46
1011.588	1775.05
1011.881	1786.35
1012.173	1729.18
1012.466	1757.65
1012.759	1734.6
1013.052	1731.21
1013.344	1725.79
1013.637	1712.23
1013.93	1701.61
1014.222	1687.82
1014.514	1656.64
1014.807	1629.29
1015.099	1645.79
1015.391	1618.9
1015.683	1643.08
1015.976	1600.37
1016.268	1624.55
1016.56	1590.42
1016.851	1596.75
1017.143	1556.98
1017.435	1569.41
1017.727	1570.54
1018.018	1529.63
1018.31	1552.69
1018.602	1563.53
1018.893	1518.34
1019.185	1517.43
1019.476	1488.96
1019.767	1479.92
1020.058	1499.81
1020.35	1454.16
1020.641	1460.26
1020.932	1459.81
1021.223	1460.26
1021.514	1452.12
1021.804	1418
1022.095	1438.79
1022.386	1434.27
1022.677	1374.16
1022.967	1381.84
1023.258	1382.52
1023.548	1375.51
1023.839	1379.58
1024.129	1342.75
1024.419	1322.18
1024.709	1369.87
1025	1342.07
1025.29	1305.69
1025.58	1309.3
1025.87	1313.82
1026.16	1323.31
1026.449	1314.73
1026.739	1283.09
1027.029	1277.44
1027.319	1271.56
1027.608	1254.84
1027.898	1224.78
1028.187	1236.76
1028.477	1257.1
1028.766	1224.11
1029.055	1220.26
1029.344	1221.62
1029.634	1195.18
1029.923	1212.58
1030.212	1175.52
1030.501	1210.77
1030.79	1152.92
1031.078	1176.2
1031.367	1167.61
1031.656	1158.12
1031.945	1130.32
1032.233	1131.91
1032.522	1110.89
1032.81	1117.22
1033.099	1125.35
1033.387	1104.34
1033.675	1101.62
1033.963	1095.3
1034.251	1104.79
1034.54	1089.19
1034.828	1076.54
1035.116	1066.82
1035.403	1052.81
1035.691	1052.36
1035.979	1016.43
1036.267	1039.48
1036.554	1023.21
1036.842	1025.24
1037.129	1009.65
1037.417	1018.01
1037.704	1004.9
1037.992	992.7
1038.279	983.66
1038.566	994.28
1038.853	994.28
1039.14	994.28
