Data from hue_100_FLMS001491_00045.txt Node
Date: Tue Feb 07 17:03:14 GMT 2017
User: dcchb
Spectrometer: FLMS00149
Trigger mode: 0
Integration Time (sec): 2.000000E-2
Scans to average: 10
Electric dark correction enabled: true
Nonlinearity correction enabled: false
Boxcar width: 0
XAxis mode: Wavelengths
Number of Pixels in Spectrum: 2048
>>>>>Begin Spectral Data<<<<<
341.393	-13.64
341.776	-13.64
342.16	-13.64
342.543	-39.86
342.927	-59.29
343.31	-71.04
343.693	-58.61
344.077	-55.9
344.46	-62.46
344.843	-66.98
345.226	-31.95
345.61	-42.34
345.993	-28.33
346.376	11.89
346.759	17.32
347.142	23.19
347.525	36.75
347.908	52.8
348.291	76.98
348.674	70.2
349.057	128.5
349.44	141.38
349.823	145
350.206	168.5
350.588	193.36
350.971	202.62
351.354	232.23
351.737	231.77
352.119	262.06
352.502	264.32
352.884	301.6
353.267	297.31
353.65	303.86
354.032	312.22
354.414	309.06
354.797	324.2
355.179	359.91
355.562	326.01
355.944	331.88
356.326	337.08
356.709	325.56
357.091	326.01
357.473	338.89
357.855	339.79
358.238	343.86
358.62	333.01
359.002	348.15
359.384	342.96
359.766	334.14
360.148	321.49
360.53	354.71
360.912	334.6
361.294	342.51
361.676	339.12
362.057	348.38
362.439	323.07
362.821	329.17
363.203	330.98
363.584	330.75
363.966	334.37
364.348	333.24
364.729	319
365.111	309.29
365.493	330.53
365.874	303.41
366.256	317.2
366.637	324.43
367.019	324.65
367.4	329.85
367.781	332.34
368.163	331.21
368.544	303.86
368.925	325.1
369.306	308.83
369.688	329.4
370.069	333.47
370.45	327.59
370.831	312.45
371.212	327.36
371.593	322.17
371.974	335.5
372.355	316.74
372.736	330.53
373.117	325.56
373.498	329.85
373.879	296.18
374.26	334.37
374.641	320.81
375.021	334.37
375.402	336.86
375.783	326.01
376.163	356.52
376.544	344.31
376.925	331.21
377.305	333.69
377.686	348.38
378.066	352.9
378.447	342.96
378.827	336.18
379.208	357.42
379.588	341.15
379.968	318.78
380.349	361.26
380.729	362.84
381.109	341.15
381.489	369.85
381.87	348.15
382.25	333.69
382.63	349.28
383.01	354.03
383.39	365.56
383.77	340.25
384.15	355.61
384.53	377.53
384.91	352.45
385.29	347.48
385.67	360.58
386.049	364.88
386.429	366.69
386.809	352.9
387.189	376.63
387.568	375.27
387.948	393.8
388.328	368.27
388.707	364.2
389.087	378.44
389.466	401.26
389.846	389.74
390.225	375.95
390.605	377.76
390.984	389.06
391.363	380.24
391.743	388.15
392.122	384.31
392.501	387.25
392.881	406.23
393.26	396.51
393.639	405.55
394.018	412.56
394.397	389.51
394.776	399.45
395.155	402.84
395.534	425.89
395.913	410.53
396.292	430.64
396.671	416.63
397.05	420.7
397.429	412.33
397.808	406.46
398.186	431.99
398.565	431.09
398.944	437.19
399.323	432.45
399.701	424.76
400.08	442.16
400.458	450.07
400.837	412.11
401.215	444.42
401.594	429.96
401.972	446.46
402.351	430.41
402.729	452.33
403.107	450.98
403.486	459.56
403.864	450.07
404.242	464.54
404.62	462.28
404.999	469.06
405.377	455.5
405.755	451.88
406.133	443.29
406.511	455.72
406.889	468.6
407.267	507.7
407.645	472.45
408.023	486
408.401	466.57
408.779	495.5
409.156	484.65
409.534	496.85
409.912	495.72
410.29	515.38
410.667	508.15
411.045	493.01
411.422	502.73
411.8	511.09
412.178	524.87
412.555	514.48
412.933	547.47
413.31	535.72
413.687	537.98
414.065	529.39
414.442	537.53
414.819	554.93
415.197	521.26
415.574	563.52
415.951	561.03
416.328	558.09
416.705	556.06
417.082	551.99
417.46	567.36
417.837	560.58
418.214	576.62
418.591	590.86
418.967	617.98
419.344	587.7
419.721	593.57
420.098	581.59
420.475	605.1
420.852	604.42
421.228	592.44
421.605	618.88
421.982	608.94
422.358	636.51
422.735	620.69
423.111	628.6
423.488	633.8
423.864	638.09
424.241	641.71
424.617	647.13
424.994	671.08
425.37	672.21
425.746	682.38
426.123	675.38
426.499	663.4
426.875	699.33
427.251	695.26
427.627	710.41
428.003	680.35
428.379	674.25
428.756	702.72
429.132	707.92
429.507	745.88
429.883	723.51
430.259	719.67
430.635	726.68
431.011	732.78
431.387	759.67
431.763	782.04
432.138	796.28
432.514	788.37
432.89	760.12
433.265	785.21
433.641	809.39
434.016	783.4
434.392	814.81
434.767	825.2
435.143	822.49
435.518	824.53
435.894	836.28
436.269	859.78
436.644	866.79
437.02	870.63
437.395	874.24
437.77	880.8
438.145	906.33
438.52	888.25
438.895	885.32
439.271	894.81
439.646	919.21
440.021	923.28
440.395	945.88
440.77	939.1
441.145	929.16
441.52	954.47
441.895	960.34
442.27	962.15
442.645	963.51
443.019	969.16
443.394	984.3
443.769	1004.63
444.143	981.13
444.518	1015.03
444.892	997.86
445.267	1006.22
445.641	1023.39
446.016	1031.98
446.39	1014.8
446.764	1035.14
447.139	1031.98
447.513	1035.37
447.887	1032.2
448.262	1049.61
448.636	1079.43
449.01	1076.27
449.384	1085.31
449.758	1096.61
450.132	1097.06
450.506	1127.8
450.88	1102.94
451.254	1118.53
451.628	1125.08
452.002	1162.6
452.376	1144.29
452.75	1152.2
453.123	1179.77
453.497	1174.57
453.871	1169.6
454.244	1184.52
454.618	1244.4
454.992	1248.02
455.365	1271.52
455.739	1286.21
456.112	1279.43
456.486	1302.25
456.859	1336.38
457.232	1316.04
457.606	1316.26
457.979	1343.38
458.352	1374.12
458.725	1372.76
459.099	1404.4
459.472	1434.45
459.845	1455.47
460.218	1449.59
460.591	1469.48
460.964	1490.27
461.337	1505.64
461.71	1503.83
462.083	1522.14
462.456	1587.22
462.829	1596.26
463.201	1604.39
463.574	1611.62
463.947	1610.72
464.32	1683.03
464.692	1687.78
465.065	1691.4
465.438	1756.93
465.81	1773.2
466.183	1782.02
466.555	1830.38
466.928	1823.37
467.3	1836.48
467.672	1880.54
468.045	1936.36
468.417	1943.59
468.789	1943.82
469.161	2003.25
469.534	2048.9
469.906	2085.96
470.278	2104.72
470.65	2114.21
471.022	2186.52
471.394	2230.14
471.766	2270.82
472.138	2303.81
472.51	2371.15
472.882	2406.63
473.253	2425.61
473.625	2502
473.997	2548.32
474.369	2603.69
474.74	2638.94
475.112	2690.24
475.484	2746.96
475.855	2850.69
476.227	2860.63
476.598	2987.63
476.97	2996.22
477.341	3079.83
477.713	3195.09
478.084	3255.87
478.455	3344.01
478.827	3402.76
479.198	3498.13
479.569	3537
479.94	3667.16
480.311	3765.24
480.682	3867.16
481.053	3986.7
481.424	4106.47
481.795	4170.65
482.166	4293.59
482.537	4407.26
482.908	4474.6
483.279	4600.7
483.65	4732.67
484.021	4901.48
484.391	4981.25
484.762	5104.87
485.133	5230.74
485.503	5329.72
485.874	5534.91
486.244	5614.23
486.615	5779.65
486.985	5893.09
487.356	6072.3
487.726	6175.8
488.097	6337.15
488.467	6493.53
488.837	6601.78
489.207	6806.29
489.578	6922.45
489.948	7087.64
490.318	7312.04
490.688	7335.32
491.058	7594.74
491.428	7765.13
491.798	7890.1
492.168	8105.46
492.538	8256.65
492.908	8349.98
493.278	8554.27
493.648	8691.44
494.017	8880.13
494.387	8933.47
494.757	9073.57
495.126	9315.83
495.496	9348.37
495.866	9537.29
496.235	9661.58
496.605	9892.31
496.974	9956.26
497.344	10155.35
497.713	10181.57
498.082	10387.66
498.452	10516.02
498.821	10620.2
499.19	10735.68
499.559	10917.14
499.928	11069
500.298	11130.24
500.667	11276.91
501.036	11310.8
501.405	11484.59
501.774	11482.78
502.143	11632.83
502.512	11773.84
502.88	11957.11
503.249	12010.22
503.618	12040.5
503.987	12174.74
504.356	12323.43
504.724	12382.87
505.093	12491.56
505.462	12512.13
505.83	12739.24
506.199	12737.66
506.567	12953.92
506.936	13022.4
507.304	13163.64
507.672	13192.79
508.041	13248.61
508.409	13374.7
508.777	13424.87
509.145	13552.78
509.514	13560.46
509.882	13725.66
510.25	13826.9
510.618	13895.37
510.986	13891.53
511.354	13997.06
511.722	14150.28
512.09	14249.03
512.458	14241.57
512.826	14322.25
513.193	14450.38
513.561	14470.04
513.929	14506.65
514.297	14662.58
514.664	14657.16
515.032	14821.22
515.4	14899.41
515.767	14869.13
516.135	14918.85
516.502	14865.29
516.869	15167.43
517.237	15128.33
517.604	15106.18
517.972	15248.78
518.339	15276.8
518.706	15305.5
519.073	15393.18
519.44	15462.56
519.808	15462.33
520.175	15471.82
520.542	15680.18
520.909	15590.01
521.276	15675.44
521.643	15792.95
522.009	15771.03
522.376	15886.5
522.743	15971.25
523.11	16002.43
523.477	16165.14
523.843	16193.16
524.21	16291.24
524.577	16331.69
524.943	16336.89
525.31	16436.55
525.676	16482.42
526.043	16582.76
526.409	16605.13
526.776	16712.02
527.142	16708.18
527.508	16668.18
527.874	16804.22
528.241	16809.64
528.607	16839.25
528.973	16930.09
529.339	16798.57
529.705	16959.02
530.071	16928.74
530.437	16937.55
530.803	17028.62
531.169	17034.27
531.535	16945.46
531.901	17007.15
532.267	17048.28
532.632	17099.58
532.998	17103.87
533.364	17114.04
533.73	17118.11
534.095	17179.8
534.461	17184.77
534.826	17176.64
535.192	17216.64
535.557	17233.36
535.923	17157.66
536.288	17185.45
536.653	17131.22
537.019	17074.27
537.384	17041.73
537.749	17133.25
538.114	16999.92
538.479	16992.01
538.845	17077.21
539.21	16965.8
539.575	16966.7
539.94	17008.28
540.305	17096.19
540.67	16984.1
541.034	16899.58
541.399	16976.64
541.764	16990.43
542.129	16810.09
542.494	16827.95
542.858	16915.18
543.223	16818
543.587	16940.03
543.952	16785.69
544.316	16731.45
544.681	16806.93
545.045	16794.5
545.41	16794.73
545.774	16720.38
546.138	16688.74
546.503	16666.82
546.867	16619.37
547.231	16717.22
547.595	16569.2
547.959	16566.71
548.324	16517
548.688	16544.11
549.052	16461.4
549.416	16524.23
549.779	16464.79
550.143	16361.29
550.507	16466.15
550.871	16407.62
551.235	16327.17
551.599	16408.3
551.962	16490.78
552.326	16370.56
552.689	16432.48
553.053	16302.76
553.417	16319.26
553.78	16445.58
554.143	16351.8
554.507	16336.89
554.87	16238.13
555.234	16399.26
555.597	16292.59
555.96	16258.47
556.323	16277.68
556.686	16279.26
557.05	16327.4
557.413	16332.82
557.776	16297.34
558.139	16360.16
558.502	16260.73
558.865	16310.45
559.228	16366.04
559.59	16280.39
559.953	16373.04
560.316	16435.42
560.679	16372.37
561.041	16400.61
561.404	16425.25
561.767	16485.58
562.129	16330.79
562.492	16519.03
562.854	16457.11
563.217	16374.85
563.579	16495.98
563.941	16540.27
564.304	16559.25
564.666	16580.72
565.028	16651.23
565.39	16621.17
565.753	16600.38
566.115	16586.15
566.477	16755.18
566.839	16778.46
567.201	16867.49
567.563	16701.4
567.925	16820.26
568.287	16771.45
568.648	16928.74
569.01	16899.58
569.372	16916.08
569.734	16826.59
570.095	16941.84
570.457	16945.46
570.819	17014.84
571.18	16958.11
571.542	17069.52
571.903	16966.47
572.265	17046.92
572.626	17089.18
572.987	17074.27
573.349	17132.8
573.71	17130.31
574.071	17218.67
574.432	17199.01
574.794	17299.57
575.155	17213.93
575.516	17166.24
575.877	17301.61
576.238	17255.96
576.599	17308.16
576.96	17310.65
577.32	17307.71
577.681	17306.35
578.042	17277.65
578.403	17381.38
578.763	17268.61
579.124	17325.79
579.485	17393.36
579.845	17331.21
580.206	17386.12
580.566	17349.06
580.927	17356.75
581.287	17460.02
581.648	17409.4
582.008	17329.18
582.368	17278.11
582.728	17392
583.089	17351.78
583.449	17439
583.809	17286.69
584.169	17356.52
584.529	17334.83
584.889	17384.54
585.249	17326.01
585.609	17262.51
585.969	17321.72
586.329	17266.13
586.688	17272.68
587.048	17232
587.408	17312.91
587.768	17167.37
588.127	17179.12
588.487	17140.48
588.846	17316.07
589.206	17170.54
589.565	17188.16
589.925	17225.9
590.284	17186.36
590.643	17193.59
591.003	17271.55
591.362	17294.15
591.721	17173.47
592.08	17230.2
592.44	17207.6
592.799	17159.24
593.158	17133.02
593.517	17145.91
593.876	17235.85
594.235	17101.84
594.593	17081.95
594.952	17099.58
595.311	17087.83
595.67	17088.05
596.029	17259.35
596.387	17151.55
596.746	17115.62
597.104	17101.16
597.463	16975.29
597.822	17169.18
598.18	16976.42
598.538	17053.25
598.897	17157.66
599.255	16964.89
599.613	17216.64
599.972	17071.1
600.33	17108.62
600.688	17096.41
601.046	17038.79
601.404	17166.47
601.762	17140.71
602.12	17159.92
602.478	17261.83
602.836	17166.47
603.194	17069.07
603.552	17083.31
603.91	17025
604.268	17081.73
604.625	17148.16
604.983	17204.21
605.341	17075.4
605.698	17226.13
606.056	17245.34
606.413	17166.92
606.771	17221.16
607.128	17185.9
607.485	17162.4
607.843	17125.34
608.2	17290.08
608.557	17276.07
608.914	17236.52
609.272	17377.31
609.629	17406.69
609.986	17288.27
610.343	17270.2
610.7	17501.6
611.057	17406.69
611.414	17367.37
611.771	17380.93
612.127	17455.95
612.484	17403.3
612.841	17477.87
613.198	17404.88
613.554	17457.54
613.911	17492.56
614.267	17546.12
614.624	17530.08
614.98	17463.41
615.337	17533.24
615.693	17529.62
616.05	17527.14
616.406	17634.71
616.762	17483.07
617.118	17596.51
617.475	17604.2
617.831	17629.73
618.187	17661.15
618.543	17656.17
618.899	17713.12
619.255	17699.11
619.611	17767.36
619.967	17720.81
620.323	17707.47
620.678	17724.19
621.034	17619.11
621.39	17733.01
621.746	17596.74
622.101	17880.12
622.457	17712.9
622.812	17693.91
623.168	17753.57
623.523	17779.56
623.879	17865.43
624.234	17579.57
624.589	17818.43
624.945	17716.96
625.3	17703.4
625.655	17716.06
626.01	17779.11
626.365	17762.39
626.72	17701.14
627.075	17687.81
627.43	17737.53
627.785	17652.11
628.14	17622.5
628.495	17723.74
628.85	17735.72
629.205	17493.24
629.559	17602.84
629.914	17648.72
630.269	17685.78
630.623	17584.31
630.978	17588.38
631.332	17589.06
631.687	17561.94
632.041	17568.94
632.396	17583.41
632.75	17470.64
633.104	17474.48
633.459	17382.51
633.813	17452.56
634.167	17399.23
634.521	17431.55
634.875	17452.34
635.229	17462.28
635.583	17372.57
635.937	17326.01
636.291	17293.02
636.645	17341.15
636.999	17221.38
637.352	17302.96
637.706	17302.51
638.06	17290.99
638.413	17228.61
638.767	17155.62
639.121	17274.26
639.474	17166.92
639.828	17094.38
640.181	17086.47
640.534	17139.58
640.888	17065.91
641.241	16982.07
641.594	17074.49
641.947	17091.9
642.301	16981.62
642.654	17066.13
643.007	17096.41
643.36	16925.57
643.713	17076.08
644.066	16972.12
644.419	16923.31
644.771	16859.13
645.124	16655.07
645.477	16615.07
645.83	16535.75
646.182	16500.72
646.535	16476.09
646.888	16525.81
647.24	16341.63
647.593	16439.71
647.945	16379.6
648.298	16358.81
648.65	16374.4
649.002	16293.5
649.355	16444.45
649.707	16377.79
650.059	16480.61
650.411	16669.31
650.763	16691.68
651.115	16847.16
651.467	16712.92
651.819	16706.59
652.171	16696.2
652.523	16674.51
652.875	16685.58
653.227	16614.85
653.578	16820.26
653.93	16736.65
654.282	16687.84
654.633	16586.37
654.985	16656.88
655.337	16655.75
655.688	16740.27
656.039	16815.52
656.391	16631.79
656.742	16685.13
657.094	16687.84
657.445	16771.9
657.796	16669.08
658.147	16701.85
658.498	16629.08
658.849	16727.39
659.2	16659.82
659.551	16701.17
659.902	16668.18
660.253	16661.4
660.604	16652.58
660.955	16610.33
661.306	16718.12
661.656	16724.67
662.007	16770.55
662.358	16718.57
662.708	16762.86
663.059	16744.56
663.409	16623.21
663.76	16757.67
664.11	16642.42
664.461	16815.97
664.811	16742.53
665.161	16651
665.511	16650.32
665.862	16716.99
666.212	16707.5
666.562	16743.2
666.912	16798.34
667.262	16703.2
667.612	16711.57
667.962	16771
668.312	16780.94
668.662	16865.23
669.011	16751.57
669.361	16708.63
669.711	16690.1
670.06	16716.09
670.41	16599.25
670.76	16587.5
671.109	16716.09
671.459	16773.26
671.808	16655.07
672.157	16687.84
672.507	16534.62
672.856	16531.68
673.205	16582.98
673.554	16620.5
673.904	16577.78
674.253	16621.4
674.602	16624.79
674.951	16424.79
675.3	16235.65
675.649	16595.19
675.998	16519.48
676.346	16471.57
676.695	16621.63
677.044	16430.9
677.393	16475.87
677.741	16550.44
678.09	16409.2
678.438	16399.71
678.787	16414.17
679.135	16400.16
679.484	16296.44
679.832	16361.52
680.181	16253.73
680.529	16243.78
680.877	16283.1
681.225	16166.95
681.573	16285.81
681.922	16198.13
682.27	16004.92
682.618	16107.97
682.966	16124.69
683.314	15997.23
683.661	15966.5
684.009	15833.85
684.357	15924.02
684.705	15834.3
685.053	15895.99
685.4	15838.14
685.748	15671.59
686.095	15784.36
686.443	15657.81
686.79	15637.24
687.138	15744.13
687.485	15680.41
687.832	15686.96
688.18	15656.45
688.527	15541.2
688.874	15479.51
689.221	15467.31
689.568	15588.88
689.915	15448.55
690.262	15399.28
690.609	15308.44
690.956	15270.25
691.303	15258.95
691.65	15097.37
691.997	15171.72
692.344	15054.89
692.69	14983.93
693.037	15011.27
693.383	14964.72
693.73	14933.53
694.077	14880.2
694.423	14898.73
694.769	14764.95
695.116	14724.73
695.462	14698.51
695.808	14637.04
696.155	14699.87
696.501	14559.76
696.847	14442.47
697.193	14336.71
697.539	14436.6
697.885	14322.25
698.231	14257.17
698.577	14318.18
698.923	14223.27
699.269	14063.05
699.614	14100.11
699.96	14043.84
700.306	14012.43
700.651	14008.36
700.997	13870.29
701.342	13873
701.688	13827.12
702.033	13778.31
702.379	13700.57
702.724	13721.81
703.069	13724.98
703.415	13592.55
703.76	13576.28
704.105	13564.53
704.45	13551.2
704.795	13408.38
705.14	13316.63
705.485	13421.26
705.83	13325.89
706.175	13287.48
706.52	13216.97
706.865	13170.64
707.209	13048.61
707.554	13141.04
707.899	13169.96
708.243	13050.19
708.588	13023.08
708.932	12891.78
709.277	12881.61
709.621	12963.19
709.966	12816.75
710.31	12779.47
710.654	12755.96
710.998	12833.7
711.342	12732.91
711.687	12736.98
712.031	12648.17
712.375	12588.51
712.719	12569.08
713.063	12569.98
713.407	12596.19
713.75	12520.26
714.094	12532.69
714.438	12449.76
714.782	12516.65
715.125	12441.4
715.469	12396.43
715.812	12307.84
716.156	12241.18
716.499	12319.59
716.843	12328.86
717.186	12287.05
717.53	12319.82
717.873	12238.01
718.216	12162.31
718.559	12118.92
718.902	12049.54
719.246	12164.79
719.589	12095.87
719.932	12038.92
720.275	12131.57
720.617	12076.66
720.96	12054.97
721.303	12001.18
721.646	12067.85
721.989	12064.91
722.331	11918.92
722.674	12015.19
723.016	11930.67
723.359	11899.94
723.701	11923.44
724.044	11905.36
724.386	11893.84
724.729	11967.06
725.071	11850.45
725.413	11886.83
725.755	11855.2
726.097	11832.37
726.439	11800.96
726.782	11758.25
727.124	11790.11
727.465	11769.1
727.807	11818.36
728.149	11752.83
728.491	11750.11
728.833	11766.39
729.175	11670.12
729.516	11692.94
729.858	11767.06
730.199	11695.43
730.541	11679.38
730.882	11606.62
731.224	11745.37
731.565	11692.49
731.906	11589.67
732.248	11665.6
732.589	11569.33
732.93	11537.69
733.271	11638.03
733.612	11645.94
733.953	11664.92
734.294	11617.69
734.635	11588.76
734.976	11642.55
735.317	11552.38
735.658	11597.8
735.999	11542.89
736.339	11644.13
736.68	11644.13
737.021	11594.64
737.361	11529.56
737.702	11593.96
738.042	11627.86
738.383	11613.4
738.723	11606.84
739.063	11558.71
739.404	11633.96
739.744	11666.05
740.084	11567.52
740.424	11638.25
740.764	11640.06
741.104	11649.33
741.444	11628.99
741.784	11661.3
742.124	11680.51
742.464	11706.73
742.804	11666.95
743.143	11640.97
743.483	11774.52
743.823	11752.15
744.162	11699.49
744.502	11825.14
744.841	11840.51
745.181	11918.02
745.52	11852.71
745.86	11930
746.199	11926.83
746.538	12019.26
746.877	12098.58
747.216	12152.14
747.556	12122.53
747.895	12269.42
748.234	12212.02
748.573	12271.01
748.911	12305.58
749.25	12381.74
749.589	12440.04
749.928	12544.44
750.267	12671.67
750.605	12670.32
750.944	12733.82
751.283	12815.85
751.621	12884.1
751.96	12979.23
752.298	13087.93
752.636	13176.07
752.975	13268.94
753.313	13294.71
753.651	13486.11
753.989	13508.71
754.327	13686.11
754.666	13707.58
755.004	13881.13
755.342	13960.9
755.679	14154.12
756.017	14254.91
756.355	14390.72
756.693	14577.61
757.031	14737.83
757.368	14804.05
757.706	14883.14
758.044	15060.31
758.381	15266.63
758.719	15410.36
759.056	15589.34
759.394	15744.81
759.731	15779.61
760.068	16015.99
760.405	16170.11
760.743	16369.2
761.08	16552.02
761.417	16638.12
761.754	16905.91
762.091	17088.05
762.428	17152.23
762.765	17298.22
763.102	17606.46
763.438	17625.44
763.775	17781.37
764.112	17881.25
764.449	18108.82
764.785	18258.42
765.122	18238.76
765.458	18349.72
765.795	18611.4
766.131	18678.75
766.467	18757.39
766.804	18887.78
767.14	19031.05
767.476	19105.63
767.812	19327.99
768.148	19502.68
768.485	19505.17
768.821	19491.38
769.157	19793.29
769.492	19788.55
769.828	19876.45
770.164	19881.65
770.5	20014.98
770.836	20064.25
771.171	20186.73
771.507	20274.86
771.842	20344.24
772.178	20419.27
772.513	20523.9
772.849	20580.84
773.184	20599.83
773.519	20674.63
773.855	20602.54
774.19	20743.32
774.525	20825.58
774.86	20917.33
775.195	21039.14
775.53	20920.5
775.865	21043.66
776.2	20865.36
776.535	20933.38
776.87	21006.14
777.205	20998.91
777.539	21074.62
777.874	21179.25
778.209	21031.68
778.543	21081.62
778.878	21102.86
779.212	21051.57
779.547	21042.98
779.881	21154.39
780.215	21125.24
780.55	21202.07
780.884	21031.23
781.218	21120.04
781.552	21221.96
781.886	21032.81
782.22	21034.84
782.554	21007.72
782.888	20933.83
783.222	21023.09
783.556	20896.09
783.889	20912.36
784.223	20757.11
784.557	20786.26
784.89	20831.91
785.224	20764.34
785.557	20705.36
785.891	20655.64
786.224	20611.58
786.558	20683.89
786.891	20568.87
787.224	20557.79
787.557	20457.91
787.891	20473.28
788.224	20525.48
788.557	20530.45
788.89	20475.54
789.223	20485.25
789.556	20300.4
789.888	20362.54
790.221	20299.72
790.554	20213.85
790.887	20236.9
791.219	20115.54
791.552	20203.68
791.884	19982.89
792.217	20080.07
792.549	20052.95
792.882	19888.88
793.214	19841.88
793.546	19979.28
793.879	19762.56
794.211	19670.58
794.543	19782.22
794.875	19714.88
795.207	19759.85
795.539	19724.59
795.871	19628.78
796.203	19446.41
796.535	19351.5
796.867	19293.65
797.198	19375
797.53	19427.65
797.862	19149.69
798.193	19282.35
798.525	19117.15
798.856	19171.39
799.188	18920.32
799.519	18940.43
799.85	18832.41
800.182	18879.19
800.513	18832.19
800.844	18829.93
801.175	18786.31
801.506	18840.32
801.837	18701.12
802.168	18583.83
802.499	18612.31
802.83	18529.6
803.161	18507
803.491	18435.59
803.822	18477.62
804.153	18379.09
804.483	18288.02
804.814	18256.61
805.145	18244.86
805.475	18188.59
805.805	18147.46
806.136	18161.47
806.466	18201.7
806.796	18151.53
807.126	17973.45
807.457	17946.79
807.787	17920.8
808.117	17853.91
808.447	17858.43
808.777	17824.31
809.107	17753.35
809.436	17649.39
809.766	17782.95
810.096	17603.97
810.426	17524.2
810.755	17538.66
811.085	17439.68
811.414	17497.99
811.744	17346.8
812.073	17281.04
812.403	17281.95
812.732	17225.9
813.061	17180.93
813.39	17213.47
813.719	17217.32
814.049	17206.47
814.378	17094.83
814.707	17057.32
815.036	17107.71
815.365	16931.45
815.693	16787.27
816.022	16926.02
816.351	16821.62
816.68	16812.13
817.008	16923.31
817.337	16707.72
817.665	16603.55
817.994	16713.6
818.322	16651.68
818.651	16614.39
818.979	16540.5
819.307	16651.45
819.636	16594.51
819.964	16466.83
820.292	16519.71
820.62	16557.22
820.948	16483.32
821.276	16574.85
821.604	16443.32
821.932	16509.99
822.259	16518.8
822.587	16462.76
822.915	16403.1
823.243	16455.75
823.57	16408.3
823.898	16508.63
824.225	16312.48
824.553	16397.45
824.88	16389.99
825.207	16458.01
825.535	16382.08
825.862	16420.95
826.189	16362.2
826.516	16452.36
826.843	16496.88
827.17	16455.3
827.497	16415.3
827.824	16375.53
828.151	16502.08
828.478	16410.11
828.805	16434.96
829.131	16415.98
829.458	16431.8
829.785	16361.29
830.111	16454.17
830.438	16519.71
830.764	16459.14
831.09	16464.12
831.417	16425.02
831.743	16391.57
832.069	16388.18
832.395	16324.23
832.722	16394.29
833.048	16281.07
833.374	16376.66
833.7	16193.39
834.026	16285.36
834.351	16286.72
834.677	16288.07
835.003	16297.79
835.329	16253.05
835.654	16293.72
835.98	16065.03
836.306	16189.77
836.631	16139.38
836.956	16124.46
837.282	16180.73
837.607	16097.12
837.932	16129.66
838.258	16072.94
838.583	15980.51
838.908	16032.49
839.233	15949.55
839.558	16007.86
839.883	15974.41
840.208	15838.82
840.533	15869.1
840.858	15904.58
841.182	15866.16
841.507	15791.82
841.832	15773.51
842.156	15699.84
842.481	15690.35
842.805	15629.33
843.13	15591.14
843.454	15684.7
843.778	15592.27
844.103	15508.66
844.427	15505.27
844.751	15514.54
845.075	15439.51
845.399	15381.21
845.723	15242.23
846.047	15325.84
846.371	15245.39
846.695	15190.93
847.019	15056.24
847.343	15086.3
847.666	14928.11
847.99	14888.56
848.313	14820.77
848.637	14708.46
848.96	14800.2
849.284	14668.23
849.607	14592.53
849.931	14537.61
850.254	14469.14
850.577	14336.71
850.9	14334.23
851.223	14325.87
851.546	14205.42
851.869	14116.38
852.192	14174.23
852.515	14047
852.838	13958.42
853.161	13979.66
853.483	13927.68
853.806	13882.49
854.129	13855.37
854.451	13844.3
854.774	13782.6
855.096	13682.49
855.419	13618.09
855.741	13653.12
856.063	13554.36
856.385	13595.04
856.708	13451.31
857.03	13453.35
857.352	13454.02
857.674	13398.21
857.996	13328.15
858.318	13278.44
858.64	13283.63
858.961	13273.46
859.283	13090.64
859.605	13087.03
859.926	13165.67
860.248	13066.24
860.57	12978.78
860.891	13034.37
861.212	12974.72
861.534	12951.44
861.855	12896.98
862.176	12898.11
862.498	12787.83
862.819	12871.89
863.14	12734.5
863.461	12761.84
863.782	12687.49
864.103	12754.83
864.424	12672.35
864.745	12781.95
865.065	12641.62
865.386	12644.55
865.707	12621.96
866.027	12608.62
866.348	12499.47
866.668	12629.41
866.989	12605.69
867.309	12415.63
867.63	12481.39
867.95	12480.49
868.27	12385.13
868.59	12494.05
868.91	12455.86
869.23	12371.12
869.55	12351
869.87	12424
870.19	12373.15
870.51	12443.43
870.83	12341.96
871.15	12252.93
871.469	12293.15
871.789	12245.24
872.109	12224.68
872.428	12118.01
872.748	12291.8
873.067	12153.49
873.386	12159.82
873.706	12149.2
874.025	11985.14
874.344	12000.5
874.663	12052.03
874.982	12079.37
875.301	12036.66
875.62	11906.27
875.939	11969.77
876.258	11951.47
876.577	11865.82
876.896	11928.64
877.214	11859.94
877.533	11893.39
877.852	11774.52
878.17	11819.04
878.489	11787.63
878.807	11730.91
879.125	11759.15
879.444	11784.92
879.762	11683.45
880.08	11726.61
880.398	11627.63
880.716	11636.67
881.034	11645.71
881.352	11583.34
881.67	11552.83
881.988	11527.75
882.306	11483.68
882.624	11417.02
882.941	11426.96
883.259	11446.39
883.577	11419.28
883.894	11304.25
884.212	11395.32
884.529	11390.12
884.846	11321.88
885.164	11346.06
885.481	11265.83
885.798	11246.63
886.115	11161.2
886.432	11149.68
886.75	11137.02
887.067	11110.36
887.383	11015.44
887.7	11158.49
888.017	11072.39
888.334	11067.87
888.651	11021.09
888.967	11006.41
889.284	10939.74
889.6	10988.1
889.917	10827.43
890.233	10859.74
890.55	10831.04
890.866	10777.03
891.182	10784.49
891.498	10734.1
891.815	10700.42
892.131	10711.27
892.447	10605.96
892.763	10630.6
893.079	10598.28
893.395	10539.53
893.71	10507.21
894.026	10538.4
894.342	10435.57
894.657	10436.25
894.973	10322.58
895.289	10420.66
895.604	10288.23
895.92	10198.74
896.235	10223.38
896.55	10214.56
896.865	10219.99
897.181	10100.21
897.496	10144.28
897.811	10066.54
898.126	10094.11
898.441	9983.83
898.756	10035.81
899.071	9955.13
899.386	9911.07
899.7	9816.61
900.015	9698.42
900.33	9731.86
900.644	9787.45
900.959	9749.26
901.273	9735.93
901.588	9627.46
901.902	9517.41
902.216	9540.68
902.531	9524.64
902.845	9508.14
903.159	9465.88
903.473	9415.03
903.787	9388.82
904.101	9345.21
904.415	9332.1
904.729	9245.32
905.042	9205.55
905.356	9228.83
905.67	9165.55
905.984	9157.19
906.297	9164.65
906.611	9073.35
906.924	9124.42
907.237	8939.34
907.551	8994.03
907.864	8933.47
908.177	8872.68
908.491	8934.14
908.804	8799.91
909.117	8839.23
909.43	8745.45
909.743	8636.07
910.056	8656.86
910.368	8636.52
910.681	8639.46
910.994	8627.71
911.307	8564.21
911.619	8503.65
911.932	8492.12
912.244	8420.03
912.557	8400.15
912.869	8421.61
913.181	8348.85
913.494	8271.56
913.806	8184.56
914.118	8268.17
914.43	8236.99
914.742	8191.34
915.054	8095.52
915.366	8114.05
915.678	8026.82
915.99	8032.92
916.302	7975.75
916.613	7881.29
916.925	7952.7
917.236	7815.98
917.548	7809.88
917.859	7848.75
918.171	7743.67
918.482	7813.5
918.794	7732.82
919.105	7660.5
919.416	7649.21
919.727	7676.32
920.038	7609.21
920.349	7570.34
920.66	7578.93
920.971	7593.39
921.282	7515.2
921.593	7423.22
921.903	7365.82
922.214	7417.35
922.525	7383.9
922.835	7352.49
923.146	7292.6
923.456	7285.83
923.767	7217.35
924.077	7228.65
924.387	7151.14
924.697	7111.37
925.008	7141.65
925.318	7109.56
925.628	7064.14
925.938	7063.46
926.248	7010.8
926.558	6950.47
926.867	6933.97
927.177	6886.51
927.487	6913.18
927.796	6814.43
928.106	6879.51
928.416	6794.31
928.725	6818.27
929.034	6719.74
929.344	6790.02
929.653	6725.61
929.962	6603.36
930.271	6629.12
930.581	6571.72
930.89	6599.06
931.199	6503.93
931.508	6543.47
931.817	6510.48
932.125	6493.98
932.434	6456.69
932.743	6429.8
933.051	6359.52
933.36	6359.07
933.669	6275
933.977	6357.04
934.286	6261.45
934.594	6273.2
934.902	6207.21
935.21	6197.94
935.519	6184.16
935.827	6134.9
936.135	6142.13
936.443	5988.23
936.751	6041.79
937.059	6041.11
937.367	6007.44
937.674	5982.58
937.982	5975.13
938.29	5980.77
938.597	5916.82
938.905	5848.12
939.213	5831.85
939.52	5812.19
939.827	5873.21
940.135	5747.33
940.442	5738.97
940.749	5746.66
941.056	5770.84
941.363	5689.94
941.67	5658.98
941.977	5626.89
942.284	5632.54
942.591	5576.49
942.898	5571.29
943.205	5565.87
943.511	5493.33
943.818	5478.64
944.125	5480
944.431	5447.68
944.738	5443.61
945.044	5436.38
945.35	5381.02
945.657	5334.24
945.963	5263.05
946.269	5332.2
946.575	5299.21
946.881	5250.17
947.187	5219.89
947.493	5254.24
947.799	5175.6
948.105	5128.82
948.41	5108.71
948.716	5105.32
949.022	5055.38
949.327	5112.1
949.633	5037.75
949.938	5020.35
950.244	5039.1
950.549	5025.09
950.854	4949.16
951.16	4953.68
951.465	4928.6
951.77	4919.56
952.075	4867.13
952.38	4847.92
952.685	4848.15
952.99	4769.28
953.294	4762.28
953.599	4830.52
953.904	4791.2
954.209	4720.7
954.513	4716.85
954.818	4703.97
955.122	4650.87
955.426	4664.65
955.731	4642.05
956.035	4578.33
956.339	4627.59
956.643	4595.05
956.948	4573.35
957.252	4512.11
957.556	4518.21
957.86	4525.22
958.163	4479.8
958.467	4468.95
958.771	4464.43
959.075	4502.85
959.378	4426.69
959.682	4404.32
959.985	4370.42
960.289	4320.03
960.592	4271.89
960.896	4323.64
961.199	4316.64
961.502	4309.63
961.805	4285.9
962.108	4177.88
962.411	4164.1
962.714	4188.73
963.017	4180.82
963.32	4178.56
963.623	4132.46
963.926	4148.51
964.228	4076.42
964.531	4100.6
964.833	4084.78
965.136	4059.7
965.438	4026.48
965.741	4027.15
966.043	4008.85
966.345	3990.09
966.648	3961.17
966.95	3934.5
967.252	3889.3
967.554	3900.38
967.856	3877.78
968.158	3875.97
968.46	3851.57
968.761	3866.71
969.063	3846.37
969.365	3840.04
969.666	3794.62
969.968	3736.09
970.269	3742.19
970.571	3726.37
970.872	3732.02
971.174	3711.46
971.475	3708.52
971.776	3684.11
972.077	3624
972.378	3624.23
972.679	3633.27
972.98	3619.71
973.281	3637.11
973.582	3597.11
973.883	3594.17
974.183	3544.68
974.484	3535.19
974.785	3544.23
975.085	3512.82
975.386	3517.11
975.686	3465.13
975.986	3449.77
976.287	3455.64
976.587	3424.68
976.887	3405.93
977.187	3390.33
977.487	3390.79
977.787	3376.78
978.087	3343.56
978.387	3341.07
978.687	3324.57
978.987	3319.15
979.286	3274.86
979.586	3300.62
979.885	3265.37
980.185	3218.59
980.484	3227.4
980.784	3240.06
981.083	3229.43
981.382	3193.5
981.682	3165.93
981.981	3210
982.28	3155.31
982.579	3155.99
982.878	3100.17
983.177	3087.74
983.475	3106.05
983.774	3102.66
984.073	3091.59
984.372	3051.13
984.67	3039.38
984.969	3008.42
985.267	3036.67
985.566	2980.4
985.864	2984.24
986.162	2980.85
986.461	2938.82
986.759	2944.92
987.057	2908.09
987.355	2918.48
987.653	2890.01
987.951	2890.46
988.249	2900.86
988.547	2879.16
988.844	2849.56
989.142	2864.7
989.44	2804.59
989.737	2774.53
990.035	2778.6
990.332	2768.2
990.63	2779.96
990.927	2792.61
991.224	2734.98
991.521	2728.66
991.819	2684.36
992.116	2692.73
992.413	2677.36
992.71	2687.75
993.006	2646.85
993.303	2676.68
993.6	2683.01
993.897	2607.53
994.193	2639.39
994.49	2587.19
994.787	2583.58
995.083	2612.5
995.379	2569.79
995.676	2551.94
995.972	2556.46
996.268	2529.79
996.565	2538.15
996.861	2515.1
997.157	2491.83
997.453	2433.07
997.749	2461.77
998.044	2432.39
998.34	2424.71
998.636	2445.5
998.932	2406.63
999.227	2396.69
999.523	2397.14
999.818	2365.05
1000.114	2374.09
1000.409	2356.69
1000.704	2335.67
1001	2344.03
1001.295	2331.83
1001.59	2311.72
1001.885	2324.37
1002.18	2275.34
1002.475	2257.26
1002.77	2272.85
1003.065	2238.95
1003.359	2240.76
1003.654	2226.07
1003.949	2204.15
1004.243	2198.5
1004.538	2140.42
1004.832	2190.59
1005.127	2148.79
1005.421	2133.42
1005.715	2124.38
1006.009	2095.91
1006.304	2116.24
1006.598	2136.13
1006.892	2053.19
1007.186	2094.1
1007.48	2062.69
1007.773	2041.67
1008.067	2025.4
1008.361	2046.87
1008.655	1986.53
1008.948	2004.38
1009.242	1978.39
1009.535	1998.05
1009.829	1968.23
1010.122	1950.15
1010.415	1961.67
1010.708	1945.17
1011.001	1909.47
1011.295	1882.13
1011.588	1945.4
1011.881	1867.44
1012.173	1849.81
1012.466	1874.89
1012.759	1841
1013.052	1827.44
1013.344	1852.07
1013.637	1833.77
1013.93	1785.63
1014.222	1808.68
1014.514	1772.75
1014.807	1796.25
1015.099	1727.55
1015.391	1773.88
1015.683	1751.28
1015.976	1741.79
1016.268	1765.52
1016.56	1706.09
1016.851	1676.71
1017.143	1694.11
1017.435	1672.41
1017.727	1676.93
1018.018	1642.36
1018.31	1665.63
1018.602	1658.18
1018.893	1657.5
1019.185	1642.36
1019.476	1619.76
1019.767	1617.5
1020.058	1581.57
1020.35	1597.61
1020.641	1551.29
1020.932	1577.95
1021.223	1561.91
1021.514	1541.12
1021.804	1533.89
1022.095	1501.8
1022.386	1472.42
1022.677	1490.05
1022.967	1511.51
1023.258	1486.66
1023.548	1466.32
1023.839	1448.46
1024.129	1464.28
1024.419	1429.93
1024.709	1408.01
1025	1442.59
1025.29	1404.62
1025.58	1373.44
1025.87	1381.8
1026.16	1375.25
1026.449	1350.84
1026.739	1372.31
1027.029	1353.55
1027.319	1341.57
1027.608	1351.52
1027.898	1329.6
1028.187	1313.33
1028.477	1331.63
1028.766	1294.57
1029.055	1304.06
1029.344	1325.98
1029.634	1301.12
1029.923	1276.27
1030.212	1255.48
1030.501	1231.52
1030.79	1243.72
1031.078	1221.13
1031.367	1254.8
1031.656	1191.07
1031.945	1214.8
1032.233	1227.45
1032.522	1196.95
1032.81	1158.53
1033.099	1195.59
1033.387	1171.64
1033.675	1169.15
1033.963	1171.18
1034.251	1148.59
1034.54	1130.28
1034.828	1143.61
1035.116	1108.59
1035.403	1125.76
1035.691	1097.29
1035.979	1109.04
1036.267	1086.89
1036.554	1107.91
1036.842	1078.98
1037.129	1087.57
1037.417	1101.13
1037.704	1059.77
1037.992	1053.9
1038.279	1034.69
1038.566	1030.85
1038.853	1030.85
1039.14	1030.85
