Data from hue_50_FLMS001491_22.txt Node
Date: Mon Feb 06 15:09:48 GMT 2017
User: dcchb
Spectrometer: FLMS00149
Trigger mode: 0
Integration Time (sec): 2.000000E-2
Scans to average: 10
Electric dark correction enabled: true
Nonlinearity correction enabled: false
Boxcar width: 0
XAxis mode: Wavelengths
Number of Pixels in Spectrum: 2048
>>>>>Begin Spectral Data<<<<<
341.393	4.03
341.776	4.03
342.16	4.03
342.543	-67.39
342.927	-76.42
343.31	-67.16
343.693	-64.22
344.077	-67.61
344.46	-55.86
344.843	-42.75
345.226	-36.88
345.61	-44.79
345.993	-26.48
346.376	-8.18
346.759	5.16
347.142	20.52
347.525	36.11
347.908	81.99
348.291	78.37
348.674	76.34
349.057	115.43
349.44	138.03
349.823	127.86
350.206	151.59
350.588	197.92
350.971	228.65
351.354	232.49
351.737	226.39
352.119	245.83
352.502	241.99
352.884	280.18
353.267	311.14
353.65	299.61
354.032	302.55
354.414	314.53
354.797	315.66
355.179	314.3
355.562	334.86
355.944	332.15
356.326	336.67
356.709	328.99
357.091	333.96
357.473	359.72
357.855	334.86
358.238	341.19
358.62	346.16
359.002	350
359.384	334.86
359.766	357.91
360.148	334.41
360.53	350.23
360.912	347.52
361.294	325.37
361.676	332.38
362.057	344.58
362.439	325.6
362.821	332.38
363.203	324.69
363.584	337.58
363.966	343.9
364.348	318.37
364.729	315.66
365.111	313.62
365.493	316.33
365.874	303.68
366.256	307.29
366.637	289.22
367.019	330.34
367.4	326.95
367.781	314.07
368.163	334.86
368.544	309.33
368.925	314.53
369.306	333.51
369.688	318.59
370.069	297.58
370.45	321.08
370.831	308.88
371.212	318.59
371.593	304.58
371.974	312.49
372.355	303.9
372.736	337.12
373.117	318.37
373.498	313.17
373.879	334.64
374.26	326.05
374.641	305.49
375.021	337.58
375.402	321.76
375.783	306.16
376.163	303.23
376.544	317.24
376.925	331.25
377.305	321.31
377.686	326.73
378.066	334.64
378.447	326.95
378.827	341.42
379.208	338.71
379.588	339.16
379.968	317.46
380.349	329.89
380.729	344.58
381.109	331.25
381.489	352.49
381.87	331.93
382.25	329.21
382.63	339.84
383.01	348.42
383.39	334.64
383.77	336.45
384.15	336.9
384.53	335.32
384.91	327.63
385.29	345.49
385.67	332.15
386.049	349.33
386.429	354.07
386.809	356.33
387.189	351.36
387.568	360.17
387.948	351.13
388.328	346.62
388.707	350
389.087	343.45
389.466	365.82
389.846	352.04
390.225	371.93
390.605	360.85
390.984	356.56
391.363	344.58
391.743	361.08
392.122	357.24
392.501	370.34
392.881	379.83
393.26	356.33
393.639	364.69
394.018	360.17
394.397	365.15
394.776	351.59
395.155	374.41
395.534	383.45
395.913	371.7
396.292	380.29
396.671	376.22
397.05	378.03
397.429	391.81
397.808	381.19
398.186	380.74
398.565	385.03
398.944	386.39
399.323	383.22
399.701	377.12
400.08	392.04
400.458	402.88
400.837	385.03
401.215	403.79
401.594	386.39
401.972	395.65
402.351	390.23
402.729	387.97
403.107	408.08
403.486	384.81
403.864	402.43
404.242	406.05
404.62	385.94
404.999	419.83
405.377	404.01
405.755	405.14
406.133	408.99
406.511	423.45
406.889	404.92
407.267	431.36
407.645	406.5
408.023	405.6
408.401	412.83
408.779	403.79
409.156	421.42
409.534	432.94
409.912	434.97
410.29	472.49
410.667	444.24
411.045	432.71
411.422	443.56
411.8	433.84
412.178	455.09
412.555	459.83
412.933	435.88
413.31	444.47
413.687	470.68
414.065	449.89
414.442	465.48
414.819	467.29
415.197	478.36
415.574	477.46
415.951	474.3
416.328	472.04
416.705	472.26
417.082	458.7
417.46	497.12
417.837	479.27
418.214	471.36
418.591	490.79
418.967	499.83
419.344	489.89
419.721	473.17
420.098	484.46
420.475	484.69
420.852	488.53
421.228	509.1
421.605	511.81
421.982	485.82
422.358	513.84
422.735	522.66
423.111	502.77
423.488	517.46
423.864	538.02
424.241	528.98
424.617	508.87
424.994	528.53
425.37	544.8
425.746	528.08
426.123	516.78
426.499	528.31
426.875	539.6
427.251	552.94
427.627	562.65
428.003	559.49
428.379	554.97
428.756	543.9
429.132	559.94
429.507	561.98
429.883	575.76
430.259	562.2
430.635	562.88
431.011	576.21
431.387	591.81
431.763	595.2
432.138	560.39
432.514	607.85
432.89	597.46
433.265	601.07
433.641	612.37
434.016	624.8
434.392	616.89
434.767	598.59
435.143	614.4
435.518	627.29
435.894	648.08
436.269	637.68
436.644	657.79
437.02	648.3
437.395	667.06
437.77	664.57
438.145	657.34
438.52	641.75
438.895	675.19
439.271	671.58
439.646	684.46
440.021	694.4
440.395	671.13
440.77	682.65
441.145	721.75
441.52	720.39
441.895	710
442.27	726.94
442.645	710.45
443.019	706.61
443.394	747.51
443.769	717.68
444.143	699.37
444.518	729.66
444.892	740.05
445.267	714.29
445.641	726.27
446.016	745.25
446.39	741.63
446.764	763.78
447.139	729.66
447.513	755.87
447.887	777.56
448.262	777.11
448.636	775.98
449.01	748.86
449.384	782.08
449.758	772.82
450.132	785.25
450.506	826.83
450.88	801.74
451.254	794.29
451.628	795.19
452.002	822.53
452.376	813.5
452.75	835.42
453.123	826.38
453.497	846.94
453.871	848.52
454.244	853.04
454.618	870.22
454.992	855.53
455.365	863.44
455.739	897.34
456.112	888.3
456.486	893.04
456.859	912.7
457.232	934.4
457.606	911.12
457.979	942.31
458.352	925.81
458.725	924.23
459.099	975.3
459.472	959.03
459.845	1008.29
460.218	993.83
460.591	989.54
460.964	1009.2
461.337	1026.6
461.71	1041.29
462.083	1056.2
462.456	1054.85
462.829	1060.49
463.201	1081.74
463.574	1081.51
463.947	1103.66
464.32	1112.02
464.692	1155.41
465.065	1163.32
465.438	1161.51
465.81	1171.9
466.183	1178.91
466.555	1228.85
466.928	1199.47
467.3	1220.26
467.672	1255.74
468.045	1316.53
468.417	1285.35
468.789	1320.83
469.161	1316.53
469.534	1351.11
469.906	1387.27
470.278	1377.55
470.65	1437.89
471.022	1440.6
471.394	1493.03
471.766	1475.17
472.138	1516.53
472.51	1552.46
472.882	1590.65
473.253	1608.05
473.625	1653.93
473.997	1705.45
474.369	1704.55
474.74	1742.74
475.112	1791.55
475.484	1832
475.855	1879.46
476.227	1895.5
476.598	1969.62
476.97	1981.37
477.341	2045.55
477.713	2094.14
478.084	2163.52
478.455	2197.87
478.827	2249.84
479.198	2338.43
479.569	2382.95
479.94	2423.62
480.311	2525.54
480.682	2569.61
481.053	2666.78
481.424	2759.89
481.795	2796.49
482.166	2894.34
482.537	2972.76
482.908	3048.69
483.279	3114.68
483.65	3197.61
484.021	3295.46
484.391	3403.71
484.762	3517.38
485.133	3554.44
485.503	3659.07
485.874	3819.74
486.244	3840.31
486.615	3960.08
486.985	4088.66
487.356	4238.04
487.726	4286.62
488.097	4423.57
488.467	4511.03
488.837	4693.62
489.207	4769.55
489.578	4859.26
489.948	5012.26
490.318	5099.71
490.688	5160.05
491.058	5373.83
491.428	5521.39
491.798	5588.29
492.168	5754.38
492.538	5864.44
492.908	5961.61
493.278	6153.02
493.648	6254.71
494.017	6364.99
494.387	6464.19
494.757	6627.58
495.126	6762.72
495.496	6902.83
495.866	6980.79
496.235	7079.09
496.605	7253.55
496.974	7340.1
497.344	7552.53
497.713	7661
498.082	7800.88
498.452	7926.75
498.821	8073.64
499.19	8114.09
499.559	8218.5
499.928	8343.47
500.298	8414.2
500.667	8609
501.036	8656
501.405	8791.14
501.774	8862.78
502.143	9028.65
502.512	9101.87
502.88	9231.35
503.249	9195.65
503.618	9407.39
503.987	9547.96
504.356	9648.07
504.724	9682.87
505.093	9801.73
505.462	9956.08
505.83	10052.35
506.199	10168.05
506.567	10298.44
506.936	10406.46
507.304	10509.96
507.672	10620.92
508.041	10697.53
508.409	10813.68
508.777	10894.59
509.145	11031.76
509.514	11041.93
509.882	11199.44
510.25	11213
510.618	11429.94
510.986	11399.21
511.354	11570.05
511.722	11740.67
512.09	11845.3
512.458	11924.62
512.826	11983.15
513.193	11970.49
513.561	12196.93
513.929	12210.94
514.297	12387.2
514.664	12519.63
515.032	12579.29
515.4	12647.08
515.767	12765.05
516.135	12857.02
516.502	12771.6
516.869	13093.62
517.237	13157.35
517.604	13068.99
517.972	13221.53
518.339	13344.69
518.706	13465.59
519.073	13563.89
519.44	13646.15
519.808	13799.59
520.175	13783.55
520.542	13953.26
520.909	14133.15
521.276	14080.94
521.643	14257.89
522.009	14381.05
522.376	14313.25
522.743	14553.25
523.11	14726.8
523.477	14814.94
523.843	14871.43
524.21	15098.09
524.577	15099
524.943	15186
525.31	15302.38
525.676	15481.13
526.043	15477.52
526.409	15568.14
526.776	15832.99
527.142	15837.96
527.508	16028.01
527.874	16149.14
528.241	16158.63
528.607	16287.21
528.973	16441.11
529.339	16384.61
529.705	16557.26
530.071	16638.84
530.437	16761.55
530.803	16947.99
531.169	16998.83
531.535	17028.66
531.901	17036.35
532.267	17141.43
532.632	17240.41
532.998	17384.81
533.364	17450.35
533.73	17502.55
534.095	17650.57
534.461	17777.57
534.826	17743.45
535.192	17790
535.557	17983.44
535.923	17964.46
536.288	18020.95
536.653	18162.87
537.019	18110.67
537.384	18246.26
537.749	18370.77
538.114	18404.22
538.479	18515.18
538.845	18561.5
539.21	18553.82
539.575	18690.09
539.94	18614.38
540.305	18849.86
540.67	18840.82
541.034	18972.11
541.399	18989.97
541.764	19059.34
542.129	19120.36
542.494	19131.21
542.858	19247.81
543.223	19304.08
543.587	19493.91
543.952	19390.63
544.316	19438.99
544.681	19511.76
545.045	19654.81
545.41	19765.54
545.774	19737.74
546.138	19827.46
546.503	19838.08
546.867	19906.78
547.231	19998.98
547.595	20137.73
547.959	20185.19
548.324	20205.98
548.688	20235.58
549.052	20337.73
549.416	20516.48
549.779	20396.48
550.143	20536.82
550.507	20612.97
550.871	20675.57
551.235	20729.13
551.599	20932.06
551.962	20883.93
552.326	20880.54
552.689	20979.07
553.053	20967.77
553.417	21133.19
553.78	21379.28
554.143	21266.29
554.507	21290.02
554.87	21424.48
555.234	21591.48
555.597	21544.25
555.96	21665.38
556.323	21756.67
556.686	21827.41
557.05	21908.76
557.413	22016.55
557.776	22071.69
558.139	22226.94
558.502	22218.36
558.865	22278.47
559.228	22443.89
559.59	22647.5
559.953	22597.33
560.316	22789.41
560.679	22761.39
561.041	22908.06
561.404	23004.55
561.767	23200.48
562.129	23053.59
562.492	23456.52
562.854	23301.49
563.217	23400.25
563.579	23521.83
563.941	23715.49
564.304	23731.09
564.666	23955.71
565.028	23928.14
565.39	23966.33
565.753	24096.73
566.115	24252.43
566.477	24268.92
566.839	24345.31
567.201	24546.66
567.563	24522.02
567.925	24680.66
568.287	24548.24
568.648	24802.47
569.01	24965.4
569.372	25052.41
569.734	24979.87
570.095	25247.2
570.457	25293.3
570.819	25319.29
571.18	25333.08
571.542	25626.18
571.903	25570.36
572.265	25706.4
572.626	25917.47
572.987	25835.44
573.349	25948.43
573.71	26094.64
574.071	26180.74
574.432	26279.27
574.794	26514.97
575.155	26534.85
575.516	26485.14
575.877	26683.1
576.238	26703.21
576.599	26916.09
576.96	26894.17
577.32	26894.84
577.681	27097.32
578.042	27118.11
578.403	27150.43
578.763	27173.48
579.124	27402.63
579.485	27594.49
579.845	27693.47
580.206	27629.97
580.566	27654.15
580.927	27817.76
581.287	28110.18
581.648	27907.02
582.008	28147.01
582.368	28120.8
582.728	28222.04
583.089	28378.19
583.449	28521.47
583.809	28578.64
584.169	28671.97
584.529	28736.6
584.889	29104.28
585.249	28937.95
585.609	28961
585.969	29179.98
586.329	29291.16
586.688	29396.92
587.048	29409.13
587.408	29525.28
587.768	29675.79
588.127	29646.18
588.487	29719.4
588.846	30067.87
589.206	29897.25
589.565	30068.55
589.925	30283.23
590.284	30259.73
590.643	30364.81
591.003	30545.82
591.362	30759.6
591.721	30692.48
592.08	30818.13
592.44	31029.65
592.799	31003.89
593.158	31040.27
593.517	31036.66
593.876	31239.59
594.235	31253.6
594.593	31353.03
594.952	31512.35
595.311	31595.51
595.67	31681.84
596.029	31914.82
596.387	31983.07
596.746	32122.28
597.104	32094.71
597.463	32105.1
597.822	32464.41
598.18	32340.8
598.538	32369.95
598.897	32587.12
599.255	32416.73
599.613	33054
599.972	32745.54
600.33	32944.85
600.688	32767.91
601.046	33139.65
601.404	33289.25
601.762	33311.85
602.12	33425.52
602.478	33416.48
602.836	33411.28
603.194	33498.06
603.552	33549.13
603.91	33503.03
604.268	33805.85
604.625	33647.21
604.983	33921.33
605.341	33793.42
605.698	33972.4
606.056	34078.38
606.413	34082.23
606.771	34229.34
607.128	34384.59
607.485	34269.57
607.843	34396.12
608.2	34515.43
608.557	34787.29
608.914	34683.34
609.272	34794.07
609.629	34866.61
609.986	35131.92
610.343	34948.87
610.7	35266.83
611.057	35264.34
611.414	35285.13
611.771	35308.86
612.127	35500.95
612.484	35520.83
612.841	35650.77
613.198	35585.24
613.554	35617.78
613.911	35873.59
614.267	35830.43
614.624	35841.95
614.98	35968.5
615.337	36132.57
615.693	36042.4
616.05	36137.54
616.406	36424.54
616.762	36077.88
617.118	36247.37
617.475	36202.62
617.831	36266.8
618.187	36548.83
618.543	36631.08
618.899	36697.3
619.255	36849.61
619.611	36692.33
619.967	36848.03
620.323	36951.08
620.678	36838.09
621.034	36806
621.39	36907.69
621.746	36861.81
622.101	37331.18
622.457	37008.7
622.812	37118.98
623.168	37161.24
623.523	37229.94
623.879	37274.91
624.234	37161.01
624.589	37349.26
624.945	37484.17
625.3	37381.57
625.655	37310.62
626.01	37466.09
626.365	37427.22
626.72	37469.93
627.075	37507.9
627.43	37563.94
627.785	37464.06
628.14	37523.26
628.495	37687.78
628.85	37542.02
629.205	37497.73
629.559	37638.06
629.914	37463.38
630.269	37529.14
630.623	37502.25
630.978	37440.33
631.332	37417.5
631.687	37564.17
632.041	37436.94
632.396	37495.02
632.75	37310.16
633.104	37488.24
633.459	37330.73
633.813	37532.08
634.167	37368.01
634.521	37465.41
634.875	37361.01
635.229	37312.2
635.583	37169.6
635.937	37250.5
636.291	37241.46
636.645	37337.51
636.999	37220.9
637.352	37184.06
637.706	37128.02
638.06	37195.59
638.413	37030.62
638.767	37050.73
639.121	37050.28
639.474	36895.26
639.828	36992.66
640.181	36805.54
640.534	36905.65
640.888	36918.08
641.241	36824.98
641.594	36817.07
641.947	36990.17
642.301	36836.5
642.654	36970.96
643.007	36816.39
643.36	36850.29
643.713	36723.29
644.066	36860.68
644.419	36676.28
644.771	36470.64
645.124	36023.87
645.477	36020.48
645.83	35787.04
646.182	35800.37
646.535	35595.86
646.888	35786.81
647.24	35520.15
647.593	35698.68
647.945	35645.8
648.298	35505.92
648.65	35466.6
649.002	35290.78
649.355	35576.42
649.707	35535.97
650.059	35616.42
650.411	35896.64
650.763	36017.77
651.115	36350.41
651.467	36107.03
651.819	36292.79
652.171	36114.26
652.523	35992.68
652.875	36133.02
653.227	36051.89
653.578	36255.95
653.93	36169.18
654.282	35956.3
654.633	35863.2
654.985	35942.97
655.337	35818.45
655.688	35818.22
656.039	36039.01
656.391	35872.23
656.742	35774.61
657.094	35815.51
657.445	35953.59
657.796	35891.22
658.147	35741.62
658.498	35650.09
658.849	35908.17
659.2	35784.1
659.551	35709.08
659.902	35851.44
660.253	35827.26
660.604	35690.54
660.955	35498.23
661.306	35785.01
661.656	35744.55
662.007	35534.16
662.358	35630.66
662.708	35686.02
663.059	35637.89
663.409	35545.01
663.76	35808.06
664.11	35754.95
664.461	35761.5
664.811	35639.02
665.161	35707.49
665.511	35601.28
665.862	35628.17
666.212	35738.45
666.562	35648.96
666.912	35589.98
667.262	35561.28
667.612	35585.69
667.962	35737.1
668.312	35678.12
668.662	35642.18
669.011	35564.45
669.361	35452.81
669.711	35449.65
670.06	35608.74
670.41	35399.03
670.76	35372.81
671.109	35529.64
671.459	35512.7
671.808	35415.98
672.157	35487.39
672.507	35266.37
672.856	35279.03
673.205	35340.27
673.554	35444
673.904	35279.71
674.253	35556.76
674.602	35374.17
674.951	34884.01
675.3	34709.55
675.649	35328.07
675.998	35186.6
676.346	35392.47
676.695	35362.19
677.044	35102.09
677.393	35219.82
677.741	35143.44
678.09	35210.78
678.438	35014.63
678.787	35165.13
679.135	35175.3
679.484	34882.88
679.832	34916.33
680.181	34660.74
680.529	34859.15
680.877	34701.19
681.225	34754.75
681.573	34992.71
681.922	34670.23
682.27	34538.48
682.618	34537.13
682.966	34387.98
683.314	34641.31
683.661	34467.07
684.009	34193.86
684.357	34196.35
684.705	34334.87
685.053	34286.97
685.4	34178.04
685.748	34158.83
686.095	34126.07
686.443	33875.68
686.79	33882.68
687.138	34000.19
687.485	33944.6
687.832	33765.62
688.18	33765.17
688.527	33632.97
688.874	33734.21
689.221	33707.32
689.568	33554.1
689.915	33531.51
690.262	33463.48
690.609	33341.23
690.956	33251.74
691.303	33235.24
691.65	33102.14
691.997	33087.68
692.344	32875.7
692.69	32810.39
693.037	32864.86
693.383	32708.48
693.73	32666.67
694.077	32534.24
694.423	32492.66
694.769	32435.04
695.116	32328.83
695.462	32305.1
695.808	32209.73
696.155	32271.88
696.501	32001.6
696.847	32076.85
697.193	31767.48
697.539	32003.86
697.885	31595.29
698.231	31623.08
698.577	31620.82
698.923	31617.21
699.269	31343.31
699.614	31101.51
699.96	31154.17
700.306	31081.4
700.651	30993.04
700.997	30994.4
701.342	30894.06
701.688	30833.72
702.033	30687.29
702.379	30839.6
702.724	30632.15
703.069	30721.86
703.415	30392.15
703.76	30415.88
704.105	30380.85
704.45	30331.36
704.795	30109.45
705.14	30129.33
705.485	29997.59
705.83	29954.2
706.175	30028.77
706.52	29842.11
706.865	29715.33
707.209	29705.39
707.554	29613.87
707.899	29701.1
708.243	29581.55
708.588	29417.72
708.932	29180.89
709.277	29250.04
709.621	29301.11
709.966	29154.22
710.31	29089.81
710.654	28800.78
710.998	28923.94
711.342	28959.87
711.687	28819.76
712.031	28721.24
712.375	28668.13
712.719	28686.43
713.063	28654.35
713.407	28709.03
713.75	28525.54
714.094	28476.05
714.438	28383.17
714.782	28588.81
715.125	28334.13
715.469	28418.87
715.812	28301.59
716.156	28056.62
716.499	28161.48
716.843	28167.13
717.186	27976.17
717.53	28036.73
717.873	28037.86
718.216	28033.12
718.559	27773.92
718.902	27629.74
719.246	27697.76
719.589	27542.06
719.932	27470.65
720.275	27435.17
720.617	27550.87
720.96	27446.69
721.303	27427.03
721.646	27419.12
721.989	27173.03
722.331	27304.1
722.674	27242.63
723.016	27184.78
723.359	27090.54
723.701	27189.3
724.044	26964.45
724.386	26780.5
724.729	27042.86
725.071	26934.84
725.413	26892.36
725.755	26820.5
726.097	26782.76
726.439	26643.32
726.782	26585.93
727.124	26709.31
727.465	26577.34
727.807	26520.39
728.149	26668.41
728.491	26500.5
728.833	26537.11
729.175	26496.66
729.516	26349.77
729.858	26283.56
730.199	26370.11
730.541	26160.17
730.882	26190.68
731.224	26322.43
731.565	26022.1
731.906	26045.37
732.248	26164.24
732.589	25974.19
732.93	25884.7
733.271	25869.56
733.612	25877.92
733.953	25853.74
734.294	25813.52
734.635	25778.94
734.976	25847.41
735.317	25668.89
735.658	25580.08
735.999	25682.9
736.339	25561.32
736.68	25658.94
737.021	25478.84
737.361	25378.73
737.702	25512.96
738.042	25646.51
738.383	25357.26
738.723	25454.88
739.063	25194.55
739.404	25323.36
739.744	25311.38
740.084	25157.71
740.424	25265.51
740.764	25102.12
741.104	25226.86
741.444	25047.66
741.784	25065.97
742.124	25074.1
742.464	25012.63
742.804	24905.07
743.143	24877.95
743.483	24961.56
743.823	24825.97
744.162	24794.11
744.502	24786.88
744.841	24646.54
745.181	24913.2
745.52	24747.33
745.86	24748.46
746.199	24541.91
746.538	24575.58
746.877	24608.12
747.216	24509.82
747.556	24516.6
747.895	24501.01
748.234	24348.24
748.573	24409.71
748.911	24344.63
749.25	24258.75
749.589	24154.35
749.928	24170.85
750.267	24125.88
750.605	24138.98
750.944	23986.22
751.283	23888.14
751.621	24078.19
751.96	23821.03
752.298	23860.12
752.636	23866.22
752.975	23667.36
753.313	23719.79
753.651	23752.78
753.989	23532.9
754.327	23627.13
754.666	23510.75
755.004	23597.76
755.342	23495.39
755.679	23509.17
756.017	23399.34
756.355	23333.13
756.693	23288.38
757.031	23315.95
757.368	23145.79
757.706	23154.6
758.044	22981.5
758.381	23107.37
758.719	23000.93
759.056	22949.18
759.394	22878.23
759.731	22667.38
760.068	22618.12
760.405	22663.32
760.743	22636.42
761.08	22614.96
761.417	22414.06
761.754	22371.35
762.091	22326.83
762.428	22348.07
762.765	22131.58
763.102	22198.02
763.438	22049.55
763.775	22017.01
764.112	21930.45
764.449	22071.02
764.785	21781.76
765.122	21707.86
765.458	21714.19
765.795	21606.17
766.131	21608.43
766.467	21572.5
766.804	21401.88
767.14	21330.02
767.476	21317.59
767.812	21229.46
768.148	21121.44
768.485	21046.64
768.821	20918.96
769.157	21024.26
769.492	20924.38
769.828	20841.9
770.164	20691.62
770.5	20660.21
770.836	20621.11
771.171	20443.49
771.507	20531.85
771.842	20237.84
772.178	20276.71
772.513	20299.31
772.849	20238.75
773.184	20095.47
773.519	20109.71
773.855	19923.73
774.19	19904.97
774.525	19770.29
774.86	19821.81
775.195	19753.79
775.53	19685.54
775.865	19655.26
776.2	19443.97
776.535	19290.75
776.87	19345.21
777.205	19216.85
777.539	19201.26
777.874	19180.24
778.209	19041.94
778.543	19068.38
778.878	18940.48
779.212	18888.05
779.547	18743.87
779.881	18822.74
780.215	18716.3
780.55	18703.65
780.884	18553.37
781.218	18660.26
781.552	18531.67
781.886	18411.22
782.22	18215.75
782.554	18242.87
782.888	18050.78
783.222	17995.64
783.556	17867.74
783.889	17873.16
784.223	17747.74
784.557	17717.23
784.89	17768.08
785.224	17651.02
785.557	17559.27
785.891	17554.3
786.224	17486.73
786.558	17524.24
786.891	17378.48
787.224	17219.62
787.557	17224.36
787.891	17159.73
788.224	17218.94
788.557	17147.53
788.89	17064.14
789.223	16965.16
789.556	16882.9
789.888	16847.42
790.221	16838.61
790.554	16653.08
790.887	16658.5
791.219	16674.77
791.552	16544.38
791.884	16484.5
792.217	16405.63
792.549	16304.61
792.882	16292.18
793.214	16209.25
793.546	16219.42
793.879	16044.06
794.211	15998.18
794.543	16115.24
794.875	15903.49
795.207	16075.92
795.539	15967.67
795.871	15908.69
796.203	15723.61
796.535	15744.4
796.867	15715.93
797.198	15513
797.53	15525.43
797.862	15496.27
798.193	15468.48
798.525	15380.12
798.856	15347.12
799.188	15236.17
799.519	15186.22
799.85	15120.69
800.182	15180.35
800.513	15154.14
800.844	14930.41
801.175	15018.32
801.506	15069.84
801.837	14913.69
802.168	14869.62
802.499	14865.56
802.83	14701.27
803.161	14722.06
803.491	14685.9
803.822	14654.04
804.153	14661.94
804.483	14577.65
804.814	14486.58
805.145	14522.97
805.475	14425.57
805.805	14395.74
806.136	14359.35
806.466	14401.39
806.796	14337.66
807.126	14263.09
807.457	14208.17
807.787	14142.41
808.117	14127.95
808.447	14116.42
808.777	14108.74
809.107	13976.09
809.436	13976.99
809.766	13871.23
810.096	13878.91
810.426	13810.89
810.755	13857.45
811.085	13848.41
811.414	13780.39
811.744	13668.52
812.073	13600.28
812.403	13600.73
812.732	13584.91
813.061	13609.54
813.39	13442.32
813.719	13483.67
814.049	13520.73
814.378	13387.18
814.707	13400.51
815.036	13326.61
815.365	13225.82
815.693	13154.87
816.022	13266.73
816.351	13235.77
816.68	13136.11
817.008	13166.39
817.337	13066.73
817.665	13035.32
817.994	13076
818.322	13030.35
818.651	12946.28
818.979	12796.91
819.307	12969.11
819.636	12853.18
819.964	12770.24
820.292	12839.62
820.62	12849.56
820.948	12783.8
821.276	12851.82
821.604	12831.26
821.932	12776.57
822.259	12816.12
822.587	12761.2
822.915	12736.57
823.243	12765.5
823.57	12707.87
823.898	12753.75
824.225	12623.35
824.553	12648.21
824.88	12715.56
825.207	12751.71
825.535	12718.49
825.862	12757.59
826.189	12709.45
826.516	12739.28
826.843	12800.07
827.17	12771.15
827.497	12663.81
827.824	12751.26
828.151	12790.58
828.478	12682.56
828.805	12744.26
829.131	12629.68
829.458	12666.29
829.785	12700.19
830.111	12614.09
830.438	12727.76
830.764	12639.63
831.09	12721.43
831.417	12611.83
831.743	12645.05
832.069	12660.19
832.395	12579.06
832.722	12608.67
833.048	12543.36
833.374	12510.14
833.7	12524.83
834.026	12622
834.351	12538.61
834.677	12545.16
835.003	12541.1
835.329	12564.15
835.654	12490.7
835.98	12406.64
836.306	12448.9
836.631	12417.71
836.956	12385.85
837.282	12431.5
837.607	12265.4
837.932	12423.59
838.258	12327.09
838.583	12332.06
838.908	12178.62
839.233	12279.18
839.558	12190.15
839.883	12237.15
840.208	12125.06
840.533	12226.75
840.858	12187.43
841.182	12145.18
841.507	12186.76
841.832	12076.48
842.156	12104.5
842.481	12044.16
842.805	12015.69
843.13	11993.99
843.454	11949.47
843.778	11897.72
844.103	11860.89
844.427	11851.62
844.751	11877.61
845.075	11704.73
845.399	11765.98
845.723	11710.16
846.047	11713.1
846.371	11637.17
846.695	11639.43
847.019	11560.11
847.343	11489.37
847.666	11393.1
847.99	11418.87
848.313	11375.7
848.637	11354.46
848.96	11348.13
849.284	11191.98
849.607	11139.78
849.931	11088.71
850.254	11070.63
850.577	11048.48
850.9	10962.83
851.223	11010.06
851.546	10880.35
851.869	10790.86
852.192	10861.37
852.515	10803.52
852.838	10730.3
853.161	10688.26
853.483	10702.5
853.806	10653.46
854.129	10600.58
854.451	10520.36
854.774	10566.01
855.096	10450.53
855.419	10454.15
855.741	10393.13
856.063	10385
856.385	10311.78
856.708	10307.48
857.03	10247.82
857.352	10356.97
857.674	10190.88
857.996	10173.48
858.318	10133.93
858.64	10209.86
858.961	10170.76
859.283	10129.41
859.605	9981.62
859.926	9989.75
860.248	9991.11
860.57	9904.56
860.891	10013.71
861.212	9943.2
861.534	9888.06
861.855	9921.28
862.176	9899.81
862.498	9932.58
862.819	9843.09
863.14	9820.72
863.461	9731.68
863.782	9772.13
864.103	9733.71
864.424	9725.35
864.745	9681.51
865.065	9783.88
865.386	9668.63
865.707	9646.26
866.027	9608.74
866.348	9563.55
866.668	9627.73
866.989	9599.93
867.309	9460.5
867.63	9569.2
867.95	9512.02
868.27	9469.09
868.59	9526.26
868.91	9472.48
869.23	9484.45
869.55	9412.82
869.87	9515.64
870.19	9381.41
870.51	9450.78
870.83	9446.94
871.15	9371.69
871.469	9322.65
871.789	9382.99
872.109	9379.6
872.428	9342.76
872.748	9296.89
873.067	9309.32
873.386	9332.82
873.706	9260.73
874.025	9227.51
874.344	9170.79
874.663	9204.91
874.982	9218.47
875.301	9166.72
875.62	9148.64
875.939	9152.94
876.258	9087.18
876.577	9092.15
876.896	9116.78
877.214	9049.21
877.533	9084.46
877.852	9045.6
878.17	9023.22
878.489	9054.41
878.807	9025.03
879.125	8990.23
879.444	9046.73
879.762	8986.61
880.08	8931.93
880.398	8875.66
880.716	8928.99
881.034	8832.27
881.352	8885.83
881.67	8921.08
881.988	8835.43
882.306	8858.03
882.624	8761.99
882.941	8784.36
883.259	8790.69
883.577	8691.71
883.894	8723.34
884.212	8698.94
884.529	8702.1
884.846	8620.52
885.164	8673.4
885.481	8649.9
885.798	8630.01
886.115	8552.95
886.432	8555.21
886.75	8584.14
887.067	8528.55
887.383	8472.73
887.7	8524.71
888.017	8498.04
888.334	8470.02
888.651	8431.15
888.967	8376.69
889.284	8349.34
889.6	8331.49
889.917	8278.61
890.233	8313.41
890.55	8275.67
890.866	8263.7
891.182	8220.31
891.498	8184.15
891.815	8168.1
892.131	8172.62
892.447	8136.47
892.763	8119.97
893.079	8086.3
893.395	8098.5
893.71	8014.44
894.026	8039.97
894.342	7965.17
894.657	7954.32
894.973	7903.25
895.289	7929.24
895.604	7936.92
895.92	7844.95
896.235	7780.54
896.55	7887.89
896.865	7763.37
897.181	7776.7
897.496	7769.92
897.811	7743.03
898.126	7709.59
898.441	7671.85
898.756	7635.69
899.071	7601.79
899.386	7557.95
899.7	7542.58
900.015	7543.26
900.33	7445.19
900.644	7481.57
900.959	7411.06
901.273	7393.21
901.588	7375.58
901.902	7371.29
902.216	7276.83
902.531	7284.51
902.845	7279.77
903.159	7237.28
903.473	7215.81
903.787	7207.68
904.101	7138.98
904.415	7181.24
904.729	7084.52
905.042	7092.43
905.356	7037.06
905.67	7072.09
905.984	7039.55
906.297	6930.85
906.611	6934.46
906.924	6949.61
907.237	6930.62
907.551	6882.04
907.864	6895.82
908.177	6844.52
908.491	6849.72
908.804	6760.46
909.117	6748.03
909.43	6711.42
909.743	6676.62
910.056	6679.33
910.368	6637.07
910.681	6658.99
910.994	6657.64
911.307	6530.18
911.619	6543.29
911.932	6602.27
912.244	6448.6
912.557	6464.65
912.869	6463.06
913.181	6445.44
913.494	6404.99
913.806	6371.77
914.118	6360.69
914.43	6295.84
914.742	6266.46
915.054	6283.41
915.366	6179.46
915.678	6264.88
915.99	6231.88
916.302	6157.08
916.613	6038.89
916.925	6123.19
917.236	6113.47
917.548	6052.68
917.859	6021.95
918.171	6020.82
918.482	5970.42
918.794	5995.51
919.105	5926.81
919.416	5868.28
919.727	5859.69
920.038	5879.13
920.349	5817.66
920.66	5803.65
920.971	5753.7
921.282	5766.36
921.593	5749.86
921.903	5706.47
922.214	5643.43
922.525	5713.93
922.835	5710.54
923.146	5605.46
923.456	5560.94
923.767	5541.28
924.077	5610.88
924.387	5505.12
924.697	5504.9
925.008	5536.54
925.318	5477.78
925.628	5477.55
925.938	5470.1
926.248	5382.41
926.558	5371.79
926.867	5318.46
927.177	5347.61
927.487	5284.79
927.796	5202.31
928.106	5280.04
928.416	5247.28
928.725	5214.51
929.034	5199.82
929.344	5148.52
929.653	5188.52
929.962	5103.1
930.271	5110.11
930.581	5074.4
930.89	5062.42
931.199	5042.31
931.508	4992.59
931.817	5058.58
932.125	5034.63
932.434	4956.89
932.743	4948.53
933.051	4917.79
933.36	4898.81
933.669	4862.43
933.977	4860.85
934.286	4862.43
934.594	4830.57
934.902	4751.25
935.21	4747.86
935.519	4729.78
935.827	4734.97
936.135	4697.01
936.443	4679.83
936.751	4661.98
937.059	4667.41
937.367	4593.06
937.674	4602.77
937.982	4610.01
938.29	4549.44
938.597	4604.36
938.905	4524.58
939.213	4516.45
939.52	4466.51
939.827	4501.76
940.135	4438.03
940.442	4429.9
940.749	4406.17
941.056	4446.62
941.363	4382.44
941.67	4381.09
941.977	4313.29
942.284	4319.84
942.591	4284.14
942.898	4254.08
943.205	4272.16
943.511	4231.48
943.818	4214.76
944.125	4186.51
944.431	4191.03
944.738	4163.46
945.044	4176.8
945.35	4151.49
945.657	4110.58
945.963	4162.11
946.269	4057.7
946.575	4093.18
946.881	4042.11
947.187	4065.84
947.493	4010.02
947.799	4030.59
948.105	3970.93
948.41	3932.74
948.716	3956.92
949.022	3980.19
949.327	3911.49
949.633	3878.73
949.938	3939.52
950.244	3874.88
950.549	3876.47
950.854	3798.5
951.16	3824.26
951.465	3787.2
951.77	3779.52
952.075	3799.86
952.38	3775.68
952.685	3732.51
952.99	3703.59
953.294	3701.33
953.599	3681.89
953.904	3683.02
954.209	3627.88
954.513	3671.05
954.818	3622.91
955.122	3638.73
955.426	3625.17
955.731	3574.33
956.035	3515.35
956.339	3550.15
956.643	3557.83
956.948	3528.9
957.252	3518.96
957.556	3503.14
957.86	3509.02
958.163	3519.19
958.467	3442.58
958.771	3431.73
959.075	3426.08
959.378	3425.4
959.682	3389.25
959.985	3359.64
960.289	3361.68
960.592	3350.15
960.896	3332.98
961.199	3317.38
961.502	3311.06
961.805	3289.81
962.108	3256.6
962.411	3262.47
962.714	3272.64
963.017	3192.64
963.32	3214.56
963.623	3194.9
963.926	3229.7
964.228	3155.13
964.531	3130.72
964.833	3134.11
965.136	3132.98
965.438	3135.24
965.741	3099.09
966.043	3116.71
966.345	3076.94
966.648	3108.58
966.95	3065.19
967.252	3011.63
967.554	3018.64
967.856	3045.75
968.158	2985.42
968.46	3009.82
968.761	2989.94
969.063	2955.59
969.365	2945.87
969.666	2939.77
969.968	2908.36
970.269	2933.21
970.571	2911.52
970.872	2900.45
971.174	2861.35
971.475	2886.44
971.776	2819.77
972.077	2841.46
972.378	2842.14
972.679	2827.45
972.98	2827
973.281	2796.72
973.582	2767.79
973.883	2777.51
974.183	2760.11
974.484	2763.73
974.785	2745.65
975.085	2740.9
975.386	2721.02
975.686	2686.89
975.986	2664.97
976.287	2674.69
976.587	2675.82
976.887	2666.55
977.187	2656.38
977.487	2600.79
977.787	2624.97
978.087	2589.49
978.387	2587.69
978.687	2596.05
978.987	2568.48
979.286	2581.13
979.586	2557.18
979.885	2567.8
980.185	2516.05
980.484	2511.76
980.784	2513.79
981.083	2524.19
981.382	2528.03
981.682	2513.11
981.981	2502.72
982.28	2486.22
982.579	2470.85
982.878	2449.84
983.177	2429.5
983.475	2394.7
983.774	2391.08
984.073	2376.84
984.372	2377.3
984.67	2396.28
984.969	2345.66
985.267	2332.1
985.566	2324.19
985.864	2323.74
986.162	2325.77
986.461	2296.17
986.759	2285.1
987.057	2269.5
987.355	2257.3
987.653	2305.43
987.951	2307.24
988.249	2214.36
988.547	2262.72
988.844	2253.23
989.142	2238.77
989.44	2222.72
989.737	2205.32
990.035	2204.87
990.332	2187.92
990.63	2139.79
990.927	2184.98
991.224	2160.13
991.521	2116.51
991.819	2120.58
992.116	2134.36
992.413	2109.05
992.71	2108.83
993.006	2095.72
993.303	2076.06
993.6	2063.86
993.897	2041.03
994.193	2017.53
994.49	2026.35
994.787	2031.09
995.083	2017.76
995.379	2053.01
995.676	2012.56
995.972	2001.03
996.268	1994.03
996.565	1972.79
996.861	1994.93
997.157	1988.61
997.453	1951.54
997.749	1966.23
998.044	1963.97
998.34	1902.96
998.636	1931.66
998.932	1894.37
999.227	1859.8
999.523	1857.76
999.818	1891.89
1000.114	1869.06
1000.409	1885.56
1000.704	1818.89
1001	1825.45
1001.295	1843.52
1001.59	1841.94
1001.885	1835.84
1002.18	1809.63
1002.475	1785.22
1002.77	1785.9
1003.065	1770.76
1003.359	1760.14
1003.654	1746.35
1003.949	1733.7
1004.243	1724.88
1004.538	1698.22
1004.832	1719.01
1005.127	1723.98
1005.421	1726.01
1005.715	1698.22
1006.009	1700.03
1006.304	1679.69
1006.598	1658.9
1006.892	1661.16
1007.186	1672.91
1007.48	1673.36
1007.773	1644.66
1008.067	1624.77
1008.361	1596.3
1008.655	1574.61
1008.948	1603.76
1009.242	1595.62
1009.535	1571.44
1009.829	1556.75
1010.122	1570.76
1010.415	1535.28
1010.708	1542.52
1011.001	1554.04
1011.295	1523.76
1011.588	1533.02
1011.881	1485.34
1012.173	1511.78
1012.466	1507.71
1012.759	1474.5
1013.052	1486.02
1013.344	1486.92
1013.637	1469.3
1013.93	1474.72
1014.222	1463.2
1014.514	1456.87
1014.807	1432.46
1015.099	1420.94
1015.391	1400.37
1015.683	1376.87
1015.976	1381.62
1016.268	1393.82
1016.56	1402.41
1016.851	1338.23
1017.143	1374.61
1017.435	1345.01
1017.727	1342.07
1018.018	1344.1
1018.31	1367.61
1018.602	1328.51
1018.893	1313.37
1019.185	1312.92
1019.476	1313.82
1019.767	1296.65
1020.058	1315.4
1020.35	1269.53
1020.641	1248.06
1020.932	1222.3
1021.223	1273.37
1021.514	1222.75
1021.804	1259.13
1022.095	1209.87
1022.386	1210.77
1022.677	1206.03
1022.967	1200.15
1023.258	1204.9
1023.548	1201.06
1023.839	1189.53
1024.129	1181.17
1024.419	1162.19
1024.709	1172.81
1025	1164.67
1025.29	1128.06
1025.58	1153.37
1025.87	1127.39
1026.16	1140.27
1026.449	1105.69
1026.739	1109.98
1027.029	1095.3
1027.319	1079.7
1027.608	1100.72
1027.898	1090.55
1028.187	1095.3
1028.477	1080.38
1028.766	1081.29
1029.055	1074.96
1029.344	1039.7
1029.634	1061.62
1029.923	1029.54
1030.212	1030.21
1030.501	1035.64
1030.79	1006.03
1031.078	998.35
1031.367	1013.04
1031.656	998.12
1031.945	983.89
1032.233	998.58
1032.522	984.34
1032.81	984.11
1033.099	970.55
1033.387	946.15
1033.675	965.13
1033.963	956.09
1034.251	939.82
1034.54	937.11
1034.828	920.61
1035.116	942.53
1035.403	941.85
1035.691	910.67
1035.979	911.8
1036.267	910.44
1036.554	917.45
1036.842	870.22
1037.129	886.26
1037.417	870.22
1037.704	880.39
1037.992	888.75
1038.279	878.58
1038.566	899.37
1038.853	899.37
1039.14	899.37
