Data from hue_240_FLMS001491_00065.txt Node
Date: Tue Feb 07 16:35:48 GMT 2017
User: dcchb
Spectrometer: FLMS00149
Trigger mode: 0
Integration Time (sec): 2.000000E-2
Scans to average: 10
Electric dark correction enabled: true
Nonlinearity correction enabled: false
Boxcar width: 0
XAxis mode: Wavelengths
Number of Pixels in Spectrum: 2048
>>>>>Begin Spectral Data<<<<<
341.393	-23.69
341.776	-23.69
342.16	-23.69
342.543	-63.23
342.927	-56
343.31	-63.01
343.693	-76.79
344.077	-92.38
344.46	-66.4
344.843	-49.67
345.226	-46.74
345.61	-32.73
345.993	-27.75
346.376	5.47
346.759	8.63
347.142	21.06
347.525	40.27
347.908	67.61
348.291	78.68
348.674	98.12
349.057	135.63
349.44	139.93
349.823	133.82
350.206	160.94
350.588	194.39
350.971	198.68
351.354	236.87
351.737	247.72
352.119	252.24
352.502	261.5
352.884	265.12
353.267	285.68
353.65	274.39
354.032	299.47
354.414	303.99
354.797	292.69
355.179	316.19
355.562	314.61
355.944	301.96
356.326	313.48
356.709	313.48
357.091	339.47
357.473	336.98
357.855	366.36
358.238	330.43
358.62	328.62
359.002	344.21
359.384	349.64
359.766	317.77
360.148	325.01
360.53	320.71
360.912	336.98
361.294	310.32
361.676	342.63
362.057	345.12
362.439	322.75
362.821	325.68
363.203	326.59
363.584	320.03
363.966	302.18
364.348	302.63
364.729	333.14
365.111	311.22
365.493	328.62
365.874	314.61
366.256	328.17
366.637	305.57
367.019	327.04
367.4	313.71
367.781	316.19
368.163	306.93
368.544	301.73
368.925	317.32
369.306	325.68
369.688	329.75
370.069	332.01
370.45	310.09
370.831	311.67
371.212	303.09
371.593	310.99
371.974	282.52
372.355	324.1
372.736	304.22
373.117	334.95
373.498	321.84
373.879	316.64
374.26	329.07
374.641	311.67
375.021	307.38
375.402	295.4
375.783	312.35
376.163	302.63
376.544	329.3
376.925	320.71
377.305	315.74
377.686	321.62
378.066	355.29
378.447	339.24
378.827	325.23
379.208	345.34
379.588	340.37
379.968	325.01
380.349	329.3
380.729	327.49
381.109	331.79
381.489	335.85
381.87	333.59
382.25	315.29
382.63	333.14
383.01	332.01
383.39	346.93
383.77	347.83
384.15	332.91
384.53	347.38
384.91	371.56
385.29	344.21
385.67	312.8
386.049	351.67
386.429	338.79
386.809	365.68
387.189	350.77
387.568	368.85
387.948	367.72
388.328	363.65
388.707	352.8
389.087	367.26
389.466	364.78
389.846	368.17
390.225	355.97
390.605	354.16
390.984	377.89
391.363	365.91
391.743	350.77
392.122	373.59
392.501	373.37
392.881	379.69
393.26	365.91
393.639	380.15
394.018	387.15
394.397	390.09
394.776	382.41
395.155	374.72
395.534	388.28
395.913	394.38
396.292	392.57
396.671	390.77
397.05	383.99
397.429	400.94
397.808	396.64
398.186	391.44
398.565	390.54
398.944	393.03
399.323	408.85
399.701	420.37
400.08	407.49
400.458	407.94
400.837	412.46
401.215	407.26
401.594	408.62
401.972	415.4
402.351	442.29
402.729	433.7
403.107	413.59
403.486	429.18
403.864	439.35
404.242	421.5
404.62	435.96
404.999	428.28
405.377	444.78
405.755	441.84
406.133	461.05
406.511	448.62
406.889	461.5
407.267	461.05
407.645	454.95
408.023	480.03
408.401	461.5
408.779	485.45
409.156	492.46
409.534	491.1
409.912	485.23
410.29	520.93
410.667	488.84
411.045	529.97
411.422	508.05
411.8	498.56
412.178	524.1
412.555	535.4
412.933	558.67
413.31	550.76
413.687	552.12
414.065	548.73
414.442	565.23
414.819	558.9
415.197	553.02
415.574	582.63
415.951	590.31
416.328	601.16
416.705	609.29
417.082	598.67
417.46	614.94
417.837	621.27
418.214	630.31
418.591	619.69
418.967	648.16
419.344	637.77
419.721	621.72
420.098	632.57
420.475	654.94
420.852	667.37
421.228	656.75
421.605	662.62
421.982	670.76
422.358	683.41
422.735	703.3
423.111	727.25
423.488	733.81
423.864	758.21
424.241	746.46
424.617	734.26
424.994	769.74
425.37	755.95
425.746	779.91
426.123	780.81
426.499	766.12
426.875	810.64
427.251	806.12
427.627	802.96
428.003	808.83
428.379	852.68
428.756	847.48
429.132	831.66
429.507	855.39
429.883	870.53
430.259	878.44
430.635	894.03
431.011	917.53
431.387	914.37
431.763	898.78
432.138	926.8
432.514	951.66
432.89	932
433.265	957.98
433.641	1007.93
434.016	1004.76
434.392	1005.44
434.767	1046.57
435.143	1041.82
435.518	1060.81
435.894	1076.4
436.269	1078.43
436.644	1070.3
437.02	1092.67
437.395	1127.47
437.77	1135.38
438.145	1140.8
438.52	1174.02
438.895	1178.99
439.271	1187.81
439.646	1196.17
440.021	1191.2
440.395	1222.84
440.77	1216.06
441.145	1250.4
441.52	1276.39
441.895	1244.08
442.27	1289.05
442.645	1303.96
443.019	1315.49
443.394	1306.67
443.769	1326.34
444.143	1313.91
444.518	1371.76
444.892	1374.47
445.267	1356.84
445.641	1366.11
446.016	1403.4
446.39	1409.95
446.764	1419.67
447.139	1413.56
447.513	1418.31
447.887	1418.31
448.262	1431.42
448.636	1461.47
449.01	1477.52
449.384	1469.38
449.758	1491.75
450.132	1487.46
450.506	1517.06
450.88	1501.02
451.254	1496.05
451.628	1570.62
452.002	1540.57
452.376	1537.4
452.75	1600.9
453.123	1584.41
453.497	1607.23
453.871	1630.96
454.244	1654.69
454.618	1678.42
454.992	1675.7
455.365	1653.11
455.739	1720
456.112	1756.83
456.486	1777.85
456.859	1719.55
457.232	1792.54
457.606	1770.39
457.979	1803.38
458.352	1837.73
458.725	1842.03
459.099	1865.98
459.472	1912.31
459.845	1902.59
460.218	1951.86
460.591	1953.21
460.964	1979.2
461.337	1971.97
461.71	2024.17
462.083	2025.98
462.456	2025.53
462.829	2047.67
463.201	2102.13
463.574	2085.64
463.947	2122.92
464.32	2150.27
464.692	2162.25
465.065	2198.85
465.438	2187.1
465.81	2241.57
466.183	2285.86
466.555	2322.24
466.928	2302.58
467.3	2345.52
467.672	2317.27
468.045	2415.35
468.417	2414.44
468.789	2436.36
469.161	2443.14
469.534	2482.01
469.906	2525.17
470.278	2547.09
470.65	2559.3
471.022	2589.8
471.394	2648.79
471.766	2658.96
472.138	2673.64
472.51	2751.83
472.882	2796.58
473.253	2811.27
473.625	2830.02
473.997	2905.05
474.369	2886.97
474.74	2963.58
475.112	2980.75
475.484	2999.74
475.855	3066.63
476.227	3100.75
476.598	3154.54
476.97	3157.7
477.341	3276.11
477.713	3279.28
478.084	3338.03
478.455	3378.94
478.827	3420.97
479.198	3519.95
479.569	3519.05
479.94	3592.94
480.311	3606.05
480.682	3687.18
481.053	3762.88
481.424	3832.94
481.795	3832.71
482.166	3877.45
482.537	3925.14
482.908	3982.08
483.279	4027.73
483.65	4103.21
484.021	4175.3
484.391	4193.15
484.762	4240.61
485.133	4248.74
485.503	4291
485.874	4359.25
486.244	4371
486.615	4531.67
486.985	4533.03
487.356	4605.8
487.726	4587.49
488.097	4683.54
488.467	4733.25
488.837	4780.93
489.207	4845.56
489.578	4905.22
489.948	5006.46
490.318	5004.88
490.688	5069.74
491.058	5103.86
491.428	5158.1
491.798	5209.85
492.168	5251.2
492.538	5276.74
492.908	5341.37
493.278	5411.65
493.648	5427.47
494.017	5463.18
494.387	5500.69
494.757	5548.6
495.126	5572.55
495.496	5585.21
495.866	5672.89
496.235	5730.06
496.605	5678.54
496.974	5824.52
497.344	5821.13
497.713	5825.65
498.082	5884.63
498.452	5915.59
498.821	5902.71
499.19	5926.44
499.559	5982.26
499.928	6022.93
500.298	6055.93
500.667	6079.66
501.036	6073.1
501.405	6121.46
501.774	6151.52
502.143	6205.75
502.512	6174.34
502.88	6273.78
503.249	6239.43
503.618	6241.69
503.987	6271.97
504.356	6321.91
504.724	6328.69
505.093	6308.35
505.462	6367.11
505.83	6395.58
506.199	6433.32
506.567	6500.21
506.936	6447.1
507.304	6579.53
507.672	6494.56
508.041	6525.52
508.409	6611.62
508.777	6675.8
509.145	6692.3
509.514	6648
509.882	6683.71
510.25	6701.56
510.618	6767.32
510.986	6779.75
511.354	6825.85
511.722	6824.27
512.09	6872.63
512.458	6855.23
512.826	6921.67
513.193	6931.16
513.561	6921.89
513.929	6929.58
514.297	6964.15
514.664	7005.73
515.032	7074.21
515.4	7112.4
515.767	7073.98
516.135	7081.66
516.502	7028.11
516.869	7177.71
517.237	7125.73
517.604	7123.7
517.972	7207.31
518.339	7224.94
518.706	7232.85
519.073	7204.6
519.44	7216.58
519.808	7274.88
520.175	7246.18
520.542	7342.67
520.909	7312.62
521.276	7326.63
521.643	7354.65
522.009	7384.48
522.376	7441.65
522.743	7438.26
523.11	7485.5
523.477	7466.51
523.843	7623.34
524.21	7572.05
524.577	7532.27
524.943	7613.63
525.31	7558.04
525.676	7690.91
526.043	7670.58
526.409	7657.47
526.776	7746.96
527.142	7673.06
527.508	7768.65
527.874	7801.42
528.241	7793.74
528.607	7795.54
528.973	7825.15
529.339	7789.67
529.705	7873.96
530.071	7846.16
530.437	7871.7
530.803	7908.53
531.169	7936.78
531.535	7894.07
531.901	7879.84
532.267	7878.93
532.632	7904.24
532.998	7937.23
533.364	7917.12
533.73	7955.09
534.095	8011.13
534.461	7964.58
534.826	8007.52
535.192	7974.3
535.557	8021.98
535.923	7953.05
536.288	8027.85
536.653	8004.58
537.019	7946.27
537.384	8005.26
537.749	7949.44
538.114	7976.1
538.479	7897.46
538.845	7989.21
539.21	7951.25
539.575	7884.81
539.94	7979.72
540.305	7970
540.67	7998.25
541.034	7954.18
541.399	8002.32
541.764	7958.93
542.129	7967.97
542.494	7935.65
542.858	7956.44
543.223	7952.15
543.587	8038.25
543.952	7972.49
544.316	7920.06
544.681	7927.74
545.045	7941.08
545.41	7915.31
545.774	7941.53
546.138	7940.62
546.503	7870.34
546.867	7879.16
547.231	7969.55
547.595	7889.55
547.959	7904.47
548.324	7908.31
548.688	7909.89
549.052	7854.98
549.416	7883
549.779	7809.55
550.143	7833.73
550.507	7873.06
550.871	7871.25
551.235	7883.68
551.599	7872.83
551.962	7847.29
552.326	7837.58
552.689	7853.17
553.053	7883
553.417	7818.37
553.78	7863.56
554.143	7852.04
554.507	7871.25
554.87	7895.43
555.234	7902.21
555.597	7919.61
555.96	7927.07
556.323	7854.98
556.686	7860.17
557.05	7985.14
557.413	7907.63
557.776	7911.7
558.139	7960.96
558.502	7930.23
558.865	7928.65
559.228	8012.26
559.59	7972.04
559.953	7972.71
560.316	8081.19
560.679	8023.11
561.041	8021.53
561.404	8036.22
561.767	8100.17
562.129	8020.4
562.492	8111.92
562.854	8069.21
563.217	8115.99
563.579	8080.73
563.941	8177.45
564.304	8203.44
564.666	8231.92
565.028	8195.76
565.39	8250.45
565.753	8279.15
566.115	8299.71
566.477	8284.12
566.839	8249.54
567.201	8376.09
567.563	8346.26
567.925	8397.34
568.287	8358.92
568.648	8360.5
569.01	8428.3
569.372	8432.14
569.734	8476.88
570.095	8447.5
570.457	8475.53
570.819	8521.63
571.18	8471.46
571.542	8505.13
571.903	8591.68
572.265	8516.2
572.626	8570.89
572.987	8572.7
573.349	8611.34
573.71	8637.78
574.071	8699.93
574.432	8713.71
574.794	8746.25
575.155	8710.77
575.516	8704.22
575.877	8759.59
576.238	8773.6
576.599	8809.98
576.96	8757.55
577.32	8826.48
577.681	8834.84
578.042	8902.63
578.403	8882.07
578.763	8938.11
579.124	8871.67
579.485	8872.35
579.845	8979.24
580.206	8951.22
580.566	8959.58
580.927	8933.14
581.287	8963.65
581.648	8982.41
582.008	9102.85
582.368	9018.79
582.728	9096.75
583.089	9007.26
583.449	9074.15
583.809	9068.05
584.169	9084.1
584.529	9087.71
584.889	9156.64
585.249	9105.34
585.609	9058.79
585.969	9165
586.329	9122.51
586.688	9165.23
587.048	9148.95
587.408	9125.45
587.768	9061.95
588.127	9158.22
588.487	9137.43
588.846	9216.07
589.206	9151.67
589.565	9153.47
589.925	9188.73
590.284	9243.64
590.643	9202.96
591.003	9170.65
591.362	9261.04
591.721	9250.19
592.08	9218.33
592.44	9287.48
592.799	9261.72
593.158	9285.22
593.517	9245.45
593.876	9273.7
594.235	9311.44
594.593	9308.05
594.952	9288.16
595.311	9258.33
595.67	9308.5
596.029	9414.71
596.387	9359.12
596.746	9374.71
597.104	9278.22
597.463	9338.33
597.822	9363.64
598.18	9345.11
598.538	9320.25
598.897	9417.2
599.255	9324.77
599.613	9470.75
599.972	9340.14
600.33	9407.48
600.688	9388.5
601.046	9361.6
601.404	9451.09
601.762	9363.64
602.12	9448.38
602.478	9468.04
602.836	9466.46
603.194	9429.17
603.552	9480.92
603.91	9401.83
604.268	9482.73
604.625	9462.62
604.983	9424.88
605.341	9450.64
605.698	9404.77
606.056	9514.82
606.413	9498.55
606.771	9491.09
607.128	9477.31
607.485	9457.87
607.843	9465.78
608.2	9508.94
608.557	9565.44
608.914	9582.39
609.272	9627.59
609.629	9571.77
609.986	9611.09
610.343	9557.98
610.7	9617.19
611.057	9590.52
611.414	9595.95
611.771	9604.31
612.127	9679.11
612.484	9610.41
612.841	9671.65
613.198	9647.25
613.554	9622.39
613.911	9698.32
614.267	9689.73
614.624	9621.03
614.98	9734.48
615.337	9701.48
615.693	9801.82
616.05	9718.2
616.406	9791.42
616.762	9755.27
617.118	9654.7
617.475	9683.4
617.831	9734.25
618.187	9742.61
618.543	9704.42
618.899	9824.19
619.255	9790.07
619.611	9783.06
619.967	9814.93
620.323	9883.17
620.678	9796.39
621.034	9769.5
621.39	9826.9
621.746	9832.55
622.101	9846.56
622.457	9828.94
622.812	9797.3
623.168	9840.24
623.523	9857.86
623.879	9802.27
624.234	9766.11
624.589	9867.81
624.945	9824.64
625.3	9846.11
625.655	9843.63
626.01	9803.4
626.365	9797.07
626.72	9831.2
627.075	9761.59
627.43	9802.72
627.785	9768.6
628.14	9824.42
628.495	9860.8
628.85	9825.55
629.205	9795.27
629.559	9773.34
629.914	9770.86
630.269	9776.28
630.623	9705.55
630.978	9796.85
631.332	9720.01
631.687	9774.25
632.041	9682.05
632.396	9753.91
632.75	9674.59
633.104	9764.76
633.459	9606.34
633.813	9630.07
634.167	9640.69
634.521	9687.25
634.875	9642.95
635.229	9604.54
635.583	9609.06
635.937	9574.03
636.291	9565.21
636.645	9629.62
636.999	9525.89
637.352	9614.48
637.706	9503.97
638.06	9549.62
638.413	9549.17
638.767	9498.78
639.121	9548.49
639.474	9435.73
639.828	9441.15
640.181	9424.43
640.534	9465.33
640.888	9453.81
641.241	9341.49
641.594	9360.93
641.947	9444.09
642.301	9406.35
642.654	9407.03
643.007	9419.91
643.36	9407.7
643.713	9321.15
644.066	9383.75
644.419	9342.4
644.771	9343.75
645.124	9249.06
645.477	9205.68
645.83	9107.83
646.182	9093.36
646.535	9059.92
646.888	9042.74
647.24	9005
647.593	9061.27
647.945	9088.84
648.298	8990.31
648.65	9040.26
649.002	8908.51
649.355	8990.09
649.707	9023.31
650.059	9021.5
650.411	9125.23
650.763	9120.93
651.115	9221.95
651.467	9202.51
651.819	9234.15
652.171	9212.23
652.523	9259.46
652.875	9213.36
653.227	9165.68
653.578	9216.98
653.93	9186.92
654.282	9122.74
654.633	9130.2
654.985	9198.22
655.337	9188.95
655.688	9165
656.039	9183.3
656.391	9080.26
656.742	9111.67
657.094	9126.81
657.445	9230.31
657.796	9153.25
658.147	9185.34
658.498	9155.06
658.849	9139.46
659.2	9148.73
659.551	9182.4
659.902	9200.48
660.253	9212
660.604	9160.48
660.955	9137.43
661.306	9169.52
661.656	9148.05
662.007	9135.62
662.358	9166.81
662.708	9175.39
663.059	9126.36
663.409	9079.58
663.76	9216.98
664.11	9151.67
664.461	9204.77
664.811	9157.77
665.161	9152.8
665.511	9095.85
665.862	9115.06
666.212	9217.2
666.562	9157.99
666.912	9099.92
667.262	9116.41
667.612	9187.15
667.962	9180.82
668.312	9124.1
668.662	9208.16
669.011	9148.28
669.361	9123.19
669.711	9113.93
670.06	9066.47
670.41	9042.74
670.76	9085.68
671.109	9150.99
671.459	9137.88
671.808	9100.37
672.157	9103.98
672.507	9114.83
672.856	9066.24
673.205	9085.45
673.554	9146.24
673.904	9093.36
674.253	9138.56
674.602	9116.41
674.951	8997.32
675.3	8906.25
675.649	9016.75
675.998	9052.91
676.346	8987.6
676.695	9045.23
677.044	8946.25
677.393	9002.97
677.741	9021.27
678.09	8927.72
678.438	8992.57
678.787	8946.25
679.135	9011.56
679.484	8902.63
679.832	8940.37
680.181	8863.54
680.529	8957.32
680.877	8911.45
681.225	8847.49
681.573	8926.81
681.922	8815.4
682.27	8801.17
682.618	8769.76
682.966	8769.98
683.314	8803.65
683.661	8746.03
684.009	8762.3
684.357	8725.24
684.705	8741.51
685.053	8700.83
685.4	8708.06
685.748	8600.95
686.095	8613.6
686.443	8545.81
686.79	8560.95
687.138	8650.21
687.485	8591.91
687.832	8535.19
688.18	8596.88
688.527	8452.7
688.874	8518.46
689.221	8449.76
689.568	8449.76
689.915	8406.38
690.262	8433.49
690.609	8398.69
690.956	8292.48
691.303	8334.06
691.65	8262.42
691.997	8304.68
692.344	8232.59
692.69	8231.69
693.037	8219.94
693.383	8171.58
693.73	8170.67
694.077	8134.97
694.423	8160.96
694.769	8056.78
695.116	8087.06
695.462	8064.92
695.808	8018.81
696.155	7968.19
696.501	7913.51
696.847	7932.72
697.193	7910.12
697.539	7967.74
697.885	7878.71
698.231	7812.72
698.577	7831.25
698.923	7877.35
699.269	7713.06
699.614	7677.13
699.96	7729.33
700.306	7701.99
700.651	7639.84
700.997	7603.46
701.342	7588.09
701.688	7617.02
702.033	7584.7
702.379	7577.7
702.724	7493.63
703.069	7532.27
703.415	7428.55
703.76	7486.4
704.105	7426.74
704.45	7403.01
704.795	7439.62
705.14	7297.93
705.485	7356.46
705.83	7330.25
706.175	7280.3
706.52	7308.32
706.865	7268.33
707.209	7276.24
707.554	7301.32
707.899	7217.71
708.243	7167.54
708.588	7163.92
708.932	7110.36
709.277	7145.39
709.621	7117.37
709.966	7092.74
710.31	7076.92
710.654	7035.79
710.998	7064.26
711.342	7007.32
711.687	7001.21
712.031	6969.12
712.375	6924.83
712.719	7006.86
713.063	6889.35
713.407	7020.87
713.75	6908.79
714.094	6913.53
714.438	6890.26
714.782	6934.55
715.125	6867.88
715.469	6900.2
715.812	6900.88
716.156	6811.16
716.499	6805.97
716.843	6803.93
717.186	6780.43
717.53	6805.74
717.873	6824.5
718.216	6792.41
718.559	6720.77
718.902	6718.06
719.246	6725.97
719.589	6624.27
719.932	6657.27
720.275	6631.96
720.617	6667.21
720.96	6668.12
721.303	6707.21
721.646	6702.01
721.989	6591.96
722.331	6666.53
722.674	6649.36
723.016	6634.9
723.359	6584.05
723.701	6627.44
724.044	6561.9
724.386	6517.61
724.729	6606.87
725.071	6611.62
725.413	6518.97
725.755	6572.75
726.097	6502.02
726.439	6531.62
726.782	6533.2
727.124	6550.15
727.465	6502.24
727.807	6512.87
728.149	6520.55
728.491	6493.43
728.833	6546.54
729.175	6484.84
729.516	6445.75
729.858	6469.93
730.199	6513.54
730.541	6443.26
730.882	6479.19
731.224	6452.08
731.565	6420.89
731.906	6402.59
732.248	6440.78
732.589	6419.31
732.93	6396.71
733.271	6427.22
733.612	6444.84
733.953	6440.1
734.294	6393.32
734.635	6429.93
734.976	6496.14
735.317	6421.12
735.658	6441.68
735.999	6443.04
736.339	6462.47
736.68	6443.26
737.021	6448.01
737.361	6446.65
737.702	6468.35
738.042	6374.79
738.383	6415.92
738.723	6458.18
739.063	6437.61
739.404	6501.79
739.744	6452.3
740.084	6362.59
740.424	6442.36
740.764	6429.25
741.104	6432.19
741.444	6448.69
741.784	6489.82
742.124	6450.49
742.464	6434.22
742.804	6457.5
743.143	6496.59
743.483	6485.52
743.823	6505.86
744.162	6528.46
744.502	6562.13
744.841	6500.66
745.181	6560.1
745.52	6616.82
745.86	6567.55
746.199	6628.34
746.538	6649.81
746.877	6672.41
747.216	6732.07
747.556	6727.1
747.895	6778.85
748.234	6704.5
748.573	6768.68
748.911	6799.86
749.25	6835.12
749.589	6898.62
749.928	6890.26
750.267	7016.58
750.605	6989.24
750.944	7038.28
751.283	7050.7
751.621	7092.51
751.96	7182.45
752.298	7180.19
752.636	7253.18
752.975	7306.52
753.313	7330.92
753.651	7511.71
753.989	7424.03
754.327	7495.89
754.666	7541.31
755.004	7691.59
755.342	7850.46
755.679	7830.34
756.017	7847.07
756.355	7988.76
756.693	8044.12
757.031	8091.81
757.368	8190.11
757.706	8313.72
758.044	8356.21
758.381	8407.28
758.719	8528.86
759.056	8601.17
759.394	8702.64
759.731	8725.01
760.068	8782.86
760.405	8856.98
760.743	9037.32
761.08	9140.59
761.417	9167.26
761.754	9261.27
762.091	9401.15
762.428	9468.72
762.765	9494.26
763.102	9582.84
763.438	9712.78
763.775	9747.58
764.112	9906.67
764.449	9982.38
764.785	10056.5
765.122	10101.7
765.458	10162.04
765.795	10256.27
766.131	10385.76
766.467	10390.28
766.804	10511.18
767.14	10515.92
767.476	10602.25
767.812	10606.54
768.148	10769.93
768.485	10787.33
768.821	10805.41
769.157	10851.06
769.492	10875.46
769.828	11012.63
770.164	10946.42
770.5	11088.11
770.836	11108
771.171	11154.33
771.507	11152.52
771.842	11200.43
772.178	11263.7
772.513	11313.87
772.849	11284.49
773.184	11397.26
773.519	11357.71
773.855	11404.04
774.19	11373.75
774.525	11458.27
774.86	11419.86
775.195	11512.06
775.53	11474.99
775.865	11465.73
776.2	11533.75
776.535	11453.53
776.87	11575.78
777.205	11555.67
777.539	11510.7
777.874	11541.21
778.209	11509.8
778.543	11543.69
778.878	11508.21
779.212	11578.72
779.547	11544.6
779.881	11672.5
780.215	11567.2
780.55	11585.05
780.884	11436.13
781.218	11613.07
781.552	11528.78
781.886	11542.56
782.22	11486.29
782.554	11513.41
782.888	11417.14
783.222	11465.73
783.556	11445.17
783.889	11393.87
784.223	11381.21
784.557	11366.3
784.89	11446.75
785.224	11332.4
785.557	11361.33
785.891	11261.22
786.224	11382.79
786.558	11283.59
786.891	11240.88
787.224	11206.3
787.557	11211.72
787.891	11140.77
788.224	11177.15
788.557	11157.49
788.89	11207.66
789.223	11130.82
789.556	11083.37
789.888	11082.24
790.221	11057.15
790.554	10959.53
790.887	11040.66
791.219	10944.61
791.552	10935.35
791.884	10842.92
792.217	10891.51
792.549	10880.66
792.882	10837.27
793.214	10827.55
793.546	10849.25
793.879	10756.37
794.211	10743.26
794.543	10758.4
794.875	10655.58
795.207	10745.3
795.539	10649.03
795.871	10656.94
796.203	10585.98
796.535	10576.71
796.867	10550.73
797.198	10551.86
797.53	10505.08
797.862	10441.8
798.193	10519.99
798.525	10405.64
798.856	10401.35
799.188	10332.2
799.519	10365.65
799.85	10281.35
800.182	10260.34
800.513	10304.18
800.844	10188.48
801.175	10257.85
801.506	10221.92
801.837	10196.84
802.168	10132.21
802.499	10149.15
802.83	10168.36
803.161	10092.43
803.491	10098.53
803.822	10111.41
804.153	9988.93
804.483	9899.22
804.814	9908.71
805.145	9982.15
805.475	9921.36
805.805	9889.5
806.136	9828.26
806.466	9911.87
806.796	9815.6
807.126	9736.51
807.457	9809.5
807.787	9790.07
808.117	9757.75
808.447	9654.25
808.777	9746.68
809.107	9680.01
809.436	9665.78
809.766	9659.45
810.096	9608.83
810.426	9617.42
810.755	9615.16
811.085	9564.08
811.414	9524.31
811.744	9483.63
812.073	9412.9
812.403	9473.24
812.732	9474.6
813.061	9461.26
813.39	9447.7
813.719	9358.44
814.049	9365.9
814.378	9336.75
814.707	9369.51
815.036	9354.15
815.365	9298.33
815.693	9190.54
816.022	9248.16
816.351	9214.26
816.68	9194.6
817.008	9197.54
817.337	9138.56
817.665	9033.03
817.994	9175.39
818.322	9129.75
818.651	9045.68
818.979	9024.44
819.307	9116.86
819.636	9066.47
819.964	8939.02
820.292	9012.23
820.62	8972.69
820.948	9018.11
821.276	8983.31
821.604	9003.42
821.932	9009.3
822.259	9016.3
822.587	9080.03
822.915	8969.75
823.243	9011.1
823.57	9015.4
823.898	8908.73
824.225	8848.62
824.553	8963.65
824.88	8967.72
825.207	9001.84
825.535	8989.41
825.862	8952.12
826.189	8933.59
826.516	8951.9
826.843	9041.16
827.17	9022.63
827.497	8991.22
827.824	8981.73
828.151	8995.06
828.478	8978.34
828.805	8984.66
829.131	8963.2
829.458	8953.48
829.785	8882.29
830.111	8990.77
830.438	8979.02
830.764	9014.49
831.09	9002.29
831.417	8951.9
831.743	8957.32
832.069	8981.28
832.395	8932.69
832.722	8981.5
833.048	8971.78
833.374	8949.86
833.7	8869.87
834.026	8864.44
834.351	8970.65
834.677	8947.6
835.003	8961.84
835.329	8932.69
835.654	8954.16
835.98	8895.4
836.306	8883.2
836.631	8857.21
836.956	8853.82
837.282	8911.45
837.607	8885.46
837.932	8800.94
838.258	8881.84
838.583	8849.98
838.908	8777.89
839.233	8830.32
839.558	8827.61
839.883	8709.64
840.208	8713.49
840.533	8671
840.858	8710.77
841.182	8708.74
841.507	8769.98
841.832	8630.78
842.156	8652.7
842.481	8643.88
842.805	8654.96
843.13	8628.52
843.454	8611.57
843.778	8525.24
844.103	8553.04
844.427	8516.65
844.751	8507.62
845.075	8497.9
845.399	8485.92
845.723	8443.44
846.047	8438.69
846.371	8365.02
846.695	8388.3
847.019	8295.87
847.343	8274.4
847.666	8252.25
847.99	8182.65
848.313	8206.61
848.637	8148.08
848.96	8144.01
849.284	8099.26
849.607	8057.23
849.931	8059.27
850.254	8028.98
850.577	7987.85
850.9	7924.35
851.223	7880.06
851.546	7906.28
851.869	7803.68
852.192	7800.06
852.515	7754.41
852.838	7692.04
853.161	7720.97
853.483	7700.86
853.806	7673.51
854.129	7678.03
854.451	7643.01
854.774	7620.63
855.096	7547.19
855.419	7535.66
855.741	7552.61
856.063	7535.89
856.385	7487.53
856.708	7426.29
857.03	7423.35
857.352	7458.6
857.674	7435.55
857.996	7363.69
858.318	7374.09
858.64	7362.79
858.961	7336.8
859.283	7319.17
859.605	7269
859.926	7279.4
860.248	7208.44
860.57	7160.31
860.891	7279.85
861.212	7147.43
861.534	7147.43
861.855	7191.72
862.176	7204.6
862.498	7148.1
862.819	7121.89
863.14	7048.44
863.461	7097.03
863.782	7069.01
864.103	7096.8
864.424	7090.03
864.745	7059.52
865.065	6995.11
865.386	7020.42
865.707	6976.58
866.027	7019.74
866.348	6969.58
866.668	6983.59
866.989	6972.51
867.309	6943.14
867.63	6927.54
867.95	6935.45
868.27	6889.35
868.59	6892.74
868.91	6893.87
869.23	6909.01
869.55	6843.93
869.87	6893.19
870.19	6852.07
870.51	6912.4
870.83	6875.34
871.15	6828.79
871.469	6830.37
871.789	6881.22
872.109	6816.13
872.428	6788.11
872.748	6821.33
873.067	6761.22
873.386	6763.93
873.706	6794.21
874.025	6753.99
874.344	6759.41
874.663	6739.75
874.982	6653.43
875.301	6651.62
875.62	6731.16
875.939	6649.81
876.258	6639.19
876.577	6639.42
876.896	6636.48
877.214	6605.07
877.533	6606.2
877.852	6586.31
878.17	6626.08
878.489	6637.38
878.807	6602.81
879.125	6539.08
879.444	6574.11
879.762	6575.01
880.08	6549.7
880.398	6513.54
880.716	6544.05
881.034	6483.49
881.352	6533.2
881.67	6484.62
881.988	6467.89
882.306	6430.83
882.624	6404.39
882.941	6346.99
883.259	6373.89
883.577	6398.97
883.894	6369.82
884.212	6420.89
884.529	6364.39
884.846	6346.54
885.164	6373.89
885.481	6290.95
885.798	6318.29
886.115	6274
886.432	6259.31
886.75	6235.13
887.067	6236.49
887.383	6252.99
887.7	6259.09
888.017	6242.82
888.334	6224.74
888.651	6132.54
888.967	6123.05
889.284	6203.95
889.6	6132.54
889.917	6109.94
890.233	6126.89
890.55	6043.27
890.866	6059.32
891.182	6004.4
891.498	6024.97
891.815	6023.61
892.131	5987.68
892.447	5978.87
892.763	5965.76
893.079	5936.16
893.395	5915.37
893.71	5948.36
894.026	5948.81
894.342	5883.73
894.657	5887.8
894.973	5803.28
895.289	5805.77
895.604	5831.75
895.92	5789.72
896.235	5784.3
896.55	5749.04
896.865	5757.18
897.181	5750.17
897.496	5730.29
897.811	5696.62
898.126	5647.8
898.441	5676.5
898.756	5617.07
899.071	5584.08
899.386	5525.77
899.7	5516.73
900.015	5539.33
900.33	5513.8
900.644	5485.77
900.959	5503.63
901.273	5446.68
901.588	5437.64
901.902	5420.46
902.216	5423.85
902.531	5381.14
902.845	5391.09
903.159	5338.89
903.473	5329.17
903.787	5321.48
904.101	5282.84
904.415	5239.45
904.729	5267.7
905.042	5241.26
905.356	5214.82
905.67	5210.75
905.984	5253.69
906.297	5175.73
906.611	5188.61
906.924	5155.16
907.237	5132.34
907.551	5088.04
907.864	5044.88
908.177	5080.81
908.491	5071.32
908.804	4998.78
909.117	4988.61
909.43	4987.93
909.743	4923.3
910.056	4919.24
910.368	4899.8
910.681	4915.17
910.994	4875.39
911.307	4856.64
911.619	4812.57
911.932	4861.38
912.244	4855.28
912.557	4772.35
912.869	4736.42
913.181	4749.52
913.494	4736.64
913.806	4734.83
914.118	4719.47
914.43	4702.07
914.742	4650.77
915.054	4624.1
915.366	4684.21
915.678	4651.67
915.99	4608.28
916.302	4563.31
916.613	4548.17
916.925	4557.89
917.236	4516.08
917.548	4482.64
917.859	4530.54
918.171	4442.64
918.482	4408.51
918.794	4439.25
919.105	4434.73
919.416	4384.56
919.727	4392.92
920.038	4397.67
920.349	4325.8
920.66	4353.6
920.971	4332.36
921.282	4286.71
921.593	4272.92
921.903	4255.3
922.214	4239.25
922.525	4248.97
922.835	4208.75
923.146	4159.26
923.456	4186.15
923.767	4163.32
924.077	4179.14
924.387	4101.18
924.697	4093.27
925.008	4069.31
925.318	4104.79
925.628	4064.12
925.938	4053.5
926.248	4017.56
926.558	3995.64
926.867	3987.73
927.177	3984.57
927.487	3993.16
927.796	3964.91
928.106	3939.6
928.416	3942.76
928.725	3926.49
929.034	3889.66
929.344	3914.52
929.653	3855.76
929.962	3826.38
930.271	3770.34
930.581	3820.28
930.89	3785.71
931.199	3780.28
931.508	3765.82
931.817	3751.81
932.125	3724.69
932.434	3705.93
932.743	3698.48
933.051	3706.16
933.36	3675.65
933.669	3631.36
933.977	3628.42
934.286	3654.86
934.594	3664.35
934.902	3615.09
935.21	3593.39
935.519	3589.1
935.827	3553.17
936.135	3532.83
936.443	3522.89
936.751	3508.2
937.059	3513.62
937.367	3447.41
937.674	3528.99
937.982	3496
938.29	3433.85
938.597	3481.08
938.905	3436.34
939.213	3395.43
939.52	3393.85
939.827	3450.8
940.135	3349.56
940.442	3342.1
940.749	3348.65
941.056	3351.37
941.363	3330.12
941.67	3311.37
941.977	3296.68
942.284	3271.14
942.591	3307.07
942.898	3252.84
943.205	3298.26
943.511	3231.82
943.818	3202.44
944.125	3213.07
944.431	3176.91
944.738	3171.03
945.044	3180.07
945.35	3186.85
945.657	3138.49
945.963	3105.5
946.269	3119.96
946.575	3096.01
946.881	3092.62
947.187	3082.67
947.493	3070.24
947.799	3047.19
948.105	3036.57
948.41	3018.49
948.716	3048.1
949.022	2974.65
949.327	2982.34
949.633	2982.56
949.938	2949.57
950.244	2988.66
950.549	2939.4
950.854	2908.67
951.16	2938.04
951.465	2892.85
951.77	2887.2
952.075	2848.78
952.38	2864.6
952.685	2846.07
952.99	2835.67
953.294	2880.42
953.599	2859.4
953.904	2802
954.209	2808.1
954.513	2784.38
954.818	2762
955.122	2765.39
955.426	2774.66
955.731	2724.04
956.035	2725.85
956.339	2707.32
956.643	2670.93
956.948	2674.77
957.252	2698.5
957.556	2656.47
957.86	2653.08
958.163	2651.72
958.467	2628
958.771	2626.64
959.075	2625.28
959.378	2610.14
959.682	2607.43
959.985	2614.66
960.289	2624.83
960.592	2592.74
960.896	2576.7
961.199	2545.96
961.502	2551.16
961.805	2537.6
962.108	2528.56
962.411	2548.22
962.714	2517.26
963.017	2447.89
963.32	2480.2
963.623	2453.76
963.926	2458.51
964.228	2438.4
964.531	2411.28
964.833	2430.94
965.136	2398.17
965.438	2422.8
965.741	2409.7
966.043	2383.93
966.345	2392.52
966.648	2373.09
966.95	2380.77
967.252	2321.56
967.554	2356.14
967.856	2332.41
968.158	2289.25
968.46	2324.73
968.761	2304.39
969.063	2282.69
969.365	2303.26
969.666	2303.48
969.968	2254.67
970.269	2263.26
970.571	2223.03
970.872	2242.02
971.174	2227.33
971.475	2207.44
971.776	2227.78
972.077	2200.44
972.378	2183.49
972.679	2163.38
972.98	2173.09
973.281	2169.93
973.582	2161.79
973.883	2176.71
974.183	2146.2
974.484	2110.72
974.785	2113.21
975.085	2091.06
975.386	2127.44
975.686	2083.83
975.986	2116.82
976.287	2098.97
976.587	2064.62
976.887	2045.41
977.187	2053.32
977.487	2070.5
977.787	2010.61
978.087	2037.28
978.387	1991.18
978.687	2034.57
978.987	1983.72
979.286	1995.7
979.586	2007.9
979.885	1999.09
980.185	1979.43
980.484	1957.51
980.784	1938.75
981.083	1959.31
981.382	1947.79
981.682	1954.34
981.981	1909.14
982.28	1896.94
982.579	1918.18
982.878	1910.95
983.177	1894
983.475	1897.85
983.774	1897.85
984.073	1878.86
984.372	1846.32
984.67	1840.67
984.969	1861.01
985.267	1863.5
985.566	1841.12
985.864	1813.33
986.162	1818.75
986.461	1825.98
986.759	1802.48
987.057	1798.19
987.355	1769.26
987.653	1769.26
987.951	1782.37
988.249	1770.17
988.547	1783.5
988.844	1734.46
989.142	1744.63
989.44	1745.99
989.737	1733.56
990.035	1729.26
990.332	1727.91
990.63	1710.05
990.927	1707.12
991.224	1676.61
991.521	1687
991.819	1709.38
992.116	1688.59
992.413	1663.05
992.71	1639.32
993.006	1658.98
993.303	1645.2
993.6	1671.64
993.897	1620.11
994.193	1623.28
994.49	1648.81
994.787	1588.7
995.083	1579.44
995.379	1609.49
995.676	1595.25
995.972	1577.4
996.268	1558.42
996.565	1583.28
996.861	1565.65
997.157	1568.81
997.453	1567.01
997.749	1539.21
998.044	1516.84
998.34	1519.55
998.636	1508.03
998.932	1497.86
999.227	1495.6
999.523	1500.79
999.818	1491.3
1000.114	1478.2
1000.409	1507.35
1000.704	1468.7
1001	1479.55
1001.295	1451.53
1001.59	1461.7
1001.885	1463.05
1002.18	1410.4
1002.475	1415.82
1002.77	1397.52
1003.065	1419.44
1003.359	1400.68
1003.654	1409.27
1003.949	1414.24
1004.243	1367.46
1004.538	1381.7
1004.832	1386.67
1005.127	1367.24
1005.421	1357.29
1005.715	1360.91
1006.009	1351.42
1006.304	1327.69
1006.598	1308.71
1006.892	1297.41
1007.186	1317.07
1007.48	1318.43
1007.773	1287.92
1008.067	1277.97
1008.361	1267.13
1008.655	1300.35
1008.948	1280.69
1009.242	1249.73
1009.535	1282.27
1009.829	1256.73
1010.122	1269.16
1010.415	1241.37
1010.708	1224.19
1011.001	1227.13
1011.295	1223.06
1011.588	1226.45
1011.881	1202.27
1012.173	1201.37
1012.466	1198.2
1012.759	1173.57
1013.052	1177.19
1013.344	1188.03
1013.637	1190.75
1013.93	1188.03
1014.222	1139.9
1014.514	1158.2
1014.807	1156.4
1015.099	1156.85
1015.391	1137.64
1015.683	1129.28
1015.976	1153.01
1016.268	1133.57
1016.56	1127.24
1016.851	1105.78
1017.143	1104.19
1017.435	1081.14
1017.727	1092.22
1018.018	1102.84
1018.31	1078.88
1018.602	1058.55
1018.893	1081.37
1019.185	1059.68
1019.476	1059.68
1019.767	1061.03
1020.058	1056.29
1020.35	1047.7
1020.641	1028.94
1020.932	1021.94
1021.223	1020.13
1021.514	1019.9
1021.804	1005.44
1022.095	1008.38
1022.386	990.52
1022.677	991.2
1022.967	981.03
1023.258	986.01
1023.548	969.96
1023.839	964.99
1024.129	955.5
1024.419	959.11
1024.709	946.01
1025	971.54
1025.29	946.68
1025.58	915.5
1025.87	917.76
1026.16	950.07
1026.449	932.67
1026.739	946.23
1027.029	928.38
1027.319	913.01
1027.608	898.1
1027.898	877.31
1028.187	894.71
1028.477	871.88
1028.766	886.8
1029.055	872.11
1029.344	894.26
1029.634	875.95
1029.923	883.18
1030.212	850.42
1030.501	857.65
1030.79	855.16
1031.078	827.59
1031.367	821.49
1031.656	828.72
1031.945	833.24
1032.233	807.25
1032.522	797.08
1032.81	820.36
1033.099	797.31
1033.387	798.67
1033.675	783.07
1033.963	811.09
1034.251	812.22
1034.54	835.95
1034.828	780.59
1035.116	788.27
1035.403	783.3
1035.691	760.47
1035.979	766.58
1036.267	752.79
1036.554	748.05
1036.842	767.71
1037.129	774.26
1037.417	759.57
1037.704	748.05
1037.992	748.27
1038.279	728.84
1038.566	736.52
1038.853	736.52
1039.14	736.52
