Data from hue_32_FLMS001491_00043.txt Node
Date: Tue Feb 07 17:23:26 GMT 2017
User: dcchb
Spectrometer: FLMS00149
Trigger mode: 0
Integration Time (sec): 2.000000E-2
Scans to average: 10
Electric dark correction enabled: true
Nonlinearity correction enabled: false
Boxcar width: 0
XAxis mode: Wavelengths
Number of Pixels in Spectrum: 2048
>>>>>Begin Spectral Data<<<<<
341.393	-26.55
341.776	-26.55
342.16	-26.55
342.543	-62.26
342.927	-53.67
343.31	-76.27
343.693	-61.81
344.077	-70.17
344.46	-47.12
344.843	-55.93
345.226	-43.73
345.61	-31.98
345.993	-19.1
346.376	-12.77
346.759	21.36
347.142	15.48
347.525	41.69
347.908	53.67
348.291	66.55
348.674	88.02
349.057	132.09
349.44	147.45
349.823	136.15
350.206	167.79
350.588	208.92
350.971	232.42
351.354	236.26
351.737	228.36
352.119	266.77
352.502	280.56
352.884	292.76
353.267	283.95
353.65	287.34
354.032	310.84
354.414	322.59
354.797	316.26
355.179	314.68
355.562	323.49
355.944	331.18
356.326	338.86
356.709	327.34
357.091	340.67
357.473	334.79
357.855	362.14
358.238	370.05
358.62	333.21
359.002	347.22
359.384	306.55
359.766	375.92
360.148	316.94
360.53	338.18
360.912	335.47
361.294	356.04
361.676	348.58
362.057	321.91
362.439	337.73
362.821	328.92
363.203	348.13
363.584	323.04
363.966	336.83
364.348	321.01
364.729	330.73
365.111	332.99
365.493	316.49
365.874	324.17
366.256	316.04
366.637	325.98
367.019	330.73
367.4	312.42
367.781	321.23
368.163	323.04
368.544	329.14
368.925	335.02
369.306	331.63
369.688	332.53
370.069	305.64
370.45	318.75
370.831	323.04
371.212	316.26
371.593	290.73
371.974	344.28
372.355	313.1
372.736	326.88
373.117	311.97
373.498	318.07
373.879	316.94
374.26	323.04
374.641	322.59
375.021	327.34
375.402	319.88
375.783	305.19
376.163	345.19
376.544	361.23
376.925	354.45
377.305	326.21
377.686	314.68
378.066	360.56
378.447	358.97
378.827	335.7
379.208	348.58
379.588	312.2
379.968	337.28
380.349	349.48
380.729	344.51
381.109	353.1
381.489	361.46
381.87	358.52
382.25	340.89
382.63	338.41
383.01	350.39
383.39	358.97
383.77	342.7
384.15	349.71
384.53	363.27
384.91	355.58
385.29	350.39
385.67	364.4
386.049	371.18
386.429	360.56
386.809	359.65
387.189	370.05
387.568	364.62
387.948	374.57
388.328	363.27
388.707	358.97
389.087	370.05
389.466	376.15
389.846	370.5
390.225	368.92
390.605	389.26
390.984	387.9
391.363	381.57
391.743	357.62
392.122	374.11
392.501	390.39
392.881	368.24
393.26	379.09
393.639	382.7
394.018	385.41
394.397	389.03
394.776	389.03
395.155	397.16
395.534	394
395.913	381.57
396.292	398.29
396.671	405.98
397.05	386.32
397.429	377.96
397.808	410.27
398.186	398.97
398.565	411.63
398.944	400.1
399.323	397.62
399.701	411.4
400.08	431.29
400.458	398.07
400.837	404.85
401.215	421.12
401.594	420.44
401.972	427.22
402.351	401.46
402.729	387.45
403.107	433.1
403.486	415.47
403.864	420.89
404.242	402.14
404.62	410.72
404.999	432.87
405.377	416.6
405.755	428.58
406.133	424.28
406.511	437.62
406.889	437.84
407.267	436.49
407.645	445.75
408.023	449.59
408.401	464.28
408.779	454.79
409.156	471.74
409.534	454.56
409.912	450.5
410.29	466.77
410.667	455.92
411.045	463.83
411.422	474.68
411.8	476.48
412.178	472.42
412.555	464.96
412.933	478.07
413.31	495.69
413.687	496.82
414.065	478.52
414.442	499.53
414.819	516.03
415.197	511.96
415.574	496.37
415.951	503.6
416.328	509.03
416.705	492.08
417.082	520.78
417.46	514
417.837	520.1
418.214	523.72
418.591	549.7
418.967	545.64
419.344	528.69
419.721	535.01
420.098	540.89
420.475	552.87
420.852	546.31
421.228	524.17
421.605	547.67
421.982	559.87
422.358	547.9
422.735	571.17
423.111	560.78
423.488	550.16
423.864	569.59
424.241	561.68
424.617	612.3
424.994	587.89
425.37	584.5
425.746	578.63
426.123	586.76
426.499	598.29
426.875	588.57
427.251	614.11
427.627	622.92
428.003	605.07
428.379	636.25
428.756	625.86
429.132	616.59
429.507	634.22
429.883	641.23
430.259	609.81
430.635	648.91
431.011	626.09
431.387	667.67
431.763	665.86
432.138	652.98
432.514	683.03
432.89	679.19
433.265	685.97
433.641	678.29
434.016	689.13
434.392	689.13
434.767	690.49
435.143	715.12
435.518	710.38
435.894	723.03
436.269	717.61
436.644	740.43
437.02	722.58
437.395	746.99
437.77	756.93
438.145	781.11
438.52	760.77
438.895	746.53
439.271	742.01
439.646	773.43
440.021	770.94
440.395	789.02
440.77	775.69
441.145	798.06
441.52	800.09
441.895	803.93
442.27	829.47
442.645	818.17
443.019	805.52
443.394	814.33
443.769	844.84
444.143	823.14
444.518	828.79
444.892	840.09
445.267	828.11
445.641	852.97
446.016	827.89
446.39	845.51
446.764	846.87
447.139	868.34
447.513	885.29
447.887	882.8
448.262	902.69
448.636	893.2
449.01	885.51
449.384	885.97
449.758	873.54
450.132	910.15
450.506	921.44
450.88	911.28
451.254	909.69
451.628	920.09
452.002	946.08
452.376	937.94
452.75	945.17
453.123	953.08
453.497	960.09
453.871	968
454.244	979.97
454.618	980.2
454.992	1029.01
455.365	989.24
455.739	1041.89
456.112	1037.15
456.486	1041.89
456.859	1040.31
457.232	1059.52
457.606	1081.21
457.979	1090.93
458.352	1091.38
458.725	1083.25
459.099	1099.52
459.472	1137.71
459.845	1130.93
460.218	1144.94
460.591	1175
460.964	1172.74
461.337	1174.09
461.71	1207.76
462.083	1238.27
462.456	1241.89
462.829	1224.71
463.201	1266.52
463.574	1263.58
463.947	1286.18
464.32	1270.59
464.692	1320.98
465.065	1328.21
465.438	1343.58
465.81	1350.13
466.183	1372.73
466.555	1404.6
466.928	1415.44
467.3	1372.28
467.672	1442.11
468.045	1474.2
468.417	1514.88
468.789	1486.85
469.161	1500.41
469.534	1538.83
469.906	1576.79
470.278	1559.39
470.65	1607.75
471.022	1631.03
471.394	1642.33
471.766	1726.17
472.138	1735.66
472.51	1753.74
472.882	1781.76
473.253	1811.14
473.625	1845.26
473.997	1881.87
474.369	1908.54
474.74	1924.58
475.112	1983.11
475.484	2007.29
475.855	2063.79
476.227	2062.43
476.598	2158.02
476.97	2183.11
477.341	2236.89
477.713	2275.31
478.084	2293.39
478.455	2409.77
478.827	2416.55
479.198	2487.28
479.569	2493.83
479.94	2613.83
480.311	2636.2
480.682	2699.48
481.053	2795.52
481.424	2867.83
481.795	2901.51
482.166	2965.68
482.537	2987.83
482.908	3134.72
483.279	3191.89
483.65	3238.22
484.021	3341.49
484.391	3396.41
484.762	3489.51
485.133	3497.42
485.503	3594.59
485.874	3705.1
486.244	3811.09
486.615	3893.57
486.985	3963.17
487.356	4053.79
487.726	4124.3
488.097	4238.87
488.467	4265.54
488.837	4364.29
489.207	4420.79
489.578	4621.69
489.948	4668.46
490.318	4758.18
490.688	4795.69
491.058	4938.29
491.428	5054.67
491.798	5101
492.168	5217.38
492.538	5296.47
492.908	5378.5
493.278	5477.48
493.648	5579.85
494.017	5688.1
494.387	5743.24
494.757	5792.73
495.126	5911.37
495.496	5976.9
495.866	5982.1
496.235	6178.93
496.605	6203.57
496.974	6232.27
497.344	6360.85
497.713	6486.27
498.082	6503.9
498.452	6593.61
498.821	6660.73
499.19	6690.56
499.559	6852.81
499.928	6878.8
500.298	6957.9
500.667	7031.79
501.036	7081.96
501.405	7234.05
501.774	7210.77
502.143	7279.92
502.512	7282.18
502.88	7381.16
503.249	7443.08
503.618	7518.56
503.987	7599.01
504.356	7604.88
504.724	7707.25
505.093	7707.71
505.462	7774.15
505.83	7803.07
506.199	7921.26
506.567	8046.46
506.936	8041.94
507.304	8224.53
507.672	8225.21
508.041	8269.5
508.409	8313.79
508.777	8408.93
509.145	8474.24
509.514	8512.88
509.882	8566.67
510.25	8574.35
510.618	8631.07
510.986	8714.01
511.354	8809.37
511.722	8856.38
512.09	8988.35
512.458	8899.31
512.826	9065.86
513.193	9112.42
513.561	9103.83
513.929	9192.19
514.297	9268.34
514.664	9367.78
515.032	9318.51
515.4	9461.56
515.767	9375.91
516.135	9533.2
516.502	9520.54
516.869	9596.92
517.237	9676.24
517.604	9629.01
517.972	9738.16
518.339	9807.09
518.706	9809.8
519.073	9853.41
519.44	9949.68
519.808	9972.51
520.175	10026.52
520.542	10113.75
520.909	10170.92
521.276	10223.8
521.643	10323.23
522.009	10251.82
522.376	10374.98
522.743	10466.73
523.11	10502.66
523.477	10613.39
523.843	10639.38
524.21	10711.7
524.577	10821.3
524.943	10830.11
525.31	10904.91
525.676	10972.93
526.043	11073.04
526.409	11086.6
526.776	11186.26
527.142	11261.74
527.508	11276.43
527.874	11371.57
528.241	11416.31
528.607	11471.45
528.973	11558.68
529.339	11612.24
529.705	11678.68
530.071	11840.71
530.437	11749.18
530.803	11964.32
531.169	11992.57
531.535	11955.73
531.901	12061.72
532.267	12090.42
532.632	12127.25
532.998	12204.09
533.364	12259
533.73	12333.57
534.095	12445.21
534.461	12397.53
534.826	12481.14
535.192	12615.15
535.557	12614.92
535.923	12598.2
536.288	12677.29
536.653	12753
537.019	12757.74
537.384	12812.21
537.749	12874.12
538.114	12994.57
538.479	12933.11
538.845	12968.36
539.21	12979.66
539.575	13076.38
539.94	13121.35
540.305	13249.71
540.67	13287.67
541.034	13291.51
541.399	13346.65
541.764	13427.78
542.129	13502.36
542.494	13486.09
542.858	13542.58
543.223	13531.96
543.587	13663.93
543.952	13638.17
544.316	13728.34
544.681	13765.4
545.045	13767.89
545.41	13916.81
545.774	13983.93
546.138	13987.09
546.503	14136.46
546.867	14097.6
547.231	14201.32
547.595	14229.8
547.959	14242.22
548.324	14298.72
548.688	14424.37
549.052	14423.91
549.416	14463.24
549.779	14459.85
550.143	14596.57
550.507	14657.58
550.871	14660.97
551.235	14625.49
551.599	14763.34
551.962	14805.83
552.326	14914.3
552.689	14931.02
553.053	14792.94
553.417	14989.1
553.78	15120.39
554.143	15032.94
554.507	15110.22
554.87	15179.15
555.234	15345.7
555.597	15319.71
555.96	15342.08
556.323	15309.31
556.686	15367.62
557.05	15577.56
557.413	15566.71
557.776	15568.29
558.139	15675.63
558.502	15655.75
558.865	15747.04
559.228	15777.78
559.59	15879.47
559.953	15909.07
560.316	16069.29
560.679	16048.5
561.041	16138.67
561.404	16211.44
561.767	16313.36
562.129	16175.05
562.492	16448.49
562.854	16389.74
563.217	16335.05
563.579	16489.85
563.941	16559
564.304	16518.32
564.666	16723.74
565.028	16735.04
565.39	16830.63
565.753	16893.23
566.115	16928.48
566.477	16951.08
566.839	17063.39
567.201	17058.65
567.563	17104.75
567.925	17284.4
568.287	17291.86
568.648	17412.99
569.01	17410.73
569.372	17528.92
569.734	17606.43
570.095	17591.74
570.457	17674.9
570.819	17737.95
571.18	17833.32
571.542	17860.21
571.903	18072.63
572.265	18073.54
572.626	18168.9
572.987	18227.66
573.349	18297.94
573.71	18458.84
574.071	18553.75
574.432	18575.22
574.794	18801.65
575.155	18847.53
575.516	18810.47
575.877	18928.43
576.238	19038.71
576.599	19236.67
576.96	19215.2
577.32	19332.26
577.681	19525.93
578.042	19674.4
578.403	19676.88
578.763	19831
579.124	19980.83
579.485	20162.75
579.845	20305.79
580.206	20504.21
580.566	20589.85
580.927	20722.73
581.287	20975.61
581.648	21055.6
582.008	21320.46
582.368	21484.52
582.728	21627.79
583.089	21865.3
583.449	21920.67
583.809	22196.82
584.169	22406.76
584.529	22660.31
584.889	23026.63
585.249	23156.34
585.609	23220.29
585.969	23596.78
586.329	23722.65
586.688	24075.86
587.048	24171.23
587.408	24514.72
587.768	24658.67
588.127	24806.24
588.487	25090.53
588.846	25518.31
589.206	25608.03
589.565	25797.63
589.925	26259.99
590.284	26383.6
590.643	26793.98
591.003	26960.08
591.362	27169.57
591.721	27449.79
592.08	27791.47
592.44	28111.24
592.799	28312.14
593.158	28549.64
593.517	28794.38
593.876	29072.12
594.235	29180.36
594.593	29542.39
594.952	29913.45
595.311	29995.93
595.67	30432.53
596.029	30743.26
596.387	30946.19
596.746	31347.99
597.104	31502.56
597.463	31742.33
597.822	32055.32
598.18	32186.84
598.538	32533.27
598.897	32983.65
599.255	32781.17
599.613	33455.96
599.972	33592.22
600.33	33764.42
600.688	33896.17
601.046	34158.99
601.404	34669.71
601.762	34630.39
602.12	35039.87
602.478	35355.57
602.836	35469.69
603.194	35487.32
603.552	35794.65
603.91	35757.36
604.268	36192.83
604.625	36197.35
604.983	36709.66
605.341	36693.16
605.698	37122.75
606.056	37322.07
606.413	37433.25
606.771	37595.06
607.128	37731.1
607.485	37823.98
607.843	38086.57
608.2	38358.2
608.557	38569.49
608.914	38521.13
609.272	38929.71
609.629	39076.83
609.986	39236.14
610.343	39368.8
610.7	39715.23
611.057	39757.26
611.414	39905.28
611.771	40080.64
612.127	40215.55
612.484	40289.22
612.841	40592.49
613.198	40619.61
613.554	40697.57
613.911	41106.83
614.267	41078.13
614.624	41097.34
614.98	41350.44
615.337	41532.35
615.693	41662.97
616.05	41652.13
616.406	42017.77
616.762	41882.18
617.118	42166.46
617.475	42231.09
617.831	42268.83
618.187	42437.19
618.543	42683.51
618.899	42841.02
619.255	42889.38
619.611	42915.37
619.967	43041.69
620.323	43283.72
620.678	43116.49
621.034	43159.66
621.39	43235.81
621.746	43310.61
622.101	43788.11
622.457	43558.06
622.812	43622.02
623.168	43838.96
623.523	43890.26
623.879	43977.04
624.234	43933.87
624.589	44075.79
624.945	44210.02
625.3	44299.51
625.655	44159.18
626.01	44340.19
626.365	44289.12
626.72	44309
627.075	44455.67
627.43	44488.89
627.785	44271.94
628.14	44407.76
628.495	44528.66
628.85	44514.65
629.205	44301.77
629.559	44660.41
629.914	44396.46
630.269	44608.21
630.623	44542.22
630.978	44435.78
631.332	44691.82
631.687	44847.07
632.041	44501.54
632.396	44734.98
632.75	44482.33
633.104	44643.46
633.459	44451.15
633.813	44547.19
634.167	44654.31
634.521	44676.23
634.875	44606.17
635.229	44675.55
635.583	44470.36
635.937	44602.78
636.291	44465.38
636.645	44467.19
636.999	44488.21
637.352	44589.45
637.706	44304.26
638.06	44575.21
638.413	44325.05
638.767	44344.26
639.121	44498.38
639.474	44197.59
639.828	44314.2
640.181	44331.38
640.534	44398.49
640.888	44316.69
641.241	44022.01
641.594	44154.21
641.947	44336.12
642.301	44177.48
642.654	44283.47
643.007	44135
643.36	44252.28
643.713	44102.68
644.066	44417.48
644.419	43990.37
644.771	43782.24
645.124	43399.42
645.477	43464.51
645.83	43050.05
646.182	42958.98
646.535	42988.14
646.888	42921.92
647.24	42987.01
647.593	43117.4
647.945	42936.61
648.298	42763.96
648.65	42689.39
649.002	42616.62
649.355	42718.31
649.707	42693.23
650.059	42874.92
650.411	43407.79
650.763	43388.8
651.115	43732.07
651.467	43593.54
651.819	43645.97
652.171	43517.39
652.523	43580.44
652.875	43534.11
653.227	43520.1
653.578	43667.21
653.93	43563.94
654.282	43471.51
654.633	43414.34
654.985	43464.28
655.337	43478.74
655.688	43369.14
656.039	43598.74
656.391	43266.77
656.742	43438.07
657.094	43343.61
657.445	43503.83
657.796	43434.23
658.147	43268.81
658.498	43198.07
658.849	43288.24
659.2	43284.85
659.551	43025.42
659.902	43313.32
660.253	43214.34
660.604	43172.54
660.955	43071.97
661.306	43079.21
661.656	43209.82
662.007	43147.68
662.358	43247.11
662.708	43065.87
663.059	43212.99
663.409	42881.7
663.76	43242.59
664.11	43260.44
664.461	43158.53
664.811	43239.43
665.161	43058.64
665.511	43012.09
665.862	43152.2
666.212	43259.77
666.562	43167.34
666.912	43076.72
667.262	43087.34
667.612	43070.39
667.962	43009.15
668.312	42929.83
668.662	43112.2
669.011	43022.26
669.361	43037.4
669.711	42901.81
670.06	42918.08
670.41	42858.42
670.76	42803.28
671.109	43003.95
671.459	42845.09
671.808	42817.52
672.157	42825.88
672.507	42585.21
672.856	42608.48
673.205	42691.87
673.554	42970.28
673.904	42534.59
674.253	42908.14
674.602	42687.8
674.951	42147.03
675.3	42047.14
675.649	42575.49
675.998	42654.13
676.346	42621.59
676.695	42841.02
677.044	42420.69
677.393	42637.86
677.741	42631.53
678.09	42467.7
678.438	42355.16
678.787	42516.06
679.135	42444.87
679.484	42198.1
679.832	42251.66
680.181	42138.67
680.529	42264.54
680.877	42042.17
681.225	42069.52
681.573	42311.09
681.922	41987.03
682.27	41784.78
682.618	42057.99
682.966	41776.19
683.314	41834.72
683.661	41839.92
684.009	41770.31
684.357	41551.79
684.705	41445.12
685.053	41580.49
685.4	41401.28
685.748	41293.94
686.095	41242.19
686.443	41021.63
686.79	41141.4
687.138	41129.65
687.485	41201.29
687.832	40973.27
688.18	41124.91
688.527	40936.66
688.874	40864.12
689.221	40564.92
689.568	40661.64
689.915	40478.14
690.262	40556.33
690.609	40459.84
690.956	40278.6
691.303	40418.26
691.65	40198.83
691.997	40101.66
692.344	39874.09
692.69	39783.47
693.037	39879.74
693.383	39452.41
693.73	39684.72
694.077	39470.71
694.423	39387.33
694.769	39214.9
695.116	39231.85
695.462	39183.72
695.808	39112.53
696.155	39103.04
696.501	38767.68
696.847	38837.06
697.193	38613.11
697.539	38761.13
697.885	38571.3
698.231	38489.27
698.577	38379.89
698.923	38360.91
699.269	38100.13
699.614	38000.7
699.96	37826.91
700.306	37804.32
700.651	37772.23
700.997	37625.34
701.342	37612.91
701.688	37598.67
702.033	37491.56
702.379	37502.18
702.724	37461.5
703.069	37430.77
703.415	36924.11
703.76	36977.67
704.105	37041.17
704.45	36856.77
704.795	36625.14
705.14	36597.79
705.485	36568.19
705.83	36446.61
706.175	36484.35
706.52	36334.75
706.865	36257.24
707.209	36160.07
707.554	36137.24
707.899	36026.06
708.243	35914.87
708.588	35800.75
708.932	35610.7
709.277	35593.3
709.621	35678.27
709.966	35408.9
710.31	35529.35
710.654	35259.52
710.998	35281.9
711.342	35242.8
711.687	35128.68
712.031	34944.73
712.375	34889.59
712.719	34933.88
713.063	34880.33
713.407	35045.97
713.75	34634.68
714.094	34820.21
714.438	34633.78
714.782	34652.99
715.125	34426.33
715.469	34445.08
715.812	34312.21
716.156	34149.05
716.499	34248.7
716.843	34259.33
717.186	33996.06
717.53	34099.78
717.873	34126.9
718.216	34002.61
718.559	33909.28
718.902	33521.94
719.246	33789.28
719.589	33542.73
719.932	33641.49
720.275	33550.42
720.617	33439.01
720.96	33411.21
721.303	33336.64
721.646	33436.97
721.989	33190.2
722.331	33232.46
722.674	33132.12
723.016	33213.03
723.359	33166.25
723.701	33126.7
724.044	32818.91
724.386	32730.1
724.729	32819.36
725.071	32752.92
725.413	32782.98
725.755	32803.09
726.097	32677.45
726.439	32417.11
726.782	32403.78
727.124	32660.95
727.465	32382.76
727.807	32332.6
728.149	32357
728.491	32330.79
728.833	32269.1
729.175	32222.77
729.516	32223.45
729.858	32159.04
730.199	32116.1
730.541	32013.06
730.882	32041.98
731.224	32163.79
731.565	31801.76
731.906	31886.28
732.248	31785.04
732.589	31709.56
732.93	31778.26
733.271	31572.16
733.612	31700.52
733.953	31752.27
734.294	31499.17
734.635	31494.2
734.976	31496.23
735.317	31345.96
735.658	31317.48
735.999	31410.36
736.339	31332.85
736.68	31450.59
737.021	31087.88
737.361	31103.7
737.702	31280.65
738.042	31199.97
738.383	31077.26
738.723	31071.61
739.063	31003.37
739.404	30999.75
739.744	30867.1
740.084	30821
740.424	30714.33
740.764	30727.89
741.104	30814.67
741.444	30626.88
741.784	30545.07
742.124	30580.78
742.464	30622.81
742.804	30458.07
743.143	30480.67
743.483	30359.09
743.823	30382.14
744.162	30357.51
744.502	30313.21
744.841	30176.04
745.181	30312.99
745.52	30114.58
745.86	30254.01
746.199	30137.4
746.538	30139.43
746.877	30033.9
747.216	30115.25
747.556	29914.58
747.895	29835.49
748.234	29827.13
748.573	29850.63
748.911	29695.38
749.25	29696.28
749.589	29511.88
749.928	29615.61
750.267	29707.13
750.605	29555.27
750.944	29579.22
751.283	29392.33
751.621	29553.01
751.96	29277.31
752.298	29217.42
752.636	29230.76
752.975	29251.55
753.313	29027.37
753.651	29207.25
753.989	28972.91
754.327	28978.33
754.666	28833.71
755.004	28843.87
755.342	28805.23
755.679	28802.29
756.017	28717.32
756.355	28752.35
756.693	28511.23
757.031	28526.59
757.368	28394.62
757.706	28506.48
758.044	28320.72
758.381	28355.3
758.719	28283.44
759.056	28307.62
759.394	28176.1
759.731	27938.81
760.068	27882.77
760.405	27795.99
760.743	27772.26
761.08	27845.26
761.417	27656.56
761.754	27566.62
762.091	27520.97
762.428	27474.87
762.765	27272.62
763.102	27334.31
763.438	27160.98
763.775	27032.62
764.112	27062
764.449	27168.21
764.785	26915.34
765.122	26761.67
765.458	26692.07
765.795	26736.13
766.131	26640.99
766.467	26629.02
766.804	26417.72
767.14	26253.21
767.476	26321.68
767.812	26101.12
768.148	26238.29
768.485	26047.34
768.821	25864.52
769.157	25837.17
769.492	25799.43
769.828	25711.98
770.164	25512.89
770.5	25554.24
770.836	25596.95
771.171	25356.28
771.507	25314.93
771.842	25092.33
772.178	25067.25
772.513	25049.17
772.849	24981.83
773.184	24858.44
773.519	24790.42
773.855	24743.19
774.19	24570.54
774.525	24578.45
774.86	24471.79
775.195	24473.37
775.53	24339.81
775.865	24204.22
776.2	23998.8
776.535	23852.82
776.87	23944.12
777.205	23825.25
777.539	23689.21
777.874	23648.08
778.209	23645.82
778.543	23599.27
778.878	23325.38
779.212	23377.8
779.547	23182.1
779.881	23260.52
780.215	23067.3
780.55	23084.7
780.884	22993.63
781.218	22868.21
781.552	22873.64
781.886	22636.35
782.22	22563.36
782.554	22509.8
782.888	22334.44
783.222	22274.78
783.556	22102.58
783.889	22131.28
784.223	22045.86
784.557	22012.19
784.89	22032.08
785.224	21785.75
785.557	21769.03
785.891	21739.65
786.224	21655.14
786.558	21629.37
786.891	21414.24
787.224	21271.19
787.557	21360.46
787.891	21241.81
788.224	21256.28
788.557	21140.57
788.89	21097.41
789.223	21069.62
789.556	20864.42
789.888	20866.46
790.221	20797.31
790.554	20587.37
790.887	20628.27
791.219	20550.31
791.552	20524.09
791.884	20316.41
792.217	20332.01
792.549	20292.69
792.882	20101.28
793.214	19991.9
793.546	20106.7
793.879	19915.97
794.211	19839.14
794.543	19814.51
794.875	19831.91
795.207	19865.13
795.539	19721.63
795.871	19772.93
796.203	19400.51
796.535	19409.32
796.867	19409.32
797.198	19280.96
797.53	19282.09
797.862	19272.37
798.193	19279.15
798.525	19102.66
798.856	19133.62
799.188	18843.46
799.519	18847.53
799.85	18682.11
800.182	18758.94
800.513	18743.35
800.844	18574.31
801.175	18655.89
801.506	18604.37
801.837	18514.65
802.168	18493.64
802.499	18391.27
802.83	18299.52
803.161	18269.24
803.491	18300.2
803.822	18259.97
804.153	18194.66
804.483	18071.28
804.814	18006.65
805.145	17935.01
805.475	17859.08
805.805	17871.28
806.136	17822.92
806.466	17769.14
806.796	17772.08
807.126	17589.26
807.457	17519.2
807.787	17620.21
808.117	17439.43
808.447	17401.69
808.777	17419.99
809.107	17448.24
809.436	17298.64
809.766	17290.28
810.096	17268.81
810.426	17174.12
810.755	17305.65
811.085	17086.44
811.414	17017.07
811.744	16945.43
812.073	16941.81
812.403	16905.66
812.732	16862.27
813.061	16837.41
813.39	16730.97
813.719	16726.45
814.049	16722.16
814.378	16699.33
814.707	16585.89
815.036	16627.92
815.365	16477.19
815.693	16321.49
816.022	16385.67
816.351	16279.23
816.68	16268.16
817.008	16280.81
817.337	16134.38
817.665	16078.56
817.994	16144.32
818.322	16168.05
818.651	16008.05
818.979	16037.21
819.307	15999.69
819.636	15955.17
819.964	15949.52
820.292	15987.94
820.62	15906.81
820.948	15928.51
821.276	15874.5
821.604	15802.18
821.932	15915.17
822.259	15802.41
822.587	15823.2
822.915	15756.53
823.243	15850.09
823.57	15745.24
823.898	15715.86
824.225	15781.84
824.553	15766.25
824.88	15714.28
825.207	15809.87
825.535	15655.97
825.862	15741.17
826.189	15693.26
826.516	15795.63
826.843	15816.19
827.17	15728.96
827.497	15774.16
827.824	15677.44
828.151	15764.44
828.478	15690.55
828.805	15840.83
829.131	15707.95
829.458	15747.27
829.785	15617.56
830.111	15644.45
830.438	15701.17
830.764	15705.69
831.09	15679.25
831.417	15606.48
831.743	15649.19
832.069	15690.77
832.395	15535.07
832.722	15660.27
833.048	15593.15
833.374	15532.36
833.7	15561.29
834.026	15560.83
834.351	15560.83
834.677	15577.33
835.003	15626.82
835.329	15448.97
835.654	15446.49
835.98	15548.4
836.306	15507.05
836.631	15378.47
836.956	15395.41
837.282	15376.21
837.607	15336.66
837.932	15281.07
838.258	15250.79
838.583	15228.41
838.908	15165.36
839.233	15210.79
839.558	15176.66
839.883	15121.3
840.208	15029.32
840.533	15168.98
840.858	15111.13
841.182	15066.61
841.507	15010.79
841.832	14936.9
842.156	14994.52
842.481	14993.39
842.805	14868.2
843.13	14910.68
843.454	14869.1
843.778	14839.72
844.103	14724.92
844.427	14672.5
844.751	14711.82
845.075	14715.21
845.399	14618.71
845.723	14584.81
846.047	14489.68
846.371	14421.65
846.695	14424.82
847.019	14271.15
847.343	14256.69
847.666	14182.34
847.99	14104.37
848.313	14151.83
848.637	13998.84
848.96	14008.11
849.284	13916.81
849.607	13815.57
849.931	13833.87
850.254	13767.66
850.577	13672.97
850.9	13563.15
851.223	13573.09
851.546	13584.84
851.869	13384.62
852.192	13508.23
852.515	13288.8
852.838	13290.16
853.161	13278.86
853.483	13218.3
853.806	13197.51
854.129	13151.18
854.451	13048.81
854.774	12936.5
855.096	12983.27
855.419	12982.37
855.741	12996.38
856.063	12873.9
856.385	12879.32
856.708	12811.75
857.03	12761.13
857.352	12751.42
857.674	12723.62
857.996	12694.92
858.318	12573.57
858.64	12603.17
858.961	12602.72
859.283	12546
859.605	12451.31
859.926	12433.68
860.248	12526.11
860.57	12372.67
860.891	12396.62
861.212	12300.58
861.534	12281.82
861.855	12262.62
862.176	12230.53
862.498	12229.4
862.819	12179
863.14	12086.57
863.461	12098.78
863.782	12004.09
864.103	12144.65
864.424	12049.06
864.745	12103.75
865.065	11982.85
865.386	11932.23
865.707	11953.92
866.027	11986.69
866.348	11887.71
866.668	11949.18
866.989	11882.29
867.309	11813.14
867.63	11814.04
867.95	11820.82
868.27	11722.29
868.59	11752.57
868.91	11717.09
869.23	11693.36
869.55	11665.79
869.87	11616.08
870.19	11679.58
870.51	11708.28
870.83	11735.85
871.15	11628.51
871.469	11595.29
871.789	11590.09
872.109	11591.22
872.428	11507.83
872.748	11527.72
873.067	11466.25
873.386	11522.3
873.706	11435.07
874.025	11403.2
874.344	11412.24
874.663	11454.28
874.982	11339.93
875.301	11296.09
875.62	11329.53
875.939	11314.39
876.258	11326.82
876.577	11289.31
876.896	11239.37
877.214	11212.7
877.533	11233.26
877.852	11217.45
878.17	11172.7
878.489	11237.78
878.807	11159.37
879.125	11137.22
879.444	11139.93
879.762	11113.49
880.08	11111.01
880.398	11055.64
880.716	11014.96
881.034	10991.24
881.352	10972.25
881.67	10927.51
881.988	10982.42
882.306	10912.82
882.624	10885.7
882.941	10844.35
883.259	10837.79
883.577	10864.01
883.894	10819.26
884.212	10799.6
884.529	10723.9
884.846	10710.11
885.164	10682.09
885.481	10656.56
885.798	10698.36
886.115	10536.56
886.432	10546.5
886.75	10535.66
887.067	10569.33
887.383	10504.47
887.7	10521.87
888.017	10462.21
888.334	10400.07
888.651	10439.84
888.967	10357.58
889.284	10391.48
889.6	10330.46
889.917	10287.53
890.233	10301.31
890.55	10213.63
890.866	10212.5
891.182	10220.64
891.498	10133.63
891.815	10174.53
892.131	10104.25
892.447	10005.27
892.763	9992.17
893.079	10059.06
893.395	9973.86
893.71	9970.92
894.026	9992.39
894.342	9897.71
894.657	9829.69
894.973	9815.9
895.289	9790.59
895.604	9791.72
895.92	9750.14
896.235	9721.89
896.55	9720.54
896.865	9673.98
897.181	9626.75
897.496	9605.96
897.811	9596.7
898.126	9522.8
898.441	9466.98
898.756	9361.67
899.071	9370.94
899.386	9432.18
899.7	9332.97
900.015	9306.53
900.33	9168.46
900.644	9254.11
900.959	9210.94
901.273	9165.3
901.588	9162.58
901.902	9074
902.216	9059.31
902.531	9033.1
902.845	9009.82
903.159	8943.61
903.473	8966.88
903.787	8861.57
904.101	8812.76
904.415	8810.05
904.729	8783.61
905.042	8782.25
905.356	8744.97
905.67	8710.39
905.984	8707.68
906.297	8670.17
906.611	8622.94
906.924	8590.85
907.237	8538.87
907.551	8547.01
907.864	8543.39
908.177	8531.41
908.491	8408.25
908.804	8467.23
909.117	8320.12
909.43	8262.27
909.743	8270.18
910.056	8275.15
910.368	8249.16
910.681	8201.48
910.994	8184.08
911.307	8140.01
911.619	8105.89
911.932	8110.41
912.244	8046
912.557	7989.96
912.869	7999.9
913.181	7918.77
913.494	7921.49
913.806	7857.31
914.118	7847.36
914.43	7761.26
914.742	7737.31
915.054	7766.46
915.366	7755.39
915.678	7651.21
915.99	7653.47
916.302	7563.3
916.613	7546.58
916.925	7574.83
917.236	7532.57
917.548	7444.89
917.859	7496.64
918.171	7390.43
918.482	7386.36
918.794	7364.44
919.105	7329.19
919.416	7269.3
919.727	7289.64
920.038	7212.35
920.349	7167.61
920.66	7182.97
920.971	7188.17
921.282	7110.66
921.593	7056.42
921.903	7019.14
922.214	7000.61
922.525	6999.03
922.835	6959.48
923.146	6921.51
923.456	6894.17
923.767	6824.34
924.077	6868.63
924.387	6805.81
924.697	6801.74
925.008	6734.63
925.318	6702.99
925.628	6693.04
925.938	6622.99
926.248	6565.36
926.558	6620.73
926.867	6604.91
927.177	6554.52
927.487	6456.44
927.796	6522.2
928.106	6403.11
928.416	6390.45
928.725	6386.84
929.034	6357.69
929.344	6418.93
929.653	6379.61
929.962	6267.97
930.271	6232.27
930.581	6230.91
930.89	6249.44
931.199	6149.78
931.508	6154.98
931.817	6149.33
932.125	6136.22
932.434	6131.25
932.743	6085.83
933.051	6004.7
933.36	6009.9
933.669	5942.1
933.977	5959.28
934.286	5924.7
934.594	5942.56
934.902	5879.28
935.21	5857.13
935.519	5799.96
935.827	5780.53
936.135	5811.94
936.443	5709.34
936.751	5740.3
937.059	5674.09
937.367	5696.69
937.674	5655.56
937.982	5587.08
938.29	5591.83
938.597	5635.9
938.905	5549.8
939.213	5523.36
939.52	5516.58
939.827	5504.15
940.135	5491.27
940.442	5399.29
940.749	5371.05
941.056	5403.13
941.363	5332.85
941.67	5338.73
941.977	5293.76
942.284	5245.4
942.591	5284.72
942.898	5254.66
943.205	5279.75
943.511	5193.65
943.818	5194.55
944.125	5124.95
944.431	5126.53
944.738	5153.65
945.044	5143.48
945.35	5056.03
945.657	5087.21
945.963	4982.81
946.269	4974.45
946.575	5010.15
946.881	4918.85
947.187	4932.64
947.493	4919.08
947.799	4900.32
948.105	4893.09
948.41	4863.04
948.716	4876.82
949.022	4839.53
949.327	4790.72
949.633	4792.53
949.938	4754.34
950.244	4771.29
950.549	4703.72
950.854	4687.22
951.16	4674.11
951.465	4645.64
951.77	4616.04
952.075	4629.6
952.38	4583.04
952.685	4570.16
952.99	4508.7
953.294	4540.78
953.599	4517.73
953.904	4490.16
954.209	4409.26
954.513	4440.67
954.818	4394.35
955.122	4421.69
955.426	4402.26
955.731	4356.38
956.035	4357.06
956.339	4332.88
956.643	4333.78
956.948	4327.23
957.252	4304.86
957.556	4246.1
957.86	4249.94
958.163	4227.57
958.467	4178.31
958.771	4161.13
959.075	4153
959.378	4156.16
959.682	4106.9
959.985	4138.54
960.289	4085.43
960.592	4103.51
960.896	4026.67
961.199	4020.12
961.502	4012.66
961.805	3977.64
962.108	3990.06
962.411	4001.36
962.714	3933.12
963.017	3948.71
963.32	3939.9
963.623	3924.98
963.926	3887.47
964.228	3885.21
964.531	3853.57
964.833	3813.35
965.136	3815.15
965.438	3858.32
965.741	3787.58
966.043	3762.27
966.345	3769.51
966.648	3780.35
966.95	3761.6
967.252	3717.3
967.554	3682.05
967.856	3663.52
968.158	3644.76
968.46	3648.6
968.761	3604.76
969.063	3580.58
969.365	3616.97
969.666	3614.71
969.968	3553.47
970.269	3559.34
970.571	3524.77
970.872	3493.35
971.174	3494.26
971.475	3461.72
971.776	3467.14
972.077	3405.9
972.378	3425.11
972.679	3408.38
972.98	3444.77
973.281	3404.32
973.582	3376.07
973.883	3373.81
974.183	3383.75
974.484	3398.44
974.785	3318.22
975.085	3308.5
975.386	3303.53
975.686	3270.08
975.986	3296.3
976.287	3263.3
976.587	3256.52
976.887	3177.2
977.187	3190.54
977.487	3200.48
977.787	3181.95
978.087	3152.35
978.387	3182.4
978.687	3131.1
978.987	3122.74
979.286	3138.11
979.586	3122.74
979.885	3057.21
980.185	3066.47
980.484	2986.25
980.784	3036.64
981.083	3066.02
981.382	3037.32
981.682	2979.24
981.981	2943.31
982.28	2946.7
982.579	2946.48
982.878	2972.69
983.177	2969.98
983.475	2931.34
983.774	2894.95
984.073	2900.83
984.372	2901.05
984.67	2917.32
984.969	2864.67
985.267	2862.18
985.566	2852.24
985.864	2768.4
986.162	2808.4
986.461	2778.8
986.759	2783.09
987.057	2752.13
987.355	2728.4
987.653	2740.83
987.951	2718.23
988.249	2717.33
988.547	2696.77
988.844	2667.84
989.142	2683.66
989.44	2669.87
989.737	2667.39
990.035	2638.46
990.332	2661.29
990.63	2596.65
990.927	2615.19
991.224	2599.59
991.521	2565.47
991.819	2594.85
992.116	2565.47
992.413	2550.55
992.71	2539.26
993.006	2531.35
993.303	2515.98
993.6	2466.71
993.897	2509.65
994.193	2476.21
994.49	2477.34
994.787	2429.65
995.083	2422.42
995.379	2393.5
995.676	2426.49
995.972	2385.81
996.268	2414.96
996.565	2362.54
996.861	2391.91
997.157	2340.62
997.453	2361.41
997.749	2371.35
998.044	2304.69
998.34	2330
998.636	2309.88
998.932	2296.55
999.227	2284.35
999.523	2266.95
999.818	2257.91
1000.114	2243.44
1000.409	2201.19
1000.704	2203.9
1001	2236.66
1001.295	2213.84
1001.59	2174.07
1001.885	2159.83
1002.18	2159.6
1002.475	2140.17
1002.77	2163.45
1003.065	2126.38
1003.359	2125.03
1003.654	2119.15
1003.949	2100.17
1004.243	2076.67
1004.538	2072.6
1004.832	2057.23
1005.127	2062.43
1005.421	1997.35
1005.715	2031.25
1006.009	2037.12
1006.304	1987.63
1006.598	1983.56
1006.892	1993.51
1007.186	1969.55
1007.48	1954.41
1007.773	1967.97
1008.067	1934.53
1008.361	1930.01
1008.655	1937.69
1008.948	1913.73
1009.242	1884.36
1009.535	1885.04
1009.829	1855.66
1010.122	1880.74
1010.415	1848.65
1010.708	1827.41
1011.001	1821.08
1011.295	1810.23
1011.588	1810.91
1011.881	1816.79
1012.173	1796.45
1012.466	1774.08
1012.759	1757.58
1013.052	1756.68
1013.344	1735.43
1013.637	1763.23
1013.93	1697.92
1014.222	1743.57
1014.514	1719.16
1014.807	1692.27
1015.099	1696.34
1015.391	1669.67
1015.683	1662.44
1015.976	1653.18
1016.268	1640.52
1016.56	1620.86
1016.851	1603.91
1017.143	1647.75
1017.435	1585.61
1017.727	1563.46
1018.018	1577.25
1018.31	1566.85
1018.602	1575.89
1018.893	1533.41
1019.185	1539.06
1019.476	1523.24
1019.767	1536.12
1020.058	1498.15
1020.35	1520.98
1020.641	1483.46
1020.932	1466.06
1021.223	1451.15
1021.514	1476.46
1021.804	1415.44
1022.095	1459.51
1022.386	1424.03
1022.677	1411.38
1022.967	1402.11
1023.258	1382.22
1023.548	1377.25
1023.839	1385.84
1024.129	1381.09
1024.419	1349.23
1024.709	1351.72
1025	1341.32
1025.29	1349.68
1025.58	1328.21
1025.87	1334.09
1026.16	1331.6
1026.449	1328.67
1026.739	1280.08
1027.029	1298.84
1027.319	1278.27
1027.608	1286.18
1027.898	1308.33
1028.187	1257.48
1028.477	1252.28
1028.766	1245.28
1029.055	1239.4
1029.344	1223.13
1029.634	1227.43
1029.923	1206.18
1030.212	1219.06
1030.501	1199.4
1030.79	1216.35
1031.078	1205.73
1031.367	1152.63
1031.656	1152.63
1031.945	1158.5
1032.233	1138.16
1032.522	1138.61
1032.81	1130.93
1033.099	1104.49
1033.387	1141.55
1033.675	1142
1033.963	1102.23
1034.251	1100.2
1034.54	1091.61
1034.828	1085.28
1035.116	1094.55
1035.403	1068.56
1035.691	1060.65
1035.979	1060.65
1036.267	1030.37
1036.554	1044.15
1036.842	1023.81
1037.129	1034.89
1037.417	1014.1
1037.704	1019.07
1037.992	1000.76
1038.279	968.9
1038.566	955.57
1038.853	955.57
1039.14	955.57
