Data from hue_160_FLMS001491_00032.txt Node
Date: Tue Feb 07 16:51:05 GMT 2017
User: dcchb
Spectrometer: FLMS00149
Trigger mode: 0
Integration Time (sec): 2.000000E-2
Scans to average: 10
Electric dark correction enabled: true
Nonlinearity correction enabled: false
Boxcar width: 0
XAxis mode: Wavelengths
Number of Pixels in Spectrum: 2048
>>>>>Begin Spectral Data<<<<<
341.393	-14.72
341.776	-14.72
342.16	-14.72
342.543	-55.39
342.927	-64.89
343.31	-77.31
343.693	-67.82
344.077	-83.19
344.46	-61.04
344.843	-56.75
345.226	-29.63
345.61	-31.44
345.993	-16.75
346.376	-18.78
346.759	2.91
347.142	24.6
347.525	39.29
347.908	63.92
348.291	87.43
348.674	106.86
349.057	117.71
349.44	138.73
349.823	145.28
350.206	173.3
350.588	215.56
350.971	197.93
351.354	229.57
351.737	244.71
352.119	251.49
352.502	254.65
352.884	281.09
353.267	287.65
353.65	306.18
354.032	336.01
354.414	310.25
354.797	312.28
355.179	304.6
355.562	315.67
355.944	319.74
356.326	356.57
356.709	322.22
357.091	315.67
357.473	345.73
357.855	338.27
358.238	329
358.62	357.93
359.002	347.08
359.384	343.24
359.766	338.72
360.148	344.14
360.53	331.49
360.912	337.36
361.294	329.68
361.676	326.74
362.057	323.13
362.439	338.27
362.821	315.9
363.203	330.13
363.584	305.27
363.966	334.43
364.348	314.77
364.729	334.88
365.111	326.06
365.493	337.14
365.874	332.62
366.256	332.84
366.637	293.07
367.019	301.88
367.4	312.05
367.781	312.05
368.163	304.82
368.544	308.89
368.925	316.8
369.306	310.02
369.688	300.53
370.069	323.81
370.45	311.15
370.831	322.68
371.212	317.25
371.593	311.15
371.974	322.22
372.355	316.35
372.736	344.82
373.117	333.75
373.498	303.47
373.879	318.83
374.26	296.46
374.641	327.65
375.021	325.61
375.402	332.17
375.783	333.07
376.163	316.8
376.544	343.24
376.925	327.19
377.305	319.74
377.686	337.82
378.066	320.19
378.447	322.45
378.827	347.31
379.208	322.22
379.588	322
379.968	343.01
380.349	321.77
380.729	342.56
381.109	340.08
381.489	326.52
381.87	358.61
382.25	331.49
382.63	359.51
383.01	331.94
383.39	359.74
383.77	325.84
384.15	333.52
384.53	345.5
384.91	323.35
385.29	335.78
385.67	344.6
386.049	346.63
386.429	332.84
386.809	359.74
387.189	369.23
387.568	374.43
387.948	343.47
388.328	339.17
388.707	359.74
389.087	335.1
389.466	365.39
389.846	368.55
390.225	375.33
390.605	350.7
390.984	373.75
391.363	353.86
391.743	354.54
392.122	359.51
392.501	343.24
392.881	368.1
393.26	341.88
393.639	364.26
394.018	359.74
394.397	369
394.776	386.18
395.155	392.05
395.534	381.88
395.913	362.9
396.292	391.37
396.671	376.23
397.05	360.41
397.429	376.69
397.808	390.02
398.186	373.97
398.565	412.62
398.944	382.56
399.323	411.94
399.701	394.76
400.08	390.7
400.458	409.23
400.837	385.27
401.215	386.85
401.594	391.83
401.972	410.13
402.351	399.74
402.729	392.28
403.107	384.82
403.486	397.48
403.864	409.23
404.242	389.79
404.62	401.09
404.999	434.08
405.377	422.79
405.755	430.92
406.133	406.97
406.511	382.79
406.889	423.24
407.267	421.88
407.645	443.35
408.023	436.34
408.401	429.79
408.779	418.04
409.156	427.08
409.534	434.54
409.912	435.44
410.29	434.76
410.667	446.74
411.045	452.39
411.422	448.32
411.8	444.71
412.178	467.53
412.555	456.46
412.933	473.18
413.31	460.98
413.687	459.62
414.065	451.49
414.442	458.72
414.819	464.37
415.197	481.77
415.574	482.22
415.951	485.38
416.328	484.48
416.705	478.38
417.082	489.9
417.46	500.07
417.837	503.69
418.214	504.59
418.591	521.99
418.967	511.6
419.344	500.52
419.721	512.05
420.098	518.15
420.475	523.57
420.852	507.53
421.228	550.01
421.605	519.51
421.982	535.1
422.358	556.34
422.735	531.48
423.111	551.6
423.488	545.95
423.864	557.25
424.241	571.48
424.617	544.14
424.994	566.51
425.37	569.45
425.746	568.77
426.123	556.79
426.499	574.19
426.875	599.5
427.251	589.11
427.627	585.72
428.003	601.54
428.379	598.15
428.756	586.17
429.132	630.01
429.507	621.2
429.883	613.74
430.259	631.37
430.635	638.6
431.011	626.17
431.387	616.23
431.763	629.11
432.138	652.61
432.514	663.46
432.89	650.35
433.265	664.14
433.641	675.89
434.016	678.15
434.392	660.52
434.767	685.38
435.143	705.04
435.518	681.31
435.894	697.58
436.269	686.73
436.644	696.9
437.02	724.92
437.395	720.4
437.77	733.06
438.145	735.32
438.52	753.85
438.895	765.83
439.271	753.62
439.646	764.47
440.021	772.83
440.395	797.01
440.77	736.9
441.145	774.19
441.52	773.06
441.895	794.75
442.27	830.91
442.645	783.23
443.019	814.41
443.394	811.02
443.769	833.4
444.143	826.16
444.518	805.15
444.892	820.97
445.267	836.33
445.641	854.41
446.016	848.31
446.39	856.45
446.764	832.04
447.139	830.91
447.513	864.81
447.887	885.15
448.262	877.91
448.636	868.65
449.01	903.45
449.384	886.73
449.758	898.93
450.132	907.52
450.506	896.9
450.88	901.42
451.254	931.25
451.628	954.07
452.002	972.15
452.376	967.63
452.75	960.4
453.123	971.92
453.497	995.88
453.871	979.38
454.244	994.07
454.618	1022.09
454.992	1048.31
455.365	1013.96
455.739	1051.47
456.112	1061.86
456.486	1072.03
456.859	1091.69
457.232	1073.62
457.606	1093.05
457.979	1109.55
458.352	1126.72
458.725	1112.03
459.099	1126.95
459.472	1150.9
459.845	1175.76
460.218	1191.13
460.591	1196.55
460.964	1184.57
461.337	1203.33
461.71	1243.55
462.083	1267.74
462.456	1281.29
462.829	1267.74
463.201	1301.41
463.574	1311.12
463.947	1320.16
464.32	1338.24
464.692	1361.52
465.065	1382.53
465.438	1412.82
465.81	1418.01
466.183	1429.76
466.555	1460.95
466.928	1487.39
467.3	1503.44
467.672	1517.45
468.045	1552.02
468.417	1538.46
468.789	1570.55
469.161	1627.27
469.534	1661.4
469.906	1653.26
470.278	1721.96
470.65	1704.56
471.022	1752.92
471.394	1820.26
471.766	1813.71
472.138	1823.65
472.51	1900.71
472.882	1959.92
473.253	1976.87
473.625	2023.87
473.997	2080.37
474.369	2101.39
474.74	2123.53
475.112	2189.07
475.484	2226.81
475.855	2300.48
476.227	2312.68
476.598	2405.56
476.97	2459.79
477.341	2514.93
477.713	2572.56
478.084	2609.62
478.455	2724.19
478.827	2756.28
479.198	2816.39
479.569	2880.57
479.94	2950.18
480.311	3005.77
480.682	3138.87
481.053	3215.03
481.424	3340.45
481.795	3365.53
482.166	3476.72
482.537	3549.48
482.908	3637.16
483.279	3734.34
483.65	3836.93
484.021	3950.83
484.391	4036.7
484.762	4141.11
485.133	4186.75
485.503	4330.48
485.874	4426.75
486.244	4529.8
486.615	4643.47
486.985	4768.43
487.356	4907.64
487.726	4959.84
488.097	5185.82
488.467	5198.48
488.837	5385.82
489.207	5481.86
489.578	5598.69
489.948	5673.27
490.318	5835.3
490.688	5956.65
491.058	6088.85
491.428	6139.92
491.798	6297.66
492.168	6564.32
492.538	6581.95
492.908	6680.02
493.278	6809.28
493.648	6848.15
494.017	7023.06
494.387	7105.32
494.757	7185.55
495.126	7370.17
495.496	7436.61
495.866	7492.2
496.235	7684.52
496.605	7749.15
496.974	7877.96
497.344	7945.98
497.713	8098.52
498.082	8173.77
498.452	8337.83
498.821	8403.82
499.19	8517.04
499.559	8562.46
499.928	8651.27
500.298	8736.01
500.667	8906.86
501.036	8873.41
501.405	9014.88
501.774	9031.15
502.143	9100.75
502.512	9179.39
502.88	9299.84
503.249	9438.37
503.618	9444.7
503.987	9477.46
504.356	9514.07
504.724	9636.55
505.093	9632.94
505.462	9674.52
505.83	9823.44
506.199	9853.05
506.567	10037.22
506.936	10007.17
507.304	10146.37
507.672	10142.98
508.041	10209.19
508.409	10326.71
508.777	10316.54
509.145	10385.46
509.514	10453.03
509.882	10475.18
510.25	10493.26
510.618	10558.79
510.986	10578.45
511.354	10668.62
511.722	10702.52
512.09	10884.21
512.458	10747.03
512.826	10881.72
513.193	10841.27
513.561	10928.5
513.929	10973.02
514.297	11019.34
514.664	11166.46
515.032	11107.7
515.4	11156.29
515.767	11161.71
516.135	11173.01
516.502	11168.49
516.869	11274.7
517.237	11191.09
517.604	11260.01
517.972	11314.02
518.339	11327.81
518.706	11403.06
519.073	11395.15
519.44	11374.59
519.808	11478.99
520.175	11410.07
520.542	11526.67
520.909	11565.54
521.276	11454.13
521.643	11580.01
522.009	11579.33
522.376	11615.03
522.743	11664.52
523.11	11689.61
523.477	11785.88
523.843	11774.8
524.21	11765.31
524.577	11885.31
524.943	11918.3
525.31	11869.04
525.676	11934.35
526.043	12047.56
526.409	11975.02
526.776	12058.19
527.142	12023.38
527.508	12037.85
527.874	12083.72
528.241	12033.1
528.607	11987.23
528.973	12084.85
529.339	11984.06
529.705	12079.2
530.071	12101.57
530.437	12096.38
530.803	12112.2
531.169	12040.79
531.535	12008.24
531.901	11969.83
532.267	11992.2
532.632	12041.69
532.998	12032.88
533.364	12078.98
533.73	12018.41
534.095	12053.89
534.461	11908.59
534.826	12014.57
535.192	11977.28
535.557	12010.5
535.923	11940.67
536.288	11954.23
536.653	11930.05
537.019	11880.56
537.384	11800.11
537.749	11888.25
538.114	11759.21
538.479	11737.29
538.845	11709.49
539.21	11682.15
539.575	11575.71
539.94	11604.19
540.305	11660.46
540.67	11613.68
541.034	11518.99
541.399	11533.68
541.764	11487.35
542.129	11403.74
542.494	11380.92
542.858	11429.95
543.223	11380.24
543.587	11399.22
543.952	11304.76
544.316	11299.56
544.681	11257.98
545.045	11265.66
545.41	11217.3
545.774	11189.96
546.138	11146.57
546.503	11105.22
546.867	11119
547.231	11116.74
547.595	11075.16
547.959	11011.66
548.324	10976.41
548.688	10940.7
549.052	10940.93
549.416	10944.54
549.779	10830.2
550.143	10801.04
550.507	10810.53
550.871	10795.62
551.235	10706.58
551.599	10740.71
551.962	10728.28
552.326	10620.03
552.689	10656.19
553.053	10567.6
553.417	10594.5
553.78	10708.62
554.143	10572.12
554.507	10565.57
554.87	10576.87
555.234	10630.2
555.597	10559.02
555.96	10594.72
556.323	10556.3
556.686	10536.87
557.05	10544.1
557.413	10480.37
557.776	10409.87
558.139	10443.76
558.502	10423.88
558.865	10455.52
559.228	10382.52
559.59	10450.09
559.953	10352.69
560.316	10449.64
560.679	10438.57
561.041	10407.16
561.404	10391.34
561.767	10498.68
562.129	10376.65
562.492	10446.7
562.854	10457.32
563.217	10387.72
563.579	10436.53
563.941	10459.58
564.304	10472.69
564.666	10530.77
565.028	10523.54
565.39	10451.67
565.753	10485.12
566.115	10526.7
566.477	10507.72
566.839	10489.64
567.201	10611.9
567.563	10523.99
567.925	10524.67
568.287	10568.96
568.648	10538.23
569.01	10563.08
569.372	10641.05
569.734	10536.19
570.095	10653.02
570.457	10680.59
570.819	10623.2
571.18	10625.91
571.542	10609.18
571.903	10630.65
572.265	10634.27
572.626	10600.6
572.987	10699.13
573.349	10732.57
573.71	10679.92
574.071	10680.82
574.432	10735.96
574.794	10731.44
575.155	10784.09
575.516	10697.54
575.877	10661.16
576.238	10703.87
576.599	10728.05
576.96	10760.82
577.32	10722.18
577.681	10790.87
578.042	10769.86
578.403	10775.06
578.763	10752.46
579.124	10760.37
579.485	10863.87
579.845	10790.87
580.206	10742.51
580.566	10762.17
580.927	10735.28
581.287	10752.01
581.648	10763.76
582.008	10785.45
582.368	10745.68
582.728	10813.7
583.089	10711.33
583.449	10792.46
583.809	10755.62
584.169	10747.49
584.529	10710.88
584.889	10787.71
585.249	10763.3
585.609	10656.87
585.969	10711.1
586.329	10674.95
586.688	10728.28
587.048	10676.75
587.408	10684.66
587.768	10613.93
588.127	10672.91
588.487	10593.14
588.846	10597.21
589.206	10603.53
589.565	10611.9
589.925	10638.34
590.284	10561.95
590.643	10589.75
591.003	10626.58
591.362	10619.13
591.721	10621.84
592.08	10476.98
592.44	10601.5
592.799	10584.55
593.158	10545.23
593.517	10549.07
593.876	10572.12
594.235	10529.19
594.593	10522.63
594.952	10559.69
595.311	10476.76
595.67	10581.84
596.029	10584.33
596.387	10569.86
596.746	10598.56
597.104	10555.85
597.463	10580.26
597.822	10526.7
598.18	10441.73
598.538	10369.42
598.897	10558.79
599.255	10427.49
599.613	10673.59
599.972	10497.77
600.33	10530.77
600.688	10476.31
601.046	10511.33
601.404	10479.7
601.762	10500.71
602.12	10556.3
602.478	10521.95
602.836	10469.08
603.194	10492.35
603.552	10473.37
603.91	10493.93
604.268	10559.69
604.625	10429.53
604.983	10574.16
605.341	10453.48
605.698	10583.65
606.056	10514.27
606.413	10502.07
606.771	10522.18
607.128	10572.58
607.485	10466.59
607.843	10510.88
608.2	10598.79
608.557	10633.14
608.914	10561.05
609.272	10567.38
609.629	10570.99
609.986	10680.14
610.343	10573.48
610.7	10663.65
611.057	10628.62
611.414	10624.1
611.771	10557.43
612.127	10675.4
612.484	10633.36
612.841	10712.68
613.198	10674.95
613.554	10687.15
613.911	10711.78
614.267	10690.09
614.624	10643.76
614.98	10690.31
615.337	10754.27
615.693	10724.21
616.05	10674.04
616.406	10718.56
616.762	10663.19
617.118	10771.44
617.475	10709.52
617.831	10812.12
618.187	10833.81
618.543	10756.75
618.899	10877.88
619.255	10782.06
619.611	10787.94
619.967	10765.56
620.323	10813.02
620.678	10759.69
621.034	10716.98
621.39	10815.51
621.746	10758.11
622.101	10912.45
622.457	10743.64
622.812	10852.34
623.168	10777.99
623.523	10821.83
623.879	10768.95
624.234	10783.42
624.589	10813.7
624.945	10839.23
625.3	10787.03
625.655	10827.94
626.01	10876.97
626.365	10817.09
626.72	10809.41
627.075	10701.39
627.43	10771.21
627.785	10713.14
628.14	10801.72
628.495	10797.2
628.85	10827.48
629.205	10664.78
629.559	10780.48
629.914	10759.69
630.269	10676.75
630.623	10698.67
630.978	10657.54
631.332	10756.3
631.687	10756.98
632.041	10668.17
632.396	10676.3
632.75	10545.91
633.104	10657.32
633.459	10634.95
633.813	10651.67
634.167	10631.33
634.521	10556.98
634.875	10675.17
635.229	10721.72
635.583	10609.86
635.937	10573.71
636.291	10608.28
636.645	10564.67
636.999	10525.8
637.352	10607.6
637.706	10472.92
638.06	10516.08
638.413	10497.77
638.767	10453.03
639.121	10503.65
639.474	10450.32
639.828	10426.14
640.181	10382.07
640.534	10399.7
640.888	10422.75
641.241	10360.6
641.594	10387.04
641.947	10423.88
642.301	10334.84
642.654	10366.7
643.007	10386.14
643.36	10405.57
643.713	10342.52
644.066	10351.79
644.419	10309.76
644.771	10315.63
645.124	10215.52
645.477	10093.72
645.83	10099.37
646.182	10041.74
646.535	10058.92
646.888	10041.97
647.24	10002.87
647.593	10024.79
647.945	10025.47
648.298	10077.9
648.65	9985.92
649.002	9929.88
649.355	10025.47
649.707	9975.98
650.059	10013.72
650.411	10191.34
650.763	10161.74
651.115	10243.09
651.467	10184.79
651.819	10227.95
652.171	10259.14
652.523	10134.17
652.875	10203.32
653.227	10195.86
653.578	10273.37
653.93	10189.76
654.282	10101.4
654.633	10175.52
654.985	10133.94
655.337	10234.05
655.688	10178.91
656.039	10220.72
656.391	10112.7
656.742	10144.56
657.094	10220.27
657.445	10238.8
657.796	10182.08
658.147	10232.92
658.498	10189.08
658.849	10206.48
659.2	10194.28
659.551	10150.89
659.902	10194.73
660.253	10238.8
660.604	10228.18
660.955	10151.57
661.306	10188.63
661.656	10229.76
662.007	10208.97
662.358	10250.78
662.708	10256.65
663.059	10208.74
663.409	10102.08
663.76	10237.89
664.11	10214.62
664.461	10259.14
664.811	10214.84
665.161	10234.28
665.511	10152.02
665.862	10263.2
666.212	10317.89
666.562	10263.2
666.912	10239.02
667.262	10244.9
667.612	10330.55
667.962	10346.59
668.312	10227.95
668.662	10349.3
669.011	10267.27
669.361	10182.08
669.711	10171
670.06	10238.12
670.41	10249.87
670.76	10225.01
671.109	10218.46
671.459	10264.33
671.808	10163.32
672.157	10202.87
672.507	10130.33
672.856	10210.1
673.205	10221.62
673.554	10209.42
673.904	10162.42
674.253	10257.33
674.602	10168.07
674.951	9999.93
675.3	9978.47
675.649	10102.3
675.998	10088.52
676.346	10104.34
676.695	10092.14
677.044	9993.16
677.393	10033.38
677.741	10074.06
678.09	10067.5
678.438	10013.04
678.787	10014.4
679.135	10024.11
679.484	10022.99
679.832	10005.81
680.181	9990.9
680.529	9977.79
680.877	10028.41
681.225	9977.11
681.573	9918.58
681.922	9892.59
682.27	9875.19
682.618	9917.68
682.966	9838.36
683.314	9829.54
683.661	9867.28
684.009	9745.48
684.357	9793.39
684.705	9764.69
685.053	9697.34
685.4	9751.13
685.748	9671.81
686.095	9697.8
686.443	9573.96
686.79	9648.53
687.138	9672.94
687.485	9674.75
687.832	9566.95
688.18	9578.93
688.527	9507.97
688.874	9525.82
689.221	9464.13
689.568	9533.51
689.915	9467.97
690.262	9440.63
690.609	9371.93
690.956	9319.05
691.303	9342.78
691.65	9276.34
691.997	9275.21
692.344	9181.2
692.69	9186.4
693.037	9171.03
693.383	9146.62
693.73	9066.4
694.077	9131.94
694.423	9108.66
694.769	9000.41
695.116	9033.86
695.462	8957.25
695.808	8952.96
696.155	8955.22
696.501	8835.45
696.847	8878.83
697.193	8856.91
697.539	8866.18
697.885	8764.04
698.231	8733.08
698.577	8718.16
698.923	8731.27
699.269	8643.13
699.614	8593.19
699.96	8594.77
700.306	8596.36
700.651	8592.97
700.997	8518.84
701.342	8506.19
701.688	8471.84
702.033	8366.31
702.379	8441.33
702.724	8429.13
703.069	8402.01
703.415	8248.79
703.76	8248.79
704.105	8262.58
704.45	8305.29
704.795	8235.01
705.14	8235.24
705.485	8183.71
705.83	8157.95
706.175	8101.23
706.52	8065.97
706.865	8128.57
707.209	8055.13
707.554	8032.75
707.899	8014.45
708.243	7990.5
708.588	7969.93
708.932	7977.84
709.277	7892.19
709.621	7894.23
709.966	7778.98
710.31	7934
710.654	7835.25
710.998	7818.07
711.342	7856.94
711.687	7776.26
712.031	7805.42
712.375	7675.93
712.719	7766.32
713.063	7664.4
713.407	7741.01
713.75	7693.1
714.094	7665.98
714.438	7614.23
714.782	7613.33
715.125	7592.77
715.469	7620.79
715.812	7570.85
716.156	7563.16
716.499	7555.48
716.843	7585.08
717.186	7481.13
717.53	7535.59
717.873	7550.73
718.216	7488.36
718.559	7477.52
718.902	7431.41
719.246	7393.9
719.589	7399.55
719.932	7395.26
720.275	7379.21
720.617	7389.61
720.96	7359.33
721.303	7361.13
721.646	7404.3
721.989	7303.96
722.331	7359.55
722.674	7335.82
723.016	7397.52
723.359	7299.21
723.701	7333.79
724.044	7307.58
724.386	7200.46
724.729	7328.37
725.071	7316.39
725.413	7287.01
725.755	7274.36
726.097	7270.52
726.439	7218.31
726.782	7274.81
727.124	7275.49
727.465	7188.03
727.807	7254.7
728.149	7240.46
728.491	7231.19
728.833	7218.31
729.175	7260.57
729.516	7222.15
729.858	7202.72
730.199	7231.65
730.541	7216.05
730.882	7166.56
731.224	7277.29
731.565	7156.39
731.906	7175.6
732.248	7225.09
732.589	7167.92
732.93	7101.03
733.271	7197.3
733.612	7176.05
733.953	7219.67
734.294	7224.64
734.635	7153.68
734.976	7195.71
735.317	7202.72
735.658	7153.91
735.999	7141.25
736.339	7153.46
736.68	7234.81
737.021	7212.44
737.361	7143.06
737.702	7227.8
738.042	7251.08
738.383	7211.53
738.723	7300.57
739.063	7192.55
739.404	7246.79
739.744	7260.12
740.084	7190.52
740.424	7294.7
740.764	7314.36
741.104	7287.01
741.444	7298.99
741.784	7255.15
742.124	7367.69
742.464	7375.6
742.804	7335.6
743.143	7377.63
743.483	7384.41
743.823	7344.86
744.162	7448.36
744.502	7490.17
744.841	7473.22
745.181	7538.53
745.52	7566.1
745.86	7595.48
746.199	7571.3
746.538	7629.83
746.877	7674.35
747.216	7710.73
747.556	7706.21
747.895	7818.98
748.234	7797.28
748.573	7798.86
748.911	7918.63
749.25	8018.74
749.589	7945.3
749.928	8056.48
750.267	8142.13
750.605	8215.35
750.944	8230.04
751.283	8211.51
751.621	8402.24
751.96	8429.13
752.298	8495.12
752.636	8598.39
752.975	8713.41
753.313	8723.58
753.651	8924.71
753.989	8966.06
754.327	9001.99
754.666	9166.96
755.004	9288.77
755.342	9399.5
755.679	9481.53
756.017	9641.75
756.355	9713.84
756.693	9875.87
757.031	9968.98
757.368	10115.41
757.706	10257.78
758.044	10314.95
758.381	10444.44
758.719	10549.52
759.056	10799.91
759.394	10936.86
759.731	11097.31
760.068	11116.06
760.405	11276.96
760.743	11380.69
761.08	11649.83
761.417	11724.86
761.754	11921.92
762.091	12034.01
762.428	12171.86
762.765	12270.61
763.102	12593.54
763.438	12651.84
763.775	12802.57
764.112	12910.14
764.449	13165.73
764.785	13264.03
765.122	13368.66
765.458	13498.15
765.795	13732.94
766.131	13807.74
766.467	13916.89
766.804	14042.31
767.14	14155.08
767.476	14375.41
767.812	14447.28
768.148	14487.73
768.485	14659.93
768.821	14815.4
769.157	14934.04
769.492	15049.52
769.828	15237.09
770.164	15198.44
770.5	15340.59
770.836	15457.19
771.171	15476.63
771.507	15578.55
771.842	15518.21
772.178	15731.08
772.513	15837.07
772.849	15834.36
773.184	15996.16
773.519	16093.33
773.855	16107.34
774.19	16199.55
774.525	16209.94
774.86	16387.56
775.195	16340.79
775.53	16378.75
775.865	16391.18
776.2	16353.67
776.535	16304.85
776.87	16597.05
777.205	16602.93
777.539	16580.78
777.874	16654
778.209	16619.2
778.543	16666.88
778.878	16659.65
779.212	16799.08
779.547	16724.96
779.881	16878.17
780.215	16662.81
780.55	16895.57
780.884	16722.7
781.218	16766.99
781.552	16849.7
781.886	16781
782.22	16804.5
782.554	16879.3
782.888	16729.25
783.222	16676.6
783.556	16757.27
783.889	16710.72
784.223	16676.37
784.557	16620.78
784.89	16732.87
785.224	16729.48
785.557	16606.99
785.891	16670.49
786.224	16667.33
786.558	16667.1
786.891	16600.44
787.224	16602.7
787.557	16566.54
787.891	16430.05
788.224	16586.65
788.557	16564.73
788.89	16528.58
789.223	16582.13
789.556	16512.98
789.888	16471.18
790.221	16404.29
790.554	16362.03
790.887	16344.85
791.219	16365.19
791.552	16298.98
791.884	16302.82
792.217	16310.96
792.549	16264.63
792.882	16133.11
793.214	16043.84
793.546	16105.09
793.879	16058.31
794.211	15952.55
794.543	16064.18
794.875	16021.47
795.207	15996.39
795.539	16013.34
795.871	15972.43
796.203	15892.89
796.535	15822.83
796.867	15815.38
797.198	15813.34
797.53	15715.49
797.862	15569.28
798.193	15658.54
798.525	15649.96
798.856	15580.35
799.188	15458.1
799.519	15459.45
799.85	15420.58
800.182	15376.97
800.513	15352.79
800.844	15305.78
801.175	15375.16
801.506	15388.95
801.837	15189.4
802.168	15242.73
802.499	15180.14
802.83	15069.63
803.161	15039.35
803.491	15089.74
803.822	15126.58
804.153	15020.37
804.483	14910.31
804.814	14877.55
805.145	14856.76
805.475	14999.58
805.805	14757.55
806.136	14852.69
806.466	14845.46
806.796	14772.24
807.126	14709.87
807.457	14524.11
807.787	14679.36
808.117	14539.7
808.447	14559.59
808.777	14551
809.107	14448.63
809.436	14410.44
809.766	14437.56
810.096	14432.13
810.426	14313.72
810.755	14366.6
811.085	14308.3
811.414	14327.73
811.744	14212.48
812.073	14262.2
812.403	14190.79
812.732	14091.58
813.061	14115.98
813.39	14024.91
813.719	14064.69
814.049	14107.4
814.378	14050.68
814.707	14048.42
815.036	14043.67
815.365	13991.69
815.693	13817.69
816.022	13818.37
816.351	13834.86
816.68	13787.18
817.008	13906.05
817.337	13668.99
817.665	13667.41
817.994	13767.29
818.322	13747.41
818.651	13550.8
818.979	13666.05
819.307	13580.18
819.636	13630.35
819.964	13557.36
820.292	13589.9
820.62	13542.67
820.948	13478.71
821.276	13604.59
821.604	13575.21
821.932	13565.72
822.259	13599.61
822.587	13512.16
822.915	13543.34
823.243	13479.62
823.57	13510.12
823.898	13595.77
824.225	13480.3
824.553	13585.6
824.88	13479.84
825.207	13569.78
825.535	13537.47
825.862	13549.9
826.189	13459.5
826.516	13594.64
826.843	13525.49
827.17	13592.16
827.497	13561.88
827.824	13623.12
828.151	13567.98
828.478	13516.68
828.805	13666.05
829.131	13560.07
829.458	13495.66
829.785	13485.49
830.111	13493.63
830.438	13579.95
830.764	13594.42
831.09	13590.57
831.417	13478.26
831.743	13562.1
832.069	13428.55
832.395	13494.76
832.722	13557.81
833.048	13448.21
833.374	13522.33
833.7	13446.62
834.026	13521.42
834.351	13506.28
834.677	13455.21
835.003	13467.19
835.329	13451.14
835.654	13435.55
835.98	13308.55
836.306	13326.85
836.631	13353.97
836.956	13342.67
837.282	13370.47
837.607	13247.31
837.932	13213.64
838.258	13334.08
838.583	13247.08
838.908	13261.77
839.233	13207.53
839.558	13198.95
839.883	13100.87
840.208	13107.65
840.533	13016.58
840.858	13099.29
841.182	13060.42
841.507	13096.8
841.832	12959.18
842.156	12971.38
842.481	13086.63
842.805	12940.42
843.13	13017.03
843.454	12936.13
843.778	12902.46
844.103	12811.61
844.427	12786.3
844.751	12816.81
845.075	12740.2
845.399	12687.77
845.723	12640.32
846.047	12705.85
846.371	12537.5
846.695	12574.33
847.019	12457.95
847.343	12412.3
847.666	12325.3
847.99	12278.29
848.313	12320.78
848.637	12189.26
848.96	12227.45
849.284	12150.61
849.607	12113.33
849.931	12070.84
850.254	11906.1
850.577	11873.56
850.9	11893.44
851.223	11775.26
851.546	11757.18
851.869	11673.11
852.192	11840.11
852.515	11613.23
852.838	11547.46
853.161	11616.84
853.483	11527.13
853.806	11421.14
854.129	11416.85
854.451	11361.48
854.774	11425.66
855.096	11295.27
855.419	11294.36
855.741	11251.65
856.063	11239.68
856.385	11171.88
856.708	11151.32
857.03	11155.61
857.352	11135.05
857.674	11057.53
857.996	11037.65
858.318	10971.66
858.64	10975.28
858.961	10921.94
859.283	10894.83
859.605	10864.54
859.926	10879.69
860.248	10854.83
860.57	10770.08
860.891	10795.85
861.212	10741.61
861.534	10724.89
861.855	10703.42
862.176	10698.9
862.498	10701.84
862.819	10683.08
863.14	10619.81
863.461	10649.64
863.782	10586.81
864.103	10519.47
864.424	10513.82
864.745	10508.85
865.065	10456.19
865.386	10449.19
865.707	10484.22
866.027	10469.3
866.348	10445.8
866.668	10456.65
866.989	10391.34
867.309	10368.74
867.63	10327.84
867.95	10382.75
868.27	10294.62
868.59	10322.41
868.91	10295.07
869.23	10241.28
869.55	10192.7
869.87	10294.84
870.19	10193.6
870.51	10206.03
870.83	10240.15
871.15	10189.08
871.469	10215.97
871.789	10208.74
872.109	10077.45
872.428	10064.34
872.748	10115.19
873.067	10053.94
873.386	10134.62
873.706	10026.37
874.025	10033.83
874.344	9956.55
874.663	10053.04
874.982	9987.96
875.301	10039.93
875.62	9943.21
875.939	9918.36
876.258	9945.02
876.577	9840.16
876.896	9929.43
877.214	9777.12
877.533	9847.62
877.852	9822.09
878.17	9866.38
878.489	9834.74
878.807	9792.48
879.125	9819.83
879.444	9777.12
879.762	9708.64
880.08	9774.18
880.398	9683.11
880.716	9732.37
881.034	9594.52
881.352	9706.38
881.67	9570.79
881.988	9585.03
882.306	9556.56
882.624	9582.09
882.941	9520.63
883.259	9535.99
883.577	9437.01
883.894	9493.73
884.212	9421.87
884.529	9444.47
884.846	9398.82
885.164	9392.95
885.481	9353.62
885.798	9321.99
886.115	9268.43
886.432	9282.21
886.75	9288.09
887.067	9206.96
887.383	9191.14
887.7	9243.34
888.017	9178.26
888.334	9153.4
888.651	9156.12
888.967	9108.88
889.284	9148.88
889.6	9102.11
889.917	8921.09
890.233	9019.17
890.55	8953.41
890.866	8925.16
891.182	8874.09
891.498	8870.92
891.815	8883.81
892.131	8818.72
892.447	8814.66
892.763	8780.31
893.079	8778.72
893.395	8760.42
893.71	8713.41
894.026	8660.53
894.342	8621.89
894.657	8599.07
894.973	8587.09
895.289	8586.19
895.604	8601.78
895.92	8512.97
896.235	8447.66
896.55	8536.92
896.865	8410.37
897.181	8449.92
897.496	8364.05
897.811	8382.58
898.126	8261.45
898.441	8364.27
898.756	8226.87
899.071	8192.98
899.386	8225.97
899.7	8130.38
900.015	8137.38
900.33	8070.72
900.644	8107.33
900.959	8061
901.273	7999.54
901.588	8039.99
901.902	7933.55
902.216	7945.07
902.531	7904.85
902.845	7828.01
903.159	7874.79
903.473	7819.65
903.787	7826.21
904.101	7733.55
904.415	7705.31
904.729	7723.84
905.042	7632.31
905.356	7656.04
905.67	7655.59
905.984	7590.96
906.297	7538.3
906.611	7458.98
906.924	7483.62
907.237	7506.44
907.551	7449.72
907.864	7393.68
908.177	7345.99
908.491	7379.21
908.804	7282.94
909.117	7245.2
909.43	7207.47
909.743	7216.28
910.056	7234.36
910.368	7184.19
910.681	7129.28
910.994	7111.88
911.307	7070.07
911.619	7066.23
911.932	7025.78
912.244	7037.07
912.557	6979.22
912.869	6905.33
913.181	6863.29
913.494	6887.02
913.806	6837.98
914.118	6818.1
914.43	6771.09
914.742	6790.3
915.054	6741.49
915.366	6763.18
915.678	6672.79
915.99	6639.35
916.302	6571.55
916.613	6611.55
916.925	6610.42
917.236	6564.09
917.548	6507.15
917.859	6530.42
918.171	6460.59
918.482	6453.36
918.794	6424.89
919.105	6388.96
919.416	6319.13
919.727	6340.37
920.038	6362.06
920.349	6273.71
920.66	6264.67
920.971	6249.75
921.282	6214.72
921.593	6144.67
921.903	6199.36
922.214	6115.74
922.525	6144.44
922.835	6062.19
923.146	6022.41
923.456	6020.38
923.767	5969.08
924.077	5986.93
924.387	5986.71
924.697	5893.15
925.008	5931.12
925.318	5928.86
925.628	5878.91
925.938	5878.01
926.248	5763.44
926.558	5836.2
926.867	5802.98
927.177	5751.01
927.487	5709.43
927.796	5714.4
928.106	5685.92
928.416	5631.69
928.725	5699.48
929.034	5622.87
929.344	5566.61
929.653	5578.81
929.962	5549.43
930.271	5507.4
930.581	5531.58
930.89	5457.23
931.199	5434.63
931.508	5377.01
931.817	5423.78
932.125	5410.9
932.434	5360.51
932.743	5351.02
933.051	5353.96
933.36	5326.61
933.669	5316.89
933.977	5284.58
934.286	5217.24
934.594	5196.22
934.902	5200.74
935.21	5172.27
935.519	5174.52
935.827	5128.65
936.135	5141.98
936.443	5085.04
936.751	5087.52
937.059	5079.61
937.367	5026.05
937.674	5032.61
937.982	4974.3
938.29	4958.94
938.597	4958.94
938.905	4939.28
939.213	4897.24
939.52	4856.34
939.827	4877.13
940.135	4791.26
940.442	4816.79
940.749	4813.18
941.056	4798.94
941.363	4777.25
941.67	4748.1
941.977	4783.35
942.284	4661.09
942.591	4617.03
942.898	4629
943.205	4678.72
943.511	4594.65
943.818	4596.46
944.125	4534.77
944.431	4538.84
944.738	4570.25
945.044	4499.06
945.35	4487.09
945.657	4457.48
945.963	4471.49
946.269	4440.98
946.575	4427.65
946.881	4402.34
947.187	4371.61
947.493	4362.12
947.799	4381.78
948.105	4331.38
948.41	4313.98
948.716	4294.32
949.022	4260.2
949.327	4279.18
949.633	4245.96
949.938	4243.48
950.244	4204.83
950.549	4133.65
950.854	4166.42
951.16	4128.9
951.465	4135
951.77	4109.24
952.075	4052.97
952.38	4081.9
952.685	4053.2
952.99	4050.03
953.294	4015.23
953.599	4024.27
953.904	3993.77
954.209	3975.01
954.513	3967.55
954.818	3962.35
955.122	3934.11
955.426	3916.93
955.731	3918.74
956.035	3900.43
956.339	3848.46
956.643	3845.75
956.948	3826.54
957.252	3790.83
957.556	3788.57
957.86	3793.77
958.163	3773.88
958.467	3742.47
958.771	3742.25
959.075	3738.4
959.378	3756.71
959.682	3740.21
959.985	3685.98
960.289	3682.59
960.592	3634.9
960.896	3623.83
961.199	3612.76
961.502	3577.5
961.805	3614.57
962.108	3567.34
962.411	3529.6
962.714	3545.42
963.017	3501.12
963.32	3505.64
963.623	3477.17
963.926	3496.15
964.228	3483.95
964.531	3424.29
964.833	3476.72
965.136	3377.06
965.438	3332.31
965.741	3371.41
966.043	3398.07
966.345	3370.05
966.648	3332.77
966.95	3332.31
967.252	3293.9
967.554	3307.23
967.856	3274.24
968.158	3283.5
968.46	3284.63
968.761	3219.55
969.063	3251.41
969.365	3195.82
969.666	3179.32
969.968	3181.81
970.269	3159.21
970.571	3161.02
970.872	3165.99
971.174	3155.14
971.475	3106.33
971.776	3148.59
972.077	3085.77
972.378	3058.42
972.679	3075.82
972.98	3066.78
973.281	3044.64
973.582	3045.09
973.883	3027.91
974.183	3018.42
974.484	2983.62
974.785	2971.19
975.085	2930.97
975.386	2964.41
975.686	2948.14
975.986	2932.55
976.287	2951.31
976.587	2900.23
976.887	2869.05
977.187	2872.44
977.487	2860.91
977.787	2846
978.087	2825.21
978.387	2826.79
978.687	2800.12
978.987	2851.42
979.286	2795.83
979.586	2755.61
979.885	2790.18
980.185	2737.98
980.484	2750.18
980.784	2704.53
981.083	2694.59
981.382	2698.43
981.682	2695.72
981.981	2679.9
982.28	2678.77
982.579	2646.46
982.878	2632.67
983.177	2634.93
983.475	2634.25
983.774	2625.67
984.073	2607.36
984.372	2585.21
984.67	2584.99
984.969	2556.51
985.267	2580.02
985.566	2563.97
985.864	2536.18
986.162	2498.66
986.461	2567.36
986.759	2510.64
987.057	2476.74
987.355	2476.52
987.653	2451.88
987.951	2448.95
988.249	2451.66
988.547	2434.03
988.844	2404.65
989.142	2430.64
989.44	2386.58
989.737	2361.94
990.035	2386.8
990.332	2359.91
990.63	2372.79
990.927	2348.16
991.224	2323.53
991.521	2293.02
991.819	2299.8
992.116	2288.5
992.413	2307.71
992.71	2280.59
993.006	2238.33
993.303	2271.32
993.6	2199.01
993.897	2218.67
994.193	2253.02
994.49	2194.04
994.787	2197.43
995.083	2190.87
995.379	2205.11
995.676	2160.59
995.972	2157.66
996.268	2141.61
996.565	2159.46
996.861	2139.12
997.157	2112.91
997.453	2105.91
997.749	2104.1
998.044	2072.01
998.34	2105.68
998.636	2072.01
998.932	2054.83
999.227	2049.41
999.523	2045.12
999.818	2033.59
1000.114	2015.96
1000.409	2007.38
1000.704	1994.27
1001	2001.73
1001.295	1968.28
1001.59	1963.08
1001.885	1985.23
1002.18	1968.96
1002.475	1938.68
1002.77	1907.49
1003.065	1898.9
1003.359	1881.05
1003.654	1911.11
1003.949	1895.29
1004.243	1878.11
1004.538	1857.32
1004.832	1871.79
1005.127	1832.69
1005.421	1864.78
1005.715	1827.95
1006.009	1806.7
1006.304	1805.12
1006.598	1795.63
1006.892	1812.13
1007.186	1781.17
1007.48	1761.96
1007.773	1747.5
1008.067	1736.42
1008.361	1748.4
1008.655	1736.65
1008.948	1734.62
1009.242	1717.89
1009.535	1707.05
1009.829	1691.9
1010.122	1690.77
1010.415	1666.37
1010.708	1632.7
1011.001	1650.55
1011.295	1637.44
1011.588	1606.03
1011.881	1606.94
1012.173	1618.91
1012.466	1599.7
1012.759	1583.66
1013.052	1575.75
1013.344	1567.39
1013.637	1568.74
1013.93	1551.8
1014.222	1554.28
1014.514	1567.84
1014.807	1553.83
1015.099	1534.85
1015.391	1529.88
1015.683	1499.37
1015.976	1500.72
1016.268	1461.4
1016.56	1457.11
1016.851	1471.12
1017.143	1455.75
1017.435	1461.63
1017.727	1431.35
1018.018	1427.28
1018.31	1427.5
1018.602	1434.06
1018.893	1411.91
1019.185	1379.14
1019.476	1384.12
1019.767	1389.54
1020.058	1373.95
1020.35	1371.69
1020.641	1365.81
1020.932	1347.28
1021.223	1344.8
1021.514	1334.63
1021.804	1303.89
1022.095	1280.16
1022.386	1265.7
1022.677	1268.86
1022.967	1265.25
1023.258	1280.62
1023.548	1266.15
1023.839	1253.72
1024.129	1277.23
1024.419	1232.48
1024.709	1228.19
1025	1208.53
1025.29	1223.44
1025.58	1221.63
1025.87	1211.01
1026.16	1201.52
1026.449	1202.88
1026.739	1174.86
1027.029	1174.4
1027.319	1185.03
1027.608	1161.75
1027.898	1168.3
1028.187	1155.65
1028.477	1162.88
1028.766	1131.92
1029.055	1113.39
1029.344	1099.15
1029.634	1119.49
1029.923	1086.04
1030.212	1110.68
1030.501	1077.23
1030.79	1063.22
1031.078	1079.49
1031.367	1107.74
1031.656	1069.77
1031.945	1086.27
1032.233	1062.32
1032.522	1068.19
1032.81	1054.63
1033.099	1043.11
1033.387	1022.77
1033.675	1033.84
1033.963	993.39
1034.251	1015.31
1034.54	1006.5
1034.828	992.26
1035.116	978.25
1035.403	977.35
1035.691	982.54
1035.979	992.71
1036.267	952.94
1036.554	968.31
1036.842	955.2
1037.129	957.46
1037.417	931.92
1037.704	933.05
1037.992	914.52
1038.279	909.78
1038.566	926.28
1038.853	926.28
1039.14	926.28
