Data from hue_260_FLMS001491_00015.txt Node
Date: Tue Feb 07 15:58:39 GMT 2017
User: dcchb
Spectrometer: FLMS00149
Trigger mode: 0
Integration Time (sec): 2.000000E-2
Scans to average: 10
Electric dark correction enabled: true
Nonlinearity correction enabled: false
Boxcar width: 0
XAxis mode: Wavelengths
Number of Pixels in Spectrum: 2048
>>>>>Begin Spectral Data<<<<<
341.393	-11.67
341.776	-11.67
342.16	-11.67
342.543	-36.98
342.927	-74.94
343.31	-66.13
343.693	-80.59
344.077	-65.9
344.46	-65.22
344.843	-55.28
345.226	-40.14
345.61	-16.64
345.993	-34.94
346.376	-10.31
346.759	3.7
347.142	30.82
347.525	36.47
347.908	50.03
348.291	90.25
348.674	108.33
349.057	115.56
349.44	103.58
349.823	154.66
350.206	154.88
350.588	196.92
350.971	193.53
351.354	227.88
351.737	224.26
352.119	215.9
352.502	241.89
352.884	268.1
353.267	260.42
353.65	283.92
354.032	266.07
354.414	280.76
354.797	305.16
355.179	317.82
355.562	303.58
355.944	315.33
356.326	294.54
356.709	337.48
357.091	296.12
357.473	312.39
357.855	317.14
358.238	330.7
358.62	327.31
359.002	310.36
359.384	335.44
359.766	321.21
360.148	340.19
360.53	307.65
360.912	323.24
361.294	316.46
361.676	332.96
362.057	313.75
362.439	318.49
362.821	302.9
363.203	315.56
363.584	312.62
363.966	328.44
364.348	304.94
364.729	302.22
365.111	298.83
365.493	317.59
365.874	310.36
366.256	292.96
366.637	291.83
367.019	306.97
367.4	315.1
367.781	299.96
368.163	313.52
368.544	291.6
368.925	299.96
369.306	305.84
369.688	304.03
370.069	293.86
370.45	319.17
370.831	309
371.212	301.77
371.593	283.02
371.974	325.05
372.355	310.81
372.736	306.29
373.117	308.78
373.498	308.55
373.879	306.07
374.26	297.48
374.641	300.64
375.021	311.94
375.402	295.44
375.783	311.49
376.163	322.34
376.544	323.47
376.925	319.17
377.305	288.89
377.686	302.9
378.066	309.91
378.447	328.44
378.827	298.16
379.208	321.88
379.588	343.35
379.968	317.82
380.349	329.34
380.729	326.86
381.109	322.11
381.489	330.47
381.87	328.66
382.25	315.33
382.63	339.51
383.01	345.61
383.39	306.97
383.77	346.06
384.15	367.98
384.53	338.15
384.91	354.88
385.29	339.96
385.67	342.67
386.049	357.82
386.429	346.97
386.809	351.94
387.189	316.23
387.568	359.17
387.948	347.19
388.328	340.19
388.707	342.9
389.087	372.28
389.466	360.53
389.846	338.38
390.225	364.37
390.605	353.52
390.984	351.26
391.363	362.79
391.743	358.72
392.122	376.35
392.501	375.89
392.881	358.49
393.26	368.66
393.639	355.78
394.018	386.97
394.397	365.5
394.776	365.05
395.155	379.06
395.534	373.41
395.913	365.27
396.292	385.39
396.671	405.05
397.05	409.57
397.429	374.99
397.808	402.33
398.186	398.72
398.565	402.11
398.944	393.97
399.323	402.11
399.701	398.04
400.08	409.79
400.458	413.86
400.837	388.32
401.215	412.5
401.594	419.96
401.972	405.27
402.351	411.37
402.729	429.45
403.107	412.96
403.486	420.19
403.864	435.55
404.242	421.09
404.62	415.44
404.999	447.08
405.377	446.63
405.755	441.66
406.133	451.6
406.511	433.97
406.889	457.02
407.267	468.55
407.645	469.45
408.023	470.13
408.401	474.65
408.779	482.33
409.156	481.65
409.534	473.74
409.912	496.12
410.29	499.73
410.667	500.64
411.045	501.31
411.422	520.75
411.8	513.74
412.178	561.65
412.555	545.61
412.933	537.7
413.31	550.8
413.687	572.05
414.065	568.21
414.442	574.08
414.819	602.55
415.197	600.29
415.574	610.01
415.951	573.85
416.328	602.1
416.705	641.2
417.082	616.79
417.46	616.34
417.837	656.34
418.214	659.73
418.591	660.41
418.967	644.36
419.344	662.89
419.721	656.56
420.098	668.99
420.475	688.65
420.852	685.72
421.228	687.98
421.605	711.48
421.982	732.49
422.358	733.85
422.735	760.52
423.111	747.86
423.488	757.13
423.864	774.08
424.241	787.63
424.617	782.89
424.994	794.19
425.37	821.31
425.746	833.74
426.123	835.09
426.499	858.82
426.875	848.65
427.251	868.54
427.627	859.27
428.003	876.67
428.379	895.2
428.756	906.28
429.132	925.48
429.507	904.02
429.883	935.88
430.259	926.39
430.635	963.9
431.011	949.44
431.387	1011.58
431.763	990.12
432.138	1018.82
432.514	1021.53
432.89	1017.46
433.265	1057.01
433.641	1066.5
434.016	1080.96
434.392	1110.34
434.767	1124.12
435.143	1111.92
435.518	1132.26
435.894	1153.95
436.269	1173.39
436.644	1200.05
437.02	1178.81
437.395	1212.71
437.77	1258.58
438.145	1277.11
438.52	1295.42
438.895	1290.22
439.271	1307.62
439.646	1340.39
440.021	1377.68
440.395	1353.95
440.77	1352.37
441.145	1378.81
441.52	1423.55
441.895	1416.77
442.27	1430.78
442.645	1452.25
443.019	1457
443.394	1470.55
443.769	1483.66
444.143	1481.63
444.518	1489.76
444.892	1476.2
445.267	1507.39
445.641	1536.77
446.016	1536.54
446.39	1540.61
446.764	1563.89
447.139	1586.48
447.513	1560.5
447.887	1590.78
448.262	1616.09
448.636	1592.59
449.01	1643.21
449.384	1662.64
449.758	1647.5
450.132	1659.02
450.506	1661.51
450.88	1693.83
451.254	1660.61
451.628	1708.97
452.002	1744.45
452.376	1745.35
452.75	1758
453.123	1771.11
453.497	1793.48
453.871	1805.24
454.244	1847.49
454.618	1854.27
454.992	1900.15
455.365	1885.01
455.739	1896.53
456.112	1918.9
456.486	1932.92
456.859	1958
457.232	2012.24
457.606	1976.53
457.979	2015.62
458.352	2041.16
458.725	2063.08
459.099	2102.4
459.472	2109.63
459.845	2105.34
460.218	2162.74
460.591	2163.42
460.964	2143.53
461.337	2223.3
461.71	2230.76
462.083	2294.04
462.456	2321.38
462.829	2275.51
463.201	2344.43
463.574	2335.39
463.947	2405.22
464.32	2388.5
464.692	2451.55
465.065	2435.27
465.438	2501.04
465.81	2519.11
466.183	2545.33
466.555	2574.93
466.928	2626.23
467.3	2570.86
467.672	2645.66
468.045	2686.79
468.417	2710.75
468.789	2709.17
469.161	2733.8
469.534	2763.85
469.906	2809.5
470.278	2831.65
470.65	2895.83
471.022	2926.11
471.394	2985.99
471.766	2990.29
472.138	3048.59
472.51	3067.35
472.882	3126.33
473.253	3143.73
473.625	3141.7
473.997	3216.5
474.369	3226.89
474.74	3321.35
475.112	3312.09
475.484	3385.98
475.855	3415.81
476.227	3436.83
476.598	3528.35
476.97	3542.82
477.341	3669.59
477.713	3695.58
478.084	3703.94
478.455	3781.91
478.827	3764.96
479.198	3913.2
479.569	3875.92
479.94	3972.41
480.311	4007.66
480.682	4094.89
481.053	4152.74
481.424	4213.53
481.795	4265.51
482.166	4312.97
482.537	4350.25
482.908	4434.54
483.279	4473.87
483.65	4477.71
484.021	4603.81
484.391	4633.18
484.762	4709.11
485.133	4708.21
485.503	4723.58
485.874	4823.01
486.244	4940.75
486.615	5011.25
486.985	5040.18
487.356	5138.48
487.726	5148.88
488.097	5171.93
488.467	5224.35
488.837	5322.66
489.207	5340.51
489.578	5394.52
489.948	5495.76
490.318	5516.55
490.688	5547.28
491.058	5651.01
491.428	5696.21
491.798	5706.15
492.168	5865.92
492.538	5839.71
492.908	5916.77
493.278	5947.5
493.648	5943.88
494.017	6036.08
494.387	6045.35
494.757	6096.42
495.126	6185.01
495.496	6205.8
495.866	6186.36
496.235	6231.11
496.605	6320.82
496.974	6316.53
497.344	6382.74
497.713	6418.67
498.082	6427.03
498.452	6488.28
498.821	6498.9
499.19	6501.83
499.559	6597.65
499.928	6536.64
500.298	6702.06
500.667	6697.99
501.036	6605.56
501.405	6691.21
501.774	6714.26
502.143	6810.75
502.512	6780.7
502.88	6786.12
503.249	6789.28
503.618	6851.43
503.987	6836.06
504.356	6849.17
504.724	6916.29
505.093	6952.22
505.462	6931.2
505.83	7030.18
506.199	6994.93
506.567	7118.77
506.936	7057.3
507.304	7152.21
507.672	7171.87
508.041	7158.54
508.409	7265.88
508.777	7273.11
509.145	7229.95
509.514	7233.34
509.882	7290.74
510.25	7330.06
510.618	7373
510.986	7377.52
511.354	7375.03
511.722	7446.44
512.09	7433.34
512.458	7443.28
512.826	7496.61
513.193	7535.25
513.561	7535.03
513.929	7591.3
514.297	7605.53
514.664	7601.69
515.032	7595.37
515.4	7634.69
515.767	7591.07
516.135	7635.59
516.502	7610.96
516.869	7734.57
517.237	7695.7
517.604	7655.93
517.972	7740.45
518.339	7782.7
518.706	7812.31
519.073	7754.01
519.44	7850.95
519.808	7922.36
520.175	7798.52
520.542	7905.87
520.909	7895.47
521.276	7898.86
521.643	7919.42
522.009	8005.52
522.376	7981.57
522.743	8000.55
523.11	8049.59
523.477	8103.6
523.843	8007.78
524.21	8115.13
524.577	8135.24
524.943	8137.05
525.31	8211.39
525.676	8240.55
526.043	8228.12
526.409	8245.07
526.776	8299.98
527.142	8291.39
527.508	8299.53
527.874	8342.69
528.241	8368.9
528.607	8297.04
528.973	8361.67
529.339	8391.73
529.705	8395.34
530.071	8392.41
530.437	8441.44
530.803	8429.02
531.169	8448
531.535	8436.02
531.901	8418.85
532.267	8436.47
532.632	8453.2
532.998	8468.56
533.364	8451.39
533.73	8438.28
534.095	8503.59
534.461	8487.32
534.826	8483.7
535.192	8527.32
535.557	8537.04
535.923	8493.19
536.288	8569.58
536.653	8492.74
537.019	8453.2
537.384	8491.39
537.749	8549.24
538.114	8496.13
538.479	8492.52
538.845	8534.78
539.21	8460.43
539.575	8479.41
539.94	8516.25
540.305	8562.8
540.67	8530.93
541.034	8468.56
541.399	8532.29
541.764	8475.34
542.129	8493.19
542.494	8443.48
542.858	8442.57
543.223	8480.09
543.587	8539.07
543.952	8470.82
544.316	8471.5
544.681	8452.29
545.045	8446.19
545.41	8514.21
545.774	8475.79
546.138	8428.79
546.503	8455.23
546.867	8431.05
547.231	8535.91
547.595	8448.22
547.959	8477.6
548.324	8366.64
548.688	8357.38
549.052	8422.24
549.416	8447.55
549.779	8414.33
550.143	8447.09
550.507	8394.67
550.871	8448.9
551.235	8378.17
551.599	8437.15
551.962	8433.08
552.326	8300.88
552.689	8428.79
553.053	8335.01
553.417	8322.8
553.78	8424.27
554.143	8405.97
554.507	8405.51
554.87	8394.44
555.234	8429.69
555.597	8374.78
555.96	8496.13
556.323	8368.9
556.686	8467.21
557.05	8436.7
557.413	8418.85
557.776	8452.29
558.139	8490.71
558.502	8471.27
558.865	8504.95
559.228	8548.33
559.59	8491.16
559.953	8473.53
560.316	8510.6
560.679	8560.09
561.041	8605.96
561.404	8555.11
561.767	8627.2
562.129	8634.43
562.492	8690.93
562.854	8649.35
563.217	8628.33
563.579	8674.66
563.941	8719.4
564.304	8706.97
564.666	8762.11
565.028	8716.47
565.39	8814.09
565.753	8725.73
566.115	8796.01
566.477	8826.07
566.839	8850.25
567.201	8943.35
567.563	8874.88
567.925	8881.43
568.287	8932.51
568.648	8881.43
569.01	9002.33
569.372	8963.69
569.734	8988.55
570.095	9014.09
570.457	9032.39
570.819	9070.58
571.18	9042.78
571.542	9064.25
571.903	9135.66
572.265	9144.7
572.626	9147.64
572.987	9156.23
573.349	9198.49
573.71	9249.33
574.071	9263.57
574.432	9233.51
574.794	9307.64
575.155	9236.9
575.516	9328.65
575.877	9382.44
576.238	9407.3
576.599	9443.68
576.96	9380.86
577.32	9348.09
577.681	9424.47
578.042	9417.24
578.403	9480.97
578.763	9497.91
579.124	9502.43
579.485	9597.35
579.845	9570
580.206	9563
580.566	9534.07
580.927	9593.28
581.287	9647.74
581.648	9681.19
582.008	9661.07
582.368	9611.81
582.728	9693.39
583.089	9735.42
583.449	9700.85
583.809	9790.34
584.169	9754.4
584.529	9710.79
584.889	9817.45
585.249	9796.89
585.609	9752.82
585.969	9846.38
586.329	9781.52
586.688	9881.18
587.048	9799.83
587.408	9828.3
587.768	9834.18
588.127	9872.82
588.487	9839.83
588.846	9982.42
589.206	9895.64
589.565	9934.96
589.925	9948.75
590.284	9867.62
590.643	9976.32
591.003	9951.69
591.362	9993.49
591.721	10022.19
592.08	10042.31
592.44	10108.75
592.799	10094.28
593.158	10095.64
593.517	10059.93
593.876	10070.33
594.235	10044.11
594.593	10097.45
594.952	10062.19
595.311	10080.05
595.67	10092.93
596.029	10135.19
596.387	10173.6
596.746	10176.99
597.104	10144.22
597.463	10104
597.822	10234.17
598.18	10206.37
598.538	10168.18
598.897	10274.39
599.255	10154.17
599.613	10337.21
599.972	10201.17
600.33	10294.5
600.688	10214.28
601.046	10329.76
601.404	10293.15
601.762	10279.59
602.12	10275.52
602.478	10280.04
602.836	10255.18
603.194	10269.87
603.552	10339.7
603.91	10207.95
604.268	10285.01
604.625	10326.59
604.983	10334.73
605.341	10312.58
605.698	10330.89
606.056	10371.11
606.413	10346.48
606.771	10305.35
607.128	10371.56
607.485	10296.76
607.843	10322.07
608.2	10322.75
608.557	10430.09
608.914	10400.04
609.272	10462.63
609.629	10432.58
609.986	10461.73
610.343	10438.23
610.7	10459.47
611.057	10473.71
611.414	10539.47
611.771	10449.75
612.127	10536.08
612.484	10534.95
612.841	10538.34
613.198	10549.86
613.554	10537.43
613.911	10597.55
614.267	10586.47
614.624	10522.97
614.98	10550.32
615.337	10637.09
615.693	10593.7
616.05	10576.98
616.406	10705.79
616.762	10624.66
617.118	10605.23
617.475	10621.05
617.831	10699.24
618.187	10698.11
618.543	10692.91
618.899	10734.49
619.255	10709.41
619.611	10711.44
619.967	10752.34
620.323	10794.38
620.678	10676.41
621.034	10610.2
621.39	10701.5
621.746	10656.53
622.101	10836.41
622.457	10701.27
622.812	10720.48
623.168	10743.31
623.523	10779.24
623.879	10775.39
624.234	10707.15
624.589	10670.31
624.945	10703.31
625.3	10710.09
625.655	10800.25
626.01	10678.9
626.365	10742.4
626.72	10701.27
627.075	10702.18
627.43	10657.88
627.785	10591.67
628.14	10699.46
628.495	10797.31
628.85	10715.51
629.205	10618.79
629.559	10666.02
629.914	10608.39
630.269	10640.03
630.623	10670.31
630.978	10553.48
631.332	10630.99
631.687	10675.74
632.041	10597.32
632.396	10630.31
632.75	10586.25
633.104	10549.19
633.459	10522.97
633.813	10476.65
634.167	10415.4
634.521	10502.41
634.875	10533.82
635.229	10451.34
635.583	10404.56
635.937	10416.99
636.291	10416.31
636.645	10370.43
636.999	10392.35
637.352	10428.51
637.706	10331.11
638.06	10382.18
638.413	10273.94
638.767	10358.91
639.121	10376.31
639.474	10313.49
639.828	10376.76
640.181	10273.94
640.534	10211.34
640.888	10252.24
641.241	10210.21
641.594	10186.26
641.947	10324.79
642.301	10211.57
642.654	10259.48
643.007	10274.39
643.36	10183.09
643.713	10191.23
644.066	10237.33
644.419	10130.21
644.771	10141.06
645.124	10067.62
645.477	10028.3
645.83	9971.12
646.182	9937.45
646.535	9903.78
646.888	9828.98
647.24	9823.78
647.593	9914.17
647.945	9895.64
648.298	9893.16
648.65	9766.38
649.002	9778.36
649.355	9803.89
649.707	9847.28
650.059	9897.23
650.411	10021.97
650.763	10034.4
651.115	10088.86
651.467	10127.73
651.819	10087.96
652.171	10036.88
652.523	10021.06
652.875	9985.58
653.227	10025.81
653.578	10067.16
653.93	10026.04
654.282	10000.05
654.633	10030.78
654.985	10016.77
655.337	10004.79
655.688	9969.77
656.039	10051.57
656.391	9920.28
656.742	9978.81
657.094	9958.92
657.445	10038.24
657.796	10054.96
658.147	10001.86
658.498	10023.32
658.849	10004.34
659.2	10014.28
659.551	9931.8
659.902	9965.47
660.253	9998.47
660.604	10040.72
660.955	9961.63
661.306	9998.01
661.656	10028.97
662.007	10033.27
662.358	9995.98
662.708	9975.19
663.059	9983.78
663.409	9960.5
663.76	10051.8
664.11	10067.62
664.461	10067.16
664.811	10042.76
665.161	10042.31
665.511	10028.52
665.862	9999.82
666.212	10037.33
666.562	10012.93
666.912	10011.8
667.262	10077.79
667.612	10047.73
667.962	10055.87
668.312	9991.23
668.662	10013.61
669.011	9977.68
669.361	9966.38
669.711	9948.98
670.06	9979.71
670.41	9932.03
670.76	10021.74
671.109	9966.6
671.459	10042.08
671.808	9960.73
672.157	10031.46
672.507	9951.01
672.856	9917.11
673.205	9905.14
673.554	9964.12
673.904	9899.03
674.253	9864.46
674.602	9896.55
674.951	9725.7
675.3	9758.02
675.649	9869.88
675.998	9851.8
676.346	9917.79
676.695	9857
677.044	9830.33
677.393	9862.42
677.741	9767.74
678.09	9810.45
678.438	9868.3
678.787	9757.12
679.135	9738.36
679.484	9695.2
679.832	9763.67
680.181	9699.49
680.529	9755.99
680.877	9662.43
681.225	9697
681.573	9749.43
681.922	9693.84
682.27	9664.24
682.618	9650.68
682.966	9602.32
683.314	9570.45
683.661	9588.53
684.009	9533.17
684.357	9450.46
684.705	9489.78
685.053	9482.1
685.4	9494.3
685.748	9392.83
686.095	9424.92
686.443	9375.88
686.79	9344.7
687.138	9404.13
687.485	9334.75
687.832	9342.21
688.18	9342.89
688.527	9267.19
688.874	9265.15
689.221	9202.78
689.568	9177.02
689.915	9194.65
690.262	9218.15
690.609	9226.73
690.956	9087.08
691.303	9107.42
691.65	9044.82
691.997	9017.93
692.344	8962.79
692.69	8973.41
693.037	8925.05
693.383	8879.63
693.73	8866.52
694.077	8837.82
694.423	8825.39
694.769	8782.68
695.116	8752.85
695.462	8727.31
695.808	8770.7
696.155	8710.14
696.501	8654.09
696.847	8653.87
697.193	8556.02
697.539	8622.68
697.885	8531.84
698.231	8469.92
698.577	8469.01
698.923	8506.08
699.269	8421.33
699.614	8376.81
699.96	8352.41
700.306	8415.23
700.651	8299.75
700.997	8295.46
701.342	8304.27
701.688	8237.61
702.033	8244.84
702.379	8208.91
702.724	8137.27
703.069	8113.77
703.415	8144.73
703.76	8111.74
704.105	8055.01
704.45	8038.97
704.795	8029.7
705.14	8034
705.485	7999.87
705.83	7866.77
706.175	8009.37
706.52	7905.87
706.865	7869.93
707.209	7898.63
707.554	7800.56
707.899	7863.15
708.243	7771.86
708.588	7748.58
708.932	7668.36
709.277	7665.19
709.621	7729.15
709.966	7653.22
710.31	7619.32
710.654	7622.03
710.998	7594.01
711.342	7572.09
711.687	7608.02
712.031	7511.75
712.375	7559.43
712.719	7569.38
713.063	7488.48
713.407	7487.12
713.75	7442.83
714.094	7437.63
714.438	7482.37
714.782	7413.68
715.125	7377.07
715.469	7429.04
715.812	7409.38
716.156	7430.4
716.499	7389.27
716.843	7389.72
717.186	7335.94
717.53	7382.26
717.873	7290.06
718.216	7320.12
718.559	7330.97
718.902	7257.07
719.246	7231.53
719.589	7245.09
719.932	7216.62
720.275	7285.99
720.617	7264.75
720.96	7199.44
721.303	7218.43
721.646	7186.11
721.989	7152.21
722.331	7251.19
722.674	7174.13
723.016	7120.8
723.359	7148.6
723.701	7135.26
724.044	7096.85
724.386	7131.87
724.729	7142.5
725.071	7083.06
725.413	7129.61
725.755	7094.14
726.097	7008.94
726.439	7018.21
726.782	7003.29
727.124	7097.75
727.465	7015.27
727.807	7086.23
728.149	7076.28
728.491	7024.98
728.833	7078.09
729.175	6982.5
729.516	7009.39
729.858	7001.71
730.199	7057.75
730.541	7041.03
730.882	6998.32
731.224	6997.87
731.565	7085.55
731.906	6946.79
732.248	6944.53
732.589	6988.6
732.93	6950.86
733.271	6962.16
733.612	7000.13
733.953	7003.52
734.294	6989.28
734.635	6956.96
734.976	6957.42
735.317	7002.61
735.658	7024.31
735.999	6990.41
736.339	6931.43
736.68	6913.58
737.021	6964.2
737.361	6950.86
737.702	6984.08
738.042	6971.2
738.383	6924.87
738.723	6999.45
739.063	6982.27
739.404	7044.87
739.744	7048.94
740.084	6966.46
740.424	6971.2
740.764	6970.3
741.104	7047.36
741.444	7020.24
741.784	7030.41
742.124	7025.66
742.464	7015.49
742.804	7035.15
743.143	6974.36
743.483	7078.77
743.823	7058.2
744.162	7085.1
744.502	7084.64
744.841	7075.6
745.181	7172.33
745.52	7187.92
745.86	7217.75
746.199	7165.09
746.538	7213.23
746.877	7314.92
747.216	7359.67
747.556	7354.02
747.895	7402.83
748.234	7455.26
748.573	7469.72
748.911	7417.52
749.25	7489.15
749.589	7556.5
749.928	7588.81
750.267	7683.27
750.605	7815.25
750.944	7795.59
751.283	7866.54
751.621	7905.87
751.96	7910.84
752.298	8037.16
752.636	8061.79
752.975	8178.63
753.313	8241.9
753.651	8333.42
753.989	8314.89
754.327	8469.47
754.666	8497.26
755.004	8605.73
755.342	8750.82
755.679	8837.59
756.017	8904.26
756.355	9003.92
756.693	9106.74
757.031	9296.11
757.368	9257.24
757.706	9445.49
758.044	9531.36
758.381	9599.15
758.719	9779.49
759.056	9872.59
759.394	9987.62
759.731	10069.2
760.068	10141.29
760.405	10317.78
760.743	10406.14
761.08	10574.27
761.417	10650.88
761.754	10774.26
762.091	10938.78
762.428	11032.34
762.765	11158.89
763.102	11254.03
763.438	11475.72
763.775	11467.81
764.112	11647.46
764.449	11746.67
764.785	11951.63
765.122	11941.24
765.458	12104.85
765.795	12207.9
766.131	12323.38
766.467	12388.46
766.804	12536.48
767.14	12623.48
767.476	12798.17
767.812	12713.65
768.148	12881.78
768.485	12946.19
768.821	12981.89
769.157	13234.31
769.492	13285.84
769.828	13337.14
770.164	13315.44
770.5	13459.39
770.836	13599.28
771.171	13586.85
771.507	13594.98
771.842	13666.39
772.178	13745.03
772.513	13851.92
772.849	13976.44
773.184	13957.23
773.519	14037.46
773.855	14025.25
774.19	14114.97
774.525	14147.06
774.86	14171.69
775.195	14201.29
775.53	14205.13
775.865	14263.89
776.2	14233.16
776.535	14250.56
776.87	14306.83
777.205	14341.4
777.539	14357.9
777.874	14433.6
778.209	14349.54
778.543	14338.46
778.878	14296.21
779.212	14451
779.547	14432.25
779.881	14483.09
780.215	14440.38
780.55	14519.25
780.884	14387.28
781.218	14491.91
781.552	14490.55
781.886	14469.53
782.22	14448.07
782.554	14522.19
782.888	14397.22
783.222	14365.36
783.556	14410.33
783.889	14339.37
784.223	14323.78
784.557	14267.96
784.89	14392.7
785.224	14348.86
785.557	14273.16
785.891	14254.63
786.224	14294.4
786.558	14337.11
786.891	14228.19
787.224	14147.74
787.557	14167.17
787.891	14151.8
788.224	14141.18
788.557	14172.37
788.89	14178.47
789.223	14211.69
789.556	14167.4
789.888	14131.24
790.221	14098.25
790.554	13922.88
790.887	13978.7
791.219	13937.8
791.552	13954.97
791.884	13899.83
792.217	13920.17
792.549	13861.19
792.882	13736.45
793.214	13745.94
793.546	13802.43
793.879	13759.95
794.211	13657.8
794.543	13697.13
794.875	13717.69
795.207	13637.69
795.539	13610.8
795.871	13580.52
796.203	13540.97
796.535	13466.4
796.867	13418.94
797.198	13486.96
797.53	13389.56
797.862	13347.08
798.193	13390.24
798.525	13229.57
798.856	13259.85
799.188	13235.67
799.519	13197.48
799.85	13100.98
800.182	13153.41
800.513	13162
800.844	13141.89
801.175	13129.23
801.506	13093.07
801.837	13122
802.168	13070.25
802.499	13049.46
802.83	12953.87
803.161	12925.17
803.491	12931.27
803.822	12927.43
804.153	12898.95
804.483	12827.54
804.814	12721.56
805.145	12714.33
805.475	12694.44
805.805	12663.25
806.136	12675.01
806.466	12615.35
806.796	12612.18
807.126	12480.89
807.457	12571.05
807.787	12529.7
808.117	12442.92
808.447	12411.74
808.777	12463.26
809.107	12432.3
809.436	12307.33
809.766	12319.99
810.096	12294
810.426	12271.85
810.755	12267.11
811.085	12199.31
811.414	12247.9
811.744	12157.73
812.073	12126.09
812.403	12161.8
812.732	12141.91
813.061	12149.37
813.39	12005.64
813.719	12022.82
814.049	12090.61
814.378	11951.18
814.707	12005.19
815.036	11896.5
815.365	11931.07
815.693	11741.92
816.022	11813.56
816.351	11803.39
816.68	11762.04
817.008	11761.13
817.337	11688.82
817.665	11652.43
817.994	11731.3
818.322	11672.77
818.651	11656.73
818.979	11528.37
819.307	11635.94
819.636	11585.54
819.964	11489.05
820.292	11651.08
820.62	11622.15
820.948	11529.05
821.276	11566.79
821.604	11483.85
821.932	11589.38
822.259	11490.18
822.587	11577.41
822.915	11480.23
823.243	11542.61
823.57	11507.35
823.898	11469.39
824.225	11499.9
824.553	11408.82
824.88	11513.23
825.207	11555.94
825.535	11496.96
825.862	11599.55
826.189	11509.84
826.516	11601.81
826.843	11573.34
827.17	11604.75
827.497	11548.48
827.824	11578.09
828.151	11580.57
828.478	11534.92
828.805	11596.16
829.131	11456.73
829.458	11581.93
829.785	11553.23
830.111	11624.86
830.438	11500.35
830.764	11564.53
831.09	11593.45
831.417	11494.25
831.743	11508.03
832.069	11543.28
832.395	11559.55
832.722	11507.13
833.048	11406.34
833.374	11432.55
833.7	11363.4
834.026	11488.6
834.351	11468.71
834.677	11470.52
835.003	11469.39
835.329	11408.37
835.654	11419.45
835.98	11364.31
836.306	11362.95
836.631	11341.26
836.956	11334.93
837.282	11345.78
837.607	11268.72
837.932	11246.34
838.258	11309.84
838.583	11259.68
838.908	11215.16
839.233	11284.31
839.558	11274.59
839.883	11227.36
840.208	11081.83
840.533	11092.22
840.858	11183.07
841.182	11183.97
841.507	11156.4
841.832	11040.25
842.156	11059
842.481	11072.56
842.805	11045.22
843.13	10963.64
843.454	11047.25
843.778	10963.86
844.103	10962.96
844.427	10846.35
844.751	10875.51
845.075	10905.56
845.399	10797.31
845.723	10771.78
846.047	10829.63
846.371	10729.52
846.695	10665.12
847.019	10629.86
847.343	10567.94
847.666	10540.6
847.99	10469.41
848.313	10441.39
848.637	10405.23
848.96	10400.72
849.284	10411.34
849.607	10280.72
849.931	10229.87
850.254	10182.87
850.577	10240.72
850.9	10139.93
851.223	10108.97
851.546	10014.51
851.869	9848.19
852.192	10053.61
852.515	9893.84
852.838	9864.46
853.161	9892.25
853.483	9835.31
853.806	9799.6
854.129	9808.19
854.451	9813.39
854.774	9699.04
855.096	9725.48
855.419	9694.75
855.741	9644.35
856.063	9570.91
856.385	9542.21
856.708	9568.42
857.03	9474.19
857.352	9483.45
857.674	9429.22
857.996	9401.42
858.318	9395.77
858.64	9320.29
858.961	9375.43
859.283	9297.24
859.605	9235.55
859.926	9313.74
860.248	9204.36
860.57	9235.32
860.891	9256.56
861.212	9148.32
861.534	9161.65
861.855	9161.2
862.176	9127.98
862.498	9099.73
862.819	9050.24
863.14	9111.26
863.461	9072.61
863.782	9006.4
864.103	9071.94
864.424	8996.91
864.745	9042.11
865.065	8969.34
865.386	8936.8
865.707	8897.03
866.027	8890.92
866.348	8889.34
866.668	8923.47
866.989	8885.05
867.309	8820.87
867.63	8846.18
867.95	8834.88
868.27	8731.15
868.59	8799.85
868.91	8798.05
869.23	8802.57
869.55	8740.65
869.87	8766.18
870.19	8745.62
870.51	8723.92
870.83	8772.28
871.15	8693.64
871.469	8699.74
871.789	8775.45
872.109	8728.89
872.428	8639.86
872.748	8639.41
873.067	8664.94
873.386	8697.26
873.706	8575
874.025	8577.49
874.344	8572.29
874.663	8528.22
874.982	8535
875.301	8526.64
875.62	8486.87
875.939	8462.46
876.258	8501.56
876.577	8367.32
876.896	8454.78
877.214	8401.22
877.533	8420.65
877.852	8434.89
878.17	8465.4
878.489	8367.55
878.807	8360.09
879.125	8311.28
879.444	8319.19
879.762	8308.11
880.08	8302.92
880.398	8242.58
880.716	8326.87
881.034	8346.31
881.352	8251.39
881.67	8256.82
881.988	8217.72
882.306	8208.68
882.624	8176.82
882.941	8148.35
883.259	8162.81
883.577	8081.91
883.894	8120.55
884.212	8115.13
884.529	8066.31
884.846	8087.1
885.164	7977.28
885.481	8061.12
885.798	8080.55
886.115	7937.96
886.432	7884.62
886.75	7952.42
887.067	7920.55
887.383	7908.35
887.7	7922.81
888.017	7898.63
888.334	7867.67
888.651	7867.45
888.967	7765.53
889.284	7751.97
889.6	7714.68
889.917	7704.51
890.233	7645.31
890.55	7657.28
890.866	7620
891.182	7621.81
891.498	7626.32
891.815	7599.88
892.131	7601.24
892.447	7566.67
892.763	7502.94
893.079	7500.45
893.395	7481.7
893.71	7483.5
894.026	7472.66
894.342	7465.43
894.657	7364.64
894.973	7281.48
895.289	7358.54
895.604	7285.99
895.92	7288.25
896.235	7274.47
896.55	7228.82
896.865	7223.4
897.181	7205.77
897.496	7199.9
897.811	7151.08
898.126	7161.48
898.441	7116.96
898.756	7082.16
899.071	7050.97
899.386	7020.92
899.7	6990.86
900.015	6947.7
900.33	6901.6
900.644	6866.8
900.959	6923.07
901.273	6895.27
901.588	6888.94
901.902	6776.4
902.216	6796.06
902.531	6764.2
902.845	6764.2
903.159	6681.04
903.473	6692.56
903.787	6670.87
904.101	6621.83
904.415	6615.96
904.729	6574.83
905.042	6556.3
905.356	6526.69
905.67	6535.73
905.984	6557.88
906.297	6522.63
906.611	6428.39
906.924	6388.84
907.237	6388.17
907.551	6369.41
907.864	6366.25
908.177	6314.95
908.491	6341.16
908.804	6284.89
909.117	6274.95
909.43	6250.77
909.743	6187.49
910.056	6185.01
910.368	6172.35
910.681	6070.21
910.994	6144.1
911.307	6134.84
911.619	6041.73
911.932	6074.95
912.244	6025.92
912.557	5935.07
912.869	5992.47
913.181	5938.46
913.494	5975.29
913.806	5912.7
914.118	5860.04
914.43	5839.71
914.742	5865.69
915.054	5792.02
915.366	5758.8
915.678	5727.84
915.99	5694.62
916.302	5719.71
916.613	5667.51
916.925	5680.39
917.236	5639.48
917.548	5615.08
917.859	5582.54
918.171	5524.46
918.482	5603.1
918.794	5546.61
919.105	5504.12
919.416	5482.88
919.727	5449.21
920.038	5453.27
920.349	5412.37
920.66	5391.81
920.971	5413.05
921.282	5394.75
921.593	5314.75
921.903	5291.92
922.214	5288.99
922.525	5303.9
922.835	5239.04
923.146	5199.27
923.456	5229.1
923.767	5184.81
924.077	5172.15
924.387	5147.97
924.697	5102.1
925.008	5102.55
925.318	5069.56
925.628	5109.33
925.938	5066.17
926.248	4981.65
926.558	4987.75
926.867	4980.07
927.177	4988.88
927.487	4976.68
927.796	4862.33
928.106	4897.58
928.416	4902.33
928.725	4870.92
929.034	4847.41
929.344	4867.75
929.653	4812.16
929.962	4796.57
930.271	4754.54
930.581	4715.44
930.89	4704.59
931.199	4700.3
931.508	4704.14
931.817	4653.07
932.125	4624.82
932.434	4622.34
932.743	4609.91
933.051	4573.3
933.36	4544.6
933.669	4537.14
933.977	4539.17
934.286	4547.54
934.594	4500.98
934.902	4457.37
935.21	4454.88
935.519	4410.36
935.827	4441.1
936.135	4417.82
936.443	4408.56
936.751	4396.13
937.059	4392.51
937.367	4304.15
937.674	4351.83
937.982	4290.59
938.29	4255.34
938.597	4279.29
938.905	4239.97
939.213	4232.29
939.52	4181.44
939.827	4195.23
940.135	4155.46
940.442	4137.83
940.749	4152.97
941.056	4155.23
941.363	4114.33
941.67	4081.79
941.977	4083.59
942.284	4007.89
942.591	3998.62
942.898	4042.46
943.205	4046.98
943.511	4007.89
943.818	3991.84
944.125	3915.46
944.431	3897.84
944.738	3926.54
945.044	3914.56
945.35	3924.73
945.657	3851.73
945.963	3812.87
946.269	3864.62
946.575	3837.27
946.881	3794.79
947.187	3769.7
947.493	3791.4
947.799	3786.43
948.105	3739.65
948.41	3733.09
948.716	3719.53
949.022	3735.35
949.327	3684.51
949.633	3660.1
949.938	3669.82
950.244	3608.35
950.549	3587.79
950.854	3620.33
951.16	3562.25
951.465	3589.37
951.77	3558.41
952.075	3550.05
952.38	3542.82
952.685	3495.13
952.99	3500.11
953.294	3503.72
953.599	3458.07
953.904	3490.61
954.209	3473.21
954.513	3431.63
954.818	3448.81
955.122	3398.41
955.426	3399.32
955.731	3356.61
956.035	3336.72
956.339	3371.52
956.643	3366.32
956.948	3299.21
957.252	3264.18
957.556	3258.53
957.86	3268.7
958.163	3239.55
958.467	3262.82
958.771	3171.53
959.075	3197.29
959.378	3213.56
959.682	3195.71
959.985	3202.94
960.289	3200
960.592	3129.04
960.896	3080
961.199	3114.35
961.502	3096.73
961.805	3070.51
962.108	3059.67
962.411	3101.92
962.714	3052.43
963.017	3040.23
963.32	3071.42
963.623	3003.85
963.926	3004.98
964.228	2989.16
964.531	3008.59
964.833	3003.17
965.136	2938.99
965.438	2962.27
965.741	2935.37
966.043	2908.48
966.345	2914.13
966.648	2901.93
966.95	2853.8
967.252	2883.85
967.554	2843.4
967.856	2819.67
968.158	2843.63
968.46	2831.2
968.761	2803.63
969.063	2787.58
969.365	2783.74
969.666	2789.62
969.968	2749.62
970.269	2746.45
970.571	2735.83
970.872	2743.97
971.174	2729.73
971.475	2697.41
971.776	2708.26
972.077	2661.48
972.378	2660.35
972.679	2675.49
972.98	2627.59
973.281	2648.15
973.582	2618.77
973.883	2587.59
974.183	2604.08
974.484	2609.06
974.785	2582.62
975.085	2629.62
975.386	2578.32
975.686	2536.06
975.986	2563.63
976.287	2529.74
976.587	2499
976.887	2553.46
977.187	2494.93
977.487	2516.4
977.787	2497.19
978.087	2489.51
978.387	2439.34
978.687	2455.61
978.987	2436.18
979.286	2408.83
979.586	2393.69
979.885	2412.22
980.185	2382.17
980.484	2367.25
980.784	2331.55
981.083	2332.45
981.382	2343.07
981.682	2338.33
981.981	2336.29
982.28	2316.86
982.579	2282.06
982.878	2302.62
983.177	2297.43
983.475	2270.08
983.774	2256.75
984.073	2253.81
984.372	2243.42
984.67	2218.78
984.969	2237.99
985.267	2201.16
985.566	2197.54
985.864	2195.06
986.162	2189.41
986.461	2174.94
986.759	2204.77
987.057	2150.76
987.355	2162.51
987.653	2132.91
987.951	2166.58
988.249	2147.82
988.547	2109.18
988.844	2070.99
989.142	2103.31
989.44	2100.59
989.737	2060.6
990.035	2077.54
990.332	2069.86
990.63	2084.32
990.927	2023.08
991.224	2007.72
991.521	2007.72
991.819	2034.61
992.116	2033.03
992.413	1986.93
992.71	1990.54
993.006	1964.33
993.303	1993.03
993.6	1946.93
993.897	1993.93
994.193	1930.43
994.49	1941.73
994.787	1939.69
995.083	1931.56
995.379	1908.06
995.676	1871.9
995.972	1890.2
996.268	1912.8
996.565	1886.14
996.861	1869.41
997.157	1851.56
997.453	1849.3
997.749	1833.93
998.044	1823.99
998.34	1814.05
998.636	1779.02
998.932	1790.32
999.227	1788.74
999.523	1774.95
999.818	1771.56
1000.114	1758.46
1000.409	1730.43
1000.704	1757.1
1001	1734.05
1001.295	1731.56
1001.59	1699.7
1001.885	1720.94
1002.18	1655.63
1002.475	1659.02
1002.77	1647.27
1003.065	1665.35
1003.359	1677.33
1003.654	1657.22
1003.949	1630.1
1004.243	1650.44
1004.538	1638.46
1004.832	1626.26
1005.127	1608.86
1005.421	1595.75
1005.715	1592.36
1006.009	1585.58
1006.304	1572.7
1006.598	1561.17
1006.892	1568.63
1007.186	1546.71
1007.48	1523.66
1007.773	1555.98
1008.067	1508.29
1008.361	1524.56
1008.655	1533.6
1008.948	1508.29
1009.242	1504.23
1009.535	1494.51
1009.829	1492.25
1010.122	1449.54
1010.415	1445.47
1010.708	1450.22
1011.001	1473.27
1011.295	1434.4
1011.588	1422.42
1011.881	1427.17
1012.173	1426.49
1012.466	1434.85
1012.759	1406.6
1013.052	1364.12
1013.344	1385.59
1013.637	1367.96
1013.93	1366.38
1014.222	1351.01
1014.514	1344.68
1014.807	1367.73
1015.099	1314.63
1015.391	1334.29
1015.683	1322.99
1015.976	1336.32
1016.268	1346.72
1016.56	1290.45
1016.851	1282.99
1017.143	1304.46
1017.435	1251.35
1017.727	1271.69
1018.018	1267.17
1018.31	1225.82
1018.602	1249.09
1018.893	1266.27
1019.185	1235.53
1019.476	1225.82
1019.767	1219.04
1020.058	1205.7
1020.35	1222.2
1020.641	1170.9
1020.932	1193.95
1021.223	1176.1
1021.514	1157.79
1021.804	1150.34
1022.095	1193.27
1022.386	1154.4
1022.677	1159.6
1022.967	1124.57
1023.258	1135.87
1023.548	1128.87
1023.839	1115.76
1024.129	1127.29
1024.419	1085.93
1024.709	1114.41
1025	1090.23
1025.29	1080.73
1025.58	1073.28
1025.87	1066.95
1026.16	1059.72
1026.449	1061.75
1026.739	1045.93
1027.029	1058.36
1027.319	1048.64
1027.608	1019.27
1027.898	1025.14
1028.187	1011.81
1028.477	996.67
1028.766	1014.07
1029.055	994.63
1029.344	990.79
1029.634	987.63
1029.923	981.3
1030.212	981.53
1030.501	1002.09
1030.79	956.9
1031.078	930.68
1031.367	943.34
1031.656	952.6
1031.945	921.64
1032.233	943.56
1032.522	930
1032.81	921.87
1033.099	920.06
1033.387	924.81
1033.675	905.82
1033.963	908.08
1034.251	876.67
1034.54	899.27
1034.828	873.73
1035.116	873.51
1035.403	876.9
1035.691	850.68
1035.979	862.66
1036.267	865.82
1036.554	868.54
1036.842	847.97
1037.129	871.47
1037.417	836.45
1037.704	826.73
1037.992	845.49
1038.279	836.22
1038.566	830.12
1038.853	830.12
1039.14	830.12
