Data from hue_190_FLMS001491_00090.txt Node
Date: Tue Feb 07 16:45:55 GMT 2017
User: dcchb
Spectrometer: FLMS00149
Trigger mode: 0
Integration Time (sec): 2.000000E-2
Scans to average: 10
Electric dark correction enabled: true
Nonlinearity correction enabled: false
Boxcar width: 0
XAxis mode: Wavelengths
Number of Pixels in Spectrum: 2048
>>>>>Begin Spectral Data<<<<<
341.393	-24.69
341.776	-24.69
342.16	-24.69
342.543	-55.2
342.927	-79.83
343.31	-80.51
343.693	-88.42
344.077	-66.95
344.46	-80.05
344.843	-46.83
345.226	-40.73
345.61	-18.14
345.993	0.62
346.376	-4.12
346.759	12.37
347.142	27.06
347.525	32.49
347.908	71.13
348.291	75.87
348.674	93.27
349.057	112.93
349.44	127.62
349.823	138.24
350.206	159.94
350.588	168.53
350.971	211.92
351.354	212.82
351.737	232.03
352.119	231.35
352.502	253.95
352.884	262.76
353.267	264.12
353.65	298.47
354.032	314.29
354.414	293.04
354.797	307.05
355.179	303.66
355.562	324.45
355.944	332.36
356.326	343.66
356.709	337.34
357.091	334.4
357.473	336.21
357.855	348.86
358.238	338.47
358.62	349.99
359.002	335.3
359.384	327.84
359.766	326.49
360.148	342.08
360.53	321.07
360.912	342.31
361.294	331.01
361.676	336.21
362.057	331.69
362.439	336.43
362.821	324.23
363.203	334.62
363.584	333.04
363.966	325.36
364.348	336.88
364.729	331.23
365.111	309.09
365.493	319.94
365.874	326.26
366.256	314.96
366.637	324.23
367.019	314.96
367.4	308.41
367.781	315.87
368.163	299.37
368.544	300.73
368.925	304.79
369.306	317
369.688	316.32
370.069	322.65
370.45	299.14
370.831	319.26
371.212	324.45
371.593	320.39
371.974	324
372.355	314.96
372.736	328.75
373.117	331.46
373.498	325.13
373.879	324.91
374.26	314.29
374.641	306.15
375.021	297.79
375.402	312.93
375.783	312.7
376.163	295.53
376.544	313.61
376.925	331.46
377.305	315.87
377.686	303.89
378.066	310.44
378.447	326.71
378.827	318.13
379.208	309.09
379.588	345.92
379.968	327.39
380.349	337.56
380.729	335.53
381.109	343.89
381.489	333.49
381.87	347.05
382.25	320.39
382.63	328.3
383.01	343.66
383.39	341.4
383.77	356.77
384.15	324.45
384.53	334.62
384.91	331.23
385.29	341.18
385.67	344.12
386.049	351.12
386.429	344.79
386.809	343.66
387.189	344.34
387.568	343.66
387.948	346.6
388.328	335.75
388.707	372.59
389.087	363.55
389.466	353.83
389.846	389.76
390.225	354.74
390.605	372.59
390.984	361.97
391.363	351.12
391.743	381.85
392.122	362.65
392.501	369.65
392.881	397
393.26	378.24
393.639	353.61
394.018	378.46
394.397	372.14
394.776	393.83
395.155	389.76
395.534	379.37
395.913	370.56
396.292	384.57
396.671	389.76
397.05	371.69
397.429	389.09
397.808	394.28
398.186	417.79
398.565	393.15
398.944	382.76
399.323	393.15
399.701	394.74
400.08	405.36
400.458	397.67
400.837	408.29
401.215	429.31
401.594	403.1
401.972	418.92
402.351	419.59
402.729	417.11
403.107	437.67
403.486	429.99
403.864	393.38
404.242	423.44
404.62	457.78
404.999	428.63
405.377	451.01
405.755	458.91
406.133	446.71
406.511	448.97
406.889	470.67
407.267	481.74
407.645	450.55
408.023	486.71
408.401	476.99
408.779	501.85
409.156	501.85
409.534	499.14
409.912	494.62
410.29	506.14
410.667	498.46
411.045	526.71
411.422	548.63
411.8	536.2
412.178	535.07
412.555	573.04
412.933	547.73
413.31	576.88
413.687	567.39
414.065	582.53
414.442	604.45
414.819	624.56
415.197	612.13
415.574	620.49
415.951	614.16
416.328	640.83
416.705	652.13
417.082	629.08
417.46	647.16
417.837	658.23
418.214	681.73
418.591	676.99
418.967	670.66
419.344	693.03
419.721	706.14
420.098	708.63
420.475	729.87
420.852	727.38
421.228	742.97
421.605	779.13
421.982	764.22
422.358	755.86
422.735	788.85
423.111	801.73
423.488	838.79
423.864	816.65
424.241	818.68
424.617	871.78
424.994	834.95
425.37	855.74
425.746	856.19
426.123	888.96
426.499	902.07
426.875	907.26
427.251	947.72
427.627	965.12
428.003	934.16
428.379	957.88
428.756	998.79
429.132	994.04
429.507	996.3
429.883	1040.59
430.259	1019.58
430.635	1010.54
431.011	1055.73
431.387	1080.82
431.763	1076.98
432.138	1110.87
432.514	1126.69
432.89	1122.85
433.265	1164.66
433.641	1180.25
434.016	1184.55
434.392	1202.62
434.767	1226.58
435.143	1243.07
435.518	1287.37
435.894	1298.89
436.269	1310.19
436.644	1354.94
437.02	1347.7
437.395	1354.03
437.77	1386.35
438.145	1421.83
438.52	1450.75
438.895	1461.6
439.271	1438.55
439.646	1553.8
440.021	1554.03
440.395	1574.37
440.77	1582.73
441.145	1567.36
441.52	1627.7
441.895	1634.25
442.27	1667.24
442.645	1632.67
443.019	1662.72
443.394	1668.15
443.769	1704.31
444.143	1721.71
444.518	1748.6
444.892	1763.51
445.267	1789.05
445.641	1775.04
446.016	1776.62
446.39	1832.44
446.764	1807.58
447.139	1851.19
447.513	1869.95
447.887	1873.11
448.262	1890.52
448.636	1909.05
449.01	1920.57
449.384	1956.95
449.758	1946.78
450.132	1976.61
450.506	2022.72
450.88	2026.33
451.254	2037.18
451.628	2081.92
452.002	2096.16
452.376	2064.97
452.75	2141.58
453.123	2139.32
453.497	2155.59
453.871	2197.85
454.244	2238.3
454.618	2260.9
454.992	2277.17
455.365	2298.87
455.739	2320.11
456.112	2359.88
456.486	2372.54
456.859	2401.69
457.232	2461.57
457.606	2449.37
457.979	2491.63
458.352	2545.19
458.725	2541.35
459.099	2571.4
459.472	2631.51
459.845	2647.78
460.218	2692.75
460.591	2704.51
460.964	2731.85
461.337	2782.7
461.71	2848.23
462.083	2868.57
462.456	2888.23
462.829	2913.09
463.201	2985.18
463.574	2942.47
463.947	3040.99
464.32	3082.12
464.692	3092.07
465.065	3122.57
465.438	3191.95
465.81	3188.79
466.183	3299.52
466.555	3353.75
466.928	3395.11
467.3	3382.91
467.672	3424.26
468.045	3486.41
468.417	3545.16
468.789	3544.71
469.161	3624.03
469.534	3693.18
469.906	3796.23
470.278	3780.64
470.65	3821.76
471.022	3915.32
471.394	3953.06
471.766	3981.53
472.138	4019.05
472.51	4112.83
472.882	4188.53
473.253	4229.44
473.625	4314.63
473.997	4439.83
474.369	4426.95
474.74	4523.44
475.112	4606.38
475.484	4649.76
475.855	4770.21
476.227	4792.81
476.598	4941.51
476.97	4988.74
477.341	5093.59
477.713	5148.73
478.084	5197.09
478.455	5282.06
478.827	5374.72
479.198	5543.75
479.569	5623.3
479.94	5698.78
480.311	5735.39
480.682	5927.02
481.053	6026.68
481.424	6054.47
481.795	6148.03
482.166	6283.85
482.537	6396.39
482.908	6498.08
483.279	6556.61
483.65	6653.1
484.021	6770.16
484.391	6923.15
484.762	6998.18
485.133	7033.88
485.503	7191.17
485.874	7299.19
486.244	7380.77
486.615	7472.97
486.985	7552.97
487.356	7732.85
487.726	7762.23
488.097	8018.94
488.467	7926.29
488.837	8155.89
489.207	8190.91
489.578	8325.37
489.948	8422.09
490.318	8524.69
490.688	8539.83
491.058	8721.97
491.428	8825.47
491.798	8886.72
492.168	9033.6
492.538	9080.61
492.908	9181.62
493.278	9314.95
493.648	9305.24
494.017	9430.43
494.387	9448.28
494.757	9503.42
495.126	9661.61
495.496	9721.5
495.866	9805.56
496.235	9887.82
496.605	9932.56
496.974	9984.09
497.344	10050.3
497.713	10103.86
498.082	10124.65
498.452	10174.59
498.821	10329.62
499.19	10226.57
499.559	10371.2
499.928	10338.2
500.298	10511.76
500.667	10515.37
501.036	10533
501.405	10615.26
501.774	10566.67
502.143	10693.9
502.512	10622.72
502.88	10763.5
503.249	10743.62
503.618	10787.46
503.987	10824.07
504.356	10890.05
504.724	10861.8
505.093	10974.34
505.462	10956.04
505.83	10992.42
506.199	11079.2
506.567	11161.46
506.936	11118.75
507.304	11224.06
507.672	11278.97
508.041	11203.94
508.409	11291.62
508.777	11381.57
509.145	11434.45
509.514	11397.38
509.882	11352.41
510.25	11408.23
510.618	11532.3
510.986	11519.64
511.354	11571.39
511.722	11536.36
512.09	11644.16
512.458	11566.87
512.826	11644.84
513.193	11734.78
513.561	11711.05
513.929	11703.82
514.297	11851.61
514.664	11858.16
515.032	11819.75
515.4	11837.37
515.767	11849.35
516.135	11920.99
516.502	11741.56
516.869	11962.34
517.237	11888.22
517.604	11790.59
517.972	11959.4
518.339	11885.96
518.706	11966.18
519.073	11974.54
519.44	12016.12
519.808	12036.46
520.175	11958.5
520.542	12103.81
520.909	12050.47
521.276	12053.41
521.643	12165.27
522.009	12178.61
522.376	12113.98
522.743	12079.63
523.11	12146.52
523.477	12244.59
523.843	12206.18
524.21	12275.55
524.577	12320.75
524.943	12226.29
525.31	12223.8
525.676	12289.79
526.043	12321.88
526.409	12339.28
526.776	12351.71
527.142	12297.02
527.508	12361.88
527.874	12340.86
528.241	12355.78
528.607	12400.75
528.973	12264.71
529.339	12321.65
529.705	12297.25
530.071	12349
530.437	12293.63
530.803	12355.32
531.169	12273.75
531.535	12212.73
531.901	12168.44
532.267	12219.74
532.632	12179.51
532.998	12160.98
533.364	12142.9
533.73	12065.16
534.095	12091.38
534.461	12070.13
534.826	12065.84
535.192	11972.74
535.557	12040.08
535.923	11852.51
536.288	11892.74
536.653	11868.33
537.019	11781.33
537.384	11779.07
537.749	11801.89
538.114	11657.94
538.479	11641.45
538.845	11732.97
539.21	11508.34
539.575	11571.84
539.94	11544.05
540.305	11497.04
540.67	11442.81
541.034	11355.58
541.399	11378.85
541.764	11297.95
542.129	11274.9
542.494	11173.66
542.858	11195.58
543.223	11182.47
543.587	11149.48
543.952	11083.72
544.316	11060.22
544.681	10925.98
545.045	10946.55
545.41	10928.47
545.774	10881.69
546.138	10758.76
546.503	10776.16
546.867	10702.49
547.231	10680.11
547.595	10662.49
547.959	10556.73
548.324	10558.08
548.688	10472.44
549.052	10446.9
549.416	10417.3
549.779	10377.52
550.143	10330.07
550.507	10350.63
550.871	10275.38
551.235	10197.19
551.599	10234.25
551.962	10216.62
552.326	10101.37
552.689	10103.63
553.053	10039
553.417	10001.04
553.78	10047.36
554.143	9960.81
554.507	9886.46
554.87	9829.74
555.234	9907.71
555.597	9848.72
555.96	9761.49
556.323	9826.35
556.686	9787.71
557.05	9720.14
557.413	9661.61
557.776	9689.86
558.139	9695.06
558.502	9627.26
558.865	9586.81
559.228	9647.83
559.59	9602.4
559.953	9612.12
560.316	9648.73
560.679	9606.24
561.041	9570.09
561.404	9571.9
561.767	9604.66
562.129	9577.77
562.492	9617.77
562.854	9549.52
563.217	9516.98
563.579	9499.81
563.941	9453.48
564.304	9543.87
564.666	9573.25
565.028	9512.46
565.39	9487.6
565.753	9498.9
566.115	9505.23
566.477	9502.74
566.839	9523.99
567.201	9562.18
567.563	9558.34
567.925	9607.15
568.287	9465.68
568.648	9484.89
569.01	9533.48
569.372	9639.24
569.734	9486.7
570.095	9540.71
570.457	9514.27
570.819	9543.87
571.18	9507.04
571.542	9467.94
571.903	9499.81
572.265	9559.01
572.626	9586.13
572.987	9517.43
573.349	9573.93
573.71	9636.75
574.071	9535.29
574.432	9538.22
574.794	9608.28
575.155	9529.41
575.516	9585.45
575.877	9548.39
576.238	9569.41
576.599	9573.48
576.96	9474.27
577.32	9606.7
577.681	9592.69
578.042	9584.1
578.403	9582.97
578.763	9500.26
579.124	9628.16
579.485	9580.71
579.845	9606.47
580.206	9545.68
580.566	9512.91
580.927	9513.14
581.287	9585.45
581.648	9531.22
582.008	9547.26
582.368	9473.82
582.728	9571.44
583.089	9502.29
583.449	9540.03
583.809	9555.85
584.169	9521.05
584.529	9504.33
584.889	9523.99
585.249	9467.72
585.609	9388.17
585.969	9496.42
586.329	9400.37
586.688	9415.74
587.048	9371.45
587.408	9364.44
587.768	9401.5
588.127	9420.26
588.487	9404.22
588.846	9404.44
589.206	9402.86
589.565	9365.12
589.925	9398.57
590.284	9382.07
590.643	9390.66
591.003	9385.46
591.362	9322.64
591.721	9417.1
592.08	9329.87
592.44	9407.38
592.799	9368.74
593.158	9349.98
593.517	9312.47
593.876	9359.02
594.235	9322.86
594.593	9305.69
594.952	9278.8
595.311	9257.1
595.67	9316.76
596.029	9258.23
596.387	9325.57
596.746	9309.08
597.104	9278.34
597.463	9283.32
597.822	9271.79
598.18	9297.55
598.538	9213.71
598.897	9238.8
599.255	9234.5
599.613	9262.98
599.972	9165.58
600.33	9241.28
600.688	9184.56
601.046	9266.59
601.404	9219.81
601.762	9210.55
602.12	9170.1
602.478	9203.54
602.836	9248.51
603.194	9250.32
603.552	9174.84
603.91	9166.71
604.268	9202.87
604.625	9142.53
604.983	9226.82
605.341	9129.19
605.698	9229.08
606.056	9224.11
606.413	9199.48
606.771	9194.96
607.128	9242.64
607.485	9136.2
607.843	9193.15
608.2	9254.16
608.557	9252.13
608.914	9211
609.272	9291.9
609.629	9303.65
609.986	9337.1
610.343	9279.93
610.7	9316.99
611.057	9297.78
611.414	9277.44
611.771	9275.86
612.127	9321.51
612.484	9273.37
612.841	9277.67
613.198	9293.48
613.554	9334.39
613.911	9353.6
614.267	9307.72
614.624	9343.43
614.98	9351.34
615.337	9387.49
615.693	9392.92
616.05	9356.53
616.406	9437.89
616.762	9378.23
617.118	9383.2
617.475	9341.84
617.831	9413.71
618.187	9427.04
618.543	9388.17
618.899	9422.75
619.255	9435.63
619.611	9428.17
619.967	9433.37
620.323	9494.16
620.678	9417.32
621.034	9411.45
621.39	9420.94
621.746	9439.47
622.101	9449.64
622.457	9381.62
622.812	9439.02
623.168	9471.33
623.523	9440.15
623.879	9469.07
624.234	9359.7
624.589	9417.55
624.945	9385.23
625.3	9449.19
625.655	9418.45
626.01	9448.96
626.365	9432.46
626.72	9415.06
627.075	9382.07
627.43	9400.83
627.785	9401.28
628.14	9405.35
628.495	9406.02
628.85	9372.35
629.205	9398.79
629.559	9363.54
629.914	9315.4
630.269	9387.95
630.623	9375.74
630.978	9355.86
631.332	9363.77
631.687	9359.25
632.041	9358.57
632.396	9322.86
632.75	9311.34
633.104	9335.52
633.459	9260.49
633.813	9200.83
634.167	9233.37
634.521	9268.85
634.875	9213.49
635.229	9261.85
635.583	9131.91
635.937	9145.47
636.291	9153.6
636.645	9183.66
636.999	9102.98
637.352	9231.11
637.706	9130.78
638.06	9122.19
638.413	9106.37
638.767	9145.47
639.121	9093.49
639.474	9084.9
639.828	9015.53
640.181	9119.7
640.534	9114.96
640.888	9075.64
641.241	9054.39
641.594	9048.29
641.947	9050.78
642.301	9032.02
642.654	9036.77
643.007	9006.03
643.36	9097.33
643.713	8999.03
644.066	8988.63
644.419	8947.5
644.771	8868.18
645.124	8816.89
645.477	8919.71
645.83	8787.06
646.182	8709.55
646.535	8666.83
646.888	8689.88
647.24	8618.93
647.593	8705.25
647.945	8648.53
648.298	8645.14
648.65	8590.68
649.002	8604.46
649.355	8693.95
649.707	8641.75
650.059	8737.34
650.411	8753.61
650.763	8812.59
651.115	8873.83
651.467	8871.57
651.819	8836.32
652.171	8871.57
652.523	8825.02
652.875	8790.45
653.227	8758.58
653.578	8827.28
653.93	8833.61
654.282	8827.28
654.633	8751.58
654.985	8825.02
655.337	8775.08
655.688	8771.24
656.039	8842.87
656.391	8781.63
656.742	8784.35
657.094	8790.9
657.445	8899.37
657.796	8851.01
658.147	8805.81
658.498	8779.6
658.849	8820.28
659.2	8845.13
659.551	8859.82
659.902	8873.16
660.253	8840.62
660.604	8840.84
660.955	8855.08
661.306	8822.99
661.656	8879.71
662.007	8935.98
662.358	8873.83
662.708	8849.65
663.059	8845.36
663.409	8819.6
663.76	8878.81
664.11	8822.31
664.461	8840.62
664.811	8827.96
665.161	8841.74
665.511	8797.45
665.862	8879.94
666.212	8984.34
666.562	8927.39
666.912	8848.3
667.262	8862.08
667.612	8847.85
667.962	8844.23
668.312	8889.43
668.662	8908.41
669.011	8849.65
669.361	8891.24
669.711	8917.9
670.06	8846.72
670.41	8856.66
670.76	8840.39
671.109	8874.51
671.459	8821.86
671.808	8822.08
672.157	8824.57
672.507	8816.43
672.856	8832.48
673.205	8759.49
673.554	8837.9
673.904	8787.51
674.253	8825.47
674.602	8796.77
674.951	8666.38
675.3	8689.21
675.649	8747.06
675.998	8712.48
676.346	8724.01
676.695	8739.83
677.044	8677.46
677.393	8702.31
677.741	8723.33
678.09	8736.89
678.438	8623.9
678.787	8727.4
679.135	8700.51
679.484	8606.27
679.832	8614.41
680.181	8609.66
680.529	8638.59
680.877	8596.55
681.225	8565.59
681.573	8667.29
681.922	8564.46
682.27	8508.87
682.618	8528.31
682.966	8481.98
683.314	8507.97
683.661	8488.08
684.009	8410.34
684.357	8409.89
684.705	8387.07
685.053	8439.27
685.4	8354.98
685.748	8347.29
686.095	8322.89
686.443	8310.91
686.79	8266.39
687.138	8349.33
687.485	8249.9
687.832	8246.73
688.18	8257.35
688.527	8228.43
688.874	8192.27
689.221	8171.03
689.568	8081.76
689.915	8182.33
690.262	8105.49
690.609	8114.53
690.956	8065.04
691.303	8067.3
691.65	7984.82
691.997	7974.65
692.344	7950.02
692.69	7918.61
693.037	7913.41
693.383	7835.9
693.73	7840.64
694.077	7811.72
694.423	7812.85
694.769	7815.33
695.116	7755.9
695.462	7722.68
695.808	7720.87
696.155	7674.77
696.501	7658.5
696.847	7628.44
697.193	7613.75
697.539	7619.4
697.885	7479.29
698.231	7490.82
698.577	7469.58
698.923	7492.63
699.269	7455.34
699.614	7398.39
699.96	7392.74
700.306	7364.72
700.651	7311.84
700.997	7282.01
701.342	7315.01
701.688	7213.54
702.033	7256.93
702.379	7275.01
702.724	7216.02
703.069	7230.49
703.415	7118.63
703.76	7150.49
704.105	7145.29
704.45	7077.27
704.795	7026.43
705.14	7017.16
705.485	7008.35
705.83	6982.58
706.175	6983.26
706.52	6912.76
706.865	6976.03
707.209	6860.33
707.554	6893.1
707.899	6909.14
708.243	6838.63
708.588	6823.49
708.932	6804.06
709.277	6817.84
709.621	6717.51
709.966	6733.78
710.31	6767.22
710.654	6654.68
710.998	6671.63
711.342	6684.29
711.687	6689.49
712.031	6615.36
712.375	6609.04
712.719	6660.11
713.063	6567
713.407	6597.96
713.75	6548.25
714.094	6556.61
714.438	6581.92
714.782	6560.9
715.125	6510.51
715.469	6541.92
715.812	6466.44
716.156	6474.58
716.499	6486.55
716.843	6461.02
717.186	6412.88
717.53	6472.99
717.873	6478.19
718.216	6419.44
718.559	6415.59
718.902	6373.11
719.246	6380.57
719.589	6409.27
719.932	6341.02
720.275	6376.95
720.617	6366.1
720.96	6359.1
721.303	6322.49
721.646	6318.65
721.989	6342.83
722.331	6293.79
722.674	6273.9
723.016	6316.16
723.359	6287.01
723.701	6372.66
724.044	6293.11
724.386	6261.25
724.729	6270.97
725.071	6306.44
725.413	6350.29
725.755	6272.32
726.097	6190.74
726.439	6220.34
726.782	6261.25
727.124	6278.87
727.465	6202.04
727.807	6215.15
728.149	6204.98
728.491	6213.79
728.833	6218.09
729.175	6188.93
729.516	6249.04
729.858	6199.1
730.199	6248.59
730.541	6206.56
730.882	6194.81
731.224	6218.99
731.565	6217.86
731.906	6191.19
732.248	6209.27
732.589	6176.05
732.93	6202.94
733.271	6147.8
733.612	6172.21
733.953	6217.18
734.294	6228.48
734.635	6246.33
734.976	6234.36
735.317	6169.05
735.658	6217.63
735.999	6215.15
736.339	6171.98
736.68	6252.43
737.021	6194.81
737.361	6223.73
737.702	6244.53
738.042	6246.78
738.383	6229.38
738.723	6207.24
739.063	6246.78
739.404	6248.59
739.744	6252.43
740.084	6241.59
740.424	6263.51
740.764	6275.71
741.104	6318.87
741.444	6262.83
741.784	6271.87
742.124	6313.68
742.464	6331.3
742.804	6300.34
743.143	6355.03
743.483	6381.7
743.823	6352.77
744.162	6401.81
744.502	6468.25
744.841	6424.63
745.181	6543.5
745.52	6472.32
745.86	6575.59
746.199	6600.45
746.538	6626.89
746.877	6649.26
747.216	6686.55
747.556	6749.6
747.895	6810.84
748.234	6805.19
748.573	6853.32
748.911	6905.07
749.25	6958.4
749.589	7006.76
749.928	7019.87
750.267	7127.21
750.605	7174.9
750.944	7245.4
751.283	7317.94
751.621	7394.55
751.96	7468.22
752.298	7508.22
752.636	7626.86
752.975	7758.16
753.313	7779.4
753.651	7985.04
753.989	8060.07
754.327	8066.85
754.666	8154.76
755.004	8344.58
755.342	8504.58
755.679	8562.88
756.017	8684.01
756.355	8897.79
756.693	8940.95
757.031	9124.22
757.368	9206.71
757.706	9340.26
758.044	9485.57
758.381	9650.09
758.719	9801.49
759.056	10013.47
759.394	10110.64
759.731	10235.83
760.068	10442.83
760.405	10556.05
760.743	10711.75
761.08	10878.75
761.417	11054.79
761.754	11250.5
762.091	11433.32
762.428	11552.18
762.765	11670.15
763.102	11935.22
763.438	12037.82
763.775	12167.99
764.112	12390.58
764.449	12574.3
764.785	12714.19
765.122	12783.34
765.458	13042.31
765.795	13240.5
766.131	13402.98
766.467	13558.68
766.804	13635.52
767.14	13745.34
767.476	13972.68
767.812	14126.13
768.148	14330.19
768.485	14368.83
768.821	14497.19
769.157	14637.52
769.492	14844.52
769.828	14922.04
770.164	15059.89
770.5	15149.38
770.836	15215.81
771.171	15429.59
771.507	15446.77
771.842	15553.21
772.178	15635.24
772.513	15725.86
772.849	15865.29
773.184	15956.13
773.519	16138.5
773.855	16090.82
774.19	16194.09
774.525	16258.5
774.86	16381.66
775.195	16484.93
775.53	16478.38
775.865	16570.36
776.2	16622.56
776.535	16669.56
776.87	16736.68
777.205	16789.78
777.539	16762.89
777.874	17011.02
778.209	16877.47
778.543	16863.91
778.878	16955.66
779.212	17003.34
779.547	17048.31
779.881	17227.97
780.215	17064.35
780.55	17155.88
780.884	17190.23
781.218	17176.22
781.552	17370.33
781.886	17237.46
782.22	17316.55
782.554	17292.6
782.888	17208.53
783.222	17196.78
783.556	17261.41
783.889	17214.63
784.223	17172.6
784.557	17233.16
784.89	17237
785.224	17121.98
785.557	17209.21
785.891	17212.15
786.224	17217.12
786.558	17195.42
786.891	17046.95
787.224	17123.56
787.557	17220.96
787.891	17112.49
788.224	17184.58
788.557	17163.79
788.89	17092.38
789.223	17202.66
789.556	17161.53
789.888	17127.85
790.221	17062.77
790.554	17046.5
790.887	16991.81
791.219	16922.89
791.552	16975.32
791.884	16927.41
792.217	16904.36
792.549	16802.44
792.882	16836.79
793.214	16749.56
793.546	16836.11
793.879	16733.51
794.211	16673.4
794.543	16689.45
794.875	16698.26
795.207	16816.45
795.539	16608.09
795.871	16674.76
796.203	16564.48
796.535	16483.8
796.867	16459.85
797.198	16443.8
797.53	16479.51
797.862	16340.76
798.193	16435.44
798.525	16307.76
798.856	16322.68
799.188	16157.26
799.519	16091.05
799.85	16160.87
800.182	16195.68
800.513	16093.98
800.844	16028.9
801.175	16086.3
801.506	16035.68
801.837	16024.38
802.168	16040.88
802.499	15837.72
802.83	15928.34
803.161	15827.55
803.491	15923.59
803.822	15852.86
804.153	15802.92
804.483	15664.84
804.814	15640.21
805.145	15653.77
805.475	15661.9
805.805	15608.35
806.136	15621.45
806.466	15504.17
806.796	15533.55
807.126	15367.45
807.457	15436.6
807.787	15472.08
808.117	15426.66
808.447	15361.57
808.777	15420.78
809.107	15255.36
809.436	15275.93
809.766	15177.62
810.096	15196.83
810.426	15079.55
810.755	15203.39
811.085	15098.08
811.414	15039.1
811.744	14950.51
812.073	14856.05
812.403	15042.49
812.732	14898.08
813.061	14968.59
813.39	14794.58
813.719	14816.05
814.049	14861.47
814.378	14887.91
814.707	14741.7
815.036	14765.88
815.365	14694.92
815.693	14602.72
816.022	14630.07
816.351	14621.71
816.68	14475.5
817.008	14535.83
817.337	14428.49
817.665	14432.11
817.994	14502.84
818.322	14444.31
818.651	14343.97
818.979	14323.63
819.307	14404.99
819.636	14386.91
819.964	14322.05
820.292	14344.2
820.62	14356.63
820.948	14331.32
821.276	14309.85
821.604	14293.35
821.932	14296.97
822.259	14392.33
822.587	14279.57
822.915	14287.48
823.243	14303.75
823.57	14223.07
823.898	14239.57
824.225	14190.3
824.553	14259
824.88	14272.34
825.207	14243.41
825.535	14334.26
825.862	14256.52
826.189	14281.6
826.516	14356.4
826.843	14372.67
827.17	14348.04
827.497	14358.89
827.824	14365.89
828.151	14366.12
828.478	14363.18
828.805	14468.04
829.131	14336.52
829.458	14350.3
829.785	14330.41
830.111	14300.81
830.438	14413.8
830.764	14343.3
831.09	14395.27
831.417	14289.96
831.743	14381.03
832.069	14418.55
832.395	14220.13
832.722	14287.93
833.048	14264.65
833.374	14262.17
833.7	14223.07
834.026	14183.3
834.351	14293.58
834.677	14210.19
835.003	14260.59
835.329	14302.62
835.654	14209.74
835.98	14201.83
836.306	14184.88
836.631	14128.39
836.956	14158.22
837.282	14142.17
837.607	14117.99
837.932	14142.4
838.258	14095.62
838.583	14060.82
838.908	13914.61
839.233	13983.76
839.558	14010.87
839.883	13885.45
840.208	13907.83
840.533	13889.52
840.858	13835.96
841.182	13856.98
841.507	13813.82
841.832	13739.7
842.156	13729.98
842.481	13676.19
842.805	13703.31
843.13	13728.17
843.454	13660.15
843.778	13559.59
844.103	13534.95
844.427	13552.58
844.751	13487.72
845.075	13516.2
845.399	13430.78
845.723	13393.94
846.047	13435.3
846.371	13338.8
846.695	13271.91
847.019	13207.73
847.343	13122.99
847.666	13019.71
847.99	12990.34
848.313	13032.37
848.637	12971.35
848.96	12897.91
849.284	12856.78
849.607	12753.96
849.931	12734.07
850.254	12700.4
850.577	12587.64
850.9	12547.18
851.223	12456.57
851.546	12417.47
851.869	12348.32
852.192	12490.01
852.515	12407.3
852.838	12315.1
853.161	12265.16
853.483	12250.47
853.806	12168.44
854.129	12176.35
854.451	12163.69
854.774	12048.67
855.096	12010.25
855.419	11930.03
855.741	11928.44
856.063	12015.45
856.385	11865.85
856.708	11806.41
857.03	11833.76
857.352	11787.88
857.674	11791.95
857.996	11728.9
858.318	11618.62
858.64	11645.29
858.961	11624.72
859.283	11579.98
859.605	11497.95
859.926	11511.51
860.248	11444.16
860.57	11461.11
860.891	11464.5
861.212	11366.88
861.534	11322.36
861.855	11325.52
862.176	11273.32
862.498	11311.96
862.819	11278.97
863.14	11283.71
863.461	11201.23
863.782	11186.77
864.103	11174.56
864.424	11162.59
864.745	11276.71
865.065	11085.08
865.386	11088.92
865.707	11053.66
866.027	11072.65
866.348	11034.23
866.668	11019.99
866.989	11012.99
867.309	10943.84
867.63	11002.14
867.95	11012.76
868.27	10880.79
868.59	10860.45
868.91	10890.96
869.23	10809.38
869.55	10838.75
869.87	10864.06
870.19	10892.99
870.51	10817.06
870.83	10782.26
871.15	10705.2
871.469	10798.3
871.789	10821.13
872.109	10758.3
872.428	10661.13
872.748	10760.79
873.067	10718.76
873.386	10646.22
873.706	10695.71
874.025	10625.88
874.344	10620
874.663	10574.58
874.982	10589.04
875.301	10495.94
875.62	10567.8
875.939	10463.4
876.258	10542.27
876.577	10508.82
876.896	10467.01
877.214	10488.48
877.533	10432.44
877.852	10422.04
878.17	10455.26
878.489	10386.56
878.807	10391.31
879.125	10378.43
879.444	10336.39
879.762	10225.66
880.08	10280.35
880.398	10290.97
880.716	10249.39
881.034	10214.82
881.352	10261.14
881.67	10178.88
881.988	10147.02
882.306	10094.59
882.624	10079.45
882.941	10133.24
883.259	10057.53
883.577	10016.4
883.894	10082.62
884.212	10003.97
884.529	10054.59
884.846	9915.16
885.164	9958.55
885.481	9914.26
885.798	9942.51
886.115	9859.8
886.432	9883.3
886.75	9779.12
887.067	9860.25
887.383	9800.36
887.7	9761.49
888.017	9779.35
888.334	9731.89
888.651	9732.79
888.967	9723.76
889.284	9622.74
889.6	9652.35
889.917	9576.64
890.233	9584.55
890.55	9532.8
890.866	9468.4
891.182	9493.93
891.498	9469.07
891.815	9462.29
892.131	9421.62
892.447	9406.7
892.763	9393.14
893.079	9381.39
893.395	9285.12
893.71	9235.41
894.026	9248.74
894.342	9113.38
894.657	9112.7
894.973	9076.54
895.289	9152.25
895.604	9174.84
895.92	9011.91
896.235	9012.14
896.55	8952.25
896.865	8964.68
897.181	8912.7
897.496	8935.75
897.811	8887.39
898.126	8839.94
898.441	8782.31
898.756	8751.8
899.071	8699.15
899.386	8761.52
899.7	8607.4
900.015	8622.77
900.33	8526.05
900.644	8501.19
900.959	8567.4
901.273	8519.27
901.588	8457.12
901.902	8400.4
902.216	8395.43
902.531	8429.55
902.845	8314.53
903.159	8289.67
903.473	8303
903.787	8264.13
904.101	8189.33
904.415	8183.68
904.729	8106.17
905.042	8109.33
905.356	8146.62
905.67	8150.01
905.984	8010.58
906.297	8005.83
906.611	8005.16
906.924	8004.48
907.237	7936.68
907.551	7939.4
907.864	7844.71
908.177	7862.56
908.491	7766.07
908.804	7773.3
909.117	7704.37
909.43	7632.96
909.743	7600.42
910.056	7688.55
910.368	7573.3
910.681	7564.49
910.994	7544.83
911.307	7519.52
911.619	7436.58
911.932	7486.53
912.244	7425.96
912.557	7388
912.869	7343.48
913.181	7283.82
913.494	7279.3
913.806	7211.96
914.118	7224.39
914.43	7183.94
914.742	7229.58
915.054	7161.56
915.366	7111.62
915.678	7077.5
915.99	7080.66
916.302	7075.46
916.613	6949.37
916.925	6959.53
917.236	6968.57
917.548	6895.13
917.859	6976.71
918.171	6894.9
918.482	6785.53
918.794	6792.76
919.105	6818.97
919.416	6761.8
919.727	6773.55
920.038	6707.11
920.349	6705.3
920.66	6691.52
920.971	6631.18
921.282	6613.33
921.593	6524.29
921.903	6474.12
922.214	6555.03
922.525	6520.9
922.835	6501.69
923.146	6435.71
923.456	6424.63
923.767	6397.74
924.077	6371.3
924.387	6343.05
924.697	6340.79
925.008	6307.35
925.318	6294.02
925.628	6258.99
925.938	6197.52
926.248	6126.79
926.558	6196.84
926.867	6115.94
927.177	6149.16
927.487	6029.16
927.796	5995.94
928.106	6028.26
928.416	5988.26
928.725	6002.95
929.034	5930.41
929.344	5960.92
929.653	5949.84
929.962	5932.67
930.271	5832.33
930.581	5849.51
930.89	5788.27
931.199	5786.46
931.508	5770.41
931.817	5742.17
932.125	5689.74
932.434	5773.58
932.743	5696.29
933.051	5668.72
933.36	5608.38
933.669	5555.5
933.977	5604.32
934.286	5546.69
934.594	5496.3
934.902	5536.07
935.21	5465.11
935.519	5447.03
935.827	5437.09
936.135	5398.67
936.443	5388.28
936.751	5373.14
937.059	5371.1
937.367	5317.09
937.674	5296.53
937.982	5270.31
938.29	5266.47
938.597	5233.03
938.905	5185.57
939.213	5181.5
939.52	5163.2
939.827	5169.07
940.135	5114.39
940.442	5106.25
940.749	5104.44
941.056	5093.59
941.363	5031.9
941.67	4992.58
941.977	4983.32
942.284	4966.37
942.591	4934.73
942.898	4930.21
943.205	4958.23
943.511	4932.24
943.818	4849.31
944.125	4818.35
944.431	4807.95
944.738	4822.19
945.044	4840.27
945.35	4783.55
945.657	4769.08
945.963	4725.92
946.269	4714.4
946.575	4716.2
946.881	4644.79
947.187	4652.25
947.493	4612.03
947.799	4598.47
948.105	4566.15
948.41	4566.6
948.716	4525.25
949.022	4541.07
949.327	4540.16
949.633	4442.31
949.938	4506.27
950.244	4459.49
950.549	4401.41
950.854	4431.01
951.16	4410
951.465	4360.73
951.77	4364.57
952.075	4312.37
952.38	4313.95
952.685	4301.98
952.99	4243.67
953.294	4285.71
953.599	4251.58
953.904	4235.31
954.209	4234.86
954.513	4197.8
954.818	4157.57
955.122	4156.67
955.426	4148.76
955.731	4115.99
956.035	4136.33
956.339	4072.15
956.643	4033.06
956.948	4064.92
957.252	4059.5
957.556	4032.38
957.86	4008.88
958.163	4004.13
958.467	3963.46
958.771	3979.27
959.075	3947.86
959.378	3904.02
959.682	3902.44
959.985	3895.43
960.289	3838.03
960.592	3864.7
960.896	3841.2
961.199	3823.35
961.502	3827.41
961.805	3774.99
962.108	3798.71
962.411	3750.58
962.714	3714.42
963.017	3740.41
963.32	3734.99
963.623	3714.42
963.926	3686.85
964.228	3685.72
964.531	3665.16
964.833	3631.03
965.136	3619.28
965.438	3601.66
965.741	3581.77
966.043	3622
966.345	3558.04
966.648	3530.02
966.95	3502
967.252	3504.48
967.554	3475.33
967.856	3464.26
968.158	3449.34
968.46	3470.59
968.761	3438.5
969.063	3436.92
969.365	3400.31
969.666	3401.21
969.968	3372.51
970.269	3356.47
970.571	3364.37
970.872	3326.64
971.174	3365.5
971.475	3317.37
971.776	3282.8
972.077	3272.17
972.378	3239.86
972.679	3240.31
972.98	3245.51
973.281	3252.74
973.582	3226.53
973.883	3245.51
974.183	3191.05
974.484	3184.94
974.785	3114.66
975.085	3175.91
975.386	3107.43
975.686	3105.85
975.986	3095.91
976.287	3123.93
976.587	3075.57
976.887	3128.67
977.187	3072.41
977.487	3022.24
977.787	3008
978.087	3018.85
978.387	2983.59
978.687	3016.36
978.987	2926.87
979.286	2923.48
979.586	2927.1
979.885	2941.34
980.185	2898.85
980.484	2886.87
980.784	2887.1
981.083	2892.75
981.382	2874.44
981.682	2841.45
981.981	2824.73
982.28	2849.13
982.579	2765.29
982.878	2796.25
983.177	2772.98
983.475	2780.89
983.774	2745.86
984.073	2726.88
984.372	2728.23
984.67	2734.79
984.969	2718.52
985.267	2704.96
985.566	2684.17
985.864	2667.22
986.162	2676.03
986.461	2653.21
986.759	2625.86
987.057	2626.54
987.355	2573.21
987.653	2612.76
987.951	2621.8
988.249	2573.21
988.547	2557.16
988.844	2553.32
989.142	2535.47
989.44	2527.11
989.737	2515.13
990.035	2487.56
990.332	2509.26
990.63	2477.39
990.927	2509.71
991.224	2477.17
991.521	2422.93
991.819	2437.39
992.116	2433.55
992.413	2416.6
992.71	2390.62
993.006	2375.93
993.303	2401.69
993.6	2388.13
993.897	2373.89
994.193	2374.8
994.49	2379.54
994.787	2301.13
995.083	2307.45
995.379	2284.63
995.676	2295.93
995.972	2281.92
996.268	2291.41
996.565	2274.91
996.861	2282.37
997.157	2235.36
997.453	2247.34
997.749	2230.62
998.044	2187.91
998.34	2184.52
998.636	2186.1
998.932	2199.89
999.227	2189.72
999.523	2154.92
999.818	2154.69
1000.114	2116.5
1000.409	2092.09
1000.704	2113.33
1001	2087.8
1001.295	2088.7
1001.59	2065.2
1001.885	2067.91
1002.18	2031.98
1002.475	2017.97
1002.77	2071.53
1003.065	2013.45
1003.359	1973.45
1003.654	2005.09
1003.949	1994.24
1004.243	1997.18
1004.538	1949.5
1004.832	1930.97
1005.127	1931.19
1005.421	1922.15
1005.715	1910.4
1006.009	1924.19
1006.304	1896.16
1006.598	1888.48
1006.892	1856.39
1007.186	1854.81
1007.48	1886.9
1007.773	1829.95
1008.067	1804.64
1008.361	1824.3
1008.655	1833.12
1008.948	1789.73
1009.242	1813.46
1009.535	1786.34
1009.829	1744.98
1010.122	1767.81
1010.415	1755.83
1010.708	1762.61
1011.001	1733.01
1011.295	1696.85
1011.588	1720.8
1011.881	1694.81
1012.173	1688.49
1012.466	1699.33
1012.759	1681.26
1013.052	1627.47
1013.344	1636.74
1013.637	1638.32
1013.93	1604.87
1014.222	1590.41
1014.514	1614.59
1014.807	1623.86
1015.099	1617.75
1015.391	1590.64
1015.683	1575.27
1015.976	1552.9
1016.268	1551.32
1016.56	1568.94
1016.851	1517.19
1017.143	1533.24
1017.435	1518.32
1017.727	1502.28
1018.018	1514.03
1018.31	1503.63
1018.602	1481.03
1018.893	1457.53
1019.185	1482.16
1019.476	1455.5
1019.767	1424.09
1020.058	1436.06
1020.35	1430.19
1020.641	1420.02
1020.932	1387.48
1021.223	1399.45
1021.514	1377.99
1021.804	1348.83
1022.095	1366.69
1022.386	1344.54
1022.677	1352.9
1022.967	1338.89
1023.258	1358.78
1023.548	1340.7
1023.839	1327.14
1024.129	1285.56
1024.419	1292.56
1024.709	1300.7
1025	1312.23
1025.29	1281.49
1025.58	1274.94
1025.87	1256.41
1026.16	1256.18
1026.449	1265.22
1026.739	1216.41
1027.029	1243.07
1027.319	1227.03
1027.608	1211.89
1027.898	1213.24
1028.187	1214.37
1028.477	1184.09
1028.766	1177.99
1029.055	1159.46
1029.344	1194.49
1029.634	1176.86
1029.923	1165.34
1030.212	1146.35
1030.501	1147.26
1030.79	1126.69
1031.078	1124.89
1031.367	1113.81
1031.656	1120.37
1031.945	1118.78
1032.233	1101.38
1032.522	1068.16
1032.81	1099.58
1033.099	1086.92
1033.387	1080.82
1033.675	1065.23
1033.963	1049.63
1034.251	1053.25
1034.54	1034.27
1034.828	1037.66
1035.116	1044.66
1035.403	1039.46
1035.691	1026.13
1035.979	991.56
1036.267	979.13
1036.554	1029.52
1036.842	955.4
1037.129	971.22
1037.417	986.13
1037.704	965.57
1037.992	947.94
1038.279	963.53
1038.566	938.68
1038.853	938.68
1039.14	938.68
