Data from hue_140_FLMS001491_00012.txt Node
Date: Tue Feb 07 16:55:28 GMT 2017
User: dcchb
Spectrometer: FLMS00149
Trigger mode: 0
Integration Time (sec): 2.000000E-2
Scans to average: 10
Electric dark correction enabled: true
Nonlinearity correction enabled: false
Boxcar width: 0
XAxis mode: Wavelengths
Number of Pixels in Spectrum: 2048
>>>>>Begin Spectral Data<<<<<
341.393	-10.34
341.776	-10.34
342.16	-10.34
342.543	-87.85
342.927	-66.16
343.31	-66.38
343.693	-77.46
344.077	-71.35
344.46	-47.17
344.843	-33.61
345.226	-36.33
345.61	-18.25
345.993	-12.82
346.376	-14.86
346.759	3.9
347.142	34.63
347.525	38.47
347.908	54.07
348.291	71.24
348.674	84.8
349.057	91.13
349.44	116.89
349.823	129.09
350.206	135.65
350.588	180.39
350.971	203.21
351.354	218.58
351.737	223.55
352.119	236.89
352.502	239.82
352.884	257.45
353.267	268.52
353.65	300.84
354.032	270.33
354.414	287.51
354.797	289.54
355.179	292.03
355.562	327.73
355.944	312.36
356.326	294.74
356.709	313.27
357.091	321.18
357.473	341.29
357.855	335.41
358.238	328.18
358.62	332.48
359.002	343.78
359.384	334.96
359.766	320.27
360.148	338.35
360.53	322.99
360.912	326.38
361.294	334.96
361.676	333.61
362.057	325.47
362.439	327.96
362.821	329.09
363.203	330.9
363.584	331.8
363.966	322.31
364.348	322.53
364.729	301.07
365.111	299.26
365.493	321.18
365.874	318.24
366.256	282.08
366.637	304
367.019	307.17
367.4	326.6
367.781	307.39
368.163	308.3
368.544	312.82
368.925	306.72
369.306	318.92
369.688	317.56
370.069	322.99
370.45	317.34
370.831	326.15
371.212	305.59
371.593	300.16
371.974	301.74
372.355	323.66
372.736	318.47
373.117	321.86
373.498	305.59
373.879	326.83
374.26	306.04
374.641	318.24
375.021	308.3
375.402	317.11
375.783	316.21
376.163	305.36
376.544	318.47
376.925	330.67
377.305	320.27
377.686	321.63
378.066	307.62
378.447	321.4
378.827	325.25
379.208	301.52
379.588	318.92
379.968	320.95
380.349	332.7
380.729	355.75
381.109	328.86
381.489	333.38
381.87	327.73
382.25	328.41
382.63	337.67
383.01	320.5
383.39	350.33
383.77	350.1
384.15	316.21
384.53	335.19
384.91	338.58
385.29	346.71
385.67	340.39
386.049	340.39
386.429	346.26
386.809	354.62
387.189	342.65
387.568	343.78
387.948	355.98
388.328	339.26
388.707	348.07
389.087	361.85
389.466	355.53
389.846	363.21
390.225	353.04
390.605	372.93
390.984	351.01
391.363	358.01
391.743	362.76
392.122	360.95
392.501	356.88
392.881	352.36
393.26	369.99
393.639	371.8
394.018	384
394.397	372.48
394.776	377
395.155	379.93
395.534	368.86
395.913	352.82
396.292	366.15
396.671	377.22
397.05	353.72
397.429	362.08
397.808	385.13
398.186	376.32
398.565	402.53
398.944	389.42
399.323	391.01
399.701	380.61
400.08	398.92
400.458	382.42
400.837	404.34
401.215	405.02
401.594	407.73
401.972	395.53
402.351	392.81
402.729	394.85
403.107	398.92
403.486	400.5
403.864	417.67
404.242	410.22
404.62	426.03
404.999	410.22
405.377	431.68
405.755	422.19
406.133	409.76
406.511	442.98
406.889	408.41
407.267	454.96
407.645	445.02
408.023	459.48
408.401	441.17
408.779	431.68
409.156	445.02
409.534	444.11
409.912	438.46
410.29	460.84
410.667	454.28
411.045	448.63
411.422	456.77
411.8	459.71
412.178	482.08
412.555	467.39
412.933	464
413.31	465.81
413.687	464.45
414.065	465.35
414.442	499.03
414.819	487.73
415.197	482.98
415.574	493.6
415.951	498.35
416.328	503.55
416.705	508.29
417.082	496.09
417.46	522.53
417.837	509.65
418.214	502.64
418.591	508.07
418.967	487.05
419.344	503.32
419.721	541.51
420.098	537.9
420.475	536.09
420.852	517.78
421.228	525.92
421.605	528.4
421.982	538.12
422.358	552.81
422.735	532.7
423.111	558.46
423.488	563.21
423.864	558.69
424.241	578.35
424.617	587.39
424.994	560.72
425.37	584
425.746	565.47
426.123	594.39
426.499	600.49
426.875	593.04
427.251	618.35
427.627	598.23
428.003	607.05
428.379	597.78
428.756	597.78
429.132	608.18
429.507	624.45
429.883	625.12
430.259	636.88
430.635	641.17
431.011	646.14
431.387	636.88
431.763	621.51
432.138	662.41
432.514	682.98
432.89	685.46
433.265	684.56
433.641	681.85
434.016	684.56
434.392	697.21
434.767	711.22
435.143	692.02
435.518	706.48
435.894	711.9
436.269	710.55
436.644	726.14
437.02	715.52
437.395	764.1
437.77	744.9
438.145	746.48
438.52	751.45
438.895	770.21
439.271	746.48
439.646	789.19
440.021	788.51
440.395	776.99
440.77	769.75
441.145	793.93
441.52	804.56
441.895	807.94
442.27	822.18
442.645	795.52
443.019	814.5
443.394	819.7
443.769	834.61
444.143	827.83
444.518	834.84
444.892	821.96
445.267	840.26
445.641	854.5
446.016	856.31
446.39	834.61
446.764	888.62
447.139	870.54
447.513	870.99
447.887	882.97
448.262	873.03
448.636	901.5
449.01	898.56
449.384	883.2
449.758	892.69
450.132	917.32
450.506	915.51
450.88	922.97
451.254	948.96
451.628	952.12
452.002	968.39
452.376	964.32
452.75	968.39
453.123	989.41
453.497	981.05
453.871	1000.48
454.244	1045.45
454.618	1020.82
454.992	1023.53
455.365	1041.61
455.739	1051.1
456.112	1076.86
456.486	1056.53
456.859	1107.6
457.232	1086.36
457.606	1081.38
457.979	1097.65
458.352	1147.37
458.725	1140.59
459.099	1157.54
459.472	1161.16
459.845	1194.15
460.218	1194.38
460.591	1228.5
460.964	1228.95
461.337	1234.15
461.71	1286.35
462.083	1271.44
462.456	1290.42
462.829	1304.43
463.201	1338.78
463.574	1318.67
463.947	1352.79
464.32	1371.77
464.692	1423.75
465.065	1398.44
465.438	1436.4
465.81	1444.54
466.183	1467.59
466.555	1483.41
466.928	1491.99
467.3	1512.56
467.672	1522.95
468.045	1573.57
468.417	1612.9
468.789	1617.19
469.161	1654.7
469.534	1686.34
469.906	1725.21
470.278	1734.25
470.65	1751.65
471.022	1794.81
471.394	1833.68
471.766	1890.85
472.138	1896.5
472.51	1934.47
472.882	1982.15
473.253	2044.3
473.625	2044.75
473.997	2116.16
474.369	2113.9
474.74	2187.57
475.112	2249.94
475.484	2317.96
475.855	2327.45
476.227	2389.37
476.598	2446.09
476.97	2505.98
477.341	2566.09
477.713	2621.23
478.084	2673.43
478.455	2791.85
478.827	2832.3
479.198	2903.48
479.569	2929.7
479.94	3078.39
480.311	3125.4
480.682	3252.4
481.053	3322
481.424	3411.04
481.795	3491.94
482.166	3607.42
482.537	3692.16
482.908	3800.63
483.279	3867.98
483.65	3961.76
484.021	4068.42
484.391	4169.21
484.762	4249.21
485.133	4367.4
485.503	4505.25
485.874	4626.15
486.244	4708.86
486.615	4882.87
486.985	4942.3
487.356	5120.83
487.726	5183.65
488.097	5417.54
488.467	5428.61
488.837	5595.39
489.207	5706.57
489.578	5881.48
489.948	5992.67
490.318	6189.95
490.688	6240.34
491.058	6384.52
491.428	6575.93
491.798	6649.15
492.168	6811.85
492.538	6918.07
492.908	7049.81
493.278	7231.73
493.648	7287.32
494.017	7447.09
494.387	7546.75
494.757	7718.05
495.126	7860.41
495.496	7994.2
495.866	8093.63
496.235	8245.04
496.605	8275.55
496.974	8441.87
497.344	8543.33
497.713	8627.17
498.082	8733.39
498.452	8916.21
498.821	8990.1
499.19	9041.17
499.559	9140.16
499.928	9305.35
500.298	9441.39
500.667	9565.91
501.036	9607.71
501.405	9756.64
501.774	9772.91
502.143	9871.44
502.512	9949.63
502.88	10085.67
503.249	10127.02
503.618	10186
503.987	10346.45
504.356	10361.37
504.724	10484.98
505.093	10558.65
505.462	10566.11
505.83	10678.19
506.199	10755.03
506.567	10903.72
506.936	10902.82
507.304	11043.38
507.672	11046.77
508.041	11149.82
508.409	11248.8
508.777	11345.29
509.145	11399.53
509.514	11422.36
509.882	11462.81
510.25	11554.33
510.618	11515.69
510.986	11675.68
511.354	11742.8
511.722	11772.4
512.09	11878.16
512.458	11925.39
512.826	12024.37
513.193	11980.98
513.561	12066.63
513.929	12081.32
514.297	12222.33
514.664	12172.39
515.032	12345.49
515.4	12391.6
515.767	12409
516.135	12389.11
516.502	12376
516.869	12566.73
517.237	12560.86
517.604	12452.16
517.972	12613.06
518.339	12654.41
518.706	12594.3
519.073	12661.87
519.44	12745.03
519.808	12785.71
520.175	12773.96
520.542	12872.94
520.909	12935.08
521.276	12937.8
521.643	13002.43
522.009	13054.18
522.376	13154.06
522.743	13086.27
523.11	13150.67
523.477	13224.34
523.843	13199.48
524.21	13371.68
524.577	13307.05
524.943	13394.05
525.31	13390.89
525.676	13452.58
526.043	13496.88
526.409	13394.05
526.776	13547.95
527.142	13538.23
527.508	13489.65
527.874	13569.64
528.241	13615.97
528.607	13650.32
528.973	13646.93
529.339	13651
529.705	13715.63
530.071	13756.3
530.437	13639.7
530.803	13757.21
531.169	13683.54
531.535	13656.42
531.901	13665.46
532.267	13723.99
532.632	13766.47
532.998	13697.1
533.364	13712.92
533.73	13673.82
534.095	13772.12
534.461	13725.8
534.826	13759.69
535.192	13757.21
535.557	13734.61
535.923	13647.16
536.288	13624.11
536.653	13592.69
537.019	13562.19
537.384	13555.18
537.749	13587.72
538.114	13549.08
538.479	13430.66
538.845	13483.54
539.21	13399.03
539.575	13501.17
539.94	13374.17
540.305	13418.23
540.67	13378.01
541.034	13413.94
541.399	13387.5
541.764	13284.68
542.129	13317.22
542.494	13216.66
542.858	13232.7
543.223	13164.46
543.587	13245.58
543.952	13144.12
544.316	13056.21
544.681	13093.5
545.045	13041.52
545.41	13038.58
545.774	13005.82
546.138	12947.06
546.503	12935.54
546.867	12931.02
547.231	12915.42
547.595	12866.16
547.959	12847.18
548.324	12906.61
548.688	12786.39
549.052	12829.1
549.416	12764.47
549.779	12719.5
550.143	12694.41
550.507	12659.16
550.871	12686.73
551.235	12579.61
551.599	12608.09
551.962	12574.64
552.326	12545.49
552.689	12588.88
553.053	12488.77
553.417	12405.15
553.78	12602.21
554.143	12365.38
554.507	12406.06
554.87	12474.08
555.234	12465.27
555.597	12399.05
555.96	12349.79
556.323	12343.91
556.686	12332.61
557.05	12303.91
557.413	12360.64
557.776	12376.68
558.139	12400.18
558.502	12354.99
558.865	12230.92
559.228	12355.89
559.59	12325.61
559.953	12324.7
560.316	12394.53
560.679	12432.05
561.041	12412.84
561.404	12394.98
561.767	12445.15
562.129	12326.96
562.492	12417.36
562.854	12405.83
563.217	12342.78
563.579	12370.58
563.941	12446.28
564.304	12376
564.666	12480.63
565.028	12421.65
565.39	12436.79
565.753	12479.5
566.115	12379.39
566.477	12461.88
566.839	12487.64
567.201	12553.4
567.563	12551.59
567.925	12491.71
568.287	12568.99
568.648	12519.28
569.01	12577.8
569.372	12606.73
569.734	12585.94
570.095	12656.45
570.457	12731.7
570.819	12591.82
571.18	12619.84
571.542	12674.75
571.903	12714.98
572.265	12682.89
572.626	12617.35
572.987	12713.62
573.349	12728.08
573.71	12707.74
574.071	12734.41
574.432	12756.56
574.794	12853.96
575.155	12837.23
575.516	12758.37
575.877	12791.13
576.238	12806.73
576.599	12850.11
576.96	12789.55
577.32	12853.73
577.681	12853.28
578.042	12788.87
578.403	12869.1
578.763	12764.47
579.124	12866.16
579.485	12845.82
579.845	12893.95
580.206	12817.57
580.566	12783
580.927	12851.7
581.287	12873.84
581.648	12856.67
582.008	12848.53
582.368	12772.15
582.728	12870
583.089	12794.97
583.449	12769.89
583.809	12790.68
584.169	12936.44
584.529	12827.74
584.889	12875.88
585.249	12821.87
585.609	12739.16
585.969	12757.01
586.329	12734.18
586.688	12772.83
587.048	12684.47
587.408	12705.49
587.768	12677.01
588.127	12777.8
588.487	12674.07
588.846	12774.64
589.206	12765.6
589.565	12653.28
589.925	12723.34
590.284	12708.42
590.643	12706.84
591.003	12737.57
591.362	12676.79
591.721	12671.59
592.08	12635.66
592.44	12690.34
592.799	12632.27
593.158	12658.03
593.517	12716.56
593.876	12588.2
594.235	12639.27
594.593	12654.86
594.952	12646.73
595.311	12539.16
595.67	12594.08
596.029	12633.62
596.387	12592.49
596.746	12678.14
597.104	12609.44
597.463	12563.79
597.822	12582.55
598.18	12518.82
598.538	12496.23
598.897	12654.41
599.255	12500.07
599.613	12646.05
599.972	12614.64
600.33	12563.79
600.688	12546.17
601.046	12637.24
601.404	12652.83
601.762	12583.45
602.12	12663
602.478	12690.57
602.836	12588.88
603.194	12600.18
603.552	12597.92
603.91	12472.5
604.268	12602.21
604.625	12557.01
604.983	12537.35
605.341	12538.26
605.698	12555.43
606.056	12587.07
606.413	12632.27
606.771	12638.37
607.128	12611.93
607.485	12566.73
607.843	12622.55
608.2	12681.3
608.557	12665.03
608.914	12666.84
609.272	12696.22
609.629	12660.29
609.986	12689.89
610.343	12713.62
610.7	12692.15
611.057	12779.38
611.414	12750
611.771	12658.48
612.127	12826.16
612.484	12747.97
612.841	12834.3
613.198	12776.44
613.554	12747.52
613.911	12766.27
614.267	12795.2
614.624	12719.95
614.98	12831.81
615.337	12862.09
615.693	12896.44
616.05	12793.17
616.406	12909.77
616.762	12856.67
617.118	12894.63
617.475	12893.95
617.831	12964.24
618.187	12987.06
618.543	12902.09
618.899	12957.91
619.255	12991.58
619.611	12970.34
619.967	12971.24
620.323	12996.1
620.678	12988.19
621.034	12992.71
621.39	12939.38
621.746	12869.1
622.101	13056.21
622.457	12971.92
622.812	13057.34
623.168	12996.32
623.523	12984.8
623.879	13030
624.234	12909.32
624.589	12913.62
624.945	13041.3
625.3	12942.54
625.655	13007.17
626.01	12991.13
626.365	12953.39
626.72	12912.26
627.075	12973.27
627.43	12952.48
627.785	13000.17
628.14	13036.1
628.495	13052.59
628.85	12932.82
629.205	12969.43
629.559	12975.31
629.914	12935.08
630.269	12904.58
630.623	12898.93
630.978	12843.33
631.332	12978.92
631.687	12958.59
632.041	12931.92
632.396	12890.79
632.75	12762.66
633.104	12866.38
633.459	12768.99
633.813	12767.63
634.167	12737.8
634.521	12727.86
634.875	12794.52
635.229	12791.13
635.583	12707.29
635.937	12720.17
636.291	12682.43
636.645	12604.02
636.999	12651.25
637.352	12634.75
637.706	12568.31
638.06	12620.06
638.413	12520.41
638.767	12551.59
639.121	12592.04
639.474	12519.5
639.828	12558.82
640.181	12475.66
640.534	12470.01
640.888	12520.41
641.241	12465.94
641.594	12500.07
641.947	12492.61
642.301	12380.3
642.654	12528.77
643.007	12481.99
643.36	12431.59
643.713	12372.39
644.066	12493.51
644.419	12425.72
644.771	12358.83
645.124	12195.67
645.477	12228.89
645.83	12094.2
646.182	12124.48
646.535	12110.92
646.888	12040.87
647.24	12006.52
647.593	11999.29
647.945	12063.24
648.298	11947.99
648.65	11983.92
649.002	11971.04
649.355	11970.14
649.707	11967.43
650.059	12026.63
650.411	12126.97
650.763	12156.35
651.115	12333.07
651.467	12308.43
651.819	12283.35
652.171	12223.92
652.523	12215.33
652.875	12209.9
653.227	12210.58
653.578	12265.72
653.93	12237.25
654.282	12164.71
654.633	12179.62
654.985	12217.14
655.337	12215.78
655.688	12273.86
656.039	12357.02
656.391	12157.93
656.742	12276.8
657.094	12269.56
657.445	12282.9
657.796	12312.5
658.147	12207.65
658.498	12236.12
658.849	12285.38
659.2	12290.13
659.551	12200.87
659.902	12273.41
660.253	12213.97
660.604	12295.1
660.955	12277.93
661.306	12264.37
661.656	12284.25
662.007	12249.9
662.358	12253.52
662.708	12344.82
663.059	12270.02
663.409	12202
663.76	12284.71
664.11	12352.73
664.461	12300.07
664.811	12349.34
665.161	12252.62
665.511	12289.45
665.862	12252.84
666.212	12342.1
666.562	12312.05
666.912	12352.05
667.262	12277.7
667.612	12338.49
667.962	12334.87
668.312	12234.99
668.662	12312.05
669.011	12230.02
669.361	12309.79
669.711	12259.17
670.06	12226.63
670.41	12315.21
670.76	12258.94
671.109	12290.35
671.459	12279.51
671.808	12189.11
672.157	12271.37
672.507	12161.54
672.856	12319.51
673.205	12215.55
673.554	12297.36
673.904	12229.34
674.253	12290.35
674.602	12250.81
674.951	11958.84
675.3	11929.46
675.649	12179.62
675.998	12160.41
676.346	12104.37
676.695	12183.69
677.044	12066.86
677.393	12125.39
677.741	12174.43
678.09	12115.44
678.438	12071.38
678.787	12096.91
679.135	12049.46
679.484	11980.98
679.832	11984.37
680.181	11931.49
680.529	11960.65
680.877	11931.27
681.225	11871.16
681.573	11947.54
681.922	11881.1
682.27	11801.33
682.618	11807.88
682.966	11811.5
683.314	11843.59
683.661	11730.82
684.009	11689.24
684.357	11722.69
684.705	11683.37
685.053	11716.13
685.4	11616.25
685.748	11631.16
686.095	11571.96
686.443	11567.89
686.79	11480.88
687.138	11545.97
687.485	11588
687.832	11522.47
688.18	11501.67
688.527	11419.64
688.874	11445.41
689.221	11375.12
689.568	11359.76
689.915	11336.03
690.262	11273.43
690.609	11253.55
690.956	11228.01
691.303	11193.21
691.65	11213.55
691.997	11210.84
692.344	11084.96
692.69	11027.34
693.037	11065.3
693.383	10901.69
693.73	11025.76
694.077	10943.95
694.423	10913.44
694.769	10870.05
695.116	10835.7
695.462	10768.59
695.808	10737.85
696.155	10724.97
696.501	10673.9
696.847	10601.81
697.193	10549.16
697.539	10561.59
697.885	10580.12
698.231	10517.75
698.577	10438.65
698.923	10342.61
699.269	10401.82
699.614	10318.43
699.96	10341.25
700.306	10279.56
700.651	10288.15
700.997	10173.12
701.342	10169.05
701.688	10121.15
702.033	10054.03
702.379	10062.84
702.724	10052.45
703.069	10079.57
703.415	9969.74
703.76	9946.91
704.105	9924.09
704.45	9864.2
704.795	9850.19
705.14	9755.96
705.485	9820.36
705.83	9710.31
706.175	9722.29
706.52	9663.31
706.865	9765
707.209	9710.54
707.554	9657.66
707.899	9643.42
708.243	9553.7
708.588	9585.34
708.932	9480.26
709.277	9539.01
709.621	9557.09
709.966	9419.47
710.31	9394.16
710.654	9269.64
710.998	9428.96
711.342	9381.28
711.687	9316.87
712.031	9280.94
712.375	9292.02
712.719	9325.91
713.063	9225.58
713.407	9238.91
713.75	9134.51
714.094	9233.94
714.438	9169.08
714.782	9139.25
715.125	9133.15
715.469	9166.37
715.812	9095.41
716.156	9048.41
716.499	9034.85
716.843	9042.76
717.186	8970.44
717.53	9023.77
717.873	9025.13
718.216	9005.92
718.559	8970.67
718.902	8889.54
719.246	8968.18
719.589	8916.21
719.932	8855.64
720.275	8864.46
720.617	8882.76
720.96	8866.49
721.303	8842.99
721.646	8894.96
721.989	8867.39
722.331	8814.51
722.674	8855.87
723.016	8885.25
723.359	8779.94
723.701	8838.47
724.044	8765.02
724.386	8724.12
724.729	8740.39
725.071	8729.54
725.413	8749.66
725.755	8727.28
726.097	8763.89
726.439	8711.69
726.782	8732.26
727.124	8755.31
727.465	8715.31
727.807	8696.1
728.149	8688.19
728.491	8666.95
728.833	8707.4
729.175	8665.59
729.516	8675.53
729.858	8678.25
730.199	8646.38
730.541	8672.6
730.882	8636.44
731.224	8647.74
731.565	8580.17
731.906	8686.61
732.248	8591.92
732.589	8604.8
732.93	8554.18
733.271	8617.23
733.612	8627.63
733.953	8634.41
734.294	8526.84
734.635	8559.83
734.976	8553.96
735.317	8509.21
735.658	8581.75
735.999	8529.55
736.339	8569.77
736.68	8589.21
737.021	8529.55
737.361	8579.49
737.702	8602.09
738.042	8612.49
738.383	8574.52
738.723	8662.43
739.063	8587.63
739.404	8673.27
739.744	8624.69
740.084	8657.23
740.424	8605.03
740.764	8601.86
741.104	8695.2
741.444	8652.26
741.784	8720.28
742.124	8637.57
742.464	8743.33
742.804	8737
743.143	8760.28
743.483	8795.76
743.823	8757.79
744.162	8830.33
744.502	8817.9
744.841	8854.29
745.181	8936.54
745.52	8975.87
745.86	8959.82
746.199	8953.72
746.538	9055.64
746.877	9122.3
747.216	9130.89
747.556	9132.02
747.895	9212.92
748.234	9246.14
748.573	9236.88
748.911	9284.11
749.25	9401.84
749.589	9438.23
749.928	9486.13
750.267	9569.52
750.605	9590.99
750.944	9670.31
751.283	9728.61
751.621	9826.24
751.96	9885.45
752.298	9949.4
752.636	10062.16
752.975	10157.3
753.313	10245.44
753.651	10388.94
753.989	10363.85
754.327	10513
754.666	10538.54
755.004	10719.32
755.342	10888.13
755.679	10995.47
756.017	11123.83
756.355	11218.52
756.693	11298.52
757.031	11533.99
757.368	11620.09
757.706	11773.76
758.044	11886.75
758.381	12043.36
758.719	12280.41
759.056	12460.97
759.394	12528.99
759.731	12622.32
760.068	12735.99
760.405	12869.1
760.743	13042.43
761.08	13272.48
761.417	13396.77
761.754	13540.49
762.091	13662.52
762.428	13864.78
762.765	13973.47
763.102	14126.24
763.438	14300.7
763.775	14416.85
764.112	14587.47
764.449	14793.11
764.785	14893
765.122	14910.17
765.458	15141.13
765.795	15325.53
766.131	15449.14
766.467	15610.72
766.804	15618.85
767.14	15835.35
767.476	15910.82
767.812	16062.23
768.148	16259.74
768.485	16192.17
768.821	16339.74
769.157	16446.63
769.492	16612.5
769.828	16806.62
770.164	16735.89
770.5	16907.63
770.836	17145.59
771.171	17020.63
771.507	17153.73
771.842	17326.83
772.178	17368.41
772.513	17409.77
772.849	17545.81
773.184	17663.77
773.519	17652.25
773.855	17762.75
774.19	17813.83
774.525	17888.17
774.86	18063.31
775.195	17974.27
775.53	18034.84
775.865	18051.33
776.2	18030.77
776.535	18057.66
776.87	18065.57
777.205	18264.44
777.539	18160.03
777.874	18356.64
778.209	18154.61
778.543	18320.48
778.878	18237.09
779.212	18233.7
779.547	18280.93
779.881	18360.48
780.215	18379.46
780.55	18382.17
780.884	18315.28
781.218	18306.92
781.552	18440.25
781.886	18314.6
782.22	18329.07
782.554	18351.21
782.888	18237.09
783.222	18226.7
783.556	18195.74
783.889	18217.66
784.223	18125.91
784.557	18159.13
784.89	18228.96
785.224	18127.04
785.557	18108.05
785.891	18151.9
786.224	18123.2
786.558	18110.31
786.891	18008.85
787.224	18094.04
787.557	18026.48
787.891	18112.57
788.224	18019.47
788.557	18026.02
788.89	18103.76
789.223	18016.08
789.556	17967.95
789.888	17899.25
790.221	17876.87
790.554	17837.55
790.887	17815.18
791.219	17662.87
791.552	17685.47
791.884	17664.22
792.217	17771.34
792.549	17602.98
792.882	17510.1
793.214	17532.93
793.546	17600.27
793.879	17486.15
794.211	17255.87
794.543	17437.56
794.875	17386.94
795.207	17505.36
795.539	17304.91
795.871	17409.77
796.203	17201.19
796.535	17134.75
796.867	17131.58
797.198	17171.81
797.53	17053.17
797.862	16989.67
798.193	17067.18
798.525	16907.41
798.856	16992.83
799.188	16891.36
799.519	16791.03
799.85	16661.09
800.182	16848.43
800.513	16704.02
800.844	16567.76
801.175	16730.92
801.506	16684.82
801.837	16598.49
802.168	16516.91
802.499	16482.33
802.83	16377.25
803.161	16343.36
803.491	16393.75
803.822	16310.81
804.153	16281.44
804.483	16134.77
804.814	16142.23
805.145	16167.77
805.475	16154.43
805.805	16000.77
806.136	16090.03
806.466	16137.49
806.796	16033.76
807.126	15910.6
807.457	15877.15
807.787	15981.33
808.117	15819.53
808.447	15732.98
808.777	15852.52
809.107	15768.23
809.436	15677.61
809.766	15756.93
810.096	15675.8
810.426	15550.83
810.755	15526.43
811.085	15617.72
811.414	15411.63
811.744	15416.15
812.073	15469.93
812.403	15414.57
812.732	15428.58
813.061	15244.85
813.39	15304.96
813.719	15265.42
814.049	15336.15
814.378	15252.99
814.707	15248.02
815.036	15177.96
815.365	15175.93
815.693	14997.63
816.022	15073.11
816.351	15016.38
816.68	14931.87
817.008	14925.54
817.337	14817.52
817.665	14849.61
817.994	14871.53
818.322	14824.3
818.651	14776.17
818.979	14684.87
819.307	14815.94
819.636	14693.23
819.964	14669.73
820.292	14636.06
820.62	14713.12
820.948	14676.28
821.276	14664.53
821.604	14560.58
821.932	14681.48
822.259	14721.03
822.587	14634.93
822.915	14596.73
823.243	14738.2
823.57	14492.78
823.898	14635.83
824.225	14576.17
824.553	14537.08
824.88	14637.86
825.207	14638.09
825.535	14666.79
825.862	14582.5
826.189	14583.18
826.516	14676.05
826.843	14642.16
827.17	14712.21
827.497	14738.65
827.824	14700.23
828.151	14657.07
828.478	14628.37
828.805	14724.42
829.131	14709.05
829.458	14691.2
829.785	14589.28
830.111	14585.21
830.438	14712.89
830.764	14692.78
831.09	14676.05
831.417	14627.24
831.743	14683.06
832.069	14580.69
832.395	14561.03
832.722	14630.63
833.048	14534.14
833.374	14598.32
833.7	14521.93
834.026	14516.28
834.351	14521.93
834.677	14495.27
835.003	14516.96
835.329	14453.01
835.654	14557.87
835.98	14432.45
836.306	14421.82
836.631	14422.28
836.956	14462.5
837.282	14453.91
837.607	14390.19
837.932	14363.97
838.258	14339.11
838.583	14292.34
838.908	14205.11
839.233	14224.77
839.558	14276.97
839.883	14162.85
840.208	14153.81
840.533	14084.88
840.858	14122.85
841.182	14105.67
841.507	14066.13
841.832	14095.05
842.156	13957.43
842.481	13990.42
842.805	14035.17
843.13	13893.93
843.454	13954.49
843.778	13867.26
844.103	13876.53
844.427	13761.05
844.751	13786.36
845.075	13843.31
845.399	13767.38
845.723	13650.55
846.047	13647.83
846.371	13540.04
846.695	13585.69
847.019	13458.01
847.343	13466.82
847.666	13328.07
847.99	13360.84
848.313	13315.64
848.637	13194.96
848.96	13192.25
849.284	13149.09
849.607	13068.87
849.931	12999.26
850.254	12932.82
850.577	12850.11
850.9	12873.62
851.223	12774.64
851.546	12750.91
851.869	12649.22
852.192	12651.7
852.515	12460.75
852.838	12523.79
853.161	12488.54
853.483	12475.21
853.806	12337.13
854.129	12379.84
854.451	12293.52
854.774	12209.9
855.096	12218.94
855.419	12124.26
855.741	12221.43
856.063	12098.27
856.385	12099.4
856.708	12072.96
857.03	12033.19
857.352	12003.13
857.674	11912.51
857.996	11945.51
858.318	11832.51
858.64	11867.09
858.961	11792.06
859.283	11720.88
859.605	11762.91
859.926	11773.08
860.248	11647.21
860.57	11699.18
860.891	11638.62
861.212	11629.36
861.534	11621.45
861.855	11574.67
862.176	11577.61
862.498	11544.84
862.819	11552.97
863.14	11470.04
863.461	11430.72
863.782	11429.13
864.103	11423.48
864.424	11348.46
864.745	11321.34
865.065	11361.57
865.386	11278.18
865.707	11282.25
866.027	11354.11
866.348	11234.11
866.668	11244.73
866.989	11219.2
867.309	11175.81
867.63	11168.12
867.95	11189.14
868.27	11079.77
868.59	11195.69
868.91	11080.67
869.23	11030.05
869.55	10953.21
869.87	11072.76
870.19	11059.2
870.51	11017.85
870.83	11042.03
871.15	10920.45
871.469	10893.33
871.789	10995.25
872.109	10881.58
872.428	10839.77
872.748	10885.87
873.067	10884.06
873.386	10836.16
873.706	10914.57
874.025	10738.53
874.344	10812.43
874.663	10788.7
874.982	10690.17
875.301	10776.95
875.62	10730.62
875.939	10716.16
876.258	10694.01
876.577	10650.4
876.896	10679.32
877.214	10640
877.533	10664.18
877.852	10600
878.17	10572.43
878.489	10565.88
878.807	10554.13
879.125	10508.71
879.444	10504.87
879.762	10506.45
880.08	10515.71
880.398	10419.22
880.716	10487.24
881.034	10398.88
881.352	10384.19
881.67	10400.01
881.988	10329.28
882.306	10344.42
882.624	10310.97
882.941	10213.35
883.259	10251.31
883.577	10261.71
883.894	10258.54
884.212	10205.21
884.529	10130.19
884.846	10121.15
885.164	10144.2
885.481	10083.63
885.798	10007.25
886.115	10027.82
886.432	10038.66
886.75	10003.18
887.067	10046.12
887.383	9957.53
887.7	9947.59
888.017	9918.21
888.334	9910.08
888.651	9842.96
888.967	9943.3
889.284	9766.58
889.6	9767.48
889.917	9712.12
890.233	9722.29
890.55	9610.2
890.866	9696.07
891.182	9646.36
891.498	9496.76
891.815	9601.16
892.131	9527.49
892.447	9537.88
892.763	9482.75
893.079	9433.71
893.395	9455.4
893.71	9341.28
894.026	9387.61
894.342	9355.97
894.657	9297.89
894.973	9248.63
895.289	9266.71
895.604	9299.92
895.92	9226.71
896.235	9101.51
896.55	9104
896.865	9166.14
897.181	9063.32
897.496	9063.32
897.811	9023.32
898.126	8950.33
898.441	8989.65
898.756	8937.22
899.071	8858.58
899.386	8864.46
899.7	8812.93
900.015	8762.99
900.33	8718.25
900.644	8741.52
900.959	8699.04
901.273	8680.96
901.588	8651.58
901.902	8587.18
902.216	8542.43
902.531	8556.89
902.845	8475.99
903.159	8417.69
903.473	8443.45
903.787	8426.5
904.101	8320.97
904.415	8270.57
904.729	8310.35
905.042	8205.04
905.356	8221.31
905.67	8200.29
905.984	8190.58
906.297	8153.06
906.611	8113.29
906.924	8154.64
907.237	8073.29
907.551	8032.84
907.864	7972.95
908.177	7976.57
908.491	7983.58
908.804	7870.36
909.117	7875.33
909.43	7789.46
909.743	7832.62
910.056	7781.55
910.368	7734.99
910.681	7675.11
910.994	7638.73
911.307	7597.82
911.619	7545.62
911.932	7538.62
912.244	7502.23
912.557	7559.41
912.869	7508.56
913.181	7426.3
913.494	7384.95
913.806	7357.38
914.118	7336.59
914.43	7317.38
914.742	7267.66
915.054	7295.23
915.366	7250.49
915.678	7220.21
915.99	7150.15
916.302	7072.64
916.613	7088.91
916.925	7055.46
917.236	7077.61
917.548	6992.19
917.859	7004.17
918.171	6895.47
918.482	6939.31
918.794	6899.99
919.105	6865.19
919.416	6826.77
919.727	6801.46
920.038	6823.38
920.349	6776.83
920.66	6747.22
920.971	6729.15
921.282	6683.95
921.593	6674.91
921.903	6594.01
922.214	6594.23
922.525	6580.22
922.835	6583.84
923.146	6518.98
923.456	6514.91
923.767	6442.15
924.077	6495.7
924.387	6410.74
924.697	6411.41
925.008	6352.43
925.318	6333
925.628	6362.15
925.938	6324.86
926.248	6276.5
926.558	6168.03
926.867	6215.71
927.177	6201.25
927.487	6215.03
927.796	6127.58
928.106	6173.23
928.416	6062.27
928.725	6060.91
929.034	6024.08
929.344	5999.22
929.653	6025.43
929.962	5958.54
930.271	5950.86
930.581	5940.92
930.89	5920.13
931.199	5856.4
931.508	5839.9
931.817	5841.71
932.125	5793.35
932.434	5793.35
932.743	5741.37
933.051	5681.72
933.36	5699.57
933.669	5665.67
933.977	5653.47
934.286	5644.65
934.594	5584.54
934.902	5552
935.21	5574.15
935.519	5521.49
935.827	5533.02
936.135	5497.99
936.443	5479.91
936.751	5448.05
937.059	5425.45
937.367	5422.29
937.674	5378.45
937.982	5393.36
938.29	5354.27
938.597	5318.56
938.905	5281.95
939.213	5290.31
939.52	5201.73
939.827	5258.68
940.135	5172.58
940.442	5178.9
940.749	5199.24
941.056	5173.93
941.363	5114.27
941.67	5079.02
941.977	5040.38
942.284	5012.58
942.591	5023.2
942.898	5019.36
943.205	4959.02
943.511	4912.92
943.818	4927.61
944.125	4949.3
944.431	4896.2
944.738	4921.06
945.044	4855.75
945.35	4833.15
945.657	4765.81
945.963	4764.45
946.269	4765.35
946.575	4772.59
946.881	4670.89
947.187	4720.61
947.493	4712.47
947.799	4671.57
948.105	4624.57
948.41	4621.86
948.716	4643.78
949.022	4606.94
949.327	4562.42
949.633	4507.73
949.938	4524.46
950.244	4512.93
950.549	4533.72
950.854	4477.9
951.16	4458.24
951.465	4425.93
951.77	4426.15
952.075	4378.02
952.38	4378.92
952.685	4409.88
952.99	4337.57
953.294	4356.1
953.599	4306.84
953.904	4267.97
954.209	4253.05
954.513	4274.97
954.818	4227.52
955.122	4212.6
955.426	4214.41
955.731	4178.93
956.035	4169.21
956.339	4126.5
956.643	4126.28
956.948	4088.31
957.252	4104.13
957.556	4099.84
957.86	4036.11
958.163	4069.33
958.467	3984.36
958.771	4025.49
959.075	3971.03
959.378	3908.65
959.682	3951.37
959.985	3916.11
960.289	3894.64
960.592	3872.95
960.896	3849.45
961.199	3842.89
961.502	3829.33
961.805	3870.46
962.108	3810.58
962.411	3764.25
962.714	3785.72
963.017	3834.76
963.32	3801.76
963.623	3734.65
963.926	3724.03
964.228	3698.26
964.531	3673.86
964.833	3706.17
965.136	3635.89
965.438	3645.84
965.741	3612.39
966.043	3649.9
966.345	3586.4
966.648	3629.57
966.95	3570.58
967.252	3587.08
967.554	3537.36
967.856	3528.78
968.158	3494.43
968.46	3462.34
968.761	3447.88
969.063	3477.93
969.365	3472.73
969.666	3460.08
969.968	3394.32
970.269	3373.08
970.571	3399.74
970.872	3369.01
971.174	3333.53
971.475	3313.19
971.776	3335.56
972.077	3311.16
972.378	3263.47
972.679	3327.88
972.98	3289.24
973.281	3240.2
973.582	3250.37
973.883	3234.1
974.183	3195.9
974.484	3206.07
974.785	3199.07
975.085	3208.11
975.386	3160.65
975.686	3136.92
975.986	3136.7
976.287	3114.55
976.587	3089.69
976.887	3076.36
977.187	3083.59
977.487	3086.08
977.787	3026.19
978.087	3034.33
978.387	3005.63
978.687	3023.93
978.987	2960.88
979.286	2939.64
979.586	2966.53
979.885	2978.74
980.185	2940.32
980.484	2936.02
980.784	2899.87
981.083	2903.03
981.382	2915.46
981.682	2877.72
981.981	2816.48
982.28	2826.87
982.579	2842.92
982.878	2835.69
983.177	2827.33
983.475	2784.39
983.774	2766.76
984.073	2782.36
984.372	2728.12
984.67	2746.2
984.969	2705.52
985.267	2731.74
985.566	2720.66
985.864	2696.93
986.162	2720.89
986.461	2679.53
986.759	2687.67
987.057	2613.1
987.355	2632.08
987.653	2650.61
987.951	2605.86
988.249	2588.91
988.547	2625.3
988.844	2555.47
989.142	2589.82
989.44	2559.76
989.737	2541.01
990.035	2488.8
990.332	2519.54
990.63	2534
990.927	2539.88
991.224	2470.27
991.521	2490.39
991.819	2458.3
992.116	2455.36
992.413	2459.65
992.71	2432.99
993.006	2451.07
993.303	2440.44
993.6	2414.68
993.897	2399.54
994.193	2380.56
994.49	2340.33
994.787	2363.61
995.083	2324.97
995.379	2319.77
995.676	2317.28
995.972	2309.15
996.268	2314.57
996.565	2298.98
996.861	2246.78
997.157	2238.42
997.453	2242.26
997.749	2243.16
998.044	2210.85
998.34	2187.8
998.636	2191.64
998.932	2170.39
999.227	2192.54
999.523	2152.54
999.818	2164.29
1000.114	2142.15
1000.409	2136.95
1000.704	2113.67
1001	2101.92
1001.295	2094.24
1001.59	2069.61
1001.885	2062.6
1002.18	2079.78
1002.475	2055.6
1002.77	2058.99
1003.065	2046.78
1003.359	2013.11
1003.654	2009.72
1003.949	1964.52
1004.243	1979.67
1004.538	1962.94
1004.832	1959.1
1005.127	1949.84
1005.421	1952.32
1005.715	1945.09
1006.009	1919.78
1006.304	1902.15
1006.598	1898.54
1006.892	1866.45
1007.186	1887.92
1007.48	1869.84
1007.773	1867.8
1008.067	1838.43
1008.361	1852.66
1008.655	1853.57
1008.948	1831.42
1009.242	1802.04
1009.535	1778.54
1009.829	1783.96
1010.122	1763.17
1010.415	1764.08
1010.708	1747.36
1011.001	1762.5
1011.295	1754.59
1011.588	1722.95
1011.881	1709.62
1012.173	1707.13
1012.466	1677.07
1012.759	1692.22
1013.052	1660.13
1013.344	1683.63
1013.637	1662.61
1013.93	1644.53
1014.222	1633.01
1014.514	1621.48
1014.807	1621.71
1015.099	1617.42
1015.391	1588.94
1015.683	1596.4
1015.976	1599.11
1016.268	1564.76
1016.56	1531.32
1016.851	1538.1
1017.143	1538.55
1017.435	1522.05
1017.727	1501.49
1018.018	1509.17
1018.31	1528.15
1018.602	1489.73
1018.893	1445.67
1019.185	1482.73
1019.476	1483.86
1019.767	1462.39
1020.058	1462.84
1020.35	1409.06
1020.641	1423.75
1020.932	1409.28
1021.223	1408.61
1021.514	1403.18
1021.804	1386.23
1022.095	1404.77
1022.386	1373.81
1022.677	1392.34
1022.967	1336.52
1023.258	1326.58
1023.548	1309.4
1023.839	1312.79
1024.129	1334.71
1024.419	1299.01
1024.709	1302.4
1025	1328.38
1025.29	1290.64
1025.58	1280.25
1025.87	1252.9
1026.16	1245.67
1026.449	1258.78
1026.739	1227.82
1027.029	1246.35
1027.319	1203.41
1027.608	1222.62
1027.898	1212.91
1028.187	1200.93
1028.477	1203.41
1028.766	1196.41
1029.055	1189.4
1029.344	1181.04
1029.634	1153.25
1029.923	1144.21
1030.212	1160.03
1030.501	1148.95
1030.79	1135.85
1031.078	1132.68
1031.367	1114.15
1031.656	1113.93
1031.945	1125
1032.233	1115.51
1032.522	1095.85
1032.81	1106.24
1033.099	1055.17
1033.387	1066.47
1033.675	1055.17
1033.963	1067.83
1034.251	1045.9
1034.54	1042.51
1034.828	1051.1
1035.116	1058.79
1035.403	1020.37
1035.691	1028.05
1035.979	1006.81
1036.267	1010.65
1036.554	1007.26
1036.842	981.95
1037.129	975.17
1037.417	967.94
1037.704	983.08
1037.992	981.05
1038.279	971.78
1038.566	953.7
1038.853	953.7
1039.14	953.7
