Data from hue_250_FLMS001491_00045.txt Node
Date: Tue Feb 07 16:01:02 GMT 2017
User: dcchb
Spectrometer: FLMS00149
Trigger mode: 0
Integration Time (sec): 2.000000E-2
Scans to average: 10
Electric dark correction enabled: true
Nonlinearity correction enabled: false
Boxcar width: 0
XAxis mode: Wavelengths
Number of Pixels in Spectrum: 2048
>>>>>Begin Spectral Data<<<<<
341.393	-21.19
341.776	-21.19
342.16	-21.19
342.543	-61.64
342.927	-56.67
343.31	-89.88
343.693	-53.5
344.077	-61.86
344.46	-60.96
344.843	-43.78
345.226	-41.3
345.61	-26.16
345.993	-30.9
346.376	-5.14
346.759	11.13
347.142	25.82
347.525	32.82
347.908	58.81
348.291	73.95
348.674	93.16
349.057	117.79
349.44	126.15
349.823	139.04
350.206	149.21
350.588	183.55
350.971	187.85
351.354	207.06
351.737	232.37
352.119	227.4
352.502	271.91
352.884	250.9
353.267	271.01
353.65	272.82
354.032	292.48
354.414	280.05
354.797	293.38
355.179	285.47
355.562	315.75
355.944	317.79
356.326	337.9
356.709	337.45
357.091	294.06
357.473	306.26
357.855	324.34
358.238	315.75
358.62	332.93
359.002	329.54
359.384	327.73
359.766	329.99
360.148	330.44
360.53	342.42
360.912	336.09
361.294	322.76
361.676	332.93
362.057	325.02
362.439	325.92
362.821	310.56
363.203	324.79
363.584	313.04
363.966	305.59
364.348	299.71
364.729	308.75
365.111	299.71
365.493	299.94
365.874	294.74
366.256	306.49
366.637	291.57
367.019	299.71
367.4	313.04
367.781	291.8
368.163	288.18
368.544	305.59
368.925	303.1
369.306	310.78
369.688	303.33
370.069	305.59
370.45	318.92
370.831	314.62
371.212	310.33
371.593	331.57
371.974	310.33
372.355	321.4
372.736	288.64
373.117	291.35
373.498	310.1
373.879	302.65
374.26	322.76
374.641	302.42
375.021	321.63
375.402	303.33
375.783	302.65
376.163	310.33
376.544	298.58
376.925	313.49
377.305	306.94
377.686	322.31
378.066	311.91
378.447	327.96
378.827	330.44
379.208	328.18
379.588	328.86
379.968	305.13
380.349	317.56
380.729	326.15
381.109	329.09
381.489	326.83
381.87	323.21
382.25	317.79
382.63	322.53
383.01	318.24
383.39	319.6
383.77	343.55
384.15	320.73
384.53	343.1
384.91	348.75
385.29	329.99
385.67	348.75
386.049	347.39
386.429	343.32
386.809	337
387.189	344.91
387.568	356.66
387.948	343.55
388.328	346.26
388.707	357.79
389.087	346.26
389.466	346.71
389.846	362.31
390.225	368.18
390.605	355.75
390.984	354.17
391.363	348.07
391.743	344
392.122	362.31
392.501	359.14
392.881	362.98
393.26	355.98
393.639	376.77
394.018	344.68
394.397	376.09
394.776	382.19
395.155	386.49
395.534	355.08
395.913	377.22
396.292	374.51
396.671	395.53
397.05	379.48
397.429	402.31
397.808	383.78
398.186	403.66
398.565	399.82
398.944	406.37
399.323	415.86
399.701	398.92
400.08	395.53
400.458	409.09
400.837	400.72
401.215	395.53
401.594	415.41
401.972	409.54
402.351	397.11
402.729	411.57
403.107	419.93
403.486	436.43
403.864	439.59
404.242	423.1
404.62	447.28
404.999	427.39
405.377	448.86
405.755	457.22
406.133	464.68
406.511	444.56
406.889	451.34
407.267	479.59
407.645	457.9
408.023	478.24
408.401	480.04
408.779	480.95
409.156	481.85
409.534	482.76
409.912	518.01
410.29	497.44
410.667	496.99
411.045	534.05
411.422	526.14
411.8	535.64
412.178	529.76
412.555	527.95
412.933	538.8
413.31	547.84
413.687	560.04
414.065	585.8
414.442	578.35
414.819	576.09
415.197	563.66
415.574	580.83
415.951	587.84
416.328	597.33
416.705	607.5
417.082	607.95
417.46	604.79
417.837	626.93
418.214	631
418.591	648.4
418.967	651.56
419.344	633.49
419.721	648.4
420.098	652.47
420.475	646.59
420.852	671.23
421.228	666.71
421.605	696.08
421.982	693.37
422.358	716.87
422.735	726.59
423.111	725.69
423.488	743.99
423.864	731.56
424.241	758.91
424.617	751
424.994	757.55
425.37	765.01
425.746	793.93
426.123	805.91
426.499	780.6
426.875	815.63
427.251	830.09
427.627	830.09
428.003	856.53
428.379	876.87
428.756	833.93
429.132	862.18
429.507	884.78
429.883	904.21
430.259	912.57
430.635	916.64
431.011	916.87
431.387	949.41
431.763	954.16
432.138	965
432.514	965.23
432.89	973.82
433.265	999.13
433.641	1008.17
434.016	1030.54
434.392	1042.74
434.767	1058.79
435.143	1057.66
435.518	1072.34
435.894	1079.58
436.269	1116.64
436.644	1121.61
437.02	1169.97
437.395	1146.92
437.77	1185.79
438.145	1194.38
438.52	1215.17
438.895	1200.7
439.271	1219.01
439.646	1284.32
440.021	1286.8
440.395	1275.28
440.77	1281.83
441.145	1316.41
441.52	1318.21
441.895	1330.19
442.27	1338.55
442.645	1317.76
443.019	1354.6
443.394	1364.54
443.769	1367.48
444.143	1402.96
444.518	1390.08
444.892	1377.65
445.267	1410.64
445.641	1421.94
446.016	1412.45
446.39	1445.89
446.764	1480.7
447.139	1432.34
447.513	1465.55
447.887	1482.96
448.262	1501.71
448.636	1503.52
449.01	1512.56
449.384	1492.67
449.758	1544.42
450.132	1558.89
450.506	1548.94
450.88	1553.46
451.254	1584.2
451.628	1593.46
452.002	1606.79
452.376	1629.39
452.75	1610.18
453.123	1629.17
453.497	1657.87
453.871	1697.86
454.244	1707.58
454.618	1709.84
454.992	1743.74
455.365	1744.64
455.739	1823.06
456.112	1794.36
456.486	1822.16
456.859	1813.79
457.232	1862.83
457.606	1875.71
457.979	1861.48
458.352	1931.98
458.725	1938.76
459.099	1962.49
459.472	1991.42
459.845	1972.21
460.218	2005.88
460.591	1990.96
460.964	2032.55
461.337	2096.95
461.71	2106.67
462.083	2122.03
462.456	2106.44
462.829	2113.9
463.201	2167.01
463.574	2208.36
463.947	2170.17
464.32	2257.62
464.692	2300.79
465.065	2279.54
465.438	2306.66
465.81	2342.82
466.183	2352.76
466.555	2422.14
466.928	2401.12
467.3	2416.94
467.672	2433.66
468.045	2456.94
468.417	2479.99
468.789	2541.01
469.161	2564.73
469.534	2602.7
469.906	2641.79
470.278	2651.74
470.65	2708.69
471.022	2703.71
471.394	2726.99
471.766	2784.84
472.138	2818.74
472.51	2839.98
472.882	2902.81
473.253	2938.74
473.625	2974.22
473.997	3039.52
474.369	3044.5
474.74	3084.04
475.112	3141.67
475.484	3127.66
475.855	3202.01
476.227	3239.52
476.598	3281.1
476.97	3284.72
477.341	3371.49
477.713	3442.45
478.084	3469.34
478.455	3496.24
478.827	3536.01
479.198	3669.11
479.569	3646.29
479.94	3724.48
480.311	3751.14
480.682	3846.74
481.053	3870.69
481.424	3950.01
481.795	3967.41
482.166	4044.47
482.537	4095.32
482.908	4171.25
483.279	4161.3
483.65	4254.41
484.021	4249.44
484.391	4334.63
484.762	4372.6
485.133	4394.97
485.503	4507.51
485.874	4546.38
486.244	4632.93
486.615	4667.5
486.985	4721.74
487.356	4815.3
487.726	4802.19
488.097	4904.33
488.467	4911.34
488.837	5017.55
489.207	5044.67
489.578	5128.06
489.948	5158.34
490.318	5239.92
490.688	5180.71
491.058	5321.95
491.428	5315.85
491.798	5374.38
492.168	5448.05
492.538	5444.66
492.908	5561.72
493.278	5591.32
493.648	5563.07
494.017	5698.66
494.387	5714.93
494.757	5784.76
495.126	5821.82
495.496	5829.73
495.866	5861.6
496.235	5872.44
496.605	5973.91
496.974	5967.13
497.344	5994.25
497.713	6000.58
498.082	6102.72
498.452	6167.13
498.821	6142.04
499.19	6123.29
499.559	6180.23
499.928	6193.11
500.298	6255.26
500.667	6280.12
501.036	6325.99
501.405	6342.04
501.774	6319.44
502.143	6359.66
502.512	6414.13
502.88	6408.7
503.249	6423.62
503.618	6471.3
503.987	6544.97
504.356	6559.88
504.724	6610.96
505.093	6570.05
505.462	6536.61
505.83	6627.68
506.199	6691.41
506.567	6726.89
506.936	6728.47
507.304	6818.18
507.672	6792.19
508.041	6782.7
508.409	6844.62
508.777	6875.81
509.145	6842.36
509.514	6895.24
509.882	6971.17
510.25	6904.96
510.618	7017.95
510.986	6990.38
511.354	6990.83
511.722	7056.37
512.09	7124.61
512.458	7061.34
512.826	7153.77
513.193	7146.31
513.561	7200.09
513.929	7189.02
514.297	7201
514.664	7217.04
515.032	7320.09
515.4	7281.9
515.767	7287.32
516.135	7318.73
516.502	7290.03
516.869	7418.17
517.237	7300.66
517.604	7309.24
517.972	7376.59
518.339	7476.7
518.706	7465.4
519.073	7434.21
519.44	7477.83
519.808	7549.24
520.175	7517.15
520.542	7598.95
520.909	7568.9
521.276	7605.73
521.643	7657.26
522.009	7654.09
522.376	7691.61
522.743	7674.2
523.11	7694.32
523.477	7753.52
523.843	7795.33
524.21	7876.91
524.577	7878.72
524.943	7853.18
525.31	7834.43
525.676	7916.91
526.043	7920.3
526.409	7936.34
526.776	8020.41
527.142	7991.94
527.508	8058.83
527.874	8052.05
528.241	8099.96
528.607	8116
528.973	8137.47
529.339	8106.06
529.705	8205.94
530.071	8219.73
530.437	8191.48
530.803	8228.31
531.169	8189.67
531.535	8219.95
531.901	8233.51
532.267	8210.46
532.632	8283.23
532.998	8219.05
533.364	8239.84
533.73	8241.42
534.095	8319.16
534.461	8299.73
534.826	8272.83
535.192	8332.27
535.557	8309.89
535.923	8253.4
536.288	8351.93
536.653	8303.34
537.019	8294.98
537.384	8366.16
537.749	8302.66
538.114	8349.22
538.479	8252.49
538.845	8281.19
539.21	8376.11
539.575	8317.58
539.94	8303.79
540.305	8351.02
540.67	8359.61
541.034	8294.53
541.399	8291.36
541.764	8325.94
542.129	8316.9
542.494	8333.17
542.858	8310.12
543.223	8318.03
543.587	8326.84
543.952	8311.25
544.316	8350.8
544.681	8300.63
545.045	8338.82
545.41	8372.49
545.774	8358.03
546.138	8319.84
546.503	8323.23
546.867	8274.87
547.231	8338.14
547.595	8324.81
547.959	8308.99
548.324	8305.6
548.688	8311.25
549.052	8379.72
549.416	8363.23
549.779	8365.71
550.143	8326.39
550.507	8384.69
550.871	8380.85
551.235	8283
551.599	8393.06
551.962	8276.68
552.326	8367.07
552.689	8336.56
553.053	8347.41
553.417	8309.89
553.78	8395.32
554.143	8364.58
554.507	8340.18
554.87	8333.85
555.234	8448.42
555.597	8330.46
555.96	8422.21
556.323	8385.37
556.686	8370.91
557.05	8456.11
557.413	8463.34
557.776	8439.38
558.139	8535.43
558.502	8474.64
558.865	8464.69
559.228	8523.67
559.59	8518.02
559.953	8595.31
560.316	8563.45
560.679	8593.73
561.041	8630.11
561.404	8645.03
561.767	8660.17
562.129	8628.53
562.492	8726.61
562.854	8715.76
563.217	8671.24
563.579	8747.17
563.941	8769.32
564.304	8796.89
564.666	8829.88
565.028	8849.54
565.39	8840.73
565.753	8867.39
566.115	8913.49
566.477	8920.95
566.839	8975.19
567.201	9002.76
567.563	9048.41
567.925	9079.14
568.287	9066.48
568.648	9036.43
569.01	9069.65
569.372	9120.95
569.734	9058.8
570.095	9142.19
570.457	9157.56
570.819	9189.87
571.18	9237.55
571.542	9199.14
571.903	9261.51
572.265	9307.83
572.626	9316.42
572.987	9321.17
573.349	9412.69
573.71	9446.59
574.071	9404.33
574.432	9449.53
574.794	9454.95
575.155	9446.81
575.516	9438.45
575.877	9519.81
576.238	9516.64
576.599	9499.69
576.96	9641.38
577.32	9530.88
577.681	9549.41
578.042	9627.15
578.403	9590.76
578.763	9697.88
579.124	9589.86
579.485	9661.27
579.845	9744.21
580.206	9672.8
580.566	9663.31
580.927	9744.89
581.287	9822.62
581.648	9762.96
582.008	9862.85
582.368	9807.93
582.728	9850.42
583.089	9812.68
583.449	9849.52
583.809	9881.6
584.169	9889.29
584.529	9935.39
584.889	9917.99
585.249	9954.82
585.609	9896.29
585.969	9936.29
586.329	9944.43
586.688	9934.03
587.048	10008.61
587.408	9968.61
587.768	9947.59
588.127	10027.14
588.487	10013.13
588.846	10100.36
589.206	9964.77
589.565	10008.15
589.925	10048.61
590.284	10110.75
590.643	10033.92
591.003	10105.1
591.362	10141.71
591.721	10139.45
592.08	10164.53
592.44	10149.39
592.799	10151.43
593.158	10164.31
593.517	10149.62
593.876	10172.67
594.235	10153.01
594.593	10212.9
594.952	10190.07
595.311	10161.37
595.67	10209.51
596.029	10278.2
596.387	10316.85
596.746	10324.76
597.104	10263.74
597.463	10193.23
597.822	10309.62
598.18	10258.77
598.538	10244.31
598.897	10303.51
599.255	10233.69
599.613	10399.56
599.972	10337.19
600.33	10344.19
600.688	10243.63
601.046	10307.81
601.404	10377.41
601.762	10322.04
602.12	10398.43
602.478	10285.89
602.836	10354.81
603.194	10305.55
603.552	10364.3
603.91	10317.53
604.268	10332.89
604.625	10372.67
604.983	10397.98
605.341	10313.23
605.698	10429.39
606.056	10427.8
606.413	10388.03
606.771	10466
607.128	10469.61
607.485	10362.95
607.843	10380.12
608.2	10478.65
608.557	10474.36
608.914	10464.41
609.272	10496.28
609.629	10602.94
609.986	10537.41
610.343	10478.2
610.7	10583.51
611.057	10574.92
611.414	10490.4
611.771	10630.51
612.127	10610.17
612.484	10613.79
612.841	10686.33
613.198	10545.99
613.554	10594.81
613.911	10650.62
614.267	10667.12
614.624	10707.57
614.98	10664.41
615.337	10718.19
615.693	10594.13
616.05	10633.9
616.406	10747.12
616.762	10692.43
617.118	10723.39
617.475	10638.65
617.831	10716.38
618.187	10697.63
618.543	10773.56
618.899	10786.21
619.255	10748.7
619.611	10722.03
619.967	10786.21
620.323	10813.33
620.678	10840.68
621.034	10815.14
621.39	10745.54
621.746	10745.08
622.101	10889.26
622.457	10748.02
622.812	10819.43
623.168	10828.7
623.523	10876.61
623.879	10813.56
624.234	10804.29
624.589	10783.28
624.945	10823.73
625.3	10819.66
625.655	10777.63
626.01	10790.28
626.365	10845.65
626.72	10775.14
627.075	10818.76
627.43	10840.9
627.785	10819.66
628.14	10741.92
628.495	10733.11
628.85	10746.89
629.205	10724.29
629.559	10800.9
629.914	10738.31
630.269	10714.58
630.623	10677.52
630.978	10675.48
631.332	10764.75
631.687	10792.99
632.041	10741.47
632.396	10663.96
632.75	10679.32
633.104	10632.09
633.459	10665.31
633.813	10567.01
634.167	10587.12
634.521	10607.91
634.875	10621.7
635.229	10582.15
635.583	10547.35
635.937	10574.69
636.291	10522.49
636.645	10553
636.999	10462.61
637.352	10461.7
637.706	10473
638.06	10477.75
638.413	10536.28
638.767	10446.34
639.121	10438.65
639.474	10365.66
639.828	10466.67
640.181	10442.27
640.534	10427.13
640.888	10374.92
641.241	10318.43
641.594	10320.01
641.947	10349.39
642.301	10339.67
642.654	10393.91
643.007	10323.85
643.36	10357.3
643.713	10276.4
644.066	10283.63
644.419	10287.92
644.771	10193.23
645.124	10076.85
645.477	10108.72
645.83	10034.37
646.182	9998.89
646.535	10016.52
646.888	9961.6
647.24	9865.33
647.593	9873.7
647.945	9845.67
648.298	9885.45
648.65	9861.49
649.002	9879.57
649.355	9897.65
649.707	9893.81
650.059	9984.88
650.411	10013.13
650.763	10045.67
651.115	10162.5
651.467	10118.21
651.819	10106.01
652.171	10104.88
652.523	10054.48
652.875	10125.67
653.227	10016.29
653.578	10137.87
653.93	10166.79
654.282	10026.46
654.633	10032.79
654.985	10102.16
655.337	10120.47
655.688	10026.23
656.039	10080.92
656.391	10068.04
656.742	10041.37
657.094	10114.59
657.445	10114.37
657.796	10065.33
658.147	10093.58
658.498	10001.15
658.849	10047.7
659.2	10046.57
659.551	9994.6
659.902	10041.15
660.253	10040.47
660.604	10042.5
660.955	10060.81
661.306	10107.14
661.656	9984.88
662.007	10020.81
662.358	10062.84
662.708	10065.78
663.059	10050.41
663.409	10008.61
663.76	10081.15
664.11	10033.69
664.461	10071.88
664.811	10003.64
665.161	10091.32
665.511	10080.7
665.862	10019.91
666.212	10057.87
666.562	10094.25
666.912	10049.96
667.262	9981.94
667.612	10020.81
667.962	10045.67
668.312	9992.56
668.662	10034.82
669.011	10019.45
669.361	10004.54
669.711	10032.11
670.06	9936.97
670.41	9925.22
670.76	9952.11
671.109	9897.65
671.459	9922.51
671.808	9960.92
672.157	10002.51
672.507	9999.12
672.856	9991.88
673.205	9915.95
673.554	9960.47
673.904	9944.65
674.253	9947.37
674.602	9892
674.951	9829.85
675.3	9791.66
675.649	9849.97
675.998	9882.96
676.346	9920.25
676.695	9944.65
677.044	9804.77
677.393	9810.42
677.741	9894.71
678.09	9835.5
678.438	9831.21
678.787	9806.35
679.135	9784.66
679.484	9717.09
679.832	9742.17
680.181	9747.37
680.529	9788.95
680.877	9738.78
681.225	9719.8
681.573	9705.34
681.922	9671.89
682.27	9625.79
682.618	9647.71
682.966	9705.79
683.314	9663.98
683.661	9596.41
684.009	9603.65
684.357	9565.23
684.705	9523.87
685.053	9535.62
685.4	9497.43
685.748	9471.9
686.095	9516.19
686.443	9492.46
686.79	9385.35
687.138	9371.34
687.485	9362.97
687.832	9342.86
688.18	9368.85
688.527	9295.86
688.874	9284.78
689.221	9330.43
689.568	9240.04
689.915	9265.35
690.262	9276.87
690.609	9205.69
690.956	9195.97
691.303	9178.35
691.65	9123.43
691.997	9103.77
692.344	9079.37
692.69	9012.47
693.037	8995.53
693.383	8973.38
693.73	8955.75
694.077	8886.6
694.423	8874.17
694.769	8908.97
695.116	8868.3
695.462	8807.06
695.808	8801.41
696.155	8833.04
696.501	8771.58
696.847	8787.62
697.193	8687.96
697.539	8724.35
697.885	8629.21
698.231	8606.84
698.577	8600.28
698.923	8538.59
699.269	8475.77
699.614	8475.31
699.96	8528.65
700.306	8480.96
700.651	8430.8
700.997	8376.56
701.342	8351.7
701.688	8295.88
702.033	8349.44
702.379	8330.01
702.724	8285.71
703.069	8273.51
703.415	8200.07
703.76	8111.03
704.105	8160.52
704.45	8114.87
704.795	8048.66
705.14	8131.59
705.485	8090.47
705.83	8031.71
706.175	8030.35
706.52	7981.54
706.865	7952.84
707.209	7982.9
707.554	7904.93
707.899	7924.14
708.243	7876.69
708.588	7888.89
708.932	7804.15
709.277	7816.12
709.621	7881.88
709.966	7849.79
710.31	7840.98
710.654	7720.53
710.998	7672.4
711.342	7701.32
711.687	7720.08
712.031	7624.49
712.375	7651.83
712.719	7640.99
713.063	7642.34
713.407	7619.07
713.75	7554.21
714.094	7593.08
714.438	7554.89
714.782	7488.22
715.125	7535.45
715.469	7471.72
715.812	7436.25
716.156	7416.58
716.499	7414.78
716.843	7474.21
717.186	7418.39
717.53	7395.57
717.873	7468.79
718.216	7447.09
718.559	7422.46
718.902	7302.92
719.246	7344.5
719.589	7372.07
719.932	7299.98
720.275	7298.85
720.617	7280.54
720.96	7233.09
721.303	7229.7
721.646	7221.11
721.989	7197.16
722.331	7289.36
722.674	7217.72
723.016	7249.58
723.359	7241
723.701	7230.15
724.044	7167.78
724.386	7182.24
724.729	7174.11
725.071	7158.96
725.413	7156.03
725.755	7141.34
726.097	7143.6
726.439	7096.82
726.782	7112.19
727.124	7201.45
727.465	7104.28
727.807	7145.63
728.149	7083.03
728.491	7069.25
728.833	7128.46
729.175	7105.18
729.516	7114.22
729.858	7079.64
730.199	7078.97
730.541	7061.11
730.882	7039.87
731.224	7083.49
731.565	7016.37
731.906	7086.88
732.248	7100.89
732.589	7013.88
732.93	7031.74
733.271	7036.48
733.612	7032.64
733.953	7015.47
734.294	7061.34
734.635	7007.78
734.976	7030.61
735.317	6978.4
735.658	7004.62
735.999	6984.05
736.339	7010.95
736.68	7012.75
737.021	6987.67
737.361	6964.85
737.702	6983.83
738.042	6998.97
738.383	6981.12
738.723	7013.66
739.063	7025.86
739.404	7034
739.744	7005.75
740.084	6997.61
740.424	7038.97
740.764	7043.71
741.104	7085.75
741.444	7005.07
741.784	7051.62
742.124	7057.95
742.464	7074.9
742.804	7058.63
743.143	7076.48
743.483	7024.05
743.823	7056.59
744.162	7132.98
744.502	7086.88
744.841	7068.8
745.181	7099.53
745.52	7140.66
745.86	7132.52
746.199	7165.97
746.538	7181.11
746.877	7214.78
747.216	7307.21
747.556	7268.79
747.895	7334.1
748.234	7301.56
748.573	7327.32
748.911	7411.84
749.25	7413.42
749.589	7460.88
749.928	7492.97
750.267	7532.29
750.605	7572.29
750.944	7618.16
751.283	7698.61
751.621	7675.33
751.96	7759.4
752.298	7836.23
752.636	7894.99
752.975	7902.22
753.313	8005.27
753.651	8073.52
753.989	8068.77
754.327	8176.11
754.666	8229.22
755.004	8298.14
755.342	8409.78
755.679	8497.23
756.017	8462.43
756.355	8609.55
756.693	8686.61
757.031	8858.81
757.368	8848.86
757.706	8986.49
758.044	9054.51
758.381	9094.96
758.719	9259.47
759.056	9333.14
759.394	9471.22
759.731	9478.45
760.068	9576.75
760.405	9635.06
760.743	9748.05
761.08	9941.94
761.417	9892.9
761.754	10001.6
762.091	10161.82
762.428	10210.64
762.765	10224.87
763.102	10434.13
763.438	10490.85
763.775	10564.3
764.112	10727.91
764.449	10779.43
764.785	10920.67
765.122	10931.52
765.458	11023.5
765.795	11105.53
766.131	11250.38
766.467	11287.67
766.804	11348.68
767.14	11410.15
767.476	11523.37
767.812	11604.05
768.148	11669.58
768.485	11741.67
768.821	11759.97
769.157	11901.21
769.492	11963.81
769.828	12009.68
770.164	11902.12
770.5	12066.41
770.836	12120.87
771.171	12195.89
771.507	12197.25
771.842	12236.34
772.178	12304.14
772.513	12321.77
772.849	12386.62
773.184	12406.51
773.519	12481.31
773.855	12493.97
774.19	12559.73
774.525	12517.02
774.86	12557.69
775.195	12563.79
775.53	12662.32
775.865	12672.72
776.2	12628.88
776.535	12610.12
776.87	12674.75
777.205	12611.93
777.539	12687.63
777.874	12707.52
778.209	12705.71
778.543	12669.1
778.878	12709.1
779.212	12673.4
779.547	12685.6
779.881	12813.96
780.215	12681.08
780.55	12677.46
780.884	12653.28
781.218	12650.8
781.552	12705.26
781.886	12734.64
782.22	12677.69
782.554	12681.76
782.888	12551.36
783.222	12636.33
783.556	12554.3
783.889	12554.53
784.223	12399.5
784.557	12506.62
784.89	12583
785.224	12531.48
785.557	12554.53
785.891	12434.98
786.224	12447.86
786.558	12468.66
786.891	12364.7
787.224	12401.54
787.557	12379.39
787.891	12289.45
788.224	12300.52
788.557	12372.16
788.89	12315.89
789.223	12294.42
789.556	12295.1
789.888	12271.37
790.221	12254.88
790.554	12150.92
790.887	12128.55
791.219	12082.9
791.552	12138.49
791.884	12081.32
792.217	12082
792.549	12056.24
792.882	11941.89
793.214	11953.41
793.546	12000.19
793.879	11832.97
794.211	11896.47
794.543	11823.7
794.875	11876.13
795.207	11971.04
795.539	11849.91
795.871	11801.78
796.203	11695.79
796.535	11625.29
796.867	11704.38
797.198	11648.79
797.53	11662.8
797.862	11601.11
798.193	11622.8
798.525	11523.6
798.856	11493.77
799.188	11502.8
799.519	11513.88
799.85	11380.1
800.182	11451.73
800.513	11347.78
800.844	11293.32
801.175	11433.43
801.506	11305.97
801.837	11286.77
802.168	11256.94
802.499	11246.77
802.83	11175.81
803.161	11215.35
803.491	11127.9
803.822	11204.28
804.153	11052.2
804.483	11013.1
804.814	10999.54
805.145	10974.91
805.475	11021.46
805.805	10942.14
806.136	10877.28
806.466	10948.7
806.796	10872.76
807.126	10831.18
807.457	10871.64
807.787	10820.34
808.117	10801.13
808.447	10736.27
808.777	10805.87
809.107	10742.15
809.436	10654.47
809.766	10679.1
810.096	10646.78
810.426	10560.23
810.755	10616.27
811.085	10599.55
811.414	10608.59
811.744	10516.39
812.073	10554.36
812.403	10462.15
812.732	10438.43
813.061	10456.28
813.39	10437.75
813.719	10405.21
814.049	10464.64
814.378	10448.14
814.707	10366.11
815.036	10318.88
815.365	10281.59
815.693	10146
816.022	10277.75
816.351	10144.65
816.68	10160.69
817.008	10148.26
817.337	10117.76
817.665	10082.28
817.994	10157.98
818.322	10097.19
818.651	10039.11
818.979	10045.89
819.307	10036.85
819.636	9994.82
819.964	10004.99
820.292	9944.2
820.62	9954.15
820.948	9978.78
821.276	9966.57
821.604	9933.35
821.932	9999.57
822.259	9968.83
822.587	9912.79
822.915	9935.61
823.243	10051.77
823.57	9880.47
823.898	9989.17
824.225	9911.43
824.553	9957.53
824.88	9921.83
825.207	9954.82
825.535	9961.6
825.862	9925.45
826.189	9946.46
826.516	9972.9
826.843	10008.83
827.17	10027.14
827.497	10049.96
827.824	9915.73
828.151	10007.93
828.478	9923.19
828.805	10002.96
829.131	9938.78
829.458	9949.63
829.785	9933.58
830.111	9968.38
830.438	9969.74
830.764	9996.86
831.09	10013.13
831.417	9943.07
831.743	9996.4
832.069	9921.15
832.395	9954.15
832.722	9986.69
833.048	9934.71
833.374	9923.19
833.7	9919.34
834.026	9871.21
834.351	9897.42
834.677	9904.65
835.003	9973.13
835.329	9880.25
835.654	9847.26
835.98	9803.19
836.306	9889.06
836.631	9779.91
836.956	9836.86
837.282	9838.22
837.607	9831.44
837.932	9789.18
838.258	9715.51
838.583	9726.35
838.908	9661.27
839.233	9685
839.558	9673.25
839.883	9605.91
840.208	9625.11
840.533	9557.55
840.858	9633.25
841.182	9643.87
841.507	9621.5
841.832	9577.88
842.156	9519.13
842.481	9500.37
842.805	9506.25
843.13	9534.72
843.454	9449.07
843.778	9504.89
844.103	9454.95
844.427	9419.7
844.751	9409.98
845.075	9413.82
845.399	9342.41
845.723	9356.42
846.047	9285.69
846.371	9312.58
846.695	9291.34
847.019	9116.43
847.343	9114.62
847.666	9047.95
847.99	9086.6
848.313	9054.96
848.637	8986.71
848.96	8938.35
849.284	8970.22
849.607	8849.09
849.931	8907.62
850.254	8831.24
850.577	8786.94
850.9	8701.3
851.223	8731.8
851.546	8713.95
851.869	8604.58
852.192	8718.47
852.515	8525.03
852.838	8538.36
853.161	8583.56
853.483	8497.01
853.806	8488.87
854.129	8476.44
854.451	8477.12
854.774	8452.49
855.096	8372.72
855.419	8335.66
855.741	8352.15
856.063	8295.43
856.385	8283
856.708	8272.16
857.03	8226.73
857.352	8197.13
857.674	8160.52
857.996	8156.9
858.318	8130.46
858.64	8113.52
858.961	8075.32
859.283	8085.04
859.605	8003.91
859.926	8043.46
860.248	7979.28
860.57	8038.72
860.891	7973.86
861.212	7906.74
861.534	7888.66
861.855	7879.85
862.176	7922.79
862.498	7924.37
862.819	7904.93
863.14	7798.27
863.461	7816.57
863.782	7845.27
864.103	7823.13
864.424	7761.21
864.745	7797.82
865.065	7750.59
865.386	7702.68
865.707	7730.93
866.027	7704.49
866.348	7736.58
866.668	7774.54
866.989	7721.66
867.309	7641.89
867.63	7644.6
867.95	7673.98
868.27	7633.53
868.59	7677.59
868.91	7621.55
869.23	7593.76
869.55	7583.59
869.87	7697.26
870.19	7549.46
870.51	7598.73
870.83	7632.85
871.15	7557.82
871.469	7515.11
871.789	7558.73
872.109	7563.02
872.428	7506.07
872.748	7452.97
873.067	7527.09
873.386	7452.06
873.706	7423.82
874.025	7390.14
874.344	7394.89
874.663	7429.24
874.982	7396.25
875.301	7409.81
875.62	7344.04
875.939	7391.05
876.258	7351.28
876.577	7297.04
876.896	7368.68
877.214	7314.67
877.533	7324.38
877.852	7323.48
878.17	7296.81
878.489	7258.62
878.807	7348.11
879.125	7203.71
879.444	7265.4
879.762	7237.38
880.08	7215.01
880.398	7167.1
880.716	7201
881.034	7158.74
881.352	7238.06
881.67	7116.25
881.988	7148.12
882.306	7111.73
882.624	7062.7
882.941	7045.07
883.259	7040.1
883.577	7046.2
883.894	7067.67
884.212	7039.42
884.529	7043.26
884.846	6943.6
885.164	7022.92
885.481	6982.7
885.798	6894.56
886.115	6899.76
886.432	6921.46
886.75	6880.33
887.067	6908.35
887.383	6868.35
887.7	6840.78
888.017	6818.63
888.334	6835.13
888.651	6795.13
888.967	6787.9
889.284	6742.25
889.6	6720.56
889.917	6683.27
890.233	6695.25
890.55	6633.78
890.866	6687.79
891.182	6613.44
891.498	6625.64
891.815	6580
892.131	6674.01
892.447	6554.01
892.763	6488.25
893.079	6532.99
893.395	6506.78
893.71	6491.86
894.026	6488.02
894.342	6490.96
894.657	6414.58
894.973	6386.1
895.289	6381.58
895.604	6386.78
895.92	6337.97
896.235	6330.96
896.55	6342.94
896.865	6315.6
897.181	6264.75
897.496	6270.17
897.811	6226.79
898.126	6203.74
898.441	6206.45
898.756	6169.61
899.071	6138.65
899.386	6131.65
899.7	6085.77
900.015	6065.89
900.33	6013.23
900.644	6042.84
900.959	6004.64
901.273	5970.97
901.588	5970.97
901.902	5977.07
902.216	5969.62
902.531	5922.84
902.845	5921.48
903.159	5862.05
903.473	5846.68
903.787	5809.4
904.101	5790.86
904.415	5775.27
904.729	5771.88
905.042	5719.23
905.356	5636.97
905.67	5733.92
905.984	5663.64
906.297	5667.93
906.611	5604.2
906.924	5636.52
907.237	5592.23
907.551	5591.77
907.864	5523.75
908.177	5547.71
908.491	5521.27
908.804	5492.79
909.117	5486.47
909.43	5441.95
909.743	5423.19
910.056	5432.68
910.368	5405.79
910.681	5322.85
910.994	5379.58
911.307	5329.18
911.619	5292.12
911.932	5328.5
912.244	5242.4
912.557	5199.47
912.869	5257.32
913.181	5158.56
913.494	5209.86
913.806	5111.79
914.118	5122.41
914.43	5090.32
914.742	5074.95
915.054	5025.69
915.366	5032.24
915.678	5035.63
915.99	5049.19
916.302	4967.84
916.613	4959.93
916.925	4940.49
917.236	4935.97
917.548	4878.57
917.859	4893.26
918.171	4856.2
918.482	4841.96
918.794	4819.82
919.105	4822.98
919.416	4789.54
919.727	4757.22
920.038	4805.58
920.349	4768.29
920.66	4704.57
920.971	4733.94
921.282	4735.98
921.593	4642.87
921.903	4565.36
922.214	4632.93
922.525	4601.07
922.835	4583.44
923.146	4553.38
923.456	4526.72
923.767	4573.72
924.077	4521.29
924.387	4531.91
924.697	4463.89
925.008	4498.24
925.318	4482.65
925.628	4455.31
925.938	4440.39
926.248	4399.49
926.558	4370.79
926.867	4400.62
927.177	4357.46
927.487	4332.37
927.796	4298.93
928.106	4274.97
928.416	4250.11
928.725	4251.7
929.034	4237.69
929.344	4262.32
929.653	4206.5
929.962	4164.92
930.271	4143
930.581	4198.59
930.89	4134.19
931.199	4093.28
931.508	4124.24
931.817	4130.12
932.125	4070.46
932.434	4090.8
932.743	4006.28
933.051	4071.36
933.36	3994.08
933.669	3963.79
933.977	3959.73
934.286	3948.43
934.594	3950.69
934.902	3900.74
935.21	3863.91
935.519	3886.73
935.827	3843.8
936.135	3840.86
936.443	3838.6
936.751	3850.35
937.059	3816.91
937.367	3795.89
937.674	3773.97
937.982	3785.72
938.29	3739.39
938.597	3786.17
938.905	3741.2
939.213	3683.58
939.52	3718.38
939.827	3680.41
940.135	3686.29
940.442	3638.38
940.749	3646.97
941.056	3664.59
941.363	3630.7
941.67	3608.78
941.977	3573.3
942.284	3540.98
942.591	3572.39
942.898	3531.26
943.205	3510.7
943.511	3510.25
943.818	3458.95
944.125	3491.72
944.431	3424.15
944.738	3450.36
945.044	3412.85
945.35	3432.73
945.657	3335.34
945.963	3374.66
946.269	3393.87
946.575	3361.55
946.881	3336.01
947.187	3363.13
947.493	3354.54
947.799	3272.29
948.105	3293.98
948.41	3256.24
948.716	3296.24
949.022	3236.36
949.327	3214.66
949.633	3185.96
949.938	3226.64
950.244	3208.33
950.549	3194.55
950.854	3170.59
951.16	3151.39
951.465	3165.62
951.77	3142.8
952.075	3124.04
952.38	3090.82
952.685	3095.34
952.99	3101.9
953.294	3025.06
953.599	3049.69
953.904	3017.83
954.209	3044.27
954.513	2987.55
954.818	3014.21
955.122	2971.05
955.426	2967.66
955.731	2948.91
956.035	2960.88
956.339	2939.19
956.643	2931.28
956.948	2937.38
957.252	2867.33
957.556	2931.5
957.86	2849.25
958.163	2855.12
958.467	2885.18
958.771	2853.54
959.075	2844.05
959.378	2806.31
959.682	2827.55
959.985	2799.3
960.289	2808.12
960.592	2740.32
960.896	2782.58
961.199	2775.35
961.502	2747.1
961.805	2727.67
962.108	2728.12
962.411	2689.48
962.714	2696.71
963.017	2732.64
963.32	2657.61
963.623	2688.35
963.926	2659.87
964.228	2643.38
964.531	2662.13
964.833	2631.4
965.136	2576.94
965.438	2574.68
965.741	2572.42
966.043	2583.72
966.345	2585.53
966.648	2585.3
966.95	2552.31
967.252	2578.07
967.554	2542.36
967.856	2492.42
968.158	2484.51
968.46	2514.11
968.761	2514.11
969.063	2485.64
969.365	2461.69
969.666	2441.57
969.968	2450.39
970.269	2409.71
970.571	2430.28
970.872	2418.3
971.174	2420.78
971.475	2392.31
971.776	2348.02
972.077	2364.51
972.378	2362.25
972.679	2363.84
972.98	2334.91
973.281	2341.01
973.582	2321.58
973.883	2313.44
974.183	2300.11
974.484	2293.1
974.785	2285.19
975.085	2280.45
975.386	2278.87
975.686	2276.38
975.986	2272.09
976.287	2276.83
976.587	2234.57
976.887	2195.7
977.187	2231.41
977.487	2196.61
977.787	2147.12
978.087	2160.45
978.387	2152.99
978.687	2180.56
978.987	2139.89
979.286	2131.07
979.586	2151.19
979.885	2127.91
980.185	2124.07
980.484	2095.59
980.784	2117.74
981.083	2103.96
981.382	2120.9
981.682	2092.88
981.981	2070.28
982.28	2099.66
982.579	2059.89
982.878	2078.42
983.177	2055.82
983.475	2016.27
983.774	2010.17
984.073	2008.59
984.372	1998.42
984.67	1985.09
984.969	2002.94
985.267	2004.07
985.566	1990.74
985.864	1972.66
986.162	1919.55
986.461	1955.03
986.759	1940.12
987.057	1919.1
987.355	1905.32
987.653	1896.73
987.951	1878.43
988.249	1902.83
988.547	1886.33
988.844	1877.97
989.142	1864.87
989.44	1859.89
989.737	1854.92
990.035	1869.16
990.332	1839.1
990.63	1816.28
990.927	1828.93
991.224	1802.72
991.521	1797.75
991.819	1782.83
992.116	1765.21
992.413	1764.08
992.71	1813.79
993.006	1771.76
993.303	1760.91
993.6	1745.55
993.897	1717.53
994.193	1769.5
994.49	1723.4
994.787	1713.23
995.083	1713.46
995.379	1718.88
995.676	1694.48
995.972	1670.75
996.268	1680.46
996.565	1690.18
996.861	1684.98
997.157	1660.8
997.453	1641.6
997.749	1632.78
998.044	1635.72
998.34	1648.83
998.636	1599.11
998.932	1615.61
999.227	1616.06
999.523	1589.85
999.818	1566.12
1000.114	1569.73
1000.409	1545.33
1000.704	1554.37
1001	1548.49
1001.295	1557.3
1001.59	1520.47
1001.885	1503.29
1002.18	1516.17
1002.475	1514.37
1002.77	1494.25
1003.065	1473.24
1003.359	1481.37
1003.654	1499
1003.949	1492.67
1004.243	1455.16
1004.538	1444.76
1004.832	1438.66
1005.127	1434.37
1005.421	1452
1005.715	1456.52
1006.009	1437.53
1006.304	1436.63
1006.598	1429.85
1006.892	1377.42
1007.186	1401.6
1007.48	1401.15
1007.773	1376.97
1008.067	1372.22
1008.361	1367.7
1008.655	1356.41
1008.948	1354.37
1009.242	1338.33
1009.535	1337.42
1009.829	1346.01
1010.122	1341.72
1010.415	1337.87
1010.708	1295.39
1011.001	1299.91
1011.295	1307.37
1011.588	1290.87
1011.881	1277.76
1012.173	1277.09
1012.466	1237.99
1012.759	1241.61
1013.052	1275.5
1013.344	1267.37
1013.637	1236.41
1013.93	1229.63
1014.222	1214.04
1014.514	1210.42
1014.807	1214.04
1015.099	1207.03
1015.391	1187.6
1015.683	1181.49
1015.976	1181.49
1016.268	1175.84
1016.56	1180.82
1016.851	1143.08
1017.143	1143.08
1017.435	1155.05
1017.727	1163.64
1018.018	1151.21
1018.31	1143.53
1018.602	1132.23
1018.893	1106.02
1019.185	1129.07
1019.476	1114.83
1019.767	1110.54
1020.058	1107.6
1020.35	1075.06
1020.641	1084.32
1020.932	1085
1021.223	1053.36
1021.514	1072.34
1021.804	1057.43
1022.095	1024.21
1022.386	1065.57
1022.677	1062.18
1022.967	1043.87
1023.258	1032.35
1023.548	1031.67
1023.839	1002.06
1024.129	1008.62
1024.419	995.74
1024.709	989.63
1025	980.6
1025.29	1001.16
1025.58	979.01
1025.87	965.68
1026.16	957.32
1026.449	945.34
1026.739	959.13
1027.029	949.18
1027.319	963.2
1027.608	946.92
1027.898	928.62
1028.187	924.33
1028.477	915.96
1028.766	913.48
1029.055	927.72
1029.344	900.6
1029.634	899.24
1029.923	905.12
1030.212	909.64
1030.501	901.95
1030.79	887.49
1031.078	882.07
1031.367	866.02
1031.656	885
1031.945	861.28
1032.233	839.36
1032.522	845.68
1032.81	846.81
1033.099	854.05
1033.387	839.36
1033.675	823.31
1033.963	852.92
1034.251	842.29
1034.54	809.53
1034.828	809.3
1035.116	805.69
1035.403	808.85
1035.691	774.27
1035.979	784.89
1036.267	778.79
1036.554	778.34
1036.842	777.89
1037.129	798.23
1037.417	781.5
1037.704	773.14
1037.992	782.63
1038.279	743.99
1038.566	766.59
1038.853	766.59
1039.14	766.59
