Data from hue_40_FLMS001491_39.txt Node
Date: Mon Feb 06 15:07:49 GMT 2017
User: dcchb
Spectrometer: FLMS00149
Trigger mode: 0
Integration Time (sec): 2.000000E-2
Scans to average: 10
Electric dark correction enabled: true
Nonlinearity correction enabled: false
Boxcar width: 0
XAxis mode: Wavelengths
Number of Pixels in Spectrum: 2048
>>>>>Begin Spectral Data<<<<<
341.393	-22.46
341.776	-22.46
342.16	-22.46
342.543	-65.39
342.927	-79.86
343.31	-63.13
343.693	-53.64
344.077	-66.07
344.46	-70.82
344.843	-49.57
345.226	-55.9
345.61	-20.2
345.993	-24.49
346.376	-14.32
346.759	13.7
347.142	23.64
347.525	40.14
347.908	37.2
348.291	55.28
348.674	126.92
349.057	121.27
349.44	114.49
349.823	152.45
350.206	176.63
350.588	192.68
350.971	203.98
351.354	214.37
351.737	248.5
352.119	253.24
352.502	260.7
352.884	254.6
353.267	288.04
353.65	303.18
354.032	296.63
354.414	314.48
354.797	306.57
355.179	299.79
355.562	322.62
355.944	293.24
356.326	331.43
356.709	346.35
357.091	323.3
357.473	343.18
357.855	343.18
358.238	328.95
358.62	357.87
359.002	349.96
359.384	350.41
359.766	343.41
360.148	358.78
360.53	359.91
360.912	326.69
361.294	312.68
361.676	322.39
362.057	322.84
362.439	324.65
362.821	330.75
363.203	344.76
363.584	317.87
363.966	323.3
364.348	325.78
364.729	303.86
365.111	314.03
365.493	321.71
365.874	316.97
366.256	315.16
366.637	326.69
367.019	303.18
367.4	306.12
367.781	298.66
368.163	311.55
368.544	314.94
368.925	318.78
369.306	311.09
369.688	308.83
370.069	310.19
370.45	310.87
370.831	319.45
371.212	316.74
371.593	328.04
371.974	306.57
372.355	317.2
372.736	311.55
373.117	319.23
373.498	302.28
373.879	320.13
374.26	324.65
374.641	335.73
375.021	322.84
375.402	312.22
375.783	337.31
376.163	342.28
376.544	319
376.925	321.71
377.305	341.15
377.686	319.68
378.066	323.52
378.447	301.15
378.827	333.92
379.208	316.74
379.588	333.47
379.968	308.83
380.349	326.23
380.729	338.66
381.109	305.44
381.489	344.99
381.87	328.27
382.25	340.02
382.63	342.73
383.01	329.62
383.39	326.91
383.77	332.11
384.15	342.05
384.53	327.36
384.91	331.43
385.29	328.95
385.67	342.96
386.049	337.53
386.429	360.36
386.809	341.6
387.189	338.44
387.568	348.15
387.948	350.19
388.328	352.9
388.707	343.18
389.087	369.62
389.466	363.3
389.846	345.67
390.225	371.2
390.605	364.65
390.984	350.87
391.363	363.07
391.743	355.84
392.122	340.25
392.501	331.66
392.881	369.85
393.26	372.33
393.639	362.17
394.018	377.76
394.397	356.97
394.776	349.74
395.155	347.7
395.534	373.01
395.913	367.59
396.292	378.44
396.671	377.08
397.05	385.67
397.429	381.15
397.808	399.23
398.186	379.11
398.565	375.5
398.944	361.71
399.323	376.85
399.701	353.13
400.08	357.42
400.458	366.91
400.837	384.09
401.215	388.83
401.594	372.56
401.972	391.32
402.351	395.39
402.729	389.74
403.107	389.06
403.486	392.22
403.864	388.61
404.242	412.11
404.62	384.76
404.999	383.86
405.377	404.65
405.755	391.54
406.133	406.91
406.511	390.87
406.889	426.12
407.267	401.94
407.645	413.24
408.023	401.71
408.401	395.39
408.779	420.47
409.156	445.55
409.534	425.21
409.912	429.73
410.29	412.33
410.667	429.28
411.045	437.64
411.422	415.5
411.8	434.03
412.178	422.5
412.555	434.03
412.933	460.92
413.31	439.68
413.687	431.99
414.065	465.21
414.442	445.78
414.819	456.85
415.197	446.01
415.574	465.67
415.951	474.03
416.328	459.79
416.705	484.42
417.082	464.76
417.46	495.5
417.837	475.16
418.214	469.51
418.591	482.16
418.967	490.07
419.344	481.26
419.721	464.76
420.098	484.42
420.475	493.91
420.852	475.16
421.228	494.37
421.605	500.02
421.982	515.16
422.358	494.37
422.735	503.4
423.111	506.34
423.488	523.29
423.864	515.83
424.241	528.04
424.617	526
424.994	494.82
425.37	519.22
425.746	523.52
426.123	553.12
426.499	523.29
426.875	524.65
427.251	539.79
427.627	537.53
428.003	524.65
428.379	527.36
428.756	545.21
429.132	575.95
429.507	583.63
429.883	582.5
430.259	566.68
430.635	569.17
431.011	583.4
431.387	589.73
431.763	583.18
432.138	604.65
432.514	573.23
432.89	571.88
433.265	598.77
433.641	615.04
434.016	606.9
434.392	620.69
434.767	605.32
435.143	633.57
435.518	627.7
435.894	629.5
436.269	644.19
436.644	629.5
437.02	636.51
437.395	636.73
437.77	665.66
438.145	674.25
438.52	664.3
438.895	654.14
439.271	678.99
439.646	688.03
440.021	658.2
440.395	647.81
440.77	676.06
441.145	687.58
441.52	684.42
441.895	697.75
442.27	702.27
442.645	718.09
443.019	715.38
443.394	701.59
443.769	694.13
444.143	691.87
444.518	705.89
444.892	702.5
445.267	699.11
445.641	738.88
446.016	750.86
446.39	735.26
446.764	730.97
447.139	722.61
447.513	750.63
447.887	765.54
448.262	752.66
448.636	763.96
449.01	758.77
449.384	770.74
449.758	784.3
450.132	762.16
450.506	784.08
450.88	779.56
451.254	781.59
451.628	789.05
452.002	814.58
452.376	816.84
452.75	808.03
453.123	821.14
453.497	824.53
453.871	829.5
454.244	840.8
454.618	839.89
454.992	842.83
455.365	858.65
455.739	865.2
456.112	888.48
456.486	864.53
456.859	875.37
457.232	890.97
457.606	900
457.979	908.14
458.352	922.38
458.725	925.54
459.099	922.38
459.472	958.31
459.845	939.78
460.218	968.93
460.591	1004.86
460.964	970.06
461.337	991.53
461.71	1008.48
462.083	997.4
462.456	1023.17
462.829	1027.46
463.201	1052.09
463.574	1065.65
463.947	1075.82
464.32	1076.27
464.692	1096.61
465.065	1082.37
465.438	1129.38
465.81	1116.27
466.183	1140.68
466.555	1150.17
466.928	1155.14
467.3	1162.37
467.672	1180
468.045	1205.31
468.417	1239.43
468.789	1243.05
469.161	1283.72
469.534	1260.67
469.906	1310.39
470.278	1335.47
470.65	1346.09
471.022	1363.27
471.394	1376.83
471.766	1427.45
472.138	1438.75
472.51	1468.8
472.882	1487.79
473.253	1540.67
473.625	1550.16
473.997	1570.95
474.369	1590.16
474.74	1646.65
475.112	1647.56
475.484	1682.36
475.855	1753.77
476.227	1753.77
476.598	1810.04
476.97	1819.53
477.341	1867.89
477.713	1964.38
478.084	1973.42
478.455	1996.7
478.827	2063.36
479.198	2131.16
479.569	2169.35
479.94	2217.48
480.311	2265.39
480.682	2324.83
481.053	2413.41
481.424	2478.04
481.795	2530.7
482.166	2591.71
482.537	2630.35
482.908	2717.58
483.279	2810.24
483.65	2859.73
484.021	2944.24
484.391	3012.94
484.762	3068.76
485.133	3123.45
485.503	3201.64
485.874	3308.3
486.244	3391.01
486.615	3486.15
486.985	3549.88
487.356	3680.5
487.726	3707.16
488.097	3850.89
488.467	3873.94
488.837	4016.31
489.207	4098.34
489.578	4217.66
489.948	4241.16
490.318	4343.76
490.688	4399.12
491.058	4539
491.428	4639.34
491.798	4717.98
492.168	4868.49
492.538	4865.32
492.908	5037.52
493.278	5164.07
493.648	5218.76
494.017	5347.8
494.387	5460.79
494.757	5519.77
495.126	5603.84
495.496	5677.05
495.866	5757.73
496.235	5844.51
496.605	5938.97
496.974	6028.46
497.344	6138.06
497.713	6185.52
498.082	6291.73
498.452	6387.77
498.821	6444.49
499.19	6559.52
499.559	6642.68
499.928	6720.64
500.298	6822.56
500.667	6906.63
501.036	6890.81
501.405	7016.91
501.774	7060.75
502.143	7163.57
502.512	7238.59
502.88	7328.76
503.249	7381.42
503.618	7499.83
503.987	7501.64
504.356	7568.98
504.724	7718.13
505.093	7730.56
505.462	7749.77
505.83	7956.32
506.199	7954.51
506.567	8104.56
506.936	8152.7
507.304	8216.65
507.672	8309.98
508.041	8351.11
508.409	8428.39
508.777	8555.4
509.145	8596.75
509.514	8622.29
509.882	8744.32
510.25	8723.3
510.618	8835.39
510.986	8887.59
511.354	8991.54
511.722	9050.75
512.09	9151.31
512.458	9169.62
512.826	9241.03
513.193	9348.82
513.561	9425.43
513.929	9443.96
514.297	9559.44
514.664	9597.63
515.032	9544.52
515.4	9714.69
515.767	9728.47
516.135	9834.46
516.502	9776.83
516.869	9979.54
517.237	9968.01
517.604	9967.79
517.972	10109.25
518.339	10170.27
518.706	10180.89
519.073	10266.54
519.44	10318.74
519.808	10403.26
520.175	10517.6
520.542	10592.41
520.909	10644.38
521.276	10627.21
521.643	10810.7
522.009	10820.2
522.376	10859.97
522.743	10962.56
523.11	11001.21
523.477	11116.01
523.843	11159.4
524.21	11279.17
524.577	11379.96
524.943	11423.34
525.31	11487.97
525.676	11616.33
526.043	11643.68
526.409	11786.72
526.776	11798.48
527.142	11861.07
527.508	11844.58
527.874	11939.26
528.241	12099.03
528.607	12113.5
528.973	12174.51
529.339	12236.43
529.705	12335.64
530.071	12430.55
530.437	12535.86
530.803	12591.45
531.169	12704.67
531.535	12702.86
531.901	12732.24
532.267	12831.89
532.632	12925.9
532.998	12951.21
533.364	13083.64
533.73	13053.36
534.095	13087.48
534.461	13189.4
534.826	13280.7
535.192	13255.39
535.557	13455.61
535.923	13432.78
536.288	13449.51
536.653	13521.59
537.019	13447.7
537.384	13671.19
537.749	13710.29
538.114	13731.53
538.479	13720.23
538.845	13786.45
539.21	13797.07
539.575	13869.38
539.94	13926.33
540.305	14096.27
540.67	14061.92
541.034	14084.52
541.399	14114.12
541.764	14232.99
542.129	14211.97
542.494	14310.27
542.858	14416.03
543.223	14437.5
543.587	14527.67
543.952	14509.36
544.316	14591.17
544.681	14611.73
545.045	14581.45
545.41	14731.28
545.774	14692.41
546.138	14835.01
546.503	14847.43
546.867	14891.28
547.231	15082.68
547.595	14990.03
547.959	15120.42
548.324	15128.33
548.688	15112.51
549.052	15236.8
549.416	15298.04
549.779	15329.68
550.143	15347.53
550.507	15461.43
550.871	15525.16
551.235	15486.74
551.599	15623.23
551.962	15601.76
552.326	15658.03
552.689	15740.74
553.053	15693.06
553.417	15725.83
553.78	16034.3
554.143	15989.33
554.507	16009.66
554.87	16125.82
555.234	16236.1
555.597	16154.97
555.96	16321.52
556.323	16414.17
556.686	16316.1
557.05	16433.38
557.413	16510.22
557.776	16507.5
558.139	16654.62
558.502	16594.73
558.865	16657.1
559.228	16804.22
559.59	16834.5
559.953	16882.18
560.316	17060.03
560.679	17086.7
561.041	17225.45
561.404	17184.32
561.767	17265.45
562.129	17283.08
562.492	17502.05
562.854	17367.59
563.217	17450.98
563.579	17495.95
563.941	17639
564.304	17663.41
564.666	17824.98
565.028	17890.97
565.39	17911.31
565.753	17989.05
566.115	18089.84
566.477	18076.05
566.839	18209.38
567.201	18221.13
567.563	18275.59
567.925	18441.69
568.287	18420.45
568.648	18447.57
569.01	18512.42
569.372	18751.29
569.734	18691.4
570.095	18802.13
570.457	18840.32
570.819	18974.56
571.18	19002.35
571.542	19088.23
571.903	19149.24
572.265	19218.62
572.626	19315.79
572.987	19456.58
573.349	19384.72
573.71	19537.25
574.071	19690.02
574.432	19706.06
574.794	19843.01
575.155	19900.86
575.516	19872.84
575.877	20007.75
576.238	20226.05
576.599	20227.63
576.96	20304.92
577.32	20373.39
577.681	20574.74
578.042	20698.81
578.403	20694.29
578.763	20800.72
579.124	20948.74
579.485	21174.5
579.845	21263.08
580.206	21230.09
580.566	21395.96
580.927	21576.52
581.287	21774.26
581.648	21728.38
582.008	21924.31
582.368	22141.93
582.728	22336.96
583.089	22264.19
583.449	22506.22
583.809	22634.8
584.169	22773.1
584.529	22924.74
584.889	23182.13
585.249	23242.92
585.609	23285.4
585.969	23499.41
586.329	23707.99
586.688	23912.73
587.048	24049.68
587.408	24125.83
587.768	24325.83
588.127	24569.21
588.487	24647.18
588.846	25045.58
589.206	24912.93
589.565	25072.25
589.925	25557.66
590.284	25526.48
590.643	25711.78
591.003	26023.41
591.362	26244.87
591.721	26232.67
592.08	26540.01
592.44	26906.55
592.799	26855.93
593.158	26978.64
593.517	27140.22
593.876	27426.76
594.235	27620.66
594.593	27771.61
594.952	27992.85
595.311	28175.45
595.67	28341.99
596.029	28699.27
596.387	28682.55
596.746	29031.92
597.104	29003.45
597.463	29141.3
597.822	29514.85
598.18	29542.64
598.538	29703.77
598.897	29949.86
599.255	29844.55
599.613	30432.11
599.972	30349.17
600.33	30474.82
600.688	30447.25
601.046	30726.34
601.404	31050.62
601.762	30960.23
602.12	31407
602.478	31552.31
602.836	31652.87
603.194	31639.31
603.552	31846.54
603.91	31870.49
604.268	32054.44
604.625	32089.02
604.983	32353.64
605.341	32349.57
605.698	32595.22
606.056	32708.89
606.413	32926.06
606.771	32959.5
607.128	33177.12
607.485	33137.58
607.843	33304.8
608.2	33601.74
608.557	33757.67
608.914	33621.18
609.272	33939.14
609.629	34097.32
609.986	34204.44
610.343	34095.97
610.7	34531.44
611.057	34511.32
611.414	34571.89
611.771	34770.98
612.127	34741.15
612.484	34900.69
612.841	34968.26
613.198	35049.62
613.554	35022.95
613.911	35416.16
614.267	35416.39
614.624	35390.4
614.98	35548.13
615.337	35727.11
615.693	35732.08
616.05	35743.16
616.406	36106.31
616.762	35920.1
617.118	35910.38
617.475	36105.18
617.831	36189.7
618.187	36278.96
618.543	36395.34
618.899	36748.1
619.255	36566.86
619.611	36633.75
619.967	36776.8
620.323	37033.52
620.678	36831.94
621.034	36784.94
621.39	36765.05
621.746	36854.31
622.101	37222.44
622.457	37040.07
622.812	37110.13
623.168	37226.96
623.523	37241.2
623.879	37412.72
624.234	37302.21
624.589	37365.49
624.945	37488.42
625.3	37437.57
625.655	37563.67
626.01	37610.23
626.365	37633.95
626.72	37645.03
627.075	37604.12
627.43	37713.27
627.785	37603.9
628.14	37733.61
628.495	37716.44
628.85	37821.07
629.205	37636.21
629.559	37947.84
629.914	37713.05
630.269	37802.76
630.623	37647.96
630.978	37663.33
631.332	37888.41
631.687	37967.28
632.041	37768.41
632.396	37880.73
632.75	37715.08
633.104	37856.55
633.459	37696.55
633.813	37734.52
634.167	37714.63
634.521	37718.47
634.875	37745.36
635.229	37712.37
635.583	37659.26
635.937	37718.25
636.291	37690
636.645	37640.96
636.999	37527.52
637.352	37573.39
637.706	37447.29
638.06	37700.62
638.413	37556.44
638.767	37407.97
639.121	37574.07
639.474	37274.87
639.828	37447.97
640.181	37398.48
640.534	37444.58
640.888	37248.43
641.241	37283.45
641.594	37304.47
641.947	37367.75
642.301	37214.76
642.654	37287.3
643.007	37340.18
643.36	37257.47
643.713	37100.18
644.066	37301.99
644.419	37097.24
644.771	36867.42
645.124	36582.23
645.477	36493.87
645.83	36170.49
646.182	36237.15
646.535	35964.85
646.888	36229.25
647.24	35895.69
647.593	36190.6
647.945	36095.24
648.298	35897.28
648.65	35952.42
649.002	35772.99
649.355	35943.15
649.707	35954.9
650.059	36137.95
650.411	36334.55
650.763	36518.5
651.115	36873.52
651.467	36693.87
651.819	36779.06
652.171	36756.01
652.523	36603.02
652.875	36588.78
653.227	36444.83
653.578	36791.49
653.93	36697.26
654.282	36424.72
654.633	36405.96
654.985	36398.05
655.337	36523.25
655.688	36397.15
656.039	36533.19
656.391	36325.51
656.742	36307.89
657.094	36300.43
657.445	36484.38
657.796	36413.42
658.147	36320.09
658.498	36365.74
658.849	36444.15
659.2	36296.14
659.551	36285.06
659.902	36272.63
660.253	36293.42
660.604	36283.48
660.955	36155.35
661.306	36311.5
661.656	36214.33
662.007	36243.03
662.358	36180.43
662.708	36129.81
663.059	36216.14
663.409	35991.74
663.76	36258.62
664.11	36131.39
664.461	36328.9
664.811	36178.62
665.161	36105.18
665.511	35987.67
665.862	36127.78
666.212	36382.24
666.562	36207.55
666.912	36111.73
667.262	36196.93
667.612	36129.13
667.962	36206.19
668.312	36016.6
668.662	36167.1
669.011	35985.64
669.361	35969.82
669.711	36020.44
670.06	35936.37
670.41	35945.86
670.76	35961.46
671.109	35995.8
671.459	35890.72
671.808	35894.56
672.157	36076.48
672.507	35817.5
672.856	35789.03
673.205	35791.29
673.554	35975.47
673.904	35772.76
674.253	35985.41
674.602	35887.79
674.951	35358.31
675.3	35243.73
675.649	35826.54
675.998	35657.96
676.346	35755.13
676.695	35748.81
677.044	35500.9
677.393	35652.76
677.741	35777.28
678.09	35530.96
678.438	35622.48
678.787	35481.47
679.135	35579.77
679.484	35396.27
679.832	35547.91
680.181	35403.5
680.529	35456.61
680.877	35303.17
681.225	35240.57
681.573	35505.2
681.922	35260.91
682.27	35037.41
682.618	35181.59
682.966	35064.53
683.314	35128.03
683.661	35027.02
684.009	34761.49
684.357	34887.81
684.705	34644.88
685.053	34767.81
685.4	34598.55
685.748	34455.51
686.095	34417.32
686.443	34445.11
686.79	34420.93
687.138	34426.58
687.485	34537.99
687.832	34299.8
688.18	34367.37
688.527	34079.92
688.874	34112.46
689.221	34047.38
689.568	34048.74
689.915	33966.48
690.262	33850.1
690.609	33738.24
690.956	33763.1
691.303	33660.27
691.65	33534.4
691.997	33505.47
692.344	33412.37
692.69	33454.18
693.037	33320.4
693.383	33025.26
693.73	33280.85
694.077	32958.14
694.423	32956.34
694.769	32897.13
695.116	32865.49
695.462	32703.91
695.808	32797.92
696.155	32748.43
696.501	32516.57
696.847	32471.15
697.193	32296.69
697.539	32325.17
697.885	32163.59
698.231	31920.21
698.577	32073.42
698.923	31940.09
699.269	31880.43
699.614	31705.97
699.96	31645.18
700.306	31560.22
700.651	31507.34
700.997	31551.18
701.342	31265.99
701.688	31301.24
702.033	31209.49
702.379	31199.77
702.724	31106.67
703.069	31078.42
703.415	30814.02
703.76	30811.53
704.105	30896.73
704.45	30816.51
704.795	30627.36
705.14	30525.67
705.485	30465.55
705.83	30223.98
706.175	30353.69
706.52	30324.54
706.865	30234.83
707.209	30068.96
707.554	30091.33
707.899	30062.4
708.243	30003.19
708.588	29880.03
708.932	29734.95
709.277	29623.32
709.621	29713.71
709.966	29515.98
710.31	29606.82
710.654	29398.69
710.998	29499.7
711.342	29460.61
711.687	29281.63
712.031	29185.14
712.375	29125.93
712.719	29195.31
713.063	29036.89
713.407	29092.48
713.75	29019.27
714.094	28912.38
714.438	28754.64
714.782	28812.94
715.125	28598.26
715.469	28730.91
715.812	28517.13
716.156	28432.16
716.499	28373.41
716.843	28457.92
717.186	28234.43
717.53	28429.45
717.873	28447.53
718.216	28354.65
718.559	28272.39
718.902	27913.76
719.246	28194.65
719.589	27950.59
719.932	27875.34
720.275	27957.82
720.617	27824.95
720.96	27729.58
721.303	27855.91
721.646	27751.05
721.989	27615.46
722.331	27737.49
722.674	27702.92
723.016	27583.82
723.359	27630.38
723.701	27662.46
724.044	27360.33
724.386	27319.65
724.729	27384.51
725.071	27266.77
725.413	27306.99
725.755	27226.09
726.097	27157.62
726.439	27142.03
726.782	26991.52
727.124	27069.26
727.465	26986.1
727.807	27075.14
728.149	26893.45
728.491	26893.22
728.833	26918.53
729.175	26787.46
729.516	26708.82
729.858	26650.29
730.199	26747.69
730.541	26676.5
730.882	26608.71
731.224	26615.71
731.565	26445.32
731.906	26520.8
732.248	26473.57
732.589	26299.11
732.93	26259.79
733.271	26278.09
733.612	26403.74
733.953	26299.11
734.294	26121.49
734.635	26221.6
734.976	26080.81
735.317	26054.6
735.658	25929.85
735.999	25937.31
736.339	25977.09
736.68	26011.89
737.021	25943.87
737.361	25823.42
737.702	25935.73
738.042	25966.24
738.383	25759.92
738.723	25813.7
739.063	25559.92
739.404	25719.01
739.744	25661.61
740.084	25411.22
740.424	25601.95
740.764	25392.24
741.104	25579.81
741.444	25396.08
741.784	25330.32
742.124	25390.66
742.464	25321.06
742.804	25308.4
743.143	25193.83
743.483	25220.5
743.823	25031.57
744.162	25022.08
744.502	25093.49
744.841	25031.35
745.181	25070.44
745.52	24987.28
745.86	24934.85
746.199	25020.5
746.538	24856.44
746.877	24915.87
747.216	24844.46
747.556	24833.84
747.895	24808.08
748.234	24684.24
748.573	24649.44
748.911	24557.46
749.25	24615.54
749.589	24606.27
749.928	24512.49
750.267	24599.95
750.605	24497.8
750.944	24355.89
751.283	24440.4
751.621	24371.03
751.96	24273.85
752.298	24229.79
752.636	24271.59
752.975	24021.66
753.313	23955.44
753.651	24130.35
753.989	23964.03
754.327	23959.29
754.666	23807.2
755.004	23871.15
755.342	23859.63
755.679	23785.05
756.017	23651.04
756.355	23791.38
756.693	23580.99
757.031	23603.36
757.368	23471.39
757.706	23292.86
758.044	23392.07
758.381	23433.42
758.719	23316.59
759.056	23294.22
759.394	23245.41
759.731	23105.97
760.068	23132.64
760.405	23002.02
760.743	22816.26
761.08	22955.7
761.417	22775.81
761.754	22746.44
762.091	22658.98
762.428	22593.67
762.765	22533.56
763.102	22558.19
763.438	22472.77
763.775	22336.73
764.112	22322.94
764.449	22349.16
764.785	22230.97
765.122	22113.68
765.458	21964.08
765.795	21944.87
766.131	21963.63
766.467	21883.63
766.804	21724.77
767.14	21645.22
767.476	21777.42
767.812	21500.37
768.148	21539.91
768.485	21438.45
768.821	21384.21
769.157	21296.53
769.492	21218.79
769.828	21265.57
770.164	20965.01
770.5	20900.83
770.836	20954.84
771.171	20858.58
771.507	20757.79
771.842	20689.09
772.178	20757.11
772.513	20592.14
772.849	20531.13
773.184	20418.14
773.519	20472.37
773.855	20323.67
774.19	20273.96
774.525	20194.19
774.86	20158.26
775.195	20121.42
775.53	19971.14
775.865	19906.51
776.2	19787.19
776.535	19708.78
776.87	19727.98
777.205	19629.68
777.539	19481.44
777.874	19556.46
778.209	19418.61
778.543	19372.51
778.878	19175.46
779.212	19276.47
779.547	19072.41
779.881	19139.3
780.215	19037.61
780.55	19098.4
780.884	18920.32
781.218	18850.27
781.552	18859.31
781.886	18703.6
782.22	18585.42
782.554	18557.62
782.888	18403.95
783.222	18245.99
783.556	18296.84
783.889	18169.83
784.223	18010.06
784.557	18078.08
784.89	18153.34
785.224	17939.33
785.557	17750.63
785.891	17779.11
786.224	17740.24
786.558	17702.5
786.891	17557.65
787.224	17490.3
787.557	17448.04
787.891	17425.9
788.224	17393.81
788.557	17428.16
788.89	17245.79
789.223	17361.72
789.556	17141.84
789.888	17053.03
790.221	16978.23
790.554	17003.08
790.887	16952.46
791.219	16873.82
791.552	16735.97
791.884	16764.45
792.217	16741.62
792.549	16592.47
792.882	16496.2
793.214	16471.57
793.546	16498.46
793.879	16453.27
794.211	16316.1
794.543	16255.53
794.875	16306.15
795.207	16293.27
795.539	16219.6
795.871	16194.97
796.203	16004.92
796.535	15970.34
796.867	15964.69
797.198	15837.69
797.53	15762.21
797.862	15733.96
798.193	15800.18
798.525	15622.33
798.856	15675.21
799.188	15552.73
799.519	15457.14
799.85	15434.54
800.182	15422.79
800.513	15383.47
800.844	15296.46
801.175	15364.71
801.506	15387.31
801.837	15106.86
802.168	15154.77
802.499	15138.05
802.83	14988.45
803.161	14916.81
803.491	15035.23
803.822	14983.93
804.153	14878.17
804.483	14764.05
804.814	14752.97
805.145	14774.67
805.475	14799.75
805.805	14605.18
806.136	14681.34
806.466	14663.94
806.796	14580.77
807.126	14409.03
807.457	14433.43
807.787	14357.28
808.117	14414.45
808.447	14311.86
808.777	14304.17
809.107	14248.13
809.436	14204.29
809.766	14261.24
810.096	14101.92
810.426	14077.29
810.755	14098.53
811.085	14026.44
811.414	14056.95
811.744	13898.98
812.073	13853.79
812.403	13784.64
812.732	13791.87
813.061	13753.45
813.39	13697.18
813.719	13637.97
814.049	13723.62
814.378	13634.36
814.707	13593.91
815.036	13573.34
815.365	13497.64
815.693	13441.6
816.022	13488.37
816.351	13427.13
816.68	13255.39
817.008	13415.83
817.337	13124.09
817.665	13248.15
817.994	13262.17
818.322	13166.8
818.651	13136.97
818.979	13107.37
819.307	13142.39
819.636	13171.09
819.964	13027.6
820.292	13048.39
820.62	12994.38
820.948	12961.38
821.276	13048.39
821.604	13027.14
821.932	13044.54
822.259	13005.67
822.587	12955.05
822.915	12960.7
823.243	13000.03
823.57	12943.98
823.898	13041.15
824.225	12943.3
824.553	12913.02
824.88	12964.32
825.207	12938.56
825.535	12804.55
825.862	12986.01
826.189	12928.84
826.516	13017.2
826.843	12998.9
827.17	12965
827.497	12976.98
827.824	12890.2
828.151	12905.34
828.478	12986.47
828.805	12948.28
829.131	12910.08
829.458	12911.21
829.785	12873.25
830.111	12871.44
830.438	12938.33
830.764	12926.13
831.09	12943.08
831.417	12812.69
831.743	12941.95
832.069	12869.41
832.395	12798.22
832.722	12837.77
833.048	12791.67
833.374	12824.89
833.7	12728.17
834.026	12809.97
834.351	12787.15
834.677	12773.14
835.003	12793.7
835.329	12805.68
835.654	12727.04
835.98	12637.78
836.306	12692.46
836.631	12576.76
836.956	12659.24
837.282	12615.63
837.607	12575.63
837.932	12533.15
838.258	12464.22
838.583	12543.54
838.908	12478.46
839.233	12457.67
839.558	12536.31
839.883	12427.61
840.208	12414.73
840.533	12346.94
840.858	12389.65
841.182	12375.64
841.507	12402.75
841.832	12350.78
842.156	12263.77
842.481	12246.6
842.805	12232.14
843.13	12257.45
843.454	12146.04
843.778	12174.06
844.103	12173.15
844.427	12055.42
844.751	12072.37
845.075	12054.06
845.399	11984.46
845.723	11859.26
846.047	11978.13
846.371	11860.85
846.695	11842.54
847.019	11666.05
847.343	11741.75
847.666	11673.96
847.99	11631.47
848.313	11615.43
848.637	11524.13
848.96	11584.02
849.284	11450.91
849.607	11408.43
849.931	11394.42
850.254	11275.32
850.577	11180.19
850.9	11204.14
851.223	11140.87
851.546	11150.36
851.869	11068.78
852.192	10989
852.515	11013.18
852.838	10962.79
853.161	10944.49
853.483	10860.19
853.806	10769.58
854.129	10754.43
854.451	10769.35
854.774	10634.44
855.096	10671.27
855.419	10678.05
855.741	10589.92
856.063	10588.34
856.385	10568.45
856.708	10497.49
857.03	10481
857.352	10466.08
857.674	10420.66
857.996	10398.06
858.318	10358.51
858.64	10350.6
858.961	10269.02
859.283	10339.3
859.605	10266.31
859.926	10203.94
860.248	10225.18
860.57	10131.17
860.891	10122.13
861.212	10062.48
861.534	10020.67
861.855	10120.1
862.176	10058.63
862.498	10004.4
862.819	10003.27
863.14	9933.21
863.461	9991.52
863.782	9969.37
864.103	9978.41
864.424	9890.28
864.745	9936.6
865.065	9874.91
865.386	9807.34
865.707	9789.71
866.027	9901.58
866.348	9846.44
866.668	9808.47
866.989	9787
867.309	9677.4
867.63	9688.02
867.95	9725.54
868.27	9742.71
868.59	9685.08
868.91	9666.55
869.23	9583.39
869.55	9623.39
869.87	9681.47
870.19	9570.29
870.51	9593.34
870.83	9578.65
871.15	9531.64
871.469	9552.43
871.789	9567.57
872.109	9537.07
872.428	9454.13
872.748	9477.86
873.067	9481.93
873.386	9461.36
873.706	9507.91
874.025	9415.71
874.344	9375.26
874.663	9398.54
874.982	9395.15
875.301	9390.4
875.62	9371.42
875.939	9324.42
876.258	9289.16
876.577	9258.43
876.896	9275.38
877.214	9243.29
877.533	9214.14
877.852	9206
878.17	9229.96
878.489	9213.68
878.807	9199.67
879.125	9120.81
879.444	9202.84
879.762	9127.81
880.08	9100.01
880.398	9071.54
880.716	9115.61
881.034	8990.87
881.352	9081.26
881.67	9032.22
881.988	8988.61
882.306	8993.58
882.624	8991.09
882.941	8947.02
883.259	8913.81
883.577	8967.59
883.894	8839.46
884.212	8867.03
884.529	8859.12
884.846	8827.71
885.164	8841.72
885.481	8836.52
885.798	8808.05
886.115	8733.7
886.432	8739.35
886.75	8715.39
887.067	8706.35
887.383	8629.29
887.7	8654.83
888.017	8590.42
888.334	8653.25
888.651	8706.13
888.967	8593.81
889.284	8537.77
889.6	8499.35
889.917	8446.02
890.233	8454.83
890.55	8436.53
890.866	8403.99
891.182	8432.24
891.498	8347.04
891.815	8377.32
892.131	8292.35
892.447	8271.56
892.763	8197.21
893.079	8215.07
893.395	8253.03
893.71	8239.47
894.026	8163.32
894.342	8187.27
894.657	8114.73
894.973	8035.86
895.289	8087.61
895.604	8081.06
895.92	7979.37
896.235	7986.6
896.55	7975.3
896.865	7984.56
897.181	7915.19
897.496	7927.62
897.811	7892.82
898.126	7831.35
898.441	7794.29
898.756	7826.83
899.071	7710.45
899.386	7750.9
899.7	7710.9
900.015	7607.17
900.33	7597.23
900.644	7592.03
900.959	7595.2
901.273	7535.99
901.588	7533.5
901.902	7424.13
902.216	7469.1
902.531	7461.87
902.845	7410.57
903.159	7331.7
903.473	7346.39
903.787	7339.38
904.101	7345.94
904.415	7227.3
904.729	7306.16
905.042	7220.06
905.356	7153.4
905.67	7187.75
905.984	7193.4
906.297	7139.39
906.611	7072.72
906.924	7065.04
907.237	7085.6
907.551	7044.93
907.864	7006.74
908.177	7045.15
908.491	6992.73
908.804	6953.4
909.117	6870.02
909.43	6860.3
909.743	6832.96
910.056	6802.22
910.368	6767.19
910.681	6782.11
910.994	6730.13
911.307	6707.08
911.619	6651.04
911.932	6700.3
912.244	6599.52
912.557	6655.33
912.869	6576.24
913.181	6566.75
913.494	6572.4
913.806	6476.81
914.118	6481.78
914.43	6399.75
914.742	6475.9
915.054	6420.99
915.366	6356.81
915.678	6320.88
915.99	6375.79
916.302	6260.77
916.613	6188.23
916.925	6216.02
917.236	6174.89
917.548	6154.78
917.859	6190.49
918.171	6089.02
918.482	6043.82
918.794	6050.15
919.105	6110.26
919.416	5991.17
919.727	6049.93
920.038	5994.79
920.349	5926.99
920.66	5963.37
920.971	5918.18
921.282	5854.9
921.593	5855.81
921.903	5865.52
922.214	5799.31
922.525	5759.09
922.835	5721.12
923.146	5719.99
923.456	5695.13
923.767	5701.91
924.077	5679.54
924.387	5627.11
924.697	5591.63
925.008	5581.01
925.318	5560.9
925.628	5554.12
925.938	5549.37
926.248	5512.54
926.558	5446.55
926.867	5442.48
927.177	5429.15
927.487	5437.96
927.796	5386.89
928.106	5364.75
928.416	5374.01
928.725	5324.07
929.034	5304.41
929.344	5275.03
929.653	5263.96
929.962	5210.63
930.271	5227.8
930.581	5202.49
930.89	5145.09
931.199	5117.07
931.508	5128.14
931.817	5122.27
932.125	5074.58
932.434	5082.04
932.743	5025.55
933.051	5032.78
933.36	4957.3
933.669	4942.61
933.977	4924.98
934.286	4922.05
934.594	4928.37
934.902	4845.44
935.21	4844.99
935.519	4816.29
935.827	4828.71
936.135	4751.65
936.443	4769.73
936.751	4722.5
937.059	4707.59
937.367	4688.83
937.674	4734.93
937.982	4610.64
938.29	4652
938.597	4670.07
938.905	4592.11
939.213	4585.33
939.52	4560.02
939.827	4520.93
940.135	4536.07
940.442	4506.01
940.749	4509.63
941.056	4470.53
941.363	4445.9
941.67	4459.23
941.977	4417.88
942.284	4386.01
942.591	4349.41
942.898	4350.08
943.205	4400.93
943.511	4293.36
943.818	4280.03
944.125	4269.41
944.431	4279.12
944.738	4240.71
945.044	4249.3
945.35	4220.37
945.657	4184.44
945.963	4185.57
946.269	4176.98
946.575	4153.03
946.881	4108.06
947.187	4119.58
947.493	4101.73
947.799	4087.72
948.105	4058.34
948.41	4032.35
948.716	4012.92
949.022	4051.79
949.327	3985.12
949.633	3935.4
949.938	3995.06
950.244	3967.04
950.549	3925.91
950.854	3892.02
951.16	3918.46
951.465	3907.84
951.77	3876.88
952.075	3794.84
952.38	3814.96
952.685	3821.96
952.99	3797.56
953.294	3771.57
953.599	3734.05
953.904	3744.22
954.209	3717.78
954.513	3700.83
954.818	3707.39
955.122	3672.59
955.426	3623.77
955.731	3669.88
956.035	3649.99
956.339	3628.29
956.643	3622.87
956.948	3565.25
957.252	3575.19
957.556	3571.57
957.86	3557.34
958.163	3594.62
958.467	3539.71
958.771	3473.72
959.075	3509.88
959.378	3464.23
959.682	3410.22
959.985	3390.33
960.289	3421.29
960.592	3374.52
960.896	3391.69
961.199	3363.89
961.502	3388.3
961.805	3364.57
962.108	3326.38
962.411	3336.55
962.714	3295.42
963.017	3293.16
963.32	3277.8
963.623	3278.02
963.926	3240.51
964.228	3217.01
964.531	3243.67
964.833	3238.47
965.136	3188.98
965.438	3210
965.741	3178.59
966.043	3119.16
966.345	3145.14
966.648	3117.12
966.95	3140.85
967.252	3101.53
967.554	3106.5
967.856	3081.19
968.158	3035.77
968.46	3055.43
968.761	3005.71
969.063	3010.91
969.365	2983.11
969.666	2973.85
969.968	2971.81
970.269	2964.81
970.571	2980.18
970.872	2936.34
971.174	2954.64
971.475	2927.75
971.776	2909.44
972.077	2901.99
972.378	2949.89
972.679	2866.28
972.98	2887.52
973.281	2861.99
973.582	2850.69
973.883	2816.11
974.183	2784.47
974.484	2837.58
974.785	2800.75
975.085	2760.75
975.386	2793.74
975.686	2766.17
975.986	2730.92
976.287	2710.8
976.587	2685.04
976.887	2698.15
977.187	2699.73
977.487	2662.9
977.787	2682.33
978.087	2642.78
978.387	2666.51
978.687	2642.11
978.987	2607.98
979.286	2557.59
979.586	2607.08
979.885	2570.7
980.185	2567.98
980.484	2536.57
980.784	2519.17
981.083	2571.83
981.382	2544.26
981.682	2518.27
981.981	2531.15
982.28	2523.69
982.579	2471.04
982.878	2467.65
983.177	2475.33
983.475	2451.38
983.774	2467.2
984.073	2421.77
984.372	2388.33
984.67	2422.68
984.969	2411.83
985.267	2406.86
985.566	2419.51
985.864	2373.86
986.162	2373.64
986.461	2363.24
986.759	2353.07
987.057	2348.55
987.355	2299.29
987.653	2316.24
987.951	2271.27
988.249	2275.79
988.547	2267.65
988.844	2276.01
989.142	2249.35
989.44	2252.96
989.737	2261.78
990.035	2272.4
990.332	2222.91
990.63	2166.64
990.927	2199.18
991.224	2165.73
991.521	2146.07
991.819	2167.32
992.116	2154.66
992.413	2123.48
992.71	2159.86
993.006	2109.24
993.303	2114.44
993.6	2089.8
993.897	2106.07
994.193	2068.11
994.49	2110.82
994.787	2060.65
995.083	2051.39
995.379	2033.76
995.676	2063.14
995.972	2018.39
996.268	2009.35
996.565	2009.58
996.861	2015.68
997.157	1979.07
997.453	1971.16
997.749	1988.11
998.044	1965.51
998.34	1944.72
998.636	1946.53
998.932	1931.39
999.227	1915.35
999.523	1920.32
999.818	1920.99
1000.114	1892.52
1000.409	1891.62
1000.704	1860.21
1001	1870.6
1001.295	1860.66
1001.59	1840.54
1001.885	1841.22
1002.18	1841.67
1002.475	1825.18
1002.77	1844.61
1003.065	1811.39
1003.359	1792.64
1003.654	1785.41
1003.949	1799.42
1004.243	1765.07
1004.538	1750.6
1004.832	1758.06
1005.127	1735.24
1005.421	1735.91
1005.715	1708.57
1006.009	1710.83
1006.304	1693.2
1006.598	1690.72
1006.892	1683.94
1007.186	1678.97
1007.48	1671.28
1007.773	1669.93
1008.067	1657.72
1008.361	1645.3
1008.655	1645.3
1008.948	1630.83
1009.242	1603.04
1009.535	1582.02
1009.829	1606.43
1010.122	1590.16
1010.415	1580.89
1010.708	1559.42
1011.001	1537.28
1011.295	1541.12
1011.588	1562.13
1011.881	1529.37
1012.173	1543.38
1012.466	1518.75
1012.759	1485.53
1013.052	1477.39
1013.344	1508.12
1013.637	1474.23
1013.93	1454.57
1014.222	1490.72
1014.514	1480.33
1014.807	1432.65
1015.099	1468.35
1015.391	1396.49
1015.683	1407.34
1015.976	1392.65
1016.268	1394.91
1016.56	1418.18
1016.851	1394.23
1017.143	1375.47
1017.435	1379.09
1017.727	1368.69
1018.018	1365.53
1018.31	1394.68
1018.602	1357.85
1018.893	1356.04
1019.185	1304.06
1019.476	1326.66
1019.767	1300.22
1020.058	1301.35
1020.35	1294.34
1020.641	1285.31
1020.932	1277.17
1021.223	1311.07
1021.514	1245.53
1021.804	1260.45
1022.095	1226.78
1022.386	1246.89
1022.677	1215.25
1022.967	1243.05
1023.258	1202.6
1023.548	1218.64
1023.839	1203.95
1024.129	1161.92
1024.419	1182.48
1024.709	1164.18
1025	1151.75
1025.29	1175.7
1025.58	1181.35
1025.87	1168.92
1026.16	1140.68
1026.449	1172.09
1026.739	1118.53
1027.029	1120.11
1027.319	1071.07
1027.608	1138.64
1027.898	1104.74
1028.187	1092.54
1028.477	1101.36
1028.766	1093.45
1029.055	1090.73
1029.344	1055.03
1029.634	1044.18
1029.923	1054.35
1030.212	1044.41
1030.501	1026.55
1030.79	1056.84
1031.078	1008.48
1031.367	1020.45
1031.656	1015.26
1031.945	1015.71
1032.233	1009.83
1032.522	1013.22
1032.81	995.6
1033.099	974.8
1033.387	986.56
1033.675	972.55
1033.963	951.75
1034.251	968.7
1034.54	965.31
1034.828	923.28
1035.116	930.74
1035.403	952.43
1035.691	939.55
1035.979	909.5
1036.267	915.15
1036.554	917.41
1036.842	924.41
1037.129	922.38
1037.417	874.92
1037.704	864.53
1037.992	890.06
1038.279	877.86
1038.566	878.54
1038.853	878.54
1039.14	878.54
