Data from hue_24_FLMS001491_00090.txt Node
Date: Tue Feb 07 17:12:53 GMT 2017
User: dcchb
Spectrometer: FLMS00149
Trigger mode: 0
Integration Time (sec): 2.000000E-2
Scans to average: 10
Electric dark correction enabled: true
Nonlinearity correction enabled: false
Boxcar width: 0
XAxis mode: Wavelengths
Number of Pixels in Spectrum: 2048
>>>>>Begin Spectral Data<<<<<
341.393	-12.36
341.776	-12.36
342.16	-12.36
342.543	-82.64
342.927	-72.92
343.31	-74.5
343.693	-77.44
344.077	-67.95
344.46	-22.53
344.843	-42.19
345.226	-45.8
345.61	-45.13
345.993	-16.2
346.376	-4.22
346.759	18.6
347.142	39.17
347.525	27.87
347.908	42.78
348.291	77.58
348.674	90.69
349.057	99.28
349.44	91.82
349.823	144.93
350.206	134.08
350.588	200.29
350.971	226.05
351.354	230.8
351.737	237.8
352.119	256.79
352.502	258.82
352.884	265.15
353.267	270.12
353.65	288.65
354.032	312.6
354.414	289.78
354.797	313.96
355.179	327.97
355.562	339.95
355.944	326.62
356.326	318.71
356.709	338.37
357.091	338.82
357.473	342.89
357.855	354.41
358.238	363.22
358.62	330.23
359.002	335.2
359.384	338.14
359.766	300.85
360.148	349.21
360.53	348.76
360.912	312.15
361.294	335.88
361.676	338.14
362.057	328.88
362.439	344.24
362.821	326.84
363.203	309.44
363.584	322.55
363.966	339.27
364.348	325.26
364.729	330.91
365.111	339.5
365.493	327.52
365.874	337.69
366.256	329.55
366.637	339.72
367.019	305.83
367.4	318.25
367.781	308.76
368.163	301.31
368.544	319.84
368.925	320.97
369.306	310.8
369.688	326.84
370.069	331.36
370.45	327.97
370.831	306.96
371.212	311.25
371.593	297.69
371.974	329.78
372.355	321.42
372.736	302.66
373.117	303.79
373.498	314.64
373.879	325.71
374.26	310.34
374.641	300.85
375.021	317.58
375.402	330.01
375.783	308.99
376.163	344.92
376.544	321.64
376.925	335.43
377.305	335.2
377.686	337.46
378.066	328.2
378.447	337.91
378.827	329.33
379.208	348.76
379.588	347.63
379.968	347.86
380.349	343.11
380.729	344.92
381.109	345.15
381.489	363.9
381.87	332.94
382.25	329.33
382.63	341.76
383.01	346.73
383.39	321.64
383.77	343.11
384.15	343.34
384.53	361.19
384.91	339.5
385.29	360.29
385.67	351.7
386.049	386.28
386.429	362.32
386.809	356.9
387.189	361.87
387.568	360.74
387.948	381.53
388.328	368.65
388.707	343.11
389.087	359.16
389.466	374.07
389.846	382.21
390.225	368.42
390.605	348.76
390.984	381.76
391.363	363.45
391.743	383.56
392.122	374.52
392.501	376.11
392.881	375.65
393.26	367.74
393.639	392.83
394.018	377.24
394.397	384.69
394.776	380.63
395.155	381.53
395.534	384.02
395.913	371.13
396.292	392.38
396.671	387.63
397.05	396.67
397.429	403.68
397.808	369.1
398.186	413.62
398.565	405.48
398.944	396.22
399.323	388.53
399.701	412.04
400.08	418.36
400.458	399.83
400.837	378.59
401.215	411.36
401.594	406.61
401.972	428.76
402.351	413.17
402.729	431.25
403.107	413.85
403.486	426.73
403.864	429.89
404.242	412.49
404.62	421.53
404.999	436.44
405.377	424.01
405.755	400.74
406.133	429.21
406.511	434.41
406.889	440.51
407.267	440.96
407.645	455.2
408.023	441.19
408.401	452.71
408.779	467.63
409.156	451.36
409.534	467.85
409.912	476.67
410.29	449.1
410.667	466.27
411.045	445.71
411.422	459.95
411.8	479.83
412.178	468.98
412.555	474.41
412.933	485.03
413.31	454.3
413.687	512.15
414.065	500.17
414.442	466.73
414.819	511.92
415.197	491.13
415.574	499.27
415.951	508.31
416.328	495.88
416.705	521.41
417.082	494.52
417.46	501.75
417.837	536.55
418.214	520.51
418.591	517.35
418.967	540.62
419.344	539.27
419.721	526.84
420.098	519.6
420.475	547.4
420.852	550.79
421.228	509.44
421.605	547.4
421.982	539.27
422.358	563.22
422.735	554.63
423.111	550.56
423.488	567.97
423.864	573.39
424.241	557.57
424.617	594.86
424.994	572.48
425.37	568.64
425.746	550.79
426.123	578.13
426.499	578.59
426.875	575.87
427.251	573.84
427.627	612.03
428.003	618.13
428.379	608.42
428.756	614.07
429.132	600.96
429.507	594.41
429.883	632.14
430.259	629.21
430.635	626.27
431.011	658.81
431.387	659.71
431.763	667.17
432.138	675.76
432.514	656.32
432.89	688.87
433.265	693.61
433.641	666.72
434.016	704.68
434.392	706.94
434.767	716.21
435.143	720.96
435.518	706.04
435.894	724.35
436.269	731.35
436.644	720.5
437.02	750.33
437.395	749.66
437.77	742.88
438.145	742.42
438.52	746.27
438.895	764.8
439.271	750.11
439.646	786.04
440.021	785.59
440.395	795.08
440.77	760.73
441.145	806.15
441.52	819.03
441.895	796.21
442.27	802.54
442.645	801.86
443.019	837.11
443.394	791.24
443.769	835.08
444.143	832.37
444.518	844.57
444.892	856.32
445.267	838.92
445.641	838.47
446.016	833.04
446.39	871.91
446.764	820.84
447.139	867.39
447.513	854.96
447.887	886.6
448.262	866.71
448.636	859.71
449.01	886.15
449.384	904.45
449.758	897.9
450.132	904.45
450.506	904.23
450.88	928.63
451.254	905.81
451.628	928.63
452.002	902.19
452.376	946.49
452.75	926.83
453.123	960.27
453.497	952.36
453.871	960.5
454.244	987.62
454.618	996.88
454.992	995.98
455.365	987.84
455.739	1019.25
456.112	1025.58
456.486	1014.73
456.859	1040.04
457.232	1039.82
457.606	1064
457.979	1059.48
458.352	1088.4
458.725	1082.98
459.099	1111.23
459.472	1135.18
459.845	1141.96
460.218	1134.96
460.591	1125.69
460.964	1129.76
461.337	1174.73
461.71	1230.09
462.083	1205.91
462.456	1197.78
462.829	1231.68
463.201	1242.52
463.574	1267.38
463.947	1264.67
464.32	1257.44
464.692	1276.87
465.065	1307.83
465.438	1304.9
465.81	1298.34
466.183	1334.5
466.555	1355.97
466.928	1377.89
467.3	1394.84
467.672	1383.99
468.045	1430.54
468.417	1420.15
468.789	1458.79
469.161	1508.96
469.534	1525.23
469.906	1505.34
470.278	1545.34
470.65	1569.07
471.022	1600.48
471.394	1635.06
471.766	1625.56
472.138	1657.65
472.51	1658.56
472.882	1679.35
473.253	1723.42
473.625	1743.08
473.997	1796.18
474.369	1806.35
474.74	1799.12
475.112	1834.37
475.484	1835.5
475.855	1910.3
476.227	1919.57
476.598	2000.24
476.97	1985.1
477.341	2055.16
477.713	2108.04
478.084	2114.14
478.455	2184.42
478.827	2164.31
479.198	2243.18
479.569	2252.21
479.94	2307.13
480.311	2349.84
480.682	2413.79
481.053	2426.9
481.424	2507.58
481.795	2525.43
482.166	2573.11
482.537	2606.1
482.908	2670.06
483.279	2739.43
483.65	2767
484.021	2792.99
484.391	2831.63
484.762	2919.77
485.133	2917.96
485.503	2983.27
485.874	3053.55
486.244	3086.09
486.615	3123.83
486.985	3189.14
487.356	3245.18
487.726	3286.09
488.097	3416.25
488.467	3384.16
488.837	3434.56
489.207	3505.29
489.578	3535.12
489.948	3584.84
490.318	3693.08
490.688	3671.16
491.058	3743.93
491.428	3836.58
491.798	3857.82
492.168	3933.3
492.538	3950.93
492.908	4004.26
493.278	4074.09
493.648	4049.68
494.017	4151.6
494.387	4180.07
494.757	4231.6
495.126	4293.07
495.496	4331.93
495.866	4301.2
496.235	4417.58
496.605	4422.55
496.974	4442.44
497.344	4502.78
497.713	4581.42
498.082	4618.25
498.452	4617.35
498.821	4699.38
499.19	4687.63
499.559	4730.34
499.928	4839.94
500.298	4785.71
500.667	4832.26
501.036	4833.16
501.405	4925.14
501.774	4968.08
502.143	4977.79
502.512	4979.37
502.88	5026.83
503.249	5059.15
503.618	5039.26
503.987	5089.88
504.356	5154.74
504.724	5149.31
505.093	5175.53
505.462	5204.91
505.83	5258.24
506.199	5314.06
506.567	5314.73
506.936	5349.76
507.304	5395.63
507.672	5428.4
508.041	5437.44
508.409	5456.88
508.777	5486.48
509.145	5551.34
509.514	5536.65
509.882	5598.57
510.25	5580.71
510.618	5718.56
510.986	5627.72
511.354	5665.68
511.722	5704.78
512.09	5739.58
512.458	5705.23
512.826	5816.41
513.193	5833.59
513.561	5864.55
513.929	5870.42
514.297	5941.61
514.664	5949.07
515.032	6016.64
515.4	6047.37
515.767	6062.28
516.135	6027.26
516.502	6058.22
516.869	6117.88
517.237	6208.95
517.604	6123.75
517.972	6180.93
518.339	6245.56
518.706	6227.7
519.073	6241.71
519.44	6297.53
519.808	6333.92
520.175	6299.11
520.542	6394.48
520.909	6439.45
521.276	6407.36
521.643	6451.88
522.009	6488.94
522.376	6492.78
522.743	6575.94
523.11	6608.26
523.477	6688.03
523.843	6695.94
524.21	6797.18
524.577	6744.07
524.943	6802.83
525.31	6818.65
525.676	6938.42
526.043	6916.5
526.409	6923.05
526.776	7049.15
527.142	7032.65
527.508	7123.73
527.874	7184.29
528.241	7186.55
528.607	7171.86
528.973	7266.77
529.339	7299.77
529.705	7288.24
530.071	7350.84
530.437	7426.09
530.803	7363.49
531.169	7437.84
531.535	7501.12
531.901	7498.63
532.267	7486.2
532.632	7593.77
532.998	7562.36
533.364	7572.3
533.73	7630.38
534.095	7692.52
534.461	7708.12
534.826	7850.49
535.192	7749.7
535.557	7929.58
535.923	7849.58
536.288	7929.81
536.653	7942.46
537.019	7924.83
537.384	8016.13
537.749	8061.78
538.114	8040.76
538.479	8070.82
538.845	8130.93
539.21	8112.4
539.575	8202.11
539.94	8237.82
540.305	8231.49
540.67	8212.06
541.034	8320.53
541.399	8333.86
541.764	8356.24
542.129	8329.12
542.494	8317.14
542.858	8374.77
543.223	8445.95
543.587	8499.51
543.952	8541.54
544.316	8563.46
544.681	8562.56
545.045	8621.31
545.41	8716
545.774	8764.36
546.138	8714.87
546.503	8711.93
546.867	8838.93
547.231	8874.87
547.595	8879.84
547.959	8942.21
548.324	8951.25
548.688	8881.42
549.052	8927.97
549.416	8980.17
549.779	9021.98
550.143	9017.91
550.507	9120.06
550.871	9090.23
551.235	9123.9
551.599	9198.02
551.962	9197.79
552.326	9211.81
552.689	9329.99
553.053	9213.39
553.417	9310.56
553.78	9382.87
554.143	9386.26
554.507	9388.52
554.87	9410.22
555.234	9582.42
555.597	9516.66
555.96	9581.74
556.323	9546.26
556.686	9633.72
557.05	9688.86
557.413	9697.22
557.776	9648.86
558.139	9735.63
558.502	9767.95
558.865	9798.91
559.228	9782.41
559.59	9886.36
559.953	9880.71
560.316	9976.31
560.679	9918.23
561.041	9961.39
561.404	10075.29
561.767	10113.03
562.129	10097.88
562.492	10171.1
562.854	10193.7
563.217	10206.58
563.579	10251.1
563.941	10255.62
564.304	10309.18
564.666	10371.1
565.028	10403.64
565.39	10468.27
565.753	10561.15
566.115	10520.92
566.477	10530.87
566.839	10577.65
567.201	10664.65
567.563	10664.87
567.925	10715.95
568.287	10778.32
568.648	10853.57
569.01	10871.2
569.372	10878.65
569.734	10890.86
570.095	10950.52
570.457	10984.41
570.819	11067.35
571.18	11044.3
571.542	11118.65
571.903	11132.21
572.265	11245.65
572.626	11323.16
572.987	11297.85
573.349	11392.99
573.71	11377.4
574.071	11424.4
574.432	11583.95
574.794	11669.37
575.155	11700.78
575.516	11704.17
575.877	11745.52
576.238	11793.21
576.599	11932.86
576.96	11988.91
577.32	12081.33
577.681	12166.98
578.042	12275.91
578.403	12354.32
578.763	12471.16
579.124	12457.14
579.485	12695.56
579.845	12697.59
580.206	12834.99
580.566	12949.79
580.927	13051.03
581.287	13218.48
581.648	13334.64
582.008	13411.47
582.368	13563.1
582.728	13751.35
583.089	13923.32
583.449	13987.27
583.809	14204.89
584.169	14379.81
584.529	14495.73
584.889	14821.83
585.249	14874.71
585.609	15042.61
585.969	15319.22
586.329	15456.16
586.688	15756.27
587.048	15931.18
587.408	16111.96
587.768	16363.71
588.127	16555.79
588.487	16743.13
588.846	17176.34
589.206	17270.58
589.565	17568.42
589.925	17854.52
590.284	18053.38
590.643	18374.95
591.003	18630.99
591.362	18891.78
591.721	19171.54
592.08	19472.33
592.44	19785.54
592.799	20055.36
593.158	20315.69
593.517	20720.2
593.876	21028.22
594.235	21161.1
594.593	21512.05
594.952	21898.03
595.311	22120.84
595.67	22418.24
596.029	22874.72
596.387	23222.96
596.746	23582.5
597.104	23674.93
597.463	24020.46
597.822	24364.18
598.18	24481.46
598.538	24867.21
598.897	25277.82
599.255	25394.43
599.613	26096.56
599.972	26097.46
600.33	26485.7
600.688	26727.05
601.046	27134.95
601.404	27499.69
601.762	27677.99
602.12	28071.65
602.478	28455.14
602.836	28849.48
603.194	28882.93
603.552	29148.91
603.91	29386.19
604.268	29731.27
604.625	29995.44
604.983	30423.68
605.341	30506.39
605.698	30919.03
606.056	31291.9
606.413	31502.97
606.771	31746.13
607.128	32080.81
607.485	32135.5
607.843	32496.39
608.2	32833.11
608.557	33111.74
608.914	33204.17
609.272	33564.39
609.629	33844.83
609.986	34174.09
610.343	34179.74
610.7	34709.44
611.057	34819.72
611.414	35001.41
611.771	35180.61
612.127	35436.65
612.484	35577.21
612.841	35980.14
613.198	35917.54
613.554	36183.53
613.911	36628.94
614.267	36728.82
614.624	36747.8
614.98	37015.14
615.337	37407.45
615.693	37401.35
616.05	37481.57
616.406	38056.7
616.762	37986.64
617.118	38133.53
617.475	38133.08
617.831	38479.28
618.187	38642.67
618.543	38905.94
618.899	39038.59
619.255	39183.45
619.611	39250.11
619.967	39469.09
620.323	39606.49
620.678	39634.06
621.034	39653.94
621.39	39794.73
621.746	39963.31
622.101	40518.55
622.457	40255.28
622.812	40446.01
623.168	40667.93
623.523	40620.25
623.879	40821.82
624.234	40746.57
624.589	40868.83
624.945	41032.66
625.3	41106.56
625.655	41181.59
626.01	41232.88
626.365	41375.93
626.72	41304.75
627.075	41491.86
627.43	41461.58
627.785	41514.46
628.14	41530.05
628.495	41725.53
628.85	41704.06
629.205	41617.06
629.559	41969.59
629.914	41746.09
630.269	41864.51
630.623	41867.22
630.978	41857.5
631.332	42069.47
631.687	42296.81
632.041	42081.9
632.396	42161.9
632.75	41999.87
633.104	42106.08
633.459	42074.22
633.813	42074.67
634.167	42209.36
634.521	42224.05
634.875	42371.61
635.229	42163.03
635.583	42172.75
635.937	42178.85
636.291	42176.81
636.645	42114.22
636.999	42097.95
637.352	42192.18
637.706	42056.59
638.06	42211.39
638.413	42179.75
638.767	42056.37
639.121	42174.33
639.474	42066.31
639.828	41978.63
640.181	42191.5
640.534	42138.4
640.888	42036.93
641.241	41809.82
641.594	42029.25
641.947	42109.25
642.301	42033.77
642.654	42193.09
643.007	42063.6
643.36	42054.56
643.713	42087.55
644.066	42112.41
644.419	41813.66
644.771	41686.88
645.124	41326.22
645.477	41189.5
645.83	41151.3
646.182	40945.89
646.535	40885.32
646.888	40912.67
647.24	40835.83
647.593	40968.71
647.945	40884.19
648.298	40758.77
648.65	40681.26
649.002	40542.28
649.355	40799.9
649.707	40810.97
650.059	41058.43
650.411	41344.07
650.763	41323.96
651.115	41833.32
651.467	41679.88
651.819	41573.89
652.171	41531.86
652.523	41553.78
652.875	41403.73
653.227	41279.66
653.578	41643.04
653.93	41612.54
654.282	41344.75
654.633	41250.29
654.985	41443.05
655.337	41377.51
655.688	41547.68
656.039	41594.91
656.391	41202.38
656.742	41334.13
657.094	41323.5
657.445	41545.42
657.796	41277.86
658.147	41346.55
658.498	41315.37
658.849	41329.15
659.2	41420.68
659.551	41280.12
659.902	41500.22
660.253	41354.69
660.604	41351.3
660.955	41172.55
661.306	41376.16
661.656	41379.55
662.007	41254.35
662.358	41215.94
662.708	41272.43
663.059	41169.16
663.409	40974.13
663.76	41347.46
664.11	41292.54
664.461	41342.26
664.811	41255.03
665.161	41266.56
665.511	41144.75
665.862	41228.14
666.212	41222.72
666.562	41256.39
666.912	41068.14
667.262	41221.36
667.612	41169.16
667.962	41196.5
668.312	41135.71
668.662	41164.41
669.011	41178.65
669.361	40966.68
669.711	41089.84
670.06	41048.48
670.41	40939.33
670.76	40825.21
671.109	41059.1
671.459	41007.58
671.808	40896.4
672.157	40939.11
672.507	40736.63
672.856	40850.97
673.205	40848.94
673.554	40982.5
673.904	40865.66
674.253	41033.34
674.602	40974.59
674.951	40377.99
675.3	40150.65
675.649	40946.11
675.998	40874.93
676.346	40831.09
676.695	40979.78
677.044	40563.75
677.393	40632.9
677.741	40850.75
678.09	40648.04
678.438	40449.18
678.787	40605.1
679.135	40651.88
679.484	40403.08
679.832	40475.39
680.181	40272.01
680.529	40460.02
680.877	40359.69
681.225	40316.52
681.573	40362.85
681.922	40149.75
682.27	40047.38
682.618	40099.13
682.966	39890.32
683.314	40049.87
683.661	39921.73
684.009	39704.79
684.357	39668.18
684.705	39731.91
685.053	39800.15
685.4	39762.19
685.748	39600.39
686.095	39422.76
686.443	39408.3
686.79	39296.66
687.138	39350.67
687.485	39403.1
687.832	39241.52
688.18	39283.33
688.527	39033.39
688.874	39021.42
689.221	38911.36
689.568	38834.3
689.915	38780.52
690.262	38837.02
690.609	38748.66
690.956	38649
691.303	38660.3
691.65	38537.36
691.997	38385.5
692.344	38107.32
692.69	38157.49
693.037	38232.06
693.383	37918.4
693.73	37970.37
694.077	37757.95
694.423	37775.12
694.769	37632.53
695.116	37594.11
695.462	37482.25
695.808	37315.47
696.155	37418.52
696.501	37148.7
696.847	37146.89
697.193	36847.01
697.539	37066.44
697.885	36865.99
698.231	36617.86
698.577	36658.77
698.923	36625.77
699.269	36464.65
699.614	36339.68
699.96	36313.24
700.306	36303.75
700.651	36080.03
700.997	36003.87
701.342	36024.21
701.688	35979.01
702.033	35801.84
702.379	35697.66
702.724	35615.86
703.069	35675.74
703.415	35370.89
703.76	35364.11
704.105	35403.66
704.45	35299.26
704.795	34934.75
705.14	34965.25
705.485	34912.6
705.83	34812.49
706.175	34987.4
706.52	34845.71
706.865	34739.27
707.209	34716.67
707.554	34583.12
707.899	34599.61
708.243	34327.76
708.588	34319.62
708.932	34033.07
709.277	34132.05
709.621	34190.13
709.966	33980.65
710.31	34004.6
710.654	33728.68
710.998	33666.76
711.342	33722.8
711.687	33673.54
712.031	33602.35
712.375	33352.19
712.719	33561.9
713.063	33612.75
713.407	33416.59
713.75	33241.91
714.094	33104.51
714.438	33085.53
714.782	33222.02
715.125	32839.21
715.469	32856.83
715.812	32877.4
716.156	32631.3
716.499	32774.8
716.843	32685.54
717.186	32420.01
717.53	32742.94
717.873	32593.34
718.216	32487.58
718.559	32445.32
718.902	32207.13
719.246	32265.66
719.589	32213.91
719.932	32079
720.275	32062.28
720.617	32126.01
720.96	31994.71
721.303	32016.18
721.646	32088.72
721.989	31807.6
722.331	31864.32
722.674	31731.44
723.016	31815.05
723.359	31768.27
723.701	31787.48
724.044	31450.54
724.386	31316.31
724.729	31670.2
725.071	31388.17
725.413	31410.54
725.755	31422.07
726.097	31329.42
726.439	31149.99
726.782	31033.6
727.124	31224.33
727.465	30978.24
727.807	31001.97
728.149	30937.56
728.491	30914.96
728.833	30888.07
729.175	30745.48
729.516	30784.57
729.858	30648.98
730.199	30766.72
730.541	30619.83
730.882	30634.75
731.224	30665.25
731.565	30534.86
731.906	30530.12
732.248	30559.72
732.589	30379.61
732.93	30317.01
733.271	30244.93
733.612	30367.86
733.953	30246.05
734.294	30100.52
734.635	30016
734.976	30200.63
735.317	30016.23
735.658	29926.52
735.999	30058.26
736.339	29854.88
736.68	30076.34
737.021	29878.61
737.361	29778.5
737.702	29897.36
738.042	29794.09
738.383	29637.26
738.723	29645.84
739.063	29681.78
739.404	29658.05
739.744	29603.36
740.084	29494.89
740.424	29590.7
740.764	29383.25
741.104	29628.9
741.444	29378.06
741.784	29251.73
742.124	29381.44
742.464	29313.65
742.804	29164.05
743.143	29145.29
743.483	29207.66
743.823	29024.17
744.162	28980.55
744.502	29135.12
744.841	28958.63
745.181	29081.57
745.52	29050.83
745.86	28988.69
746.199	28865.75
746.538	28941.23
746.877	28932.87
747.216	28971.29
747.556	28766.32
747.895	28698.3
748.234	28555.48
748.573	28591.41
748.911	28547.57
749.25	28645.87
749.589	28515.03
749.928	28458.53
750.267	28484.52
750.605	28396.61
750.944	28386.22
751.283	28173.79
751.621	28416.5
751.96	28124.53
752.298	28183.96
752.636	28154.36
752.975	27966.79
753.313	27912.11
753.651	28106.9
753.989	27868.72
754.327	27928.83
754.666	27570.87
755.004	27734.71
755.342	27850.86
755.679	27683.64
756.017	27608.61
756.355	27564.54
756.693	27461.72
757.031	27545.79
757.368	27295.4
757.706	27365
758.044	27122.3
758.381	27268.28
758.719	27200.26
759.056	27127.72
759.394	27066.7
759.731	27015.41
760.068	26891.34
760.405	26846.14
760.743	26642.99
761.08	26688.41
761.417	26566.38
761.754	26636.88
762.091	26490.9
762.428	26525.02
762.765	26351.02
763.102	26385.82
763.438	26231.47
763.775	26191.47
764.112	26209.78
764.449	26299.27
764.785	26092.94
765.122	25868.09
765.458	25817.92
765.795	25727.53
766.131	25702.45
766.467	25643.46
766.804	25469.46
767.14	25352.4
767.476	25374.09
767.812	25228.11
768.148	25294.55
768.485	25138.17
768.821	24963.71
769.157	24918.74
769.492	24776.59
769.828	24737.05
770.164	24647.56
770.5	24601.46
770.836	24595.13
771.171	24339.54
771.507	24295.48
771.842	24287.12
772.178	24175.93
772.513	24156.95
772.849	24063.39
773.184	23979.55
773.519	23902.72
773.855	23845.55
774.19	23771.87
774.525	23679.9
774.86	23663.4
775.195	23593.8
775.53	23469.06
775.865	23365.56
776.2	23177.99
776.535	23050.31
776.87	23044.21
777.205	22953.14
777.539	22940.26
777.874	22913.82
778.209	22692.58
778.543	22642.19
778.878	22566.48
779.212	22555.86
779.547	22441.29
779.881	22445.58
780.215	22283.55
780.55	22319.94
780.884	22104.8
781.218	22061.19
781.552	22032.03
781.886	21987.52
782.22	21831.14
782.554	21719.05
782.888	21646.06
783.222	21474.53
783.556	21456.46
783.889	21282.22
784.223	21179.85
784.557	21234.77
784.89	21241.09
785.224	21019.18
785.557	20944.15
785.891	20944.6
786.224	20805.85
786.558	20776.02
786.891	20547.78
787.224	20534.67
787.557	20571.28
787.891	20506.65
788.224	20421.45
788.557	20452.19
788.89	20277.73
789.223	20317.28
789.556	20182.36
789.888	20145.08
790.221	19990.96
790.554	19939.21
790.887	19934.69
791.219	19836.61
791.552	19695.15
791.884	19598.2
792.217	19634.13
792.549	19578.31
792.882	19444.76
793.214	19406.79
793.546	19414.02
793.879	19253.12
794.211	19150.53
794.543	19257.64
794.875	19200.24
795.207	19100.36
795.539	19065.78
795.871	18976.75
796.203	18870.08
796.535	18689.3
796.867	18699.92
797.198	18706.02
797.53	18654.27
797.862	18519.58
798.193	18593.03
798.525	18432.58
798.856	18474.39
799.188	18304.22
799.519	18222.19
799.85	18086.37
800.182	18080.05
800.513	18047.28
800.844	17909.66
801.175	18092.93
801.506	18016.09
801.837	17833.05
802.168	17825.36
802.499	17847.96
802.83	17639.38
803.161	17623.56
803.491	17629.89
803.822	17555.09
804.153	17492.94
804.483	17382.89
804.814	17315.77
805.145	17301.54
805.475	17272.61
805.805	17198.71
806.136	17195.32
806.466	17178.6
806.796	17125.95
807.126	17008.89
807.457	16975.67
807.787	16948.1
808.117	16830.14
808.447	16826.75
808.777	16870.81
809.107	16750.36
809.436	16660.2
809.766	16709.46
810.096	16547.88
810.426	16562.35
810.755	16447.1
811.085	16473.31
811.414	16472.63
811.744	16397.83
812.073	16346.76
812.403	16247.33
812.732	16277.83
813.061	16246.2
813.39	16254.33
813.719	16023.38
814.049	16176.14
814.378	16005.98
814.707	15966.88
815.036	16040.33
815.365	15880.78
815.693	15789.49
816.022	15850.73
816.351	15714.01
816.68	15661.58
817.008	15750.84
817.337	15488.25
817.665	15525.54
817.994	15539.1
818.322	15478.76
818.651	15391.76
818.979	15375.71
819.307	15493.22
819.636	15384.07
819.964	15367.8
820.292	15394.92
820.62	15380.01
820.948	15309.27
821.276	15377.97
821.604	15250.74
821.932	15365.77
822.259	15316.73
822.587	15296.62
822.915	15220.01
823.243	15262.49
823.57	15206.68
823.898	15184.53
824.225	15199.9
824.553	15184.76
824.88	15214.36
825.207	15201.93
825.535	15182.72
825.862	15221.59
826.189	15112.44
826.516	15206.68
826.843	15270.4
827.17	15149.5
827.497	15306.33
827.824	15126.23
828.151	15256.17
828.478	15138.2
828.805	15268.14
829.131	15189.95
829.458	15159.9
829.785	15058.66
830.111	15168.94
830.438	15166
830.764	15249.61
831.09	15159.45
831.417	15023.4
831.743	15153.12
832.069	15180.91
832.395	15008.04
832.722	15093.46
833.048	15073.8
833.374	15098.66
833.7	15039
834.026	14962.62
834.351	15044.87
834.677	14992.22
835.003	15009.62
835.329	14946.34
835.654	14911.54
835.98	14882.62
836.306	14955.16
836.631	14806.23
836.956	14898.66
837.282	14904.54
837.607	14781.6
837.932	14803.75
838.258	14772.79
838.583	14774.82
838.908	14712.45
839.233	14607.14
839.558	14625.45
839.883	14598.78
840.208	14592.46
840.533	14618.44
840.858	14628.39
841.182	14574.83
841.507	14556.75
841.832	14491.89
842.156	14354.72
842.481	14465
842.805	14353.59
843.13	14378.68
843.454	14339.13
843.778	14213.26
844.103	14310.2
844.427	14190.66
844.751	14243.76
845.075	14168.96
845.399	14091.45
845.723	13996.76
846.047	14072.69
846.371	13954.51
846.695	13974.84
847.019	13839.71
847.343	13843.32
847.666	13680.61
847.99	13667.51
848.313	13627.06
848.637	13596.1
848.96	13525.36
849.284	13422.77
849.607	13422.32
849.931	13296.67
850.254	13219.38
850.577	13148.65
850.9	13127.41
851.223	13127.86
851.546	13117.47
851.869	12888.32
852.192	12956.57
852.515	12838.15
852.838	12747.31
853.161	12803.58
853.483	12763.35
853.806	12703.01
854.129	12715.22
854.451	12569.46
854.774	12611.94
855.096	12553.19
855.419	12471.61
855.741	12474.54
856.063	12369.46
856.385	12480.42
856.708	12349.12
857.03	12354.77
857.352	12388.22
857.674	12334.66
857.996	12203.14
858.318	12105.52
858.64	12147.32
858.961	12146.42
859.283	11990.94
859.605	12025.29
859.926	12021.68
860.248	11994.33
860.57	11967.67
860.891	11896.48
861.212	11916.14
861.534	11794.34
861.855	11762.02
862.176	11812.19
862.498	11849.25
862.819	11796.14
863.14	11667.11
863.461	11693.77
863.782	11597.96
864.103	11707.79
864.424	11581.91
864.745	11664.62
865.065	11615.13
865.386	11531.52
865.707	11515.7
866.027	11529.71
866.348	11514.34
866.668	11468.02
866.989	11486.55
867.309	11351.18
867.63	11361.13
867.95	11423.27
868.27	11367.23
868.59	11411.3
868.91	11302.37
869.23	11249.27
869.55	11235.93
869.87	11338.53
870.19	11213.11
870.51	11252.88
870.83	11255.37
871.15	11253.33
871.469	11243.62
871.789	11281.13
872.109	11214.47
872.428	11146.9
872.748	11160
873.067	11101.47
873.386	11120.91
873.706	11105.32
874.025	11029.39
874.344	10976.73
874.663	10981.02
874.982	11014.24
875.301	10956.62
875.62	10927.92
875.939	10896.06
876.258	10918.43
876.577	10888.6
876.896	10857.41
877.214	10794.59
877.533	10829.62
877.852	10866
878.17	10761.14
878.489	10863.51
878.807	10801.37
879.125	10791.43
879.444	10744.87
879.762	10743.97
880.08	10665.33
880.398	10651.09
880.716	10681.15
881.034	10634.37
881.352	10601.6
881.67	10562.28
881.988	10598.66
882.306	10521.38
882.624	10515.5
882.941	10416.07
883.259	10457.2
883.577	10374.71
883.894	10481.6
884.212	10421.72
884.529	10339.69
884.846	10392.79
885.164	10378.33
885.481	10290.2
885.798	10311.44
886.115	10218.78
886.432	10174.72
886.75	10194.83
887.067	10206.58
887.383	10148.05
887.7	10163.65
888.017	10111.44
888.334	10132.69
888.651	10170.88
888.967	10036.64
889.284	10013.82
889.6	9993.03
889.917	9854.5
890.233	9983.31
890.55	9925.23
890.866	9828.74
891.182	9865.12
891.498	9748.97
891.815	9785.12
892.131	9713.94
892.447	9779.25
892.763	9656.99
893.079	9624.45
893.395	9579.03
893.71	9591
894.026	9574.28
894.342	9578.8
894.657	9489.31
894.973	9505.81
895.289	9423.33
895.604	9453.61
895.92	9333.61
896.235	9350.56
896.55	9348.07
896.865	9284.57
897.181	9287.06
897.496	9323.44
897.811	9268.3
898.126	9239.15
898.441	9153.5
898.756	9224.23
899.071	9088.65
899.386	9115.09
899.7	9028.99
900.015	8870.12
900.33	8902.21
900.644	8918.48
900.959	8954.19
901.273	8855.43
901.588	8843.45
901.902	8779.05
902.216	8729.11
902.531	8744.47
902.845	8767.52
903.159	8623.8
903.473	8670.58
903.787	8643.01
904.101	8522.78
904.415	8529.56
904.729	8498.15
905.042	8492.73
905.356	8426.74
905.67	8429.68
905.984	8413.63
906.297	8343.13
906.611	8289.34
906.924	8352.85
907.237	8249.12
907.551	8289.12
907.864	8168.67
908.177	8238.95
908.491	8144.26
908.804	8085.28
909.117	8044.6
909.43	8040.76
909.743	7956.92
910.056	7948.56
910.368	7926.19
910.681	7956.02
910.994	7883.71
911.307	7907.89
911.619	7743.14
911.932	7857.04
912.244	7779.75
912.557	7775.69
912.869	7644.39
913.181	7649.81
913.494	7688.46
913.806	7553.77
914.118	7567.56
914.43	7519.87
914.742	7489.59
915.054	7465.64
915.366	7377.05
915.678	7386.09
915.99	7353.32
916.302	7328.92
916.613	7240.78
916.925	7306.09
917.236	7279.88
917.548	7224.97
917.859	7233.78
918.171	7087.34
918.482	7109.71
918.794	7035.14
919.105	7112.2
919.416	6978.64
919.727	7046.21
920.038	6983.84
920.349	6943.39
920.66	6888.03
920.971	6947.46
921.282	6857.07
921.593	6859.78
921.903	6809.84
922.214	6845.31
922.525	6777.52
922.835	6735.71
923.146	6706.33
923.456	6653
923.767	6638.99
924.077	6656.62
924.387	6588.6
924.697	6567.36
925.008	6521.26
925.318	6514.02
925.628	6475.38
925.938	6457.53
926.248	6442.16
926.558	6400.81
926.867	6342.28
927.177	6335.95
927.487	6359
927.796	6288.72
928.106	6205.78
928.416	6220.47
928.725	6234.48
929.034	6149.29
929.344	6197.2
929.653	6108.16
929.962	6068.61
930.271	6029.74
930.581	6043.53
930.89	5950.87
931.199	5928.5
931.508	5983.19
931.817	5929.86
932.125	5886.7
932.434	5943.42
932.743	5869.52
933.051	5863.19
933.36	5764.66
933.669	5772.35
933.977	5704.55
934.286	5746.36
934.594	5723.76
934.902	5663.88
935.21	5639.7
935.519	5634.05
935.827	5592.01
936.135	5535.74
936.443	5513.15
936.751	5578.68
937.059	5541.17
937.367	5500.26
937.674	5491
937.982	5480.38
938.29	5441.28
938.597	5425.92
938.905	5361.29
939.213	5373.71
939.52	5289.88
939.827	5327.61
940.135	5279.93
940.442	5225.92
940.749	5283.77
941.056	5243.32
941.363	5161.52
941.67	5152.25
941.977	5117.45
942.284	5136.66
942.591	5114.29
942.898	5082.65
943.205	5126.72
943.511	5039.03
943.818	5008.53
944.125	4984.8
944.431	5008.07
944.738	4984.35
945.044	4922.43
945.35	4889.66
945.657	4856.89
945.963	4873.16
946.269	4847.63
946.575	4804.92
946.881	4803.11
947.187	4784.13
947.493	4782.09
947.799	4764.01
948.105	4781.41
948.41	4684.92
948.716	4706.84
949.022	4682.66
949.327	4686.28
949.633	4608.09
949.938	4604.47
950.244	4618.25
950.549	4566.96
950.854	4560.18
951.16	4550.91
951.465	4495.32
951.77	4475.66
952.075	4471.14
952.38	4432.72
952.685	4437.69
952.99	4395.66
953.294	4384.81
953.599	4343.69
953.904	4314.08
954.209	4319.51
954.513	4317.25
954.818	4284.03
955.122	4284.93
955.426	4254.87
955.731	4238.6
956.035	4237.47
956.339	4200.19
956.643	4222.56
956.948	4139.62
957.252	4172.39
957.556	4121.32
957.86	4071.6
958.163	4107.53
958.467	4072.96
958.771	4056.91
959.075	4046.07
959.378	4031.38
959.682	4002
959.985	4014.2
960.289	3938.72
960.592	3928.55
960.896	3929.91
961.199	3908.22
961.502	3904.15
961.805	3908.22
962.108	3822.57
962.411	3853.08
962.714	3832.51
963.017	3809.91
963.32	3792.97
963.623	3797.48
963.926	3788.9
964.228	3746.64
964.531	3751.38
964.833	3700.76
965.136	3707.32
965.438	3726.07
965.741	3687.43
966.043	3611.95
966.345	3600.43
966.648	3617.6
966.95	3581.22
967.252	3557.49
967.554	3601.33
967.856	3541.67
968.158	3546.42
968.46	3547.77
968.761	3518.62
969.063	3513.42
969.365	3486.08
969.666	3496.7
969.968	3429.81
970.269	3461.67
970.571	3430.94
970.872	3429.13
971.174	3417.16
971.475	3366.99
971.776	3409.47
972.077	3390.94
972.378	3340.55
972.679	3351.62
972.98	3277.05
973.281	3289.93
973.582	3292.41
973.883	3285.18
974.183	3245.86
974.484	3214.9
974.785	3209.03
975.085	3224.84
975.386	3220.55
975.686	3187.56
975.986	3152.53
976.287	3162.93
976.587	3111.63
976.887	3111.18
977.187	3141.23
977.487	3089.71
977.787	3068.92
978.087	3041.35
978.387	3058.97
978.687	3028.47
978.987	3026.88
979.286	2992.76
979.586	2977.39
979.885	2951.63
980.185	2992.31
980.484	2961.12
980.784	2912.54
981.083	2924.74
981.382	2898.98
981.682	2875.93
981.981	2932.87
982.28	2877.74
982.579	2851.75
982.878	2877.74
983.177	2861.69
983.475	2851.97
983.774	2812.43
984.073	2776.95
984.372	2809.49
984.67	2781.24
984.969	2788.02
985.267	2730.39
985.566	2741.92
985.864	2744.86
986.162	2693.11
986.461	2730.85
986.759	2687.68
987.057	2688.14
987.355	2646.78
987.653	2675.71
987.951	2670.28
988.249	2630.28
988.547	2633
988.844	2595.48
989.142	2601.13
989.44	2543.96
989.737	2540.12
990.035	2559.55
990.332	2578.99
990.63	2508.03
990.927	2510.06
991.224	2518.2
991.521	2528.37
991.819	2499.67
992.116	2506.45
992.413	2471.42
992.71	2442.49
993.006	2429.84
993.303	2457.41
993.6	2398.43
993.897	2454.02
994.193	2390.97
994.49	2406.34
994.787	2351.65
995.083	2333.57
995.379	2347.13
995.676	2318.65
995.972	2353.68
996.268	2318.65
996.565	2317.07
996.861	2301.48
997.157	2290.41
997.453	2283.85
997.749	2287.92
998.044	2250.18
998.34	2248.83
998.636	2230.29
998.932	2181.03
999.227	2176.74
999.523	2179
999.818	2165.21
1000.114	2166.34
1000.409	2137.87
1000.704	2164.76
1001	2144.65
1001.295	2123.4
1001.59	2105.1
1001.885	2142.16
1002.18	2121.37
1002.475	2075.04
1002.77	2068.94
1003.065	2047.93
1003.359	2056.06
1003.654	2043.41
1003.949	1992.79
1004.243	2047.25
1004.538	2014.71
1004.832	1986.46
1005.127	1995.05
1005.421	1982.17
1005.715	1956.63
1006.009	1971.09
1006.304	1940.58
1006.598	1928.38
1006.892	1919.79
1007.186	1921.6
1007.48	1898.1
1007.773	1863.3
1008.067	1877.76
1008.361	1859.91
1008.655	1890.19
1008.948	1838.67
1009.242	1855.62
1009.535	1820.59
1009.829	1796.41
1010.122	1802.06
1010.415	1767.93
1010.708	1794.83
1011.001	1788.95
1011.295	1766.58
1011.588	1763.19
1011.881	1753.92
1012.173	1761.15
1012.466	1707.37
1012.759	1701.49
1013.052	1733.36
1013.344	1694.04
1013.637	1693.36
1013.93	1678.44
1014.222	1648.16
1014.514	1638.67
1014.807	1652.91
1015.099	1641.61
1015.391	1643.42
1015.683	1622.17
1015.976	1645
1016.268	1596.86
1016.56	1604.1
1016.851	1573.36
1017.143	1570.2
1017.435	1574.49
1017.727	1539.24
1018.018	1565.45
1018.31	1545.79
1018.602	1541.95
1018.893	1521.39
1019.185	1499.01
1019.476	1495.17
1019.767	1505.12
1020.058	1467.83
1020.35	1463.08
1020.641	1420.15
1020.932	1430.32
1021.223	1412.01
1021.514	1450.88
1021.804	1437.77
1022.095	1407.27
1022.386	1423.31
1022.677	1416.76
1022.967	1363.88
1023.258	1381.28
1023.548	1358.9
1023.839	1354.61
1024.129	1349.19
1024.419	1348.28
1024.709	1317.1
1025	1304.67
1025.29	1308.51
1025.58	1303.09
1025.87	1268.74
1026.16	1303.31
1026.449	1295.63
1026.739	1294.27
1027.029	1263.09
1027.319	1234.61
1027.608	1257.66
1027.898	1221.51
1028.187	1221.28
1028.477	1247.95
1028.766	1209.3
1029.055	1201.39
1029.344	1225.58
1029.634	1205.24
1029.923	1176.76
1030.212	1183.77
1030.501	1172.24
1030.79	1165.69
1031.078	1159.59
1031.367	1139.48
1031.656	1141.96
1031.945	1140.61
1032.233	1077.56
1032.522	1118.23
1032.81	1119.14
1033.099	1080.72
1033.387	1084.56
1033.675	1104.45
1033.963	1097.22
1034.251	1080.04
1034.54	1080.72
1034.828	1064
1035.116	1034.85
1035.403	1047.95
1035.691	1054.51
1035.979	1037.11
1036.267	1019.7
1036.554	1036.43
1036.842	1008.18
1037.129	1012.02
1037.417	1000.72
1037.704	988.97
1037.992	1010.21
1038.279	978.35
1038.566	987.84
1038.853	987.84
1039.14	987.84
