Data from hue_280_FLMS001491_00010.txt Node
Date: Tue Feb 07 15:54:45 GMT 2017
User: dcchb
Spectrometer: FLMS00149
Trigger mode: 0
Integration Time (sec): 2.000000E-2
Scans to average: 10
Electric dark correction enabled: true
Nonlinearity correction enabled: false
Boxcar width: 0
XAxis mode: Wavelengths
Number of Pixels in Spectrum: 2048
>>>>>Begin Spectral Data<<<<<
341.393	-5.37
341.776	-5.37
342.16	-5.37
342.543	-52.6
342.927	-57.12
343.31	-72.26
343.693	-60.05
344.077	-62.09
344.46	-58.02
344.843	-51.92
345.226	-25.03
345.61	-36.78
345.993	-11.69
346.376	3.45
346.759	7.51
347.142	33.95
347.525	27.85
347.908	58.81
348.291	63.11
348.674	74.4
349.057	108.75
349.44	131.35
349.823	125.48
350.206	155.76
350.588	178.13
350.971	211.58
351.354	203.67
351.737	228.75
352.119	248.19
352.502	255.19
352.884	262.65
353.267	273.27
353.65	302.2
354.032	306.72
354.414	288.64
354.797	304.91
355.179	317.11
355.562	323.89
355.944	313.49
356.326	335.87
356.709	321.86
357.091	339.26
357.473	322.31
357.855	352.36
358.238	337.45
358.62	348.75
359.002	336.77
359.384	334.06
359.766	327.51
360.148	331.12
360.53	339.71
360.912	356.88
361.294	327.51
361.676	320.05
362.057	334.28
362.439	319.14
362.821	327.51
363.203	332.03
363.584	332.93
363.966	315.75
364.348	324.79
364.729	346.26
365.111	317.34
365.493	296.32
365.874	337.45
366.256	322.31
366.637	305.36
367.019	299.26
367.4	320.5
367.781	301.07
368.163	321.63
368.544	301.07
368.925	304.68
369.306	318.92
369.688	321.63
370.069	317.79
370.45	309.88
370.831	284.34
371.212	311.91
371.593	303.55
371.974	313.27
372.355	318.01
372.736	314.85
373.117	301.52
373.498	307.85
373.879	304.46
374.26	315.08
374.641	319.37
375.021	331.57
375.402	328.18
375.783	312.59
376.163	329.09
376.544	326.83
376.925	296.32
377.305	319.82
377.686	306.26
378.066	315.98
378.447	327.51
378.827	318.01
379.208	325.47
379.588	350.56
379.968	343.78
380.349	342.42
380.729	341.29
381.109	343.78
381.489	313.49
381.87	344.91
382.25	338.35
382.63	326.6
383.01	322.76
383.39	349.65
383.77	347.39
384.15	336.54
384.53	345.81
384.91	349.65
385.29	356.43
385.67	370.67
386.049	339.03
386.429	355.3
386.809	345.58
387.189	350.1
387.568	332.93
387.948	362.31
388.328	342.87
388.707	379.26
389.087	383.32
389.466	369.54
389.846	346.04
390.225	351.01
390.605	384
390.984	385.81
391.363	353.27
391.743	374.96
392.122	374.06
392.501	382.87
392.881	364.34
393.26	399.82
393.639	385.36
394.018	388.07
394.397	376.09
394.776	381.97
395.155	386.04
395.534	409.54
395.913	410.44
396.292	410.22
396.671	406.6
397.05	395.07
397.429	391.01
397.808	405.24
398.186	407.28
398.565	417.67
398.944	419.25
399.323	424.68
399.701	449.99
400.08	412.93
400.458	421.51
400.837	418.58
401.215	419.48
401.594	403.44
401.972	428.97
402.351	442.53
402.729	442.53
403.107	441.17
403.486	434.85
403.864	452.25
404.242	454.06
404.62	447.95
404.999	456.54
405.377	460.38
405.755	464.68
406.133	457.67
406.511	465.81
406.889	479.82
407.267	468.97
407.645	482.76
408.023	492.25
408.401	498.35
408.779	503.77
409.156	495.41
409.534	517.11
409.912	526.82
410.29	522.3
410.667	520.95
411.045	554.17
411.422	547.16
411.8	534.51
412.178	548.74
412.555	576.31
412.933	587.84
413.31	598.01
413.687	595.52
414.065	590.55
414.442	606.14
414.819	605.46
415.197	580.83
415.574	618.12
415.951	630.55
416.328	649.53
416.705	621.74
417.082	635.97
417.46	664.67
417.837	655.41
418.214	680.49
418.591	670.32
418.967	676.65
419.344	685.24
419.721	692.24
420.098	699.02
420.475	717.55
420.852	738.57
421.228	732.92
421.605	735.63
421.982	743.99
422.358	766.82
422.735	768.62
423.111	770.43
423.488	764.78
423.864	772.92
424.241	811.33
424.617	789.87
424.994	793.48
425.37	845.46
425.746	842.52
426.123	866.02
426.499	838
426.875	875.06
427.251	883.88
427.627	878.23
428.003	894.95
428.379	908.51
428.756	899.92
429.132	927.94
429.507	991.89
429.883	962.97
430.259	968.39
430.635	967.04
431.011	982.86
431.387	1010.65
431.763	1027.83
432.138	1049.07
432.514	1021.05
432.89	1045.9
433.265	1068.5
433.641	1082.06
434.016	1085.23
434.392	1105.11
434.767	1160.7
435.143	1126.13
435.518	1172.46
435.894	1177.2
436.269	1178.1
436.644	1219.46
437.02	1223.3
437.395	1203.87
437.77	1256.52
438.145	1252.9
438.52	1273.24
438.895	1314.15
439.271	1310.08
439.646	1305.78
440.021	1354.6
440.395	1352.34
440.77	1298.33
441.145	1374.71
441.52	1392.34
441.895	1368.83
442.27	1408.16
442.645	1380.13
443.019	1416.74
443.394	1408.38
443.769	1446.57
444.143	1411.54
444.518	1484.09
444.892	1452.45
445.267	1449.28
445.641	1483.63
446.016	1489.06
446.39	1509.62
446.764	1492.45
447.139	1482.05
447.513	1539
447.887	1529.73
448.262	1539.45
448.636	1545.78
449.01	1556.63
449.384	1600.47
449.758	1580.58
450.132	1556.4
450.506	1535.16
450.88	1608.83
451.254	1601.14
451.628	1614.03
452.002	1656.74
452.376	1637.98
452.75	1664.19
453.123	1670.75
453.497	1679.56
453.871	1672.1
454.244	1730.86
454.618	1723.4
454.992	1755.94
455.365	1738.77
455.739	1774.7
456.112	1789.39
456.486	1808.6
456.859	1814.47
457.232	1854.02
457.606	1812.21
457.979	1861.93
458.352	1899.67
458.725	1894.24
459.099	1876.17
459.472	1923.4
459.845	1937.63
460.218	1967.24
460.591	1996.84
460.964	1984.41
461.337	2017.86
461.71	2054.01
462.083	2080.91
462.456	2060.79
462.829	2064.86
463.201	2108.93
463.574	2120.23
463.947	2172.2
464.32	2174.69
464.692	2184.41
465.065	2226.66
465.438	2237.96
465.81	2255.14
466.183	2286.78
466.555	2294.46
466.928	2305.53
467.3	2339.88
467.672	2325.42
468.045	2343.72
468.417	2377.85
468.789	2386.89
469.161	2439.31
469.534	2455.36
469.906	2499.43
470.278	2501.23
470.65	2523.15
471.022	2547.11
471.394	2591.85
471.766	2611.97
472.138	2655.35
472.51	2676.14
472.882	2675.92
473.253	2745.75
473.625	2766.31
473.997	2822.58
474.369	2796.59
474.74	2806.99
475.112	2899.87
475.484	2879.08
475.855	2974.89
476.227	2983.48
476.598	3033.88
476.97	3049.69
477.341	3108.22
477.713	3140.76
478.084	3153.65
478.455	3232.29
478.827	3242.68
479.198	3312.51
479.569	3313.42
479.94	3414.66
480.311	3379.4
480.682	3467.54
481.053	3533.97
481.424	3555.44
481.795	3567.87
482.166	3627.08
482.537	3633.86
482.908	3724.03
483.279	3738.49
483.65	3793.4
484.021	3859.84
484.391	3892.61
484.762	3893.29
485.133	3943.91
485.503	3994.3
485.874	4018.03
486.244	4074.75
486.615	4085.37
486.985	4171.25
487.356	4219.61
487.726	4264.8
488.097	4307.29
488.467	4275.88
488.837	4397.45
489.207	4435.42
489.578	4497.57
489.948	4503.21
490.318	4548.41
490.688	4528.3
491.058	4642.65
491.428	4668.41
491.798	4712.02
492.168	4775.98
492.538	4806.48
492.908	4811
493.278	4862.98
493.648	4861.62
494.017	4970.55
494.387	4975.29
494.757	4999.7
495.126	5032.92
495.496	5052.13
495.866	5044.22
496.235	5083.54
496.605	5161.5
496.974	5181.84
497.344	5167.38
497.713	5205.34
498.082	5184.78
498.452	5217.77
498.821	5290.99
499.19	5306.13
499.559	5347.26
499.928	5409.18
500.298	5430.2
500.667	5460.25
501.036	5429.74
501.405	5452.12
501.774	5463.64
502.143	5516.97
502.512	5520.36
502.88	5563.75
503.249	5529.63
503.618	5604.2
503.987	5618.89
504.356	5637.65
504.724	5610.53
505.093	5642.39
505.462	5660.92
505.83	5731.66
506.199	5739.57
506.567	5757.65
506.936	5792.45
507.304	5828.15
507.672	5891.43
508.041	5857.53
508.409	5906.79
508.777	5940.01
509.145	5961.93
509.514	5948.83
509.882	5944.76
510.25	5949.5
510.618	5993.8
510.986	5991.31
511.354	6040.35
511.722	6073.57
512.09	6117.64
512.458	6090.07
512.826	6150.18
513.193	6152.89
513.561	6181.14
513.929	6221.59
514.297	6205.32
514.664	6277.18
515.032	6257.97
515.4	6235.15
515.767	6326.9
516.135	6300.23
516.502	6264.98
516.869	6353.79
517.237	6381.13
517.604	6329.61
517.972	6386.78
518.339	6379.1
518.706	6435.59
519.073	6438.08
519.44	6422.71
519.808	6506.55
520.175	6446.89
520.542	6501.81
520.909	6465.42
521.276	6533.9
521.643	6532.31
522.009	6648.7
522.376	6634.68
522.743	6644.85
523.11	6634.46
523.477	6732.31
523.843	6764.4
524.21	6837.84
524.577	6825.41
524.943	6841.46
525.31	6830.84
525.676	6942.92
526.043	6925.3
526.409	6916.94
526.776	6974.34
527.142	6986.54
527.508	6990.61
527.874	7043.26
528.241	7118.97
528.607	7078.97
528.973	7163.48
529.339	7158.74
529.705	7228.34
530.071	7242.8
530.437	7253.88
530.803	7273.31
531.169	7344.5
531.535	7306.31
531.901	7272.63
532.267	7344.27
532.632	7407.09
532.998	7449.8
533.364	7450.26
533.73	7443.25
534.095	7485.96
534.461	7514.89
534.826	7516.24
535.192	7544.72
535.557	7554.89
535.923	7584.04
536.288	7570.7
536.653	7589.46
537.019	7596.92
537.384	7617.26
537.749	7651.83
538.114	7703.81
538.479	7681.21
538.845	7753.07
539.21	7718.95
539.575	7730.25
539.94	7683.92
540.305	7755.78
540.67	7793.98
541.034	7778.61
541.399	7793.75
541.764	7799.4
542.129	7846.86
542.494	7900.19
542.858	7936.57
543.223	7883.92
543.587	7914.88
543.952	7885.72
544.316	7946.51
544.681	7964.14
545.045	8028.32
545.41	7988.77
545.774	8057.92
546.138	8056.34
546.503	8045.04
546.867	8035.33
547.231	8126.4
547.595	8064.93
547.959	8132.5
548.324	8059.96
548.688	8142.89
549.052	8154.42
549.416	8158.26
549.779	8132.95
550.143	8132.5
550.507	8224.92
550.871	8231.7
551.235	8189.9
551.599	8299.95
551.962	8319.39
552.326	8313.51
552.689	8252.72
553.053	8241.2
553.417	8302.66
553.78	8420.17
554.143	8320.97
554.507	8319.84
554.87	8409.55
555.234	8416.78
555.597	8421.3
555.96	8424.92
556.323	8479.16
556.686	8451.36
557.05	8548.08
557.413	8598.7
557.776	8490.91
558.139	8621.3
558.502	8578.36
558.865	8621.75
559.228	8665.82
559.59	8701.52
559.953	8670.34
560.316	8718.92
560.679	8781.29
561.041	8770.67
561.404	8864.23
561.767	8808.41
562.129	8846.38
562.492	8925.25
562.854	8899.71
563.217	8864.68
563.579	8959.37
563.941	8990.78
564.304	8960.5
564.666	9060.16
565.028	9094.51
565.39	9093.15
565.753	9116.2
566.115	9166.14
566.477	9222.64
566.839	9227.38
567.201	9280.72
567.563	9263.99
567.925	9412.24
568.287	9367.04
568.648	9293.82
569.01	9402.07
569.372	9454.72
569.734	9462.63
570.095	9514.83
570.457	9587.83
570.819	9561.16
571.18	9540.6
571.542	9610.2
571.903	9599.35
572.265	9662.4
572.626	9700.37
572.987	9704.21
573.349	9754.38
573.71	9832.34
574.071	9884.99
574.432	9911.66
574.794	9980.13
575.155	9949.17
575.516	9951.43
575.877	10029.4
576.238	10012.67
576.599	10116.17
576.96	10193.23
577.32	10202.05
577.681	10180.58
578.042	10280.92
578.403	10306.68
578.763	10306.45
579.124	10447.47
579.485	10428.71
579.845	10419.22
580.206	10500.12
580.566	10462.61
580.927	10588.93
581.287	10626.22
581.648	10628.25
582.008	10798.19
582.368	10764.75
582.728	10823.5
583.089	10888.58
583.449	10914.35
583.809	10953.21
584.169	11030.27
584.529	11018.07
584.889	11202.47
585.249	11189.14
585.609	11170.38
585.969	11309.36
586.329	11326.31
586.688	11462.35
587.048	11481.34
587.408	11535.35
587.768	11602.01
588.127	11700.09
588.487	11679.52
588.846	11827.09
589.206	11824.15
589.565	11820.76
589.925	12052.39
590.284	12018.27
590.643	12119.29
591.003	12165.39
591.362	12226.85
591.721	12220.07
592.08	12333.29
592.44	12477.47
592.799	12535.77
593.158	12575.55
593.517	12611.93
593.876	12764.92
594.235	12726.5
594.593	12803.56
594.952	12966.5
595.311	12928.98
595.67	12986.16
596.029	13086.04
596.387	13135.76
596.746	13303.89
597.104	13240.84
597.463	13213.27
597.822	13414.39
598.18	13361.06
598.538	13419.82
598.897	13626.59
599.255	13554.95
599.613	13628.85
599.972	13702.75
600.33	13787.72
600.688	13758.79
601.046	13846.25
601.404	13904.32
601.762	13948.39
602.12	14091.21
602.478	14091.21
602.836	14140.48
603.194	14065
603.552	14097.99
603.91	14107.71
604.268	14266.8
604.625	14200.59
604.983	14302.51
605.341	14324.2
605.698	14495.04
606.056	14452.78
606.413	14420.24
606.771	14574.59
607.128	14580.24
607.485	14535.72
607.843	14663.17
608.2	14795.37
608.557	14780.23
608.914	14667.69
609.272	14773.23
609.629	14813.23
609.986	14894.35
610.343	14900.91
610.7	15029.04
611.057	14943.17
611.414	15056.61
611.771	15017.97
612.127	15136.83
612.484	15147.45
612.841	15133.9
613.198	15184.97
613.554	15225.42
613.911	15306.32
614.267	15312.65
614.624	15309.26
614.98	15305.64
615.337	15405.3
615.693	15344.06
616.05	15352.65
616.406	15524.85
616.762	15425.41
617.118	15503.6
617.475	15462.47
617.831	15553.55
618.187	15514.22
618.543	15631.28
618.899	15732.3
619.255	15587.9
619.611	15621.34
619.967	15739.76
620.323	15739.53
620.678	15603.26
621.034	15706.31
621.39	15646.65
621.746	15713.09
622.101	15787.21
622.457	15741.11
622.812	15755.57
623.168	15782.92
623.523	15790.6
623.879	15896.36
624.234	15812.07
624.589	15807.78
624.945	15840.77
625.3	15908.56
625.655	15848.68
626.01	15938.62
626.365	15872.63
626.72	15913.76
627.075	15933.87
627.43	15924.38
627.785	15833.31
628.14	15913.31
628.495	15855.23
628.85	15824.95
629.205	15789.92
629.559	15972.29
629.914	15858.4
630.269	15842.58
630.623	15832.18
630.978	15752.86
631.332	15931.84
631.687	15810.26
632.041	15835.57
632.396	15843.48
632.75	15746.31
633.104	15782.69
633.459	15670.6
633.813	15752.41
634.167	15786.76
634.521	15755.8
634.875	15709.47
635.229	15737.04
635.583	15702.92
635.937	15626.31
636.291	15611.62
636.645	15696.37
636.999	15637.84
637.352	15654.56
637.706	15540.21
638.06	15619.53
638.413	15551.51
638.767	15496.15
639.121	15528.69
639.474	15552.19
639.828	15498.63
640.181	15522.36
640.534	15508.8
640.888	15527.56
641.241	15332.08
641.594	15381.35
641.947	15443.04
642.301	15420.22
642.654	15446.2
643.007	15467.9
643.36	15325.08
643.713	15336.38
644.066	15435.58
644.419	15408.01
644.771	15321.24
645.124	15110.39
645.477	15134.12
645.83	15026.1
646.182	14890.29
646.535	14902.72
646.888	14937.74
647.24	14906.33
647.593	14974.13
647.945	14911.53
648.298	14836.95
648.65	14817.52
649.002	14781.81
649.355	14801.7
649.707	14877.63
650.059	14949.04
650.411	15148.58
650.763	15113.56
651.115	15219.54
651.467	15291.63
651.819	15293.21
652.171	15217.74
652.523	15166.21
652.875	15098.87
653.227	15080.11
653.578	15184.06
653.93	15227.9
654.282	15154.69
654.633	15194.69
654.985	15185.65
655.337	15161.01
655.688	15235.14
656.039	15242.14
656.391	15172.09
656.742	15207.57
657.094	15253.21
657.445	15209.37
657.796	15240.11
658.147	15226.77
658.498	15164.18
658.849	15207.34
659.2	15239.43
659.551	15187.91
659.902	15198.98
660.253	15217.74
660.604	15301.58
660.955	15226.32
661.306	15266.55
661.656	15290.95
662.007	15298.86
662.358	15317.62
662.708	15350.61
663.059	15320.56
663.409	15202.37
663.76	15318.3
664.11	15366.43
664.461	15340.44
664.811	15343.38
665.161	15361.91
665.511	15285.76
665.862	15356.04
666.212	15403.27
666.562	15439.65
666.912	15353.1
667.262	15332.99
667.612	15346.09
667.962	15329.6
668.312	15347.9
668.662	15340.67
669.011	15273.55
669.361	15338.41
669.711	15325.76
670.06	15283.04
670.41	15286.66
670.76	15215.7
671.109	15273.1
671.459	15281.01
671.808	15273.33
672.157	15271.07
672.507	15220
672.856	15206.21
673.205	15189.49
673.554	15196.72
673.904	15242.59
674.253	15276.49
674.602	15257.06
674.951	14908.59
675.3	14881.7
675.649	15144.29
675.998	15095.03
676.346	15063.39
676.695	15121.69
677.044	15085.99
677.393	15076.95
677.741	15024.07
678.09	15059.1
678.438	15051.86
678.787	15084.63
679.135	14999.89
679.484	14942.04
679.832	14948.82
680.181	14943.62
680.529	14888.25
680.877	14852.1
681.225	14847.12
681.573	14865.65
681.922	14791.53
682.27	14715.6
682.618	14735.71
682.966	14690.29
683.314	14740.01
683.661	14631.08
684.009	14614.59
684.357	14536.4
684.705	14442.39
685.053	14596.96
685.4	14501.6
685.748	14495.04
686.095	14414.14
686.443	14422.95
686.79	14393.58
687.138	14337.08
687.485	14328.27
687.832	14246.91
688.18	14352
688.527	14225.45
688.874	14176.86
689.221	14146.35
689.568	14070.87
689.915	13986.81
690.262	14011.44
690.609	13980.93
690.956	13986.81
691.303	13977.99
691.65	13940.93
691.997	13816.19
692.344	13769.19
692.69	13702.07
693.037	13724.22
693.383	13620.94
693.73	13610.55
694.077	13462.53
694.423	13560.38
694.769	13465.92
695.116	13384.56
695.462	13384.56
695.808	13394.28
696.155	13355.64
696.501	13243.78
696.847	13318.8
697.193	13119.94
697.539	13129.65
697.885	13086.27
698.231	13007.85
698.577	12974.4
698.923	12911.13
699.269	12970.56
699.614	12817.35
699.96	12841.07
700.306	12767.63
700.651	12754.98
700.997	12727.63
701.342	12632.94
701.688	12635.43
702.033	12555.43
702.379	12592.04
702.724	12498.26
703.069	12505.72
703.415	12401.09
703.76	12403.57
704.105	12314.76
704.45	12349.34
704.795	12303.01
705.14	12197.25
705.485	12197.25
705.83	12143.24
706.175	12104.6
706.52	12034.99
706.865	12065.28
707.209	11981.21
707.554	11964.26
707.899	11929.46
708.243	11939.4
708.588	11855.34
708.932	11756.36
709.277	11804.94
709.621	11755.91
709.966	11697.38
710.31	11724.95
710.654	11675.91
710.998	11625.06
711.342	11593.88
711.687	11600.66
712.031	11535.57
712.375	11484.05
712.719	11484.27
713.063	11470.94
713.407	11489.47
713.75	11370.83
714.094	11421.9
714.438	11388.23
714.782	11397.95
715.125	11263.04
715.469	11335.8
715.812	11167.22
716.156	11238.86
716.499	11253.77
716.843	11251.74
717.186	11133.1
717.53	11266.65
717.873	11178.75
718.216	11156.6
718.559	11148.01
718.902	11059.88
719.246	11054.23
719.589	11073.44
719.932	10981.69
720.275	11048.35
720.617	10971.29
720.96	10997.06
721.303	10978.52
721.646	10942.59
721.989	10962.25
722.331	10972.2
722.674	10930.39
723.016	10921.13
723.359	10925.42
723.701	10919.09
724.044	10858.53
724.386	10813.11
724.729	10815.82
725.071	10825.53
725.413	10809.26
725.755	10779.21
726.097	10832.31
726.439	10769.26
726.782	10785.31
727.124	10795.03
727.465	10749.38
727.807	10767.46
728.149	10730.85
728.491	10727.68
728.833	10841.35
729.175	10745.99
729.516	10771.52
729.858	10753.9
730.199	10713.67
730.541	10751.19
730.882	10747.8
731.224	10731.3
731.565	10642.94
731.906	10774.01
732.248	10701.7
732.589	10608.82
732.93	10665.54
733.271	10638.65
733.612	10634.58
733.953	10677.29
734.294	10690.4
734.635	10654.24
734.976	10691.07
735.317	10682.71
735.658	10635.03
735.999	10761.58
736.339	10680
736.68	10643.84
737.021	10631.42
737.361	10595.03
737.702	10755.03
738.042	10684.75
738.383	10600.46
738.723	10673.9
739.063	10756.84
739.404	10713.22
739.744	10785.31
740.084	10683.62
740.424	10721.36
740.764	10714.35
741.104	10746.67
741.444	10726.78
741.784	10709.83
742.124	10735.14
742.464	10793.45
742.804	10795.93
743.143	10842.71
743.483	10853.33
743.823	10847
744.162	10876.61
744.502	10915.25
744.841	10933.33
745.181	11043.16
745.52	11004.74
745.86	11040.9
746.199	11094
746.538	11100.33
746.877	11121.57
747.216	11225.98
747.556	11228.01
747.895	11289.93
748.234	11344.62
748.573	11325.86
748.911	11403.37
749.25	11510.94
749.589	11528.79
749.928	11733.08
750.267	11701.44
750.605	11743.25
750.944	11822.57
751.283	11850.82
751.621	12077.25
751.96	12070.93
752.298	12211.94
752.636	12332.39
752.975	12325.38
753.313	12333.97
753.651	12567.86
753.989	12593.62
754.327	12783.45
754.666	12847.85
755.004	12985.93
755.342	13068.64
755.679	13168.07
756.017	13304.11
756.355	13543.88
756.693	13523.54
757.031	13678.57
757.368	13770.54
757.706	13992.91
758.044	14055.73
758.381	14320.36
758.719	14358.1
759.056	14560.8
759.394	14646
759.731	14681.03
760.068	14938.87
760.405	15059.32
760.743	15239.2
761.08	15358.07
761.417	15452.76
761.754	15633.54
762.091	15732.07
762.428	15933.87
762.765	15974.1
763.102	16221.55
763.438	16344.71
763.775	16452.51
764.112	16640.07
764.449	16781.08
764.785	16883.23
765.122	16936.56
765.458	17040.96
765.795	17268.75
766.131	17280.73
766.467	17464.91
766.804	17557.56
767.14	17578.8
767.476	17811.57
767.812	17837.33
768.148	17912.13
768.485	18023.54
768.821	18168.17
769.157	18285.68
769.492	18334.94
769.828	18453.81
770.164	18456.07
770.5	18470.31
770.836	18641.15
771.171	18738.09
771.507	18649.74
771.842	18711.88
772.178	18841.37
772.513	18849.96
772.849	18805.21
773.184	18991.87
773.519	19013.34
773.855	19002.27
774.19	19073.23
774.525	19086.11
774.86	19159.1
775.195	19221.02
775.53	19213.11
775.865	19250.85
776.2	19090.85
776.535	19100.12
776.87	19237.29
777.205	19166.33
777.539	19199.33
777.874	19328.81
778.209	19216.27
778.543	19213.79
778.878	19160.46
779.212	19203.62
779.547	19291.75
779.881	19376.04
780.215	19163.39
780.55	19283.39
780.884	19173.79
781.218	19149.16
781.552	19294.24
781.886	19207.91
782.22	19128.37
782.554	19197.52
782.888	19054.24
783.222	19045.21
783.556	18938.54
783.889	19125.2
784.223	19002.72
784.557	18963.85
784.89	18919.79
785.224	18960.91
785.557	18881.37
785.891	18916.4
786.224	18800.01
786.558	18991.87
786.891	18706.46
787.224	18759.11
787.557	18663.29
787.891	18683.41
788.224	18673.92
788.557	18675.27
788.89	18668.72
789.223	18560.92
789.556	18494.26
789.888	18460.36
790.221	18471.21
790.554	18381.27
790.887	18384.88
791.219	18296.3
791.552	18254.27
791.884	18243.42
792.217	18150.09
792.549	18145.12
792.882	17863.54
793.214	17946.25
793.546	17913.03
793.879	17906.48
794.211	17789.42
794.543	17926.82
794.875	17821.73
795.207	17869.64
795.539	17730.21
795.871	17812.02
796.203	17648.86
796.535	17433.04
796.867	17503.33
797.198	17439.82
797.53	17474.85
797.862	17337.23
798.193	17467.39
798.525	17281.18
798.856	17255.42
799.188	17222.43
799.519	17288.19
799.85	17135.43
800.182	17068.53
800.513	17149.66
800.844	16942.44
801.175	17025.82
801.506	17045.71
801.837	16865.15
802.168	16915.32
802.499	16783.34
802.83	16696.34
803.161	16828.54
803.491	16710.58
803.822	16689.79
804.153	16676
804.483	16482.79
804.814	16561.43
805.145	16526.63
805.475	16454.99
805.805	16359.85
806.136	16436.01
806.466	16347.88
806.796	16277.59
807.126	16278.05
807.457	16222.45
807.787	16191.72
808.117	16085.74
808.447	16114.89
808.777	16074.44
809.107	16103.81
809.436	15965.74
809.766	15943.59
810.096	15881.22
810.426	15896.81
810.755	15883.25
811.085	15804.39
811.414	15757.38
811.744	15682.13
812.073	15615.69
812.403	15657.05
812.732	15542.25
813.061	15649.14
813.39	15502.93
813.719	15479.65
814.049	15490.95
814.378	15531.85
814.707	15385.87
815.036	15402.82
815.365	15355.13
815.693	15264.51
816.022	15309.03
816.351	15167.79
816.68	15105.42
817.008	15247.57
817.337	15053.22
817.665	15169.38
817.994	15149.49
818.322	15017.29
818.651	14956.95
818.979	14883.96
819.307	15008.02
819.636	14984.3
819.964	14863.39
820.292	14917.86
820.62	14900.68
820.948	14768.93
821.276	14827.46
821.604	14757.41
821.932	14768.03
822.259	14899.78
822.587	14774.13
822.915	14725.09
823.243	14834.02
823.57	14726
823.898	14784.07
824.225	14763.74
824.553	14767.13
824.88	14796.96
825.207	14753.79
825.535	14819.1
825.862	14803.06
826.189	14719.67
826.516	14771.65
826.843	14851.64
827.17	14845.77
827.497	14772.1
827.824	14805.32
828.151	14829.72
828.478	14864.98
828.805	14851.42
829.131	14900.23
829.458	14728.48
829.785	14798.09
830.111	14745.66
830.438	14835.82
830.764	14784.75
831.09	14848.48
831.417	14687.13
831.743	14891.64
832.069	14838.99
832.395	14709.5
832.722	14686
833.048	14758.99
833.374	14682.16
833.7	14657.52
834.026	14745.88
834.351	14689.16
834.677	14647.13
835.003	14664.98
835.329	14665.89
835.654	14593.12
835.98	14505.21
836.306	14609.16
836.631	14507.92
836.956	14549.96
837.282	14539.56
837.607	14471.09
837.932	14465.21
838.258	14555.61
838.583	14462.73
838.908	14353.58
839.233	14472.22
839.558	14293.01
839.883	14246.69
840.208	14213.69
840.533	14298.44
840.858	14289.62
841.182	14283.75
841.507	14253.69
841.832	14194.26
842.156	14148.61
842.481	14173.7
842.805	14157.88
843.13	14062.51
843.454	14040.37
843.778	13949.52
844.103	13904.55
844.427	13848.51
844.751	13978.9
845.075	13872.23
845.399	13841.95
845.723	13758.34
846.047	13754.95
846.371	13715.4
846.695	13745.68
847.019	13627.72
847.343	13517.22
847.666	13400.16
847.99	13403.32
848.313	13306.6
848.637	13208.52
848.96	13242.87
849.284	13201.29
849.607	13098.7
849.931	13110.67
850.254	12996.32
850.577	12986.16
850.9	12817.12
851.223	12885.59
851.546	12826.84
851.869	12712.26
852.192	12783.9
852.515	12631.59
852.838	12578.48
853.161	12615.77
853.483	12547.75
853.806	12466.4
854.129	12533.06
854.451	12455.32
854.774	12438.15
855.096	12330.13
855.419	12313.63
855.741	12281.54
856.063	12297.36
856.385	12235.44
856.708	12159.96
857.03	12062.56
857.352	12160.19
857.674	12056.46
857.996	11942.79
858.318	11929.01
858.64	12036.8
858.961	11903.25
859.283	11841.78
859.605	11809.69
859.926	11847.65
860.248	11813.31
860.57	11784.61
860.891	11803.81
861.212	11721.1
861.534	11724.95
861.855	11625.06
862.176	11629.81
862.498	11584.84
862.819	11582.58
863.14	11534.22
863.461	11496.48
863.782	11468.91
864.103	11446.08
864.424	11474.56
864.745	11454.9
865.065	11427.33
865.386	11362.47
865.707	11353.88
866.027	11405.41
866.348	11385.29
866.668	11308.23
866.989	11222.13
867.309	11212.19
867.63	11319.98
867.95	11177.84
868.27	11146.2
868.59	11160.67
868.91	11171.74
869.23	11206.32
869.55	11096.94
869.87	11152.53
870.19	11061.46
870.51	11094.91
870.83	11109.82
871.15	11073.89
871.469	10990.95
871.789	11049.48
872.109	11025.3
872.428	10876.38
872.748	10972.88
873.067	10960.22
873.386	10913.22
873.706	10946.89
874.025	10862.14
874.344	10806.78
874.663	10890.84
874.982	10830.28
875.301	10854.23
875.62	10778.53
875.939	10794.35
876.258	10719.55
876.577	10761.58
876.896	10734.69
877.214	10758.19
877.533	10712.54
877.852	10669.15
878.17	10668.25
878.489	10655.37
878.807	10642.94
879.125	10597.29
879.444	10619.89
879.762	10554.81
880.08	10564.52
880.398	10535.82
880.716	10540.8
881.034	10510.29
881.352	10441.82
881.67	10507.12
881.988	10434.58
882.306	10378.31
882.624	10331.08
882.941	10329.28
883.259	10329.05
883.577	10281.82
883.894	10303.29
884.212	10297.19
884.529	10237.53
884.846	10151.88
885.164	10153.69
885.481	10144.87
885.798	10173.12
886.115	10077.31
886.432	10092.45
886.75	10062.39
887.067	10047.25
887.383	10046.57
887.7	10007.7
888.017	9967.93
888.334	10022.17
888.651	9936.52
888.967	9875.05
889.284	9845.67
889.6	9824.43
889.917	9771.78
890.233	9781.27
890.55	9711.67
890.866	9799.57
891.182	9720.48
891.498	9692.23
891.815	9584.21
892.131	9589.86
892.447	9614.49
892.763	9490.65
893.079	9451.33
893.395	9546.25
893.71	9446.81
894.026	9481.84
894.342	9355.74
894.657	9327.49
894.973	9335.4
895.289	9331.56
895.604	9340.38
895.92	9211.11
896.235	9230.1
896.55	9192.81
896.865	9166.82
897.181	9118.01
897.496	9099.03
897.811	9142.87
898.126	9047.5
898.441	9040.5
898.756	9022.64
899.071	8942.87
899.386	8897.22
899.7	8841.63
900.015	8906.94
900.33	8862.87
900.644	8753.05
900.959	8774.97
901.273	8665.14
901.588	8731.35
901.902	8634.18
902.216	8633.05
902.531	8630.34
902.845	8572.71
903.159	8526.39
903.473	8444.58
903.787	8461.08
904.101	8359.84
904.415	8352.83
904.729	8397.8
905.042	8260.4
905.356	8270.57
905.67	8325.94
905.984	8293.62
906.297	8233.74
906.611	8211.37
906.924	8105.61
907.237	8061.09
907.551	8051.14
907.864	8067.41
908.177	7999.39
908.491	7986.06
908.804	7969.11
909.117	7880.3
909.43	7862
909.743	7836.01
910.056	7796.24
910.368	7758.27
910.681	7700.87
910.994	7729.12
911.307	7710.36
911.619	7636.24
911.932	7633.53
912.244	7560.31
912.557	7685.5
912.869	7504.49
913.181	7554.66
913.494	7502.23
913.806	7426.98
914.118	7381.78
914.43	7366.64
914.742	7324.16
915.054	7306.53
915.366	7283.25
915.678	7273.99
915.99	7213.43
916.302	7183.14
916.613	7114.45
916.925	7147.67
917.236	7132.98
917.548	7076.25
917.859	7101.34
918.171	6984.05
918.482	7022.92
918.794	6874.45
919.105	6931.17
919.416	6866.09
919.727	6841.91
920.038	6875.36
920.349	6835.13
920.66	6800.78
920.971	6723.04
921.282	6739.09
921.593	6704.51
921.903	6628.58
922.214	6638.53
922.525	6568.25
922.835	6572.31
923.146	6582.93
923.456	6587.68
923.767	6483.95
924.077	6508.59
924.387	6460.9
924.697	6391.75
925.008	6448.25
925.318	6428.14
925.628	6346.78
925.938	6356.73
926.248	6318.76
926.558	6308.37
926.867	6262.04
927.177	6254.36
927.487	6214.81
927.796	6139.78
928.106	6150.86
928.416	6094.13
928.725	6132.55
929.034	6099.78
929.344	6117.41
929.653	6053.23
929.962	6010.97
930.271	5961.71
930.581	5964.19
930.89	5920.8
931.199	5898.66
931.508	5878.55
931.817	5870.18
932.125	5837.19
932.434	5773.01
932.743	5826.8
933.051	5740.7
933.36	5758.78
933.669	5659.57
933.977	5650.98
934.286	5676.07
934.594	5625.67
934.902	5567.14
935.21	5548.16
935.519	5596.07
935.827	5529.63
936.135	5519.46
936.443	5492.79
936.751	5461.16
937.059	5492.79
937.367	5385
937.674	5455.28
937.982	5390.2
938.29	5394.72
938.597	5363.76
938.905	5227.72
939.213	5317.43
939.52	5263.87
939.827	5260.48
940.135	5220.71
940.442	5190.2
940.749	5185
941.056	5197.43
941.363	5122.41
941.67	5142.07
941.977	5109.3
942.284	5043.54
942.591	5052.8
942.898	5039.02
943.205	5035.4
943.511	4953.15
943.818	4928.97
944.125	4959.47
944.431	4900.04
944.738	4887.39
945.044	4851
945.35	4828.86
945.657	4781.85
945.963	4793.83
946.269	4756.32
946.575	4814.39
946.881	4722.87
947.187	4737.79
947.493	4691.68
947.799	4662.98
948.105	4622.99
948.41	4611.69
948.716	4630.67
949.022	4652.59
949.327	4568.07
949.633	4576.21
949.938	4551.58
950.244	4525.59
950.549	4492.14
950.854	4486.49
951.16	4441.52
951.465	4422.77
951.77	4420.51
952.075	4401.3
952.38	4338.93
952.685	4350.22
952.99	4345.7
953.294	4356.33
953.599	4316.1
953.904	4302.99
954.209	4250.79
954.513	4278.36
954.818	4232.94
955.122	4241.53
955.426	4178.93
955.731	4178.93
956.035	4197.46
956.339	4123.34
956.643	4117.46
956.948	4085.15
957.252	4148.87
957.556	4091.02
957.86	4039.95
958.163	4013.51
958.467	4034.53
958.771	4029.1
959.075	3962.44
959.378	3938.48
959.682	3951.82
959.985	3952.95
960.289	3907.75
960.592	3900.97
960.896	3853.97
961.199	3853.51
961.502	3851.48
961.805	3820.97
962.108	3826.62
962.411	3807.87
962.714	3798.83
963.017	3740.75
963.32	3796.34
963.623	3746.4
963.926	3740.52
964.228	3728.77
964.531	3664.37
964.833	3696.68
965.136	3624.59
965.438	3655.78
965.741	3587.53
966.043	3590.92
966.345	3569.45
966.648	3547.31
966.95	3555.9
967.252	3543.47
967.554	3509.79
967.856	3501.66
968.158	3496.91
968.46	3472.73
968.761	3493.75
969.063	3432.28
969.365	3418.05
969.666	3446.97
969.968	3412.85
970.269	3394.54
970.571	3351.38
970.872	3359.52
971.174	3373.98
971.475	3316.81
971.776	3294.89
972.077	3277.03
972.378	3313.42
972.679	3261.44
972.98	3246.75
973.281	3259.41
973.582	3263.25
973.883	3225.28
974.183	3225.51
974.484	3159.07
974.785	3174.89
975.085	3169.92
975.386	3162.46
975.686	3113.87
975.986	3109.81
976.287	3141.22
976.587	3089.47
976.887	3098.05
977.187	3060.32
977.487	3073.65
977.787	3072.07
978.087	3015.57
978.387	3052.41
978.687	3002.92
978.987	2984.38
979.286	2949.81
979.586	2942.13
979.885	2917.49
980.185	2928.12
980.484	2936.48
980.784	2920.88
981.083	2870.49
981.382	2890.83
981.682	2822.36
981.981	2834.33
982.28	2825.07
982.579	2834.56
982.878	2880.66
983.177	2754.56
983.475	2821.45
983.774	2736.03
984.073	2746.42
984.372	2743.49
984.67	2737.84
984.969	2770.38
985.267	2723.83
985.566	2706.65
985.864	2685.86
986.162	2690.16
986.461	2665.07
986.759	2672.75
987.057	2617.39
987.355	2629.14
987.653	2605.64
987.951	2603.15
988.249	2589.14
988.547	2587.79
988.844	2562.7
989.142	2574.23
989.44	2528.8
989.737	2548.01
990.035	2522.7
990.332	2531.74
990.63	2513.21
990.927	2454.68
991.224	2456.26
991.521	2458.97
991.819	2457.84
992.116	2448.13
992.413	2454
992.71	2383.27
993.006	2416.04
993.303	2435.02
993.6	2419.2
993.897	2362.93
994.193	2378.75
994.49	2345.76
994.787	2347.57
995.083	2321.8
995.379	2314.57
995.676	2286.32
995.972	2291.07
996.268	2285.65
996.565	2313.89
996.861	2273.9
997.157	2231.18
997.453	2238.19
997.749	2233.44
998.044	2206.33
998.34	2168.36
998.636	2164.75
998.932	2163.84
999.227	2184.63
999.523	2163.84
999.818	2129.04
1000.114	2112.54
1000.409	2146.44
1000.704	2101.7
1001	2118.87
1001.295	2100.57
1001.59	2090.62
1001.885	2077.06
1002.18	2059.66
1002.475	2016.95
1002.77	2044.52
1003.065	2004.75
1003.359	2027.35
1003.654	1998.2
1003.949	1972.43
1004.243	1968.82
1004.538	1950.51
1004.832	1941.7
1005.127	1936.5
1005.421	1961.36
1005.715	1894.47
1006.009	1931.53
1006.304	1887.69
1006.598	1882.49
1006.892	1896.5
1007.186	1869.39
1007.48	1857.41
1007.773	1873.91
1008.067	1825.09
1008.361	1806.11
1008.655	1811.99
1008.948	1823.06
1009.242	1790.52
1009.535	1808.37
1009.829	1789.16
1010.122	1762.27
1010.415	1753.68
1010.708	1716.62
1011.001	1739.22
1011.295	1749.84
1011.588	1713.46
1011.881	1683.4
1012.173	1689.96
1012.466	1689.73
1012.759	1668.04
1013.052	1651.54
1013.344	1645.21
1013.637	1648.83
1013.93	1634.82
1014.222	1631.43
1014.514	1616.06
1014.807	1596.4
1015.099	1618.77
1015.391	1622.16
1015.683	1566.57
1015.976	1574.03
1016.268	1555.5
1016.56	1526.8
1016.851	1515.27
1017.143	1513.69
1017.435	1514.37
1017.727	1513.24
1018.018	1498.55
1018.31	1496.51
1018.602	1498.77
1018.893	1486.12
1019.185	1481.83
1019.476	1441.15
1019.767	1455.84
1020.058	1433.24
1020.35	1414.03
1020.641	1429.17
1020.932	1408.38
1021.223	1387.36
1021.514	1392.79
1021.804	1367.25
1022.095	1335.84
1022.386	1357.53
1022.677	1372.22
1022.967	1358.89
1023.258	1336.29
1023.548	1322.06
1023.839	1312.56
1024.129	1333.81
1024.419	1297.2
1024.709	1298.55
1025	1288.38
1025.29	1253.36
1025.58	1275.5
1025.87	1265.56
1026.16	1235.05
1026.449	1241.15
1026.739	1239.57
1027.029	1215.62
1027.319	1209.29
1027.608	1227.37
1027.898	1212.68
1028.187	1211.55
1028.477	1226.92
1028.766	1174.94
1029.055	1172.23
1029.344	1182.62
1029.634	1160.93
1029.923	1144.66
1030.212	1152.12
1030.501	1145.34
1030.79	1121.61
1031.078	1135.17
1031.367	1128.16
1031.656	1113.47
1031.945	1128.84
1032.233	1082.97
1032.522	1076.64
1032.81	1054.27
1033.099	1062.63
1033.387	1055.17
1033.675	1048.62
1033.963	1041.61
1034.251	1045
1034.54	1035.28
1034.828	1048.39
1035.116	1018.79
1035.403	1017.66
1035.691	1036.64
1035.979	1006.36
1036.267	984.21
1036.554	1006.13
1036.842	999.35
1037.129	969.3
1037.417	984.89
1037.704	980.14
1037.992	958
1038.279	990.09
1038.566	954.38
1038.853	954.38
1039.14	954.38
