Data from hue_280_FLMS001491_00030.txt Node
Date: Tue Feb 07 15:55:04 GMT 2017
User: dcchb
Spectrometer: FLMS00149
Trigger mode: 0
Integration Time (sec): 2.000000E-2
Scans to average: 10
Electric dark correction enabled: true
Nonlinearity correction enabled: false
Boxcar width: 0
XAxis mode: Wavelengths
Number of Pixels in Spectrum: 2048
>>>>>Begin Spectral Data<<<<<
341.393	-19.22
341.776	-19.22
342.16	-19.22
342.543	-52.44
342.927	-51.76
343.31	-71.65
343.693	-67.81
344.077	-42.27
344.46	-51.76
344.843	-66.23
345.226	-23.97
345.61	-32.78
345.993	-11.77
346.376	13.54
346.759	13.54
347.142	21.68
347.525	25.75
347.908	29.82
348.291	66.65
348.674	81.34
349.057	115.92
349.44	118.85
349.823	145.52
350.206	143.03
350.588	172.86
350.971	201.34
351.354	198.4
351.737	227.78
352.119	232.75
352.502	253.99
352.884	274.78
353.267	275.46
353.65	290.37
354.032	292.41
354.414	299.86
354.797	319.07
355.179	298.96
355.562	343.03
355.944	300.54
356.326	322.24
356.709	324.72
357.091	323.14
357.473	324.27
357.855	343.71
358.238	336.7
358.62	336.25
359.002	340.54
359.384	329.69
359.766	325.63
360.148	345.97
360.53	327.89
360.912	337.6
361.294	329.02
361.676	308
362.057	312.07
362.439	324.5
362.821	342.12
363.203	318.85
363.584	336.02
363.966	330.6
364.348	318.62
364.729	299.41
365.111	322.92
365.493	307.77
365.874	311.62
366.256	301.45
366.637	317.27
367.019	316.14
367.4	324.5
367.781	312.07
368.163	307.1
368.544	316.81
368.925	302.8
369.306	314.78
369.688	301.22
370.069	310.03
370.45	313.88
370.831	311.39
371.212	306.19
371.593	306.87
371.974	315.23
372.355	313.88
372.736	311.16
373.117	297.38
373.498	298.74
373.879	295.12
374.26	329.92
374.641	313.88
375.021	312.75
375.402	350.26
375.783	325.4
376.163	318.85
376.544	330.37
376.925	333.54
377.305	310.26
377.686	313.65
378.066	295.8
378.447	338.06
378.827	314.55
379.208	324.72
379.588	324.27
379.968	347.32
380.349	327.43
380.729	328.56
381.109	324.72
381.489	316.59
381.87	343.25
382.25	338.28
382.63	338.96
383.01	355.91
383.39	335.8
383.77	333.54
384.15	334.67
384.53	345.06
384.91	348.45
385.29	348
385.67	339.86
386.049	352.52
386.429	335.12
386.809	357.72
387.189	343.48
387.568	361.11
387.948	352.29
388.328	344.16
388.707	366.98
389.087	354.1
389.466	387.32
389.846	373.31
390.225	367.66
390.605	357.04
390.984	356.81
391.363	364.72
391.743	386.64
392.122	377.83
392.501	371.95
392.881	385.29
393.26	380.09
393.639	393.87
394.018	377.6
394.397	381.9
394.776	385.29
395.155	398.39
395.534	384.16
395.913	366.3
396.292	417.15
396.671	396.59
397.05	402.24
397.429	392.74
397.808	391.61
398.186	409.01
398.565	389.58
398.944	404.95
399.323	397.04
399.701	396.59
400.08	383.93
400.458	403.82
400.837	420.31
401.215	401.78
401.594	433.87
401.972	415.57
402.351	409.47
402.729	427.09
403.107	436.58
403.486	427.55
403.864	424.38
404.242	441.56
404.62	420.54
404.999	453.53
405.377	447.21
405.755	476.81
406.133	449.69
406.511	431.16
406.889	429.35
407.267	454.89
407.645	465.74
408.023	471.61
408.401	485.62
408.779	489.46
409.156	491.5
409.534	516.36
409.912	499.63
410.29	507.32
410.667	521.1
411.045	521.55
411.422	511.38
411.8	529.24
412.178	549.12
412.555	531.05
412.933	566.98
413.31	547.99
413.687	579.18
414.065	582.34
414.442	566.98
414.819	586.86
415.197	624.6
415.574	604.04
415.951	630.7
416.328	615.34
416.705	624.6
417.082	658.27
417.46	628.22
417.837	636.81
418.214	643.36
418.591	655.34
418.967	630.25
419.344	642.45
419.721	686.52
420.098	671.61
420.475	693.75
420.852	695.33
421.228	703.02
421.605	721.55
421.982	719.29
422.358	729.46
422.735	731.72
423.111	741.21
423.488	740.08
423.864	769.68
424.241	782.34
424.617	798.83
424.994	829.12
425.37	789.57
425.746	827.31
426.123	828.44
426.499	827.53
426.875	845.61
427.251	866.18
427.627	863.24
428.003	882.67
428.379	886.52
428.756	889.68
429.132	902.34
429.507	919.06
429.883	928.55
430.259	948.21
430.635	930.81
431.011	950.7
431.387	988.66
431.763	968.77
432.138	1007.42
432.514	1012.39
432.89	1020.52
433.265	1027.98
433.641	1060.3
434.016	1063.46
434.392	1057.36
434.767	1099.62
435.143	1067.75
435.518	1109.34
435.894	1138.94
436.269	1151.59
436.644	1122.22
437.02	1168.54
437.395	1172.16
437.77	1207.64
438.145	1197.24
438.52	1203.34
438.895	1231.14
439.271	1255.55
439.646	1261.2
440.021	1265.94
440.395	1312.27
440.77	1278.37
441.145	1305.94
441.52	1327.18
441.895	1339.61
442.27	1350.01
442.645	1342.78
443.019	1368.99
443.394	1371.02
443.769	1369.89
444.143	1371.25
444.518	1402.21
444.892	1396.33
445.267	1395.88
445.641	1414.41
446.016	1415.09
446.39	1422.55
446.764	1436.78
447.139	1426.84
447.513	1436.78
447.887	1446.28
448.262	1456.67
448.636	1445.15
449.01	1467.97
449.384	1487.18
449.758	1513.17
450.132	1494.41
450.506	1511.13
450.88	1510.23
451.254	1523.56
451.628	1563.56
452.002	1561.53
452.376	1561.53
452.75	1561.07
453.123	1598.81
453.497	1606.95
453.871	1615.76
454.244	1626.38
454.618	1642.43
454.992	1658.02
455.365	1691.69
455.739	1702.77
456.112	1723.33
456.486	1702.54
456.859	1765.14
457.232	1765.82
457.606	1769.2
457.979	1743.89
458.352	1816.21
458.725	1839.49
459.099	1820.73
459.472	1858.24
459.845	1877.9
460.218	1878.58
460.591	1887.85
460.964	1921.97
461.337	1910.22
461.71	1939.14
462.083	1988.18
462.456	1970.56
462.829	1976.21
463.201	1996.09
463.574	2034.51
463.947	2075.64
464.32	2098.24
464.692	2084.9
465.065	2097.11
465.438	2124.68
465.81	2133.04
466.183	2166.26
466.555	2192.24
466.928	2186.82
467.3	2190.21
467.672	2216.88
468.045	2267.04
468.417	2253.49
468.789	2253.71
469.161	2306.59
469.534	2371.45
469.906	2356.31
470.278	2376.65
470.65	2405.57
471.022	2392.24
471.394	2485.57
471.766	2517.21
472.138	2515.17
472.51	2529.18
472.882	2552.91
473.253	2596.75
473.625	2641.95
473.997	2683.53
474.369	2660.25
474.74	2713.81
475.112	2704.1
475.484	2789.52
475.855	2839.01
476.227	2828.16
476.598	2911.1
476.97	2869.74
477.341	2944.77
477.713	2948.16
478.084	2968.04
478.455	3082.39
478.827	3085.33
479.198	3104.76
479.569	3128.94
479.94	3231.54
480.311	3217.08
480.682	3292.33
481.053	3349.5
481.424	3419.78
481.795	3397.18
482.166	3455.71
482.537	3495.26
482.908	3526.22
483.279	3529.61
483.65	3607.12
484.021	3655.48
484.391	3695.93
484.762	3705.2
485.133	3738.19
485.503	3804.63
485.874	3810.51
486.244	3813.9
486.615	3893.89
486.985	3921.92
487.356	4075.13
487.726	4010.73
488.097	4098.64
488.467	4097.28
488.837	4125.3
489.207	4202.81
489.578	4251.85
489.948	4272.42
490.318	4289.14
490.688	4292.75
491.058	4381.57
491.428	4434.45
491.798	4443.48
492.168	4525.52
492.538	4588.79
492.908	4596.48
493.278	4636.7
493.648	4636.47
494.017	4694.55
494.387	4779.75
494.757	4763.48
495.126	4847.09
495.496	4736.58
495.866	4831.27
496.235	4846.41
496.605	4840.54
496.974	4886.41
497.344	4920.31
497.713	4927.31
498.082	4978.16
498.452	5033.98
498.821	4993.07
499.19	5058.61
499.559	5039.18
499.928	5054.99
500.298	5097.48
500.667	5129.57
501.036	5102
501.405	5170.92
501.774	5223.13
502.143	5194.88
502.512	5185.16
502.88	5286.63
503.249	5244.37
503.618	5330.69
503.987	5342.67
504.356	5379.96
504.724	5381.99
505.093	5381.54
505.462	5360.07
505.83	5392.84
506.199	5485.94
506.567	5525.04
506.936	5431.48
507.304	5543.34
507.672	5551.7
508.041	5570.01
508.409	5560.07
508.777	5592.16
509.145	5643.68
509.514	5591.93
509.882	5722.32
510.25	5670.57
510.618	5654.3
510.986	5683.23
511.354	5736.11
511.722	5755.77
512.09	5720.97
512.458	5756.22
512.826	5820.17
513.193	5784.69
513.561	5851.13
513.929	5887.74
514.297	5903.56
514.664	5900.4
515.032	5911.92
515.4	5992.6
515.767	5946.5
516.135	5977.46
516.502	5913.05
516.869	6044.8
517.237	6007.06
517.604	5977.46
517.972	6025.59
518.339	6067.4
518.706	6049.54
519.073	6114.4
519.44	6094.74
519.808	6156.89
520.175	6160.5
520.542	6170.45
520.909	6226.94
521.276	6254.74
521.643	6250.22
522.009	6197.56
522.376	6297.22
522.743	6257.9
523.11	6314.62
523.477	6387.16
523.843	6429.65
524.21	6413.83
524.577	6425.13
524.943	6452.47
525.31	6499.48
525.676	6510.32
526.043	6543.32
526.409	6554.16
526.776	6597.55
527.142	6656.31
527.508	6637.78
527.874	6661.73
528.241	6691.79
528.607	6739.92
528.973	6752.35
529.339	6788.73
529.705	6794.61
530.071	6845
530.437	6872.12
530.803	6930.43
531.169	6957.54
531.535	6899.24
531.901	6913.25
532.267	6902.18
532.632	6927.71
532.998	6904.44
533.364	6973.59
533.73	6976.75
534.095	7089.52
534.461	7027.15
534.826	6987.37
535.192	7053.36
535.557	7190.31
535.923	7073.7
536.288	7140.36
536.653	7170.87
537.019	7181.04
537.384	7176.07
537.749	7218.78
538.114	7177.2
538.479	7182.85
538.845	7267.82
539.21	7218.78
539.575	7302.84
539.94	7268.04
540.305	7303.97
540.67	7260.81
541.034	7287.25
541.399	7287.48
541.764	7351.43
542.129	7399.79
542.494	7388.94
542.858	7427.36
543.223	7374.71
543.587	7432.56
543.952	7399.57
544.316	7486.57
544.681	7477.76
545.045	7511.43
545.41	7533.8
545.774	7504.87
546.138	7522.73
546.503	7531.99
546.867	7530.41
547.231	7620.12
547.595	7585.1
547.959	7549.39
548.324	7623.06
548.688	7640.91
549.052	7687.24
549.416	7597.75
549.779	7605.44
550.143	7710.97
550.507	7731.99
550.871	7702.83
551.235	7697.64
551.599	7761.82
551.962	7797.97
552.326	7688.15
552.689	7788.26
553.053	7742.38
553.417	7781.7
553.78	7832.1
554.143	7792.78
554.507	7828.03
554.87	7857.63
555.234	7855.82
555.597	7900.57
555.96	7930.62
556.323	7905.54
556.686	7971.98
557.05	8010.62
557.413	8033.22
557.776	7966.1
558.139	8010.85
558.502	8035.03
558.865	8063.28
559.228	8074.12
559.59	8082.03
559.953	8101.69
560.316	8183.27
560.679	8139.66
561.041	8242.93
561.404	8256.94
561.767	8286.77
562.129	8290.62
562.492	8338.98
562.854	8326.32
563.217	8341.69
563.579	8340.33
563.941	8359.77
564.304	8398.41
564.666	8454.9
565.028	8499.65
565.39	8457.84
565.753	8473.89
566.115	8565.41
566.477	8536.26
566.839	8576.48
567.201	8652.87
567.563	8685.86
567.925	8703.03
568.287	8733.99
568.648	8764.73
569.01	8755.69
569.372	8859.41
569.734	8814.9
570.095	8913.88
570.457	8888.57
570.819	8920.2
571.18	8891.05
571.542	8934.44
571.903	8962.01
572.265	9042.69
572.626	9049.01
572.987	9097.83
573.349	9088.79
573.71	9110.25
574.071	9180.99
574.432	9205.39
574.794	9263.92
575.155	9249.69
575.516	9334.43
575.877	9333.07
576.238	9349.12
576.599	9443.58
576.96	9427.31
577.32	9522.67
577.681	9545.95
578.042	9564.93
578.403	9556.12
578.763	9577.14
579.124	9679.51
579.485	9720.63
579.845	9727.41
580.206	9772.16
580.566	9810.12
580.927	9845.38
581.287	9924.7
581.648	9951.14
582.008	10054.41
582.368	10073.85
582.728	10129.89
583.089	10094.64
583.449	10198.36
583.809	10198.14
584.169	10279.49
584.529	10277
584.889	10396.32
585.249	10409.2
585.609	10414.85
585.969	10586.6
586.329	10572.36
586.688	10647.84
587.048	10728.52
587.408	10761.74
587.768	10795.86
588.127	10803.77
588.487	10812.81
588.846	11025.68
589.206	11048.06
589.565	11014.39
589.925	11250.09
590.284	11213.7
590.643	11285.79
591.003	11359.24
591.362	11453.47
591.721	11493.02
592.08	11550.42
592.44	11680.58
592.799	11709.28
593.158	11733.91
593.517	11802.16
593.876	11937.75
594.235	11830.18
594.593	11935.72
594.952	11946.34
595.311	12033.57
595.67	12154.47
596.029	12243.96
596.387	12296.16
596.746	12355.59
597.104	12406.67
597.463	12442.6
597.822	12516.94
598.18	12516.49
598.538	12597.39
598.897	12759.2
599.255	12629.03
599.613	12929.14
599.972	12794.68
600.33	12897.95
600.688	12805.75
601.046	13043.71
601.404	13036.48
601.762	13024.95
602.12	13143.14
602.478	13149.7
602.836	13235.34
603.194	13143.6
603.552	13264.72
603.91	13250.48
604.268	13410.25
604.625	13297.26
604.983	13452.74
605.341	13352.4
605.698	13589.69
606.056	13577.03
606.413	13541.55
606.771	13590.59
607.128	13655.22
607.485	13705.84
607.843	13630.14
608.2	13733.86
608.557	13845.5
608.914	13756.46
609.272	13872.84
609.629	13917.81
609.986	14000.52
610.343	13923.46
610.7	14056.79
611.057	14045.27
611.414	13994.87
611.771	14112.38
612.127	14229.22
612.484	14215.66
612.841	14231.7
613.198	14247.29
613.554	14205.26
613.911	14419.95
614.267	14399.83
614.624	14308.31
614.98	14372.49
615.337	14479.83
615.693	14385.37
616.05	14450.23
616.406	14617
616.762	14495.2
617.118	14568.87
617.475	14517.12
617.831	14602.99
618.187	14655.42
618.543	14572.03
618.899	14650.9
619.255	14714.63
619.611	14766.15
619.967	14781.97
620.323	14722.54
620.678	14716.89
621.034	14707.4
621.39	14778.35
621.746	14726.6
622.101	14918.69
622.457	14787.39
622.812	14783.33
623.168	14833.04
623.523	14820.16
623.879	14895.87
624.234	14785.81
624.589	14753.5
624.945	14894.28
625.3	14849.31
625.655	14947.16
626.01	14908.29
626.365	14891.57
626.72	14855.19
627.075	14904.45
627.43	14836.88
627.785	14823.1
628.14	14944.9
628.495	15040.95
628.85	14868.75
629.205	14837.34
629.559	14967.05
629.914	14772.7
630.269	14872.82
630.623	14823.78
630.978	14854.06
631.332	14892.48
631.687	14980.83
632.041	14750.56
632.396	14874.85
632.75	14806.6
633.104	14885.24
633.459	14746.49
633.813	14757.11
634.167	14746.04
634.521	14766.38
634.875	14730.22
635.229	14709.66
635.583	14684.8
635.937	14642.99
636.291	14634.4
636.645	14731.35
636.999	14611.58
637.352	14679.6
637.706	14530.9
638.06	14732.48
638.413	14652.71
638.767	14576.78
639.121	14654.74
639.474	14505.14
639.828	14553.73
640.181	14506.72
640.534	14581.07
640.888	14569.55
641.241	14400.06
641.594	14504.69
641.947	14577.23
642.301	14501.75
642.654	14506.5
643.007	14494.75
643.36	14494.29
643.713	14383.79
644.066	14447.29
644.419	14402.32
644.771	14367.29
645.124	14229.22
645.477	14276.45
645.83	14160.29
646.182	14111.93
646.535	14031.93
646.888	14078.26
647.24	13940.18
647.593	14057.92
647.945	14013.85
648.298	14014.08
648.65	13961.65
649.002	13897.02
649.355	14037.58
649.707	13922.33
650.059	14032.61
650.411	14240.06
650.763	14261.98
651.115	14438.7
651.467	14286.84
651.819	14332.26
652.171	14349.67
652.523	14343.79
652.875	14264.7
653.227	14266.5
653.578	14315.54
653.93	14295.88
654.282	14287.52
654.633	14160.74
654.985	14253.17
655.337	14251.14
655.688	14349.21
656.039	14328.87
656.391	14250.91
656.742	14269.22
657.094	14278.03
657.445	14355.31
657.796	14375.2
658.147	14257.24
658.498	14302.66
658.849	14328.87
659.2	14351.02
659.551	14381.75
659.902	14372.94
660.253	14362.55
660.604	14445.03
660.955	14283
661.306	14383.11
661.656	14306.05
662.007	14428.76
662.358	14370.91
662.708	14454.52
663.059	14518.25
663.409	14341.3
663.76	14466.72
664.11	14416.1
664.461	14349.44
664.811	14476.22
665.161	14478.25
665.511	14425.14
665.862	14362.09
666.212	14423.34
666.562	14485.25
666.912	14386.73
667.262	14416.33
667.612	14377.23
667.962	14436.44
668.312	14386.05
668.662	14409.55
669.011	14368.65
669.361	14395.77
669.711	14363.22
670.06	14289.33
670.41	14371.36
670.76	14306.05
671.109	14394.41
671.459	14261.76
671.808	14310.57
672.157	14368.87
672.507	14247.29
672.856	14287.75
673.205	14348.76
673.554	14275.54
673.904	14220.85
674.253	14291.59
674.602	14255.2
674.951	14050.46
675.3	13919.17
675.649	14291.14
675.998	14169.1
676.346	14174.3
676.695	14265.83
677.044	14182.44
677.393	14194.64
677.741	14147.64
678.09	14124.36
678.438	14146.28
678.787	14097.47
679.135	14177.01
679.484	13994.19
679.832	13980.86
680.181	14019.5
680.529	14046.4
680.877	13991.71
681.225	13924.37
681.573	14019.05
681.922	13945.16
682.27	13922.78
682.618	13924.14
682.966	13872.62
683.314	13898.6
683.661	13867.87
684.009	13719.63
684.357	13756.91
684.705	13686.63
685.053	13760.53
685.4	13640.98
685.748	13692.51
686.095	13601.44
686.443	13472.63
686.79	13548.78
687.138	13496.81
687.485	13488.44
687.832	13450.71
688.18	13498.61
688.527	13351.95
688.874	13412.74
689.221	13363.48
689.568	13344.72
689.915	13183.59
690.262	13228.56
690.609	13101.79
690.956	13123.48
691.303	13159.64
691.65	13049.81
691.997	13099.53
692.344	12964.16
692.69	12892.08
693.037	12963.03
693.383	12781.57
693.73	12757.62
694.077	12762.81
694.423	12697.05
694.769	12716.71
695.116	12677.17
695.462	12648.69
695.808	12610.73
696.155	12557.4
696.501	12481.47
696.847	12573.67
697.193	12508.13
697.539	12497.74
697.885	12427.46
698.231	12303.17
698.577	12333.22
698.923	12290.96
699.269	12194.47
699.614	12102.72
699.96	12061.36
700.306	12038.99
700.651	11981.14
700.997	11987.47
701.342	11956.96
701.688	11966.22
702.033	11864.08
702.379	11766.68
702.724	11763.07
703.069	11789.51
703.415	11626.12
703.76	11646.69
704.105	11566.24
704.45	11570.3
704.795	11478.55
705.14	11444.2
705.485	11411.89
705.83	11403.3
706.175	11371.89
706.52	11371.44
706.865	11359.46
707.209	11217.32
707.554	11239.01
707.899	11327.15
708.243	11253.93
708.588	11214.38
708.932	11081.5
709.277	11109.3
709.621	11042.41
709.966	11025.23
710.31	10993.37
710.654	10948.4
710.998	10923.09
711.342	10927.83
711.687	10906.82
712.031	10944.1
712.375	10906.37
712.719	10893.71
713.063	10745.24
713.407	10773.71
713.75	10805.58
714.094	10782.75
714.438	10635.19
714.782	10713.83
715.125	10669.54
715.469	10662.08
715.812	10657.78
716.156	10569.88
716.499	10549.54
716.843	10644.68
717.186	10483.1
717.53	10613.27
717.873	10510.67
718.216	10523.55
718.559	10554.74
718.902	10469.32
719.246	10486.49
719.589	10412.59
719.932	10403.1
720.275	10338.25
720.617	10444.46
720.96	10338.02
721.303	10417.79
721.646	10394.29
721.989	10360.17
722.331	10349.54
722.674	10381.41
723.016	10305.48
723.359	10337.34
723.701	10375.08
724.044	10193.16
724.386	10243.33
724.729	10262.31
725.071	10218.93
725.413	10223.67
725.755	10262.09
726.097	10191.13
726.439	10127.4
726.782	10132.15
727.124	10184.35
727.465	10117.46
727.807	10127.63
728.149	10177.12
728.491	10121.75
728.833	10150.23
729.175	10069.78
729.516	10113.62
729.858	10073.85
730.199	10083.56
730.541	10066.16
730.882	10125.82
731.224	10101.87
731.565	10079.95
731.906	10106.84
732.248	10160.4
732.589	9983.45
732.93	10081.3
733.271	10087.63
733.612	10014.41
733.953	10085.6
734.294	10093.96
734.635	10054.86
734.976	10073.39
735.317	9969.89
735.658	10093.73
735.999	10092.6
736.339	10012.83
736.68	10114.3
737.021	10096.44
737.361	10018.25
737.702	10108.42
738.042	10114.97
738.383	10001.53
738.723	10092.15
739.063	10070
739.404	10124.47
739.744	10139.61
740.084	10103.45
740.424	10153.62
740.764	10092.83
741.104	10145.48
741.444	10155.43
741.784	10103.22
742.124	10126.05
742.464	10191.81
742.804	10118.82
743.143	10241.52
743.483	10285.59
743.823	10161.98
744.162	10245.82
744.502	10277
744.841	10321.97
745.181	10343.22
745.52	10419.6
745.86	10450.33
746.199	10418.69
746.538	10430.22
746.877	10568.75
747.216	10602.19
747.556	10622.08
747.895	10780.49
748.234	10697.78
748.573	10780.27
748.911	10840.83
749.25	10919.02
749.589	10916.76
749.928	11054.84
750.267	11124.89
750.605	11232.01
750.944	11251.89
751.283	11265.9
751.621	11390.65
751.96	11423.87
752.298	11538.21
752.636	11665.89
752.975	11746.34
753.313	11856.85
753.651	12033.12
753.989	12038.77
754.327	12068.37
754.666	12227.46
755.004	12327.12
755.342	12489.83
755.679	12534.57
756.017	12648.24
756.355	12805.75
756.693	12850.04
757.031	13084.84
757.368	13116.7
757.706	13305.62
758.044	13367.09
758.381	13535
758.719	13609.57
759.056	13859.51
759.394	13941.99
759.731	13987.19
760.068	14178.6
760.405	14281.87
760.743	14388.31
761.08	14578.81
761.417	14710.11
761.754	14768.86
762.091	15040.04
762.428	15146.25
762.765	15140.15
763.102	15413.59
763.438	15534.72
763.775	15645.68
764.112	15722.96
764.449	15933.13
764.785	15947.59
765.122	16088.15
765.458	16233.91
765.795	16282.72
766.131	16410.63
766.467	16473.45
766.804	16603.17
767.14	16717.51
767.476	16811.75
767.812	16969.03
768.148	17122.93
768.485	17068.69
768.821	17100.33
769.157	17345.97
769.492	17385.07
769.828	17481.56
770.164	17471.39
770.5	17621.9
770.836	17618.73
771.171	17620.54
771.507	17745.28
771.842	17676.58
772.178	17799.29
772.513	17906.86
772.849	18008.33
773.184	18052.62
773.519	18056.69
773.855	17972.85
774.19	18068.21
774.525	18114.76
774.86	18117.7
775.195	18193.63
775.53	18287.87
775.865	18204.93
776.2	18143.92
776.535	18140.75
776.87	18236.79
777.205	18196.34
777.539	18147.53
777.874	18386.85
778.209	18130.81
778.543	18234.53
778.878	18170.81
779.212	18236.34
779.547	18159.73
779.881	18244.25
780.215	18245.38
780.55	18251.03
780.884	18231.6
781.218	18116.35
781.552	18283.57
781.886	18155.21
782.22	18111.37
782.554	18161.09
782.888	17949.8
783.222	18030.7
783.556	17992.73
783.889	17993.41
784.223	17879.06
784.557	17881.55
784.89	18064.6
785.224	17937.59
785.557	17843.13
785.891	17818.05
786.224	17864.83
786.558	17813.08
786.891	17673.87
787.224	17614.66
787.557	17664.61
787.891	17568.34
788.224	17590.48
788.557	17620.09
788.89	17617.6
789.223	17574.21
789.556	17493.31
789.888	17373.99
790.221	17420.32
790.554	17240.89
790.887	17324.95
791.219	17294.67
791.552	17198.4
791.884	17159.76
792.217	17188.01
792.549	17078.63
792.882	17044.51
793.214	16867.56
793.546	17022.82
793.879	16916.38
794.211	16804.06
794.543	16872.08
794.875	16850.84
795.207	16854.91
795.539	16767.68
795.871	16738.3
796.203	16628.25
796.535	16650.4
796.867	16548.93
797.198	16525.2
797.53	16558.87
797.862	16398.88
798.193	16391.65
798.525	16374.7
798.856	16419.44
799.188	16277.75
799.519	16335.38
799.85	16106.23
800.182	16134.7
800.513	16108.04
800.844	16067.13
801.175	16011.99
801.506	15984.88
801.837	15922.96
802.168	15871.21
802.499	15893.58
802.83	15787.59
803.161	15768.61
803.491	15748.95
803.822	15732.68
804.153	15707.14
804.483	15589.18
804.814	15538.33
805.145	15529.52
805.475	15546.47
805.805	15466.47
806.136	15433.03
806.466	15387.6
806.796	15415.17
807.126	15292.69
807.457	15241.39
807.787	15253.37
808.117	15142.86
808.447	15149.64
808.777	15157.78
809.107	15101.06
809.436	15158.68
809.766	15096.54
810.096	14981.51
810.426	15016.99
810.755	14952.36
811.085	14938.58
811.414	14904
811.744	14743.78
812.073	14788.75
812.403	14705.14
812.732	14742.42
813.061	14783.33
813.39	14663.33
813.719	14654.74
814.049	14645.7
814.378	14549.43
814.707	14468.98
815.036	14516.67
815.365	14443.67
815.693	14418.14
816.022	14422.88
816.351	14440.96
816.68	14295.66
817.008	14341.08
817.337	14140.86
817.665	14254.3
817.994	14118.94
818.322	14182.66
818.651	14184.02
818.979	14037.81
819.307	14143.57
819.636	14179.5
819.964	14058.83
820.292	14077.81
820.62	14038.26
820.948	14001.43
821.276	14108.32
821.604	13976.57
821.932	14015.44
822.259	13905.38
822.587	13988.77
822.915	13937.02
823.243	14027.87
823.57	13916
823.898	13933.63
824.225	13972.95
824.553	13841.43
824.88	13920.3
825.207	13906.29
825.535	13916.68
825.862	14015.66
826.189	13920.75
826.516	13953.74
826.843	13983.8
827.17	14022.89
827.497	13981.77
827.824	14012.5
828.151	14048.43
828.478	13932.95
828.805	14027.41
829.131	14021.76
829.458	14005.04
829.785	13840.53
830.111	13924.37
830.438	14085.49
830.764	13926.85
831.09	13976.34
831.417	13884.14
831.743	14003.23
832.069	13964.14
832.395	13980.41
832.722	13991.71
833.048	13867.19
833.374	13902.45
833.7	13807.08
834.026	13894.99
834.351	13966.62
834.677	13851.83
835.003	13859.28
835.329	13817.7
835.654	13862.67
835.98	13751.49
836.306	13747.42
836.631	13749
836.956	13864.25
837.282	13816.35
837.607	13727.99
837.932	13705.39
838.258	13732.05
838.583	13664.03
838.908	13616.8
839.233	13536.81
839.558	13606.86
839.883	13504.49
840.208	13466.98
840.533	13493.19
840.858	13479.63
841.182	13485.51
841.507	13384.94
841.832	13394.44
842.156	13393.08
842.481	13355.34
842.805	13362.8
843.13	13339.52
843.454	13175.01
843.778	13174.55
844.103	13179.98
844.427	13245.51
844.751	13155.57
845.075	13188.11
845.399	13063.82
845.723	13066.99
846.047	13039.19
846.371	12908.57
846.695	12820.21
847.019	12728.01
847.343	12806.2
847.666	12625.87
847.99	12653.66
848.313	12578.64
848.637	12478.98
848.96	12521.92
849.284	12502.48
849.607	12460.45
849.931	12312.88
850.254	12277.4
850.577	12219.78
850.9	12107.01
851.223	12147.01
851.546	12066.11
851.869	11980.24
852.192	12051.65
852.515	11991.99
852.838	11868.6
853.161	11857.08
853.483	11938.88
853.806	11764.65
854.129	11808.26
854.451	11739.11
854.774	11654.82
855.096	11713.8
855.419	11634.71
855.741	11570.76
856.063	11561.49
856.385	11499.57
856.708	11434.71
857.03	11433.13
857.352	11353.36
857.674	11338.67
857.996	11380.25
858.318	11299.35
858.64	11298.67
858.961	11235.62
859.283	11209.18
859.605	11173.93
859.926	11196.53
860.248	11100.48
860.57	11090.54
860.891	11042.86
861.212	11032.46
861.534	11032.46
861.855	10958.79
862.176	10914.05
862.498	10966.03
862.819	11011.22
863.14	10858.91
863.461	10885.12
863.782	10922.64
864.103	10842.64
864.424	10827.95
864.745	10824.79
865.065	10739.14
865.386	10743.88
865.707	10732.13
866.027	10769.87
866.348	10731.68
866.668	10730.55
866.989	10669.31
867.309	10643.1
867.63	10618.69
867.95	10603.55
868.27	10545.92
868.59	10549.09
868.91	10492.37
869.23	10618.46
869.55	10529.43
869.87	10586.83
870.19	10403.78
870.51	10527.17
870.83	10518.13
871.15	10404.68
871.469	10484
871.789	10414.85
872.109	10410.56
872.428	10321.07
872.748	10373.95
873.067	10325.14
873.386	10284.91
873.706	10382.76
874.025	10251.24
874.344	10248.3
874.663	10262.09
874.982	10222.77
875.301	10267.74
875.62	10260.06
875.939	10199.04
876.258	10236.33
876.577	10143.22
876.896	10152.94
877.214	10131.7
877.533	10110.91
877.852	10157.01
878.17	10065.26
878.489	10053.28
878.807	10089.44
879.125	10022.32
879.444	9962.89
879.762	9952.04
880.08	10007.41
880.398	9992.49
880.716	9989.1
881.034	9928.09
881.352	9880.4
881.67	9846.96
881.988	9876.79
882.306	9898.93
882.624	9780.75
882.941	9769.45
883.259	9751.82
883.577	9681.31
883.894	9753.4
884.212	9729.67
884.529	9706.62
884.846	9669.79
885.164	9664.36
885.481	9601.32
885.798	9585.04
886.115	9521.54
886.432	9514.31
886.75	9487.19
887.067	9522.45
887.383	9485.16
887.7	9521.54
888.017	9399.29
888.334	9382.79
888.651	9379.85
888.967	9368.1
889.284	9363.81
889.6	9298.95
889.917	9206.3
890.233	9231.16
890.55	9167.2
890.866	9190.03
891.182	9197.03
891.498	9105.28
891.815	9091.72
892.131	9100.09
892.447	9047.88
892.763	9016.92
893.079	9009.47
893.395	9032.29
893.71	8998.85
894.026	8899.64
894.342	8853.76
894.657	8823.71
894.973	8843.82
895.289	8846.98
895.604	8797.72
895.92	8676.37
896.235	8661.45
896.55	8693.54
896.865	8707.55
897.181	8655.35
897.496	8669.81
897.811	8619.87
898.126	8589.36
898.441	8498.75
898.756	8503.04
899.071	8409.03
899.386	8435.02
899.7	8336.72
900.015	8345.76
900.33	8259.88
900.644	8253.33
900.959	8296.72
901.273	8264.63
901.588	8205.19
901.902	8177.17
902.216	8171.52
902.531	8155.93
902.845	8093.11
903.159	8018.53
903.473	8039.77
903.787	8036.38
904.101	7940.34
904.415	7914.58
904.729	7868.25
905.042	7844.3
905.356	7815.15
905.67	7797.07
905.984	7832.1
906.297	7778.31
906.611	7725.88
906.924	7705.55
907.237	7709.84
907.551	7654.7
907.864	7567.47
908.177	7600.46
908.491	7590.52
908.804	7512.78
909.117	7536.51
909.43	7431.65
909.743	7409.51
910.056	7409.28
910.368	7376.52
910.681	7305.33
910.994	7313.24
911.307	7255.84
911.619	7275.27
911.932	7187.37
912.244	7131.1
912.557	7173.81
912.869	7148.72
913.181	7097.43
913.494	7105.11
913.806	6987.37
914.118	6980.82
914.43	6918.9
914.742	6922.97
915.054	6880.26
915.366	6888.84
915.678	6885.68
915.99	6838
916.302	6776.53
916.613	6745.8
916.925	6750.77
917.236	6742.41
917.548	6681.17
917.859	6711
918.171	6597.33
918.482	6595.29
918.794	6586.25
919.105	6553.03
919.416	6537.44
919.727	6513.49
920.038	6489.53
920.349	6412.47
920.66	6419.7
920.971	6464
921.282	6364.56
921.593	6333.15
921.903	6344
922.214	6336.77
922.525	6299.71
922.835	6251.35
923.146	6191.24
923.456	6261.29
923.767	6186.04
924.077	6196.21
924.387	6146.26
924.697	6096.1
925.008	6061.3
925.318	6064.01
925.628	6050.45
925.938	5967.29
926.248	6008.87
926.558	5909.89
926.867	5896.55
927.177	5894.29
927.487	5872.15
927.796	5813.39
928.106	5778.82
928.416	5776.78
928.725	5755.09
929.034	5708.08
929.344	5716.45
929.653	5774.3
929.962	5691.14
930.271	5640.52
930.581	5615.43
930.89	5555.55
931.199	5541.76
931.508	5583.12
931.817	5596
932.125	5520.74
932.434	5502.67
932.743	5450.24
933.051	5414.53
933.36	5401.43
933.669	5341.99
933.977	5410.24
934.286	5352.84
934.594	5332.73
934.902	5291.37
935.21	5250.92
935.519	5231.49
935.827	5209.11
936.135	5161.66
936.443	5179.74
936.751	5179.28
937.059	5120.76
937.367	5132.28
937.674	5076.01
937.982	5121.89
938.29	5085.28
938.597	5022.45
938.905	4998.95
939.213	5018.16
939.52	4961.89
939.827	4957.14
940.135	4922.34
940.442	4900.42
940.749	4866.98
941.056	4947.43
941.363	4862.46
941.67	4816.13
941.977	4843.47
942.284	4786.75
942.591	4777.71
942.898	4780.65
943.205	4781.56
943.511	4718.05
943.818	4700.65
944.125	4660.65
944.431	4645.51
944.738	4599.86
945.044	4621.79
945.35	4587.21
945.657	4572.07
945.963	4546.98
946.269	4554.44
946.575	4517.16
946.881	4486.2
947.187	4482.13
947.493	4426.31
947.799	4429.02
948.105	4380.89
948.41	4358.52
948.716	4381.79
949.022	4381.11
949.327	4387.67
949.633	4316.26
949.938	4293.88
950.244	4262.02
950.549	4222.7
950.854	4198.07
951.16	4245.98
951.465	4158.07
951.77	4201.46
952.075	4222.7
952.38	4135.24
952.685	4155.13
952.99	4131.63
953.294	4103.61
953.599	4019.99
953.904	4033.78
954.209	3989.03
954.513	4006.89
954.818	4038.75
955.122	3998.07
955.426	4021.35
955.731	3953.1
956.035	3940.45
956.339	3934.35
956.643	3919.88
956.948	3888.7
957.252	3846.66
957.556	3912.2
957.86	3880.34
958.163	3851.64
958.467	3847.34
958.771	3781.81
959.075	3795.82
959.378	3756.05
959.682	3765.08
959.985	3754.46
960.289	3735.93
960.592	3722.15
960.896	3651.64
961.199	3650.96
961.502	3667.23
961.805	3635.14
962.108	3611.64
962.411	3597.86
962.714	3574.36
963.017	3573
963.32	3571.64
963.623	3596.05
963.926	3543.85
964.228	3516.28
964.531	3536.84
964.833	3547.01
965.136	3455.04
965.438	3457.52
965.741	3391.31
966.043	3403.29
966.345	3396.05
966.648	3338.88
966.95	3407.13
967.252	3354.47
967.554	3402.61
967.856	3328.26
968.158	3344.76
968.46	3316.28
968.761	3293.91
969.063	3320.8
969.365	3263.4
969.666	3239.45
969.968	3240.13
970.269	3227.92
970.571	3227.7
970.872	3199.22
971.174	3194.93
971.475	3176.85
971.776	3171.65
972.077	3149.06
972.378	3142.73
972.679	3135.04
972.98	3098.21
973.281	3093.69
973.582	3074.93
973.883	3067.02
974.183	3056.18
974.484	3020.7
974.785	3013.92
975.085	3024.54
975.386	3034.48
975.686	2974.37
975.986	2975.27
976.287	2950.64
976.587	2951.55
976.887	2909.51
977.187	2886.24
977.487	2916.29
977.787	2865.9
978.087	2863.87
978.387	2883.98
978.687	2855.28
978.987	2831.78
979.286	2809.86
979.586	2810.08
979.885	2762.63
980.185	2790.87
980.484	2782.29
980.784	2756.52
981.083	2767.82
981.382	2782.96
981.682	2747.03
981.981	2739.12
982.28	2736.86
982.579	2680.59
982.878	2691.21
983.177	2647.37
983.475	2663.19
983.774	2579.58
984.073	2617.32
984.372	2613.48
984.67	2625.68
984.969	2602.63
985.267	2622.06
985.566	2573.48
985.864	2567.15
986.162	2521.5
986.461	2535.06
986.759	2540.03
987.057	2495.97
987.355	2507.26
987.653	2514.27
987.951	2481.5
988.249	2498
988.547	2464.78
988.844	2469.98
989.142	2440.15
989.44	2413.03
989.737	2402.63
990.035	2409.19
990.332	2370.09
990.63	2367.16
990.927	2391.79
991.224	2366.03
991.521	2317.89
991.819	2338.46
992.116	2312.02
992.413	2301.62
992.71	2302.07
993.006	2309.08
993.303	2281.51
993.6	2282.19
993.897	2282.64
994.193	2203.77
994.49	2245.8
994.787	2220.27
995.083	2243.32
995.379	2171.91
995.676	2211
995.972	2217.1
996.268	2154.51
996.565	2182.75
996.861	2146.37
997.157	2189.53
997.453	2141.17
997.749	2134.17
998.044	2121.96
998.34	2115.18
998.636	2078.35
998.932	2085.35
999.227	2076.09
999.523	2089.65
999.818	2043.55
1000.114	2012.59
1000.409	2050.33
1000.704	1995.41
1001	1979.82
1001.295	1960.16
1001.59	1977.56
1001.885	1945.47
1002.18	1942.76
1002.475	1966.94
1002.77	1943.21
1003.065	1919.26
1003.359	1938.69
1003.654	1898.02
1003.949	1902.31
1004.243	1896.43
1004.538	1836.1
1004.832	1874.06
1005.127	1854.63
1005.421	1812.37
1005.715	1850.56
1006.009	1817.79
1006.304	1846.49
1006.598	1795.87
1006.892	1764.91
1007.186	1792.71
1007.48	1777.34
1007.773	1757.91
1008.067	1742.99
1008.361	1737.79
1008.655	1723.1
1008.948	1734.4
1009.242	1726.04
1009.535	1694.4
1009.829	1687.4
1010.122	1697.57
1010.415	1668.42
1010.708	1664.8
1011.001	1692.6
1011.295	1662.99
1011.588	1666.16
1011.881	1621.86
1012.173	1608.08
1012.466	1603.33
1012.759	1586.61
1013.052	1580.96
1013.344	1584.58
1013.637	1576.44
1013.93	1557.01
1014.222	1566.72
1014.514	1585.48
1014.807	1523.34
1015.099	1510.91
1015.391	1531.7
1015.683	1526.73
1015.976	1501.64
1016.268	1509.55
1016.56	1490.12
1016.851	1466.39
1017.143	1478.82
1017.435	1467.97
1017.727	1464.81
1018.018	1451.25
1018.31	1438.37
1018.602	1436.56
1018.893	1402.43
1019.185	1414.64
1019.476	1396.11
1019.767	1396.79
1020.058	1394.53
1020.35	1328.76
1020.641	1328.99
1020.932	1341.87
1021.223	1357.92
1021.514	1349.33
1021.804	1333.28
1022.095	1321.31
1022.386	1298.26
1022.677	1305.26
1022.967	1301.65
1023.258	1307.07
1023.548	1272.27
1023.839	1267.3
1024.129	1255.77
1024.419	1266.85
1024.709	1248.09
1025	1242.67
1025.29	1213.97
1025.58	1223.23
1025.87	1209.67
1026.16	1185.72
1026.449	1193.4
1026.739	1195.89
1027.029	1157.47
1027.319	1164.02
1027.608	1154.98
1027.898	1147.07
1028.187	1144.81
1028.477	1129.9
1028.766	1139.84
1029.055	1116.79
1029.344	1144.59
1029.634	1091.26
1029.923	1101.43
1030.212	1102.33
1030.501	1092.61
1030.79	1096.45
1031.078	1080.86
1031.367	1049
1031.656	1068.43
1031.945	1069.79
1032.233	1056.23
1032.522	1036.57
1032.81	1044.93
1033.099	1038.38
1033.387	1031.15
1033.675	991.15
1033.963	1015.78
1034.251	1026.85
1034.54	1011.71
1034.828	992.73
1035.116	1017.36
1035.403	986.17
1035.691	938.04
1035.979	972.39
1036.267	956.8
1036.554	972.84
1036.842	959.06
1037.129	937.36
1037.417	941.2
1037.704	946.63
1037.992	943.69
1038.279	902.34
1038.566	909.34
1038.853	909.34
1039.14	909.34
