Data from hue_250_FLMS001491_00070.txt Node
Date: Tue Feb 07 16:01:19 GMT 2017
User: dcchb
Spectrometer: FLMS00149
Trigger mode: 0
Integration Time (sec): 2.000000E-2
Scans to average: 10
Electric dark correction enabled: true
Nonlinearity correction enabled: false
Boxcar width: 0
XAxis mode: Wavelengths
Number of Pixels in Spectrum: 2048
>>>>>Begin Spectral Data<<<<<
341.393	-16.33
341.776	-16.33
342.16	-16.33
342.543	-58.13
342.927	-63.56
343.31	-66.72
343.693	-64.01
344.077	-71.47
344.46	-54.97
344.843	-58.36
345.226	-52.26
345.61	-45.93
345.993	-10.23
346.376	-3.67
346.759	13.05
347.142	25.93
347.525	46.27
347.908	75.87
348.291	80.85
348.674	78.59
349.057	107.06
349.44	102.54
349.823	128.53
350.206	155.19
350.588	192.48
350.971	193.38
351.354	187.74
351.737	209.66
352.119	230.67
352.502	253.5
352.884	284
353.267	267.51
353.65	273.83
354.032	270.44
354.414	300.5
354.797	287.39
355.179	303.21
355.562	340.05
355.944	319.94
356.326	320.61
356.709	326.26
357.091	335.3
357.473	332.82
357.855	329.2
358.238	345.7
358.62	358.35
359.002	337.34
359.384	339.82
359.766	336.43
360.148	316.55
360.53	339.37
360.912	339.37
361.294	322.19
361.676	309.99
362.057	318.35
362.439	312.48
362.821	317
363.203	321.07
363.584	328.07
363.966	319.03
364.348	306.6
364.729	312.7
365.111	314.51
365.493	323.78
365.874	322.42
366.256	290.11
366.637	279.48
367.019	302.31
367.4	325.58
367.781	299.82
368.163	304.12
368.544	320.16
368.925	293.95
369.306	308.64
369.688	297.34
370.069	301.63
370.45	315.87
370.831	332.59
371.212	324.45
371.593	315.64
371.974	299.6
372.355	324
372.736	289.43
373.117	309.31
373.498	313.83
373.879	308.86
374.26	298.69
374.641	296.66
375.021	328.3
375.402	324.45
375.783	309.54
376.163	319.26
376.544	325.58
376.925	312.93
377.305	322.42
377.686	313.38
378.066	309.09
378.447	325.58
378.827	309.77
379.208	311.12
379.588	338.47
379.968	334.4
380.349	341.4
380.729	334.17
381.109	342.76
381.489	329.43
381.87	314.06
382.25	364.45
382.63	324.91
383.01	347.28
383.39	340.95
383.77	344.57
384.15	341.63
384.53	354.96
384.91	348.41
385.29	351.12
385.67	351.8
386.049	346.83
386.429	350.67
386.809	367.62
387.189	376.66
387.568	349.76
387.948	342.53
388.328	351.57
388.707	366.71
389.087	390.44
389.466	367.84
389.846	380.95
390.225	392.25
390.605	366.26
390.984	365.81
391.363	375.07
391.743	359.48
392.122	371.01
392.501	395.41
392.881	373.94
393.26	370.56
393.639	381.63
394.018	387.5
394.397	390.89
394.776	406.03
395.155	373.49
395.534	406.03
395.913	379.37
396.292	407.16
396.671	408.07
397.05	397.67
397.429	402.42
397.808	416.88
398.186	392.25
398.565	406.94
398.944	402.64
399.323	420.27
399.701	406.94
400.08	406.49
400.458	420.72
400.837	423.66
401.215	453.49
401.594	424.11
401.972	427.95
402.351	442.64
402.729	442.64
403.107	439.48
403.486	447.16
403.864	453.26
404.242	465.69
404.62	439.25
404.999	464.11
405.377	450.1
405.755	462.76
406.133	469.54
406.511	495.07
406.889	472.02
407.267	473.6
407.645	478.8
408.023	509.99
408.401	496.65
408.779	520.83
409.156	498.69
409.534	504.56
409.912	501.17
410.29	520.16
410.667	554.73
411.045	524.45
411.422	549.53
411.8	557.44
412.178	561.74
412.555	568.29
412.933	578.91
413.31	590.89
413.687	592.47
414.065	590.89
414.442	599.02
414.819	603.77
415.197	622.3
415.574	630.21
415.951	641.96
416.328	638.8
416.705	634.73
417.082	658.23
417.46	671.79
417.837	666.59
418.214	655.75
418.591	674.73
418.967	696.65
419.344	681.96
419.721	695.74
420.098	692.13
420.475	710.89
420.852	693.71
421.228	735.29
421.605	747.49
421.982	758.79
422.358	772.8
422.735	778.45
423.111	770.77
423.488	777.78
423.864	791.56
424.241	806.7
424.617	798.57
424.994	819.58
425.37	834.95
425.746	835.85
426.123	843.76
426.499	859.58
426.875	873.59
427.251	861.39
427.627	890.09
428.003	918.79
428.379	917.21
428.756	919.92
429.132	935.06
429.507	954.95
429.883	976.87
430.259	937.55
430.635	971.44
431.011	991.1
431.387	992.91
431.763	1032.01
432.138	1046.92
432.514	1052.57
432.89	1046.92
433.265	1087.15
433.641	1088.28
434.016	1100.03
434.392	1131.21
434.767	1137.09
435.143	1163.75
435.518	1168.05
435.894	1184.55
436.269	1170.31
436.644	1204.43
437.02	1218.67
437.395	1237.65
437.77	1257.31
438.145	1314.94
438.52	1313.36
438.895	1309.74
439.271	1342.73
439.646	1367.14
440.021	1371.43
440.395	1344.54
440.77	1370.53
441.145	1391.32
441.52	1404.43
441.895	1414.82
442.27	1425.89
442.645	1437.19
443.019	1450.53
443.394	1446.91
443.769	1472.9
444.143	1469.06
444.518	1521.71
444.892	1516.74
445.267	1537.53
445.641	1550.86
446.016	1544.54
446.39	1552.22
446.764	1557.87
447.139	1568.49
447.513	1598.55
447.887	1600.58
448.262	1592.22
448.636	1601.03
449.01	1625.21
449.384	1649.39
449.758	1669.96
450.132	1645.32
450.506	1702.05
450.88	1713.8
451.254	1719.45
451.628	1702.05
452.002	1729.84
452.376	1744.3
452.75	1778.43
453.123	1771.87
453.497	1824.08
453.871	1833.57
454.244	1851.19
454.618	1852.1
454.992	1926.67
455.365	1872.21
455.739	1904.98
456.112	1950.17
456.486	1987.24
456.859	1956.5
457.232	1996.28
457.606	1983.17
457.979	2038.76
458.352	2084.86
458.725	2083.05
459.099	2107.23
459.472	2137.97
459.845	2183.16
460.218	2153.11
460.591	2166.44
460.964	2173.22
461.337	2236.04
461.71	2256.61
462.083	2306.1
462.456	2324.4
462.829	2299.77
463.201	2355.81
463.574	2331.18
463.947	2395.13
464.32	2411.41
464.692	2467.68
465.065	2453.89
465.438	2526.2
465.81	2538.41
466.183	2583.6
466.555	2601.68
466.928	2591.29
467.3	2618.18
467.672	2692.3
468.045	2733.43
468.417	2741.57
468.789	2765.29
469.161	2788.34
469.534	2837.83
469.906	2873.54
470.278	2862.02
470.65	2927.32
471.022	3007.32
471.394	3030.15
471.766	3059.07
472.138	3106.98
472.51	3121.44
472.882	3170.71
473.253	3227.66
473.625	3255.68
473.997	3319.63
474.369	3317.6
474.74	3367.76
475.112	3403.47
475.484	3438.95
475.855	3512.17
476.227	3525.27
476.598	3633.97
476.97	3689.34
477.341	3734.99
477.713	3734.76
478.084	3733.63
478.455	3875.32
478.827	3898.37
479.198	3991.48
479.569	4036.22
479.94	4090.23
480.311	4110.12
480.682	4245.93
481.053	4290.23
481.424	4384.24
481.795	4365.7
482.166	4385.82
482.537	4477.34
482.908	4551.46
483.279	4595.08
483.65	4665.13
484.021	4779.93
484.391	4774.96
484.762	4891.11
485.133	4888.18
485.503	4906.26
485.874	5009.76
486.244	5087.49
486.615	5158.23
486.985	5251.1
487.356	5349.41
487.726	5295.4
488.097	5428.05
488.467	5416.3
488.837	5513.7
489.207	5587.59
489.578	5653.13
489.948	5698.55
490.318	5754.82
490.688	5807.93
491.058	5856.29
491.428	5942.16
491.798	6012.89
492.168	6049.5
492.538	6044.3
492.908	6172.66
493.278	6188.71
493.648	6206.33
494.017	6314.81
494.387	6367.91
494.757	6356.39
495.126	6434.35
495.496	6462.6
495.866	6478.42
496.235	6562.48
496.605	6579.43
496.974	6632.31
497.344	6694.23
497.713	6714.57
498.082	6713.21
498.452	6800.44
498.821	6830.05
499.19	6875.92
499.559	6897.39
499.928	6981.45
500.298	6964.28
500.667	7019.19
501.036	7070.04
501.405	7058.97
501.774	7094.9
502.143	7151.39
502.512	7216.02
502.88	7215.8
503.249	7209.7
503.618	7270.26
503.987	7287.21
504.356	7380.99
504.724	7390.03
505.093	7403.14
505.462	7421.67
505.83	7481.1
506.199	7476.13
506.567	7642.91
506.936	7546.86
507.304	7679.06
507.672	7671.61
508.041	7689.01
508.409	7727.2
508.777	7717.25
509.145	7824.14
509.514	7766.07
509.882	7860.98
510.25	7841.32
510.618	7834.77
510.986	7908.44
511.354	7957.47
511.722	8004.03
512.09	7983.24
512.458	8031.14
512.826	8078.6
513.193	8083.35
513.561	8156.79
513.929	8154.31
514.297	8232.5
514.664	8281.31
515.032	8204.47
515.4	8287.41
515.767	8307.97
516.135	8361.76
516.502	8334.64
516.869	8373.73
517.237	8435.2
517.604	8323.57
517.972	8455.54
518.339	8456.44
518.706	8522.43
519.073	8458.25
519.44	8531.02
519.808	8592.71
520.175	8583.67
520.542	8716.32
520.909	8666.61
521.276	8683.56
521.643	8771.01
522.009	8764.91
522.376	8793.16
522.743	8826.83
523.11	8902.53
523.477	8895.98
523.843	8978.46
524.21	9044.45
524.577	9065.47
524.943	9002.19
525.31	9119.7
525.676	9125.58
526.043	9225.69
526.409	9131.68
526.776	9224.33
527.142	9289.87
527.508	9268.63
527.874	9303.2
528.241	9333.03
528.607	9362.64
528.973	9418.9
529.339	9418.23
529.705	9472.01
530.071	9542.29
530.437	9493.48
530.803	9534.16
531.169	9583.87
531.535	9563.99
531.901	9565.79
532.267	9595.4
532.632	9551.1
532.998	9580.71
533.364	9646.24
533.73	9666.36
534.095	9670.65
534.461	9686.47
534.826	9719.91
535.192	9745.45
535.557	9840.81
535.923	9716.75
536.288	9753.36
536.653	9810.08
537.019	9682.63
537.384	9732.12
537.749	9856.63
538.114	9769.4
538.479	9709.52
538.845	9881.72
539.21	9741.83
539.575	9838.55
539.94	9818.67
540.305	9787.26
540.67	9811.21
541.034	9841.27
541.399	9841.94
541.764	9864.77
542.129	9906.8
542.494	9889.18
542.858	9995.16
543.223	9913.81
543.587	9864.09
543.952	9865.22
544.316	9902.06
544.681	9917.2
545.045	9898.89
545.41	9909.97
545.774	9935.73
546.138	9923.07
546.503	10006.69
546.867	9919.23
547.231	9983.18
547.595	9965.78
547.959	9899.34
548.324	9910.64
548.688	9903.86
549.052	10006.69
549.416	9952.9
549.779	10026.35
550.143	9962.39
550.507	10056.18
550.871	10076.51
551.235	10024.99
551.599	10083.29
551.962	10038.1
552.326	10074.48
552.689	10156.51
553.053	10057.53
553.417	10055.72
553.78	10193.8
554.143	10146.12
554.507	10106.12
554.87	10105.89
555.234	10180.69
555.597	10162.84
555.96	10138.21
556.323	10186.79
556.686	10135.5
557.05	10229.73
557.413	10217.08
557.776	10205.1
558.139	10267.02
558.502	10353.57
558.865	10252.56
559.228	10302.5
559.59	10339.78
559.953	10376.39
560.316	10397.86
560.679	10469.95
561.041	10427.92
561.404	10484.64
561.767	10499.1
562.129	10502.94
562.492	10605.77
562.854	10592.66
563.217	10551.98
563.579	10617.52
563.941	10695.71
564.304	10690.74
564.666	10817.74
565.028	10727.35
565.39	10776.84
565.753	10829.26
566.115	10811.41
566.477	10876.27
566.839	10899.32
567.201	10955.59
567.563	10961.01
567.925	11034.46
568.287	11025.42
568.648	11058.41
569.01	11079.65
569.372	11144.28
569.734	11139.54
570.095	11193.55
570.457	11228.35
570.819	11231.96
571.18	11280.55
571.542	11330.49
571.903	11260.89
572.265	11338.63
572.626	11344.05
572.987	11398.29
573.349	11472.18
573.71	11417.5
574.071	11442.58
574.432	11521.67
574.794	11548.79
575.155	11559.64
575.516	11533.2
575.877	11548.79
576.238	11651.16
576.599	11762.8
576.96	11681.22
577.32	11717.38
577.681	11795.79
578.042	11763.02
578.403	11770.71
578.763	11849.58
579.124	11801.67
579.485	11813.64
579.845	11946.52
580.206	11944.49
580.566	11984.04
580.927	11852.06
581.287	11965.28
581.648	11990.59
582.008	12003.02
582.368	11979.29
582.728	11991.94
583.089	12077.59
583.449	12102.22
583.809	12106.97
584.169	12137.03
584.529	12096.12
584.889	12281.43
585.249	12067.87
585.609	12083.47
585.969	12197.36
586.329	12156.69
586.688	12212.28
587.048	12229.23
587.408	12205.05
587.768	12227.42
588.127	12243.92
588.487	12217.7
588.846	12314.42
589.206	12238.04
589.565	12330.01
589.925	12296.8
590.284	12368.21
590.643	12329.79
591.003	12412.95
591.362	12359.62
591.721	12418.6
592.08	12370.24
592.44	12439.39
592.799	12473.51
593.158	12452.72
593.517	12425.15
593.876	12418.37
594.235	12384.25
594.593	12382.67
594.952	12498.6
595.311	12412.95
595.67	12467.86
596.029	12563.23
596.387	12502.44
596.746	12654.98
597.104	12567.97
597.463	12443.01
597.822	12503.34
598.18	12509.22
598.538	12482.78
598.897	12592.83
599.255	12465.83
599.613	12604.81
599.972	12654.98
600.33	12628.31
600.688	12524.36
601.046	12616.56
601.404	12683.9
601.762	12682.32
602.12	12756.22
602.478	12742.43
602.836	12713.73
603.194	12674.41
603.552	12731.81
603.91	12696.33
604.268	12716.67
604.625	12688.65
604.983	12692.94
605.341	12717.8
605.698	12727.74
606.056	12758.25
606.413	12775.43
606.771	12789.44
607.128	12810.23
607.485	12777.69
607.843	12803.67
608.2	12805.03
608.557	12856.78
608.914	12798.03
609.272	12825.14
609.629	12863.33
609.986	13024.46
610.343	12870.11
610.7	13012.03
611.057	12978.81
611.414	12921.64
611.771	13019.71
612.127	13085.7
612.484	13004.8
612.841	13040.96
613.198	13014.29
613.554	13048.19
613.911	13049.09
614.267	13073.5
614.624	13073.95
614.98	13004.12
615.337	13163.67
615.693	13064.46
616.05	13129.99
616.406	13155.53
616.762	13157.56
617.118	13087.06
617.475	13087.96
617.831	13139.26
618.187	13196.43
618.543	13113.95
618.899	13205.7
619.255	13209.31
619.611	13174.06
619.967	13248.86
620.323	13259.93
620.678	13188.52
621.034	13197.11
621.39	13143.33
621.746	13186.72
622.101	13286.6
622.457	13217.9
622.812	13184.23
623.168	13203.21
623.523	13201.63
623.879	13264.23
624.234	13197.11
624.589	13226.94
624.945	13186.72
625.3	13257.9
625.655	13294.96
626.01	13158.69
626.365	13145.36
626.72	13175.42
627.075	13167.05
627.43	13230.56
627.785	13119.15
628.14	13204.79
628.495	13136.55
628.85	13261.06
629.205	13176.32
629.559	13133.38
629.914	13210.22
630.269	13140.61
630.623	13080.73
630.978	13125.47
631.332	13098.13
631.687	13137.45
632.041	13084.8
632.396	13024.01
632.75	13054.97
633.104	13066.27
633.459	12930.68
633.813	12978.36
634.167	12989.66
634.521	12919.83
634.875	13016.55
635.229	13010.67
635.583	12848.87
635.937	12967.29
636.291	12915.08
636.645	12913.28
636.999	12859.49
637.352	12847.29
637.706	12855.2
638.06	12860.4
638.413	12828.98
638.767	12804.13
639.121	12723
639.474	12692.04
639.828	12760.96
640.181	12789.89
640.534	12696.11
640.888	12654.75
641.241	12673.96
641.594	12713.73
641.947	12714.64
642.301	12710.8
642.654	12650.91
643.007	12683.9
643.36	12573.85
643.713	12554.42
644.066	12570.46
644.419	12571.36
644.771	12518.03
645.124	12431.03
645.477	12432.16
645.83	12241.66
646.182	12243.24
646.535	12217.7
646.888	12153.52
647.24	12093.86
647.593	12201.66
647.945	12161.66
648.298	12137.7
648.65	12095.22
649.002	12066.97
649.355	12130.02
649.707	12132.96
650.059	12142.45
650.411	12279.17
650.763	12350.13
651.115	12428.32
651.467	12390.58
651.819	12452.27
652.171	12378.38
652.523	12361.65
652.875	12380.63
653.227	12323.91
653.578	12407.75
653.93	12335.89
654.282	12283.46
654.633	12286.4
654.985	12222.45
655.337	12231.03
655.688	12285.5
656.039	12340.18
656.391	12235.55
656.742	12320.07
657.094	12267.87
657.445	12334.99
657.796	12259.28
658.147	12229.9
658.498	12193.07
658.849	12339.51
659.2	12152.84
659.551	12155.33
659.902	12317.81
660.253	12258.83
660.604	12245.5
660.955	12119.85
661.306	12309
661.656	12239.4
662.007	12319.17
662.358	12213.41
662.708	12327.98
663.059	12225.84
663.409	12163.92
663.76	12354.42
664.11	12162.11
664.461	12205.27
664.811	12267.87
665.161	12242.11
665.511	12221.54
665.862	12281.88
666.212	12254.76
666.562	12274.42
666.912	12273.97
667.262	12156.01
667.612	12232.16
667.962	12277.59
668.312	12210.7
668.662	12267.42
669.011	12179.28
669.361	12245.95
669.711	12194.2
670.06	12153.3
670.41	12150.81
670.76	12167.31
671.109	12214.76
671.459	12124.82
671.808	12147.19
672.157	12126.18
672.507	12082.34
672.856	12122.34
673.205	12109.68
673.554	12183.8
673.904	12069.46
674.253	12215.89
674.602	12068.33
674.951	11918.73
675.3	11891.61
675.649	12097.03
675.998	12034.2
676.346	12030.59
676.695	12118.49
677.044	11993.98
677.393	12067.65
677.741	12029.46
678.09	11968.44
678.438	11969.8
678.787	11991.27
679.135	12025.84
679.484	11765.51
679.832	11980.42
680.181	11834.89
680.529	11851.61
680.877	11930.03
681.225	11861.33
681.573	11935.22
681.922	11841.67
682.27	11697.72
682.618	11789.46
682.966	11768.22
683.314	11717.6
683.661	11753.76
684.009	11631.28
684.357	11554.89
684.705	11625.17
685.053	11612.07
685.4	11579.07
685.748	11568
686.095	11513.31
686.443	11468.12
686.79	11467.89
687.138	11404.16
687.485	11506.76
687.832	11367.33
688.18	11407.55
688.527	11405.75
688.874	11343.37
689.221	11325.97
689.568	11238.97
689.915	11242.36
690.262	11199.65
690.609	11174.34
690.956	11085.53
691.303	11139.76
691.65	11077.84
691.997	11055.25
692.344	10994
692.69	10919.88
693.037	11007.56
693.383	10847.57
693.73	10952.42
694.077	10862.48
694.423	10866.55
694.769	10812.31
695.116	10817.74
695.462	10736.84
695.808	10683.05
696.155	10714.69
696.501	10688.25
696.847	10592.66
697.193	10503.4
697.539	10598.08
697.885	10500.01
698.231	10450.06
698.577	10474.47
698.923	10371.65
699.269	10322.84
699.614	10339.78
699.96	10307.47
700.306	10309.28
700.651	10214.36
700.997	10111.99
701.342	10152.67
701.688	10097.53
702.033	10180.69
702.379	10102.5
702.724	10097.98
703.069	10097.53
703.415	9980.47
703.76	9914.49
704.105	9956.74
704.45	9896.41
704.795	9861.38
705.14	9846.01
705.485	9778.44
705.83	9760.36
706.175	9740.7
706.52	9693.93
706.865	9725.79
707.209	9664.1
707.554	9651.44
707.899	9630.65
708.243	9559.92
708.588	9496.64
708.932	9457.77
709.277	9497.55
709.621	9567.83
709.966	9387.04
710.31	9458.45
710.654	9375.29
710.998	9366.7
711.342	9402.41
711.687	9370.54
712.031	9286.25
712.375	9294.61
712.719	9239.25
713.063	9293.48
713.407	9262.98
713.75	9214.84
714.094	9240.15
714.438	9220.49
714.782	9206.93
715.125	9172.36
715.469	9195.63
715.812	9141.4
716.156	9099.37
716.499	9112.02
716.843	9110.44
717.186	9065.92
717.53	9181.17
717.873	9081.74
718.216	9096.43
718.559	9002.42
718.902	8976.66
719.246	8965.58
719.589	8970.33
719.932	8918.58
720.275	8886.49
720.617	8921.97
720.96	8924.23
721.303	8907.96
721.646	8853.27
721.989	8838.81
722.331	8881.52
722.674	8857.79
723.016	8872.7
723.359	8785.93
723.701	8862.08
724.044	8826.15
724.386	8723.78
724.729	8783.67
725.071	8706.38
725.413	8718.36
725.755	8730.11
726.097	8706.16
726.439	8707.96
726.782	8670.9
727.124	8697.34
727.465	8722.88
727.807	8644.46
728.149	8651.69
728.491	8700.73
728.833	8641.07
729.175	8612.82
729.516	8625.03
729.858	8630.68
730.199	8644.01
730.541	8641.75
730.882	8557.01
731.224	8636.1
731.565	8547.74
731.906	8585.93
732.248	8667.29
732.589	8585.25
732.93	8590.23
733.271	8542.54
733.612	8563.33
733.953	8591.58
734.294	8558.59
734.635	8536.22
734.976	8572.6
735.317	8524.47
735.658	8554.07
735.999	8508.87
736.339	8475.2
736.68	8499.83
737.021	8533.96
737.361	8524.69
737.702	8532.37
738.042	8507.06
738.383	8479.95
738.723	8496.44
739.063	8454.18
739.404	8553.16
739.744	8558.14
740.084	8467.29
740.424	8538.93
740.764	8465.94
741.104	8522.21
741.444	8463.68
741.784	8522.66
742.124	8518.36
742.464	8526.95
742.804	8523.56
743.143	8546.16
743.483	8545.93
743.823	8499.83
744.162	8515.2
744.502	8584.12
744.841	8552.94
745.181	8628.19
745.52	8642.43
745.86	8662.54
746.199	8651.02
746.538	8674.74
746.877	8726.72
747.216	8728.3
747.556	8770.11
747.895	8770.33
748.234	8770.56
748.573	8750.45
748.911	8846.26
749.25	8893.27
749.589	8858.02
749.928	8994.28
750.267	9045.36
750.605	9032.93
750.944	9080.16
751.283	9098.91
751.621	9179.36
751.96	9237.21
752.298	9267.5
752.636	9364.9
752.975	9377.1
753.313	9469.07
753.651	9534.61
753.989	9553.14
754.327	9633.81
754.666	9635.17
755.004	9782.06
755.342	9813.47
755.679	9881.27
756.017	9941.83
756.355	10070.87
756.693	10118.1
757.031	10249.39
757.368	10264.08
757.706	10417.75
758.044	10493.45
758.381	10665.2
758.719	10664.97
759.056	10817.96
759.394	10880.56
759.731	10900.67
760.068	11047.79
760.405	11124.62
760.743	11265.86
761.08	11314.45
761.417	11378.63
761.754	11464.95
762.091	11581.11
762.428	11672.86
762.765	11674.21
763.102	11851.38
763.438	11991.04
763.775	12052.06
764.112	12173.41
764.449	12253.18
764.785	12307.42
765.122	12369.11
765.458	12428.32
765.795	12549.67
766.131	12666.05
766.467	12663.79
766.804	12788.76
767.14	12840.28
767.476	12979.94
767.812	13022.65
768.148	13112.14
768.485	13110.79
768.821	13152.37
769.157	13226.71
769.492	13347.62
769.828	13272.59
770.164	13305.13
770.5	13464.67
770.836	13438.01
771.171	13467.39
771.507	13540.38
771.842	13564.56
772.178	13615.63
772.513	13664.44
772.849	13685.46
773.184	13629.19
773.519	13701.96
773.855	13771.56
774.19	13799.58
774.525	13856.3
774.86	13903.76
775.195	13937.2
775.53	13939.92
775.865	13953.02
776.2	13886.36
776.535	13906.92
776.87	13903.53
777.205	13915.28
777.539	13783.08
777.874	13942.4
778.209	13891.78
778.543	13902.63
778.878	13897.88
779.212	13947.83
779.547	13875.96
779.881	13970.65
780.215	13850.43
780.55	13915.28
780.884	13887.71
781.218	14012.23
781.552	13949.63
781.886	13836.42
782.22	13806.13
782.554	13794.38
782.888	13753.93
783.222	13727.72
783.556	13603.2
783.889	13755.29
784.223	13646.14
784.557	13660.83
784.89	13672.58
785.224	13710.54
785.557	13656.76
785.891	13699.92
786.224	13533.6
786.558	13576.76
786.891	13522.53
787.224	13480.04
787.557	13492.47
787.891	13457.89
788.224	13451.34
788.557	13461.06
788.89	13438.91
789.223	13470.78
789.556	13322.31
789.888	13345.13
790.221	13217.22
790.554	13208.18
790.887	13307.84
791.219	13222.42
791.552	13159.82
791.884	13107.4
792.217	13134.74
792.549	13067.17
792.882	13095.87
793.214	12995.31
793.546	13012.48
793.879	12989.66
794.211	12852.03
794.543	12923.9
794.875	12948.76
795.207	12876.22
795.539	12967.74
795.871	12874.18
796.203	12748.76
796.535	12700.85
796.867	12753.73
797.198	12622.89
797.53	12663.34
797.862	12615.21
798.193	12605.26
798.525	12521.2
798.856	12584.25
799.188	12452.05
799.519	12405.27
799.85	12356.91
800.182	12416.79
800.513	12438.03
800.844	12185.16
801.175	12325.27
801.506	12258.38
801.837	12255.67
802.168	12206.18
802.499	12160.08
802.83	12121.43
803.161	12133.64
803.491	11998.95
803.822	12114.43
804.153	11980.19
804.483	11965.73
804.814	11902.23
805.145	11925.96
805.475	11899.97
805.805	11856.35
806.136	11871.27
806.466	11786.07
806.796	11812.51
807.126	11767.09
807.457	11722.8
807.787	11690.03
808.117	11665.85
808.447	11636.25
808.777	11542.24
809.107	11553.76
809.436	11587.89
809.766	11544.05
810.096	11445.29
810.426	11455.91
810.755	11497.49
811.085	11462.69
811.414	11408.46
811.744	11336.59
812.073	11383.15
812.403	11316.03
812.732	11375.01
813.061	11367.78
813.39	11221.12
813.719	11232.87
814.049	11328.23
814.378	11170.72
814.707	11229.25
815.036	11182.7
815.365	11081.01
815.693	11055.47
816.022	11162.36
816.351	11033.1
816.68	11044.4
817.008	11095.92
817.337	10897.06
817.665	10891.18
817.994	10943.16
818.322	10895.93
818.651	10839.66
818.979	10834.23
819.307	10846.89
819.636	10814.12
819.964	10780.9
820.292	10794.01
820.62	10864.06
820.948	10844.4
821.276	10817.29
821.604	10728.25
821.932	10841.92
822.259	10798.98
822.587	10733.22
822.915	10739.55
823.243	10785.87
823.57	10766.89
823.898	10742.71
824.225	10715.82
824.553	10791.75
824.88	10779.55
825.207	10859.09
825.535	10732.77
825.862	10723.05
826.189	10756.5
826.516	10787.91
826.843	10823.61
827.17	10759.21
827.497	10799.43
827.824	10754.46
828.151	10830.39
828.478	10764.41
828.805	10868.36
829.131	10782.03
829.458	10743.16
829.785	10709.49
830.111	10698.42
830.438	10794.46
830.764	10758.53
831.09	10765.99
831.417	10650.28
831.743	10762.82
832.069	10728.25
832.395	10680.11
832.722	10670.4
833.048	10678.31
833.374	10671.98
833.7	10634.47
834.026	10649.61
834.351	10680.11
834.677	10685.76
835.003	10679.66
835.329	10728.25
835.654	10676.72
835.98	10636.27
836.306	10677.4
836.631	10597.86
836.956	10548.82
837.282	10635.37
837.607	10541.14
837.932	10544.75
838.258	10533
838.583	10502.04
838.908	10429.5
839.233	10443.51
839.558	10463.17
839.883	10355.38
840.208	10354.02
840.533	10358.77
840.858	10378.43
841.182	10344.08
841.507	10371.87
841.832	10261.37
842.156	10313.8
842.481	10284.87
842.805	10215.95
843.13	10271.09
843.454	10237.87
843.778	10181.82
844.103	10158.32
844.427	10117.42
844.751	10106.34
845.075	10116.51
845.399	10095.5
845.723	10044.43
846.047	10032.45
846.371	10005.33
846.695	9915.84
847.019	9847.59
847.343	9908.16
847.666	9768.95
847.99	9740.48
848.313	9764.88
848.637	9661.84
848.96	9674.49
849.284	9602.18
849.607	9605.11
849.931	9587.49
850.254	9459.13
850.577	9461.62
850.9	9393.59
851.223	9361.96
851.546	9339.36
851.869	9284.45
852.192	9315.4
852.515	9261.17
852.838	9239.25
853.161	9244.22
853.483	9198.8
853.806	9107.05
854.129	9107.73
854.451	9107.73
854.774	9035.86
855.096	9019.14
855.419	9039.03
855.741	8989.31
856.063	8924.23
856.385	8930.1
856.708	8933.49
857.03	8884.68
857.352	8809.2
857.674	8835.42
857.996	8815.76
858.318	8785.48
858.64	8742.76
858.961	8645.59
859.283	8655.31
859.605	8701.86
859.926	8695.08
860.248	8615.76
860.57	8610.11
860.891	8592.26
861.212	8509.78
861.534	8504.58
861.855	8491.02
862.176	8510.23
862.498	8552.26
862.819	8484.92
863.14	8466.39
863.461	8456.44
863.782	8372.15
864.103	8464.35
864.424	8427.29
864.745	8473.17
865.065	8400.17
865.386	8358.14
865.707	8282.89
866.027	8406.95
866.348	8298.71
866.668	8331.93
866.989	8278.6
867.309	8251.93
867.63	8288.77
867.95	8209.45
868.27	8179.16
868.59	8148.43
868.91	8222.78
869.23	8200.18
869.55	8221.2
869.87	8205.83
870.19	8177.13
870.51	8121.09
870.83	8155.66
871.15	8098.71
871.469	8110.01
871.789	8167.41
872.109	8135.1
872.428	8027.53
872.748	8052.39
873.067	8057.81
873.386	8080.63
873.706	7982.11
874.025	7967.87
874.344	7945.95
874.663	7977.59
874.982	7945.27
875.301	7979.17
875.62	7989.79
875.939	7917.02
876.258	7938.72
876.577	7830.02
876.896	7848.32
877.214	7911.83
877.533	7855.1
877.852	7860.3
878.17	7890.36
878.489	7845.61
878.807	7877.02
879.125	7844.26
879.444	7790.02
879.762	7812.17
880.08	7805.16
880.398	7694.2
880.716	7805.39
881.034	7692.17
881.352	7703.02
881.67	7691.72
881.988	7670.48
882.306	7673.41
882.624	7648.33
882.941	7571.27
883.259	7604.72
883.577	7527.43
883.894	7571.95
884.212	7522.91
884.529	7470.03
884.846	7530.14
885.164	7512.06
885.481	7478.39
885.798	7450.82
886.115	7414.21
886.432	7409.24
886.75	7425.28
887.067	7417.15
887.383	7291.73
887.7	7416.47
888.017	7323.82
888.334	7325.4
888.651	7293.76
888.967	7290.83
889.284	7227.78
889.6	7224.39
889.917	7193.88
890.233	7236.14
890.55	7142.35
890.866	7164.5
891.182	7115.91
891.498	7132.64
891.815	7059.19
892.131	7064.39
892.447	7066.42
892.763	7012.64
893.079	7061.45
893.395	7065.29
893.71	6958.86
894.026	6968.35
894.342	6982.58
894.657	6919.08
894.973	6891.06
895.289	6883.83
895.604	6814.23
895.92	6791.86
896.235	6810.39
896.55	6754.57
896.865	6723.83
897.181	6704.85
897.496	6727.9
897.811	6645.87
898.126	6723.61
898.441	6646.55
898.756	6629.15
899.071	6635.93
899.386	6580.56
899.7	6530.17
900.015	6480.68
900.33	6458.98
900.644	6484.07
900.959	6514.8
901.273	6444.75
901.588	6442.03
901.902	6378.76
902.216	6327.46
902.531	6372.43
902.845	6300.34
903.159	6225.32
903.473	6272.55
903.787	6270.06
904.101	6245.2
904.415	6238.65
904.729	6183.28
905.042	6162.95
905.356	6119.33
905.67	6093.12
905.984	6108.03
906.297	6074.59
906.611	6028.49
906.924	6077.52
907.237	6057.41
907.551	5969.28
907.864	6011.54
908.177	5931.99
908.491	5932.67
908.804	5907.36
909.117	5875.5
909.43	5861.71
909.743	5833.01
910.056	5856.29
910.368	5764.99
910.681	5784.88
910.994	5745.56
911.307	5691.77
911.619	5691.32
911.932	5689.51
912.244	5654.26
912.557	5616.52
912.869	5592.56
913.181	5592.79
913.494	5564.77
913.806	5564.54
914.118	5505.11
914.43	5494.71
914.742	5490.65
915.054	5476.86
915.366	5437.77
915.678	5423.53
915.99	5420.59
916.302	5374.04
916.613	5332.23
916.925	5303.31
917.236	5261.5
917.548	5222.86
917.859	5307.15
918.171	5255.17
918.482	5196.42
918.794	5189.19
919.105	5189.64
919.416	5124.33
919.727	5187.15
920.038	5088.85
920.349	5078.23
920.66	5112.8
920.971	5034.61
921.282	5007.95
921.593	5001.85
921.903	4958.91
922.214	4948.29
922.525	4957.55
922.835	4942.64
923.146	4927.05
923.456	4856.54
923.767	4851.79
924.077	4862.87
924.387	4794.62
924.697	4816.09
925.008	4814.96
925.318	4752.36
925.628	4761.17
925.938	4770.21
926.248	4723.89
926.558	4687.28
926.867	4658.58
927.177	4673.94
927.487	4650.67
927.796	4616.09
928.106	4554.4
928.416	4602.31
928.725	4561.18
929.034	4531.12
929.344	4569.54
929.653	4534.74
929.962	4522.54
930.271	4464.01
930.581	4479.6
930.89	4432.14
931.199	4447.06
931.508	4412.71
931.817	4423.56
932.125	4397.57
932.434	4392.14
932.743	4386.49
933.051	4283.45
933.36	4310.79
933.669	4254.97
933.977	4219.04
934.286	4237.35
934.594	4243.22
934.902	4257.01
935.21	4224.24
935.519	4164.81
935.827	4168.42
936.135	4127.74
936.443	4144.92
936.751	4146.05
937.059	4106.05
937.367	4069.67
937.674	4106.73
937.982	4077.12
938.29	4016.79
938.597	4028.09
938.905	3946.05
939.213	3973.62
939.52	3948.99
939.827	3951.93
940.135	3943.57
940.442	3937.24
940.749	3925.26
941.056	3893.63
941.363	3887.07
941.67	3850.92
941.977	3847.3
942.284	3803.23
942.591	3774.53
942.898	3825.83
943.205	3735.66
943.511	3768.88
943.818	3755.1
944.125	3714.65
944.431	3714.87
944.738	3727.08
945.044	3667.87
945.35	3640.75
945.657	3636.23
945.963	3619.74
946.269	3605.95
946.575	3602.79
946.881	3584.03
947.187	3540.42
947.493	3560.75
947.799	3549.68
948.105	3511.49
948.41	3491.38
948.716	3474.2
949.022	3497.7
949.327	3443.69
949.633	3416.35
949.938	3422.68
950.244	3399.63
950.549	3364.83
950.854	3372.51
951.16	3379.74
951.465	3342.45
951.77	3357.6
952.075	3360.99
952.38	3326.18
952.685	3318.73
952.99	3288.22
953.294	3297.71
953.599	3302.68
953.904	3270.14
954.209	3243.93
954.513	3206.41
954.818	3208.22
955.122	3217.94
955.426	3192.4
955.731	3205.28
956.035	3187.66
956.339	3130.93
956.643	3163.48
956.948	3091.39
957.252	3088.9
957.556	3110.14
957.86	3067.66
958.163	3066.98
958.467	3070.37
958.771	3061.11
959.075	3050.03
959.378	3051.39
959.682	3046.42
959.985	2975.01
960.289	2972.97
960.592	2957.38
960.896	2965.52
961.199	2951.96
961.502	2951.96
961.805	2914.67
962.108	2905.86
962.411	2914.22
962.714	2890.94
963.017	2907.21
963.32	2854.56
963.623	2867.44
963.926	2868.79
964.228	2846.65
964.531	2806.2
964.833	2825.18
965.136	2768.46
965.438	2774.56
965.741	2752.87
966.043	2821.34
966.345	2765.97
966.648	2753.09
966.95	2741.57
967.252	2723.71
967.554	2705.18
967.856	2681.91
968.158	2676.26
968.46	2679.65
968.761	2657.73
969.063	2648.91
969.365	2648.01
969.666	2584.51
969.968	2622.93
970.269	2613.89
970.571	2594.45
970.872	2585.19
971.174	2581.12
971.475	2545.87
971.776	2552.87
972.077	2527.56
972.378	2499.99
972.679	2538.41
972.98	2509.93
973.281	2484.4
973.582	2462.25
973.883	2458.18
974.183	2468.81
974.484	2450.27
974.785	2439.43
975.085	2426.09
975.386	2423.38
975.686	2425.64
975.986	2437.62
976.287	2427.68
976.587	2381.35
976.887	2337.96
977.187	2377.06
977.487	2339.77
977.787	2360.56
978.087	2316.27
978.387	2283.73
978.687	2316.72
978.987	2272.43
979.286	2281.24
979.586	2315.59
979.885	2268.81
980.185	2271.97
980.484	2254.35
980.784	2273.33
981.083	2228.59
981.382	2219.09
981.682	2211.41
981.981	2210.51
982.28	2192.88
982.579	2213.67
982.878	2159.89
983.177	2193.56
983.475	2159.89
983.774	2151.07
984.073	2151.07
984.372	2141.58
984.67	2119.66
984.969	2123.5
985.267	2102.71
985.566	2085.54
985.864	2102.49
986.162	2106.1
986.461	2044.86
986.759	2061.36
987.057	2035.6
987.355	2044.86
987.653	2024.98
987.951	2014.58
988.249	2029.49
988.547	2033.56
988.844	2003.73
989.142	2012.32
989.44	2024.98
989.737	1962.38
990.035	1955.37
990.332	1938.42
990.63	1935.03
990.927	1931.64
991.224	1923.51
991.521	1920.57
991.819	1930.97
992.116	1924.86
992.413	1891.87
992.71	1894.58
993.006	1917.86
993.303	1870.4
993.6	1855.04
993.897	1865.43
994.193	1875.6
994.49	1848.03
994.787	1815.26
995.083	1824.3
995.379	1806.68
995.676	1831.53
995.972	1808.48
996.268	1804.19
996.565	1780.01
996.861	1763.51
997.157	1765.77
997.453	1726.45
997.749	1761.93
998.044	1749.28
998.34	1707.92
998.636	1697.75
998.932	1714.25
999.227	1688.49
999.523	1716.51
999.818	1706.57
1000.114	1680.35
1000.409	1653.01
1000.704	1667.24
1001	1631.99
1001.295	1657.53
1001.59	1621.14
1001.885	1649.17
1002.18	1646.68
1002.475	1610.97
1002.77	1612.56
1003.065	1617.3
1003.359	1557.87
1003.654	1535.04
1003.949	1593.12
1004.243	1527.59
1004.538	1566.91
1004.832	1564.42
1005.127	1567.59
1005.421	1535.72
1005.715	1537.76
1006.009	1519.45
1006.304	1501.15
1006.598	1503.86
1006.892	1499.11
1007.186	1482.62
1007.48	1453.24
1007.773	1467.7
1008.067	1451.88
1008.361	1433.35
1008.655	1448.72
1008.948	1413.69
1009.242	1436.06
1009.535	1411.66
1009.829	1412.79
1010.122	1409.17
1010.415	1403.3
1010.708	1380.47
1011.001	1370.3
1011.295	1376.63
1011.588	1370.3
1011.881	1344.31
1012.173	1359.68
1012.466	1356.74
1012.759	1348.61
1013.052	1314.49
1013.344	1323.07
1013.637	1339.34
1013.93	1302.28
1014.222	1303.86
1014.514	1291.43
1014.807	1267.93
1015.099	1274.26
1015.391	1257.31
1015.683	1290.08
1015.976	1271.1
1016.268	1265.67
1016.56	1246.92
1016.851	1204.43
1017.143	1232
1017.435	1230.42
1017.727	1190.19
1018.018	1210.76
1018.31	1214.83
1018.602	1211.66
1018.893	1213.24
1019.185	1182.74
1019.476	1177.54
1019.767	1167.82
1020.058	1169.18
1020.35	1154.49
1020.641	1160.59
1020.932	1174.38
1021.223	1136.86
1021.514	1117.2
1021.804	1104.1
1022.095	1128.28
1022.386	1108.39
1022.677	1109.97
1022.967	1097.32
1023.258	1069.75
1023.548	1066.58
1023.839	1075.62
1024.129	1077.88
1024.419	1075.85
1024.709	1045.79
1025	1043.08
1025.29	1055.73
1025.58	1021.61
1025.87	998.79
1026.16	1022.29
1026.449	1008.96
1026.739	995.85
1027.029	1008.96
1027.319	985.68
1027.608	987.26
1027.898	995.4
1028.187	978.9
1028.477	983.65
1028.766	961.73
1029.055	930.77
1029.344	940.03
1029.634	935.06
1029.923	928.05
1030.212	951.1
1030.501	952.01
1030.79	934.16
1031.078	937.09
1031.367	928.96
1031.656	909.75
1031.945	919.69
1032.233	895.97
1032.522	914.04
1032.81	915.4
1033.099	931.44
1033.387	882.18
1033.675	882.18
1033.963	883.31
1034.251	869.3
1034.54	863.88
1034.828	855.29
1035.116	854.61
1035.403	848.28
1035.691	843.76
1035.979	848.06
1036.267	831.33
1036.554	815.29
1036.842	808.51
1037.129	807.61
1037.417	808.74
1037.704	803.76
1037.992	805.12
1038.279	810.77
1038.566	796.98
1038.853	796.98
1039.14	796.98
