Data from hue_280_FLMS001491_00043.txt Node
Date: Tue Feb 07 15:55:19 GMT 2017
User: dcchb
Spectrometer: FLMS00149
Trigger mode: 0
Integration Time (sec): 2.000000E-2
Scans to average: 10
Electric dark correction enabled: true
Nonlinearity correction enabled: false
Boxcar width: 0
XAxis mode: Wavelengths
Number of Pixels in Spectrum: 2048
>>>>>Begin Spectral Data<<<<<
341.393	-1.71
341.776	-1.71
342.16	-1.71
342.543	-64.53
342.927	-52.1
343.31	-64.31
343.693	-61.59
344.077	-56.4
344.46	-79.45
344.843	-55.04
345.226	-41.26
345.61	-32.67
345.993	-14.14
346.376	-9.84
346.759	-2.16
347.142	36.48
347.525	40.55
347.908	51.4
348.291	73.54
348.674	94.33
349.057	120.55
349.44	135.46
349.823	130.49
350.206	155.8
350.588	190.38
350.971	212.52
351.354	206.42
351.737	242.35
352.119	250.26
352.502	236.25
352.884	254.33
353.267	273.31
353.65	283.26
354.032	286.87
354.414	275.57
354.797	310.37
355.179	299.53
355.562	309.7
355.944	336.14
356.326	314.44
356.709	323.71
357.091	303.37
357.473	327.77
357.855	320.99
358.238	330.94
358.62	324.16
359.002	328.9
359.384	337.49
359.766	325.51
360.148	346.76
360.53	326.64
360.912	334.55
361.294	310.83
361.676	333.2
362.057	322.35
362.439	323.25
362.821	331.84
363.203	326.42
363.584	335.46
363.966	298.62
364.348	297.49
364.729	317.83
365.111	306.08
365.493	331.62
365.874	317.15
366.256	324.16
366.637	323.25
367.019	323.71
367.4	297.27
367.781	315.34
368.163	324.16
368.544	266.98
368.925	283.48
369.306	308.79
369.688	307.66
370.069	301.79
370.45	293.88
370.831	302.69
371.212	288.9
371.593	307.44
371.974	322.35
372.355	284.61
372.736	325.06
373.117	331.39
373.498	294.1
373.879	313.99
374.26	299.98
374.641	297.04
375.021	302.69
375.402	300.43
375.783	320.32
376.163	314.44
376.544	313.31
376.925	303.82
377.305	329.81
377.686	335.91
378.066	314.67
378.447	308.11
378.827	328.23
379.208	333.2
379.588	333.42
379.968	306.98
380.349	330.71
380.729	333.42
381.109	340.88
381.489	311.96
381.87	330.03
382.25	338.4
382.63	332.07
383.01	320.77
383.39	336.36
383.77	327.77
384.15	321.67
384.53	335.91
384.91	340.2
385.29	326.64
385.67	337.27
386.049	334.55
386.429	326.87
386.809	343.59
387.189	337.27
387.568	344.95
387.948	329.13
388.328	357.6
388.707	360.99
389.087	330.03
389.466	354.44
389.846	355.57
390.225	348.79
390.605	345.63
390.984	358.28
391.363	357.38
391.743	356.02
392.122	356.93
392.501	363.48
392.881	374.78
393.26	369.58
393.639	350.37
394.018	371.61
394.397	392.18
394.776	375.46
395.155	384.72
395.534	390.6
395.913	382.46
396.292	391.05
396.671	391.5
397.05	379.07
397.429	386.08
397.808	376.13
398.186	372.97
398.565	375.46
398.944	391.28
399.323	390.6
399.701	396.02
400.08	392.86
400.458	379.3
400.837	410.26
401.215	401.22
401.594	408.22
401.972	398.73
402.351	397.83
402.729	428.11
403.107	444.61
403.486	430.82
403.864	426.53
404.242	417.94
404.62	425.4
404.999	426.75
405.377	435.12
405.755	453.87
406.133	455.68
406.511	417.94
406.889	460.88
407.267	443.7
407.645	453.42
408.023	477.15
408.401	469.01
408.779	491.84
409.156	480.76
409.534	479.41
409.912	483.7
410.29	486.64
410.667	496.58
411.045	510.82
411.422	497.49
411.8	487.77
412.178	514.21
412.555	520.31
412.933	527.99
413.31	545.4
413.687	565.96
414.065	572.74
414.442	574.1
414.819	560.54
415.197	545.4
415.574	586.07
415.951	572.97
416.328	600.76
416.705	605.73
417.082	598.95
417.46	595.34
417.837	615.22
418.214	607.99
418.591	629.69
418.967	627.43
419.344	639.63
419.721	662.23
420.098	651.16
420.475	672.4
420.852	671.49
421.228	679.86
421.605	689.35
421.982	672.62
422.358	690.25
422.735	719.4
423.111	711.94
423.488	742
423.864	740.64
424.241	747.88
424.617	769.57
424.994	762.79
425.37	757.37
425.746	748.55
426.123	780.64
426.499	775.67
426.875	773.41
427.251	820.42
427.627	850.25
428.003	809.12
428.379	870.81
428.756	843.69
429.132	858.61
429.507	885.73
429.883	884.82
430.259	880.3
430.635	895.44
431.011	906.52
431.387	923.01
431.763	964.37
432.138	917.14
432.514	971.15
432.89	951.03
433.265	984.93
433.641	992.16
434.016	1007.3
434.392	1005.95
434.767	1063.8
435.143	1032.84
435.518	1031.03
435.894	1097.47
436.269	1098.83
436.644	1098.6
437.02	1079.17
437.395	1122.56
437.77	1118.71
438.145	1136.34
438.52	1143.57
438.895	1158.26
439.271	1182.44
439.646	1221.54
440.021	1200.29
440.395	1226.06
440.77	1200.29
441.145	1224.7
441.52	1252.95
441.895	1223.8
442.27	1242.33
442.645	1268.99
443.019	1283
443.394	1295.66
443.769	1304.25
444.143	1314.19
444.518	1315.77
444.892	1325.49
445.267	1308.31
445.641	1326.84
446.016	1360.29
446.39	1348.99
446.764	1376.56
447.139	1345.83
447.513	1394.41
447.887	1402.77
448.262	1401.64
448.636	1399.16
449.01	1393.96
449.384	1415.2
449.758	1396.9
450.132	1429.67
450.506	1440.96
450.88	1458.37
451.254	1426.5
451.628	1450.91
452.002	1488.42
452.376	1465.37
452.75	1477.8
453.123	1504.24
453.497	1522.77
453.871	1515.77
454.244	1558.48
454.618	1572.03
454.992	1573.39
455.365	1574.75
455.739	1602.54
456.112	1610.9
456.486	1625.59
456.859	1638.25
457.232	1665.82
457.606	1646.16
457.979	1635.76
458.352	1687.29
458.725	1692.71
459.099	1710.34
459.472	1719.83
459.845	1725.7
460.218	1752.14
460.591	1758.24
460.964	1807.28
461.337	1825.14
461.71	1815.64
462.083	1838.24
462.456	1852.71
462.829	1856.32
463.201	1857.45
463.574	1888.41
463.947	1894.06
464.32	1933.16
464.692	1928.86
465.065	1985.58
465.438	1965.92
465.81	1985.81
466.183	2011.57
466.555	2084.79
466.928	2061.51
467.3	2058.8
467.672	2095.86
468.045	2115.75
468.417	2110.1
468.789	2089.99
469.161	2155.3
469.534	2189.65
469.906	2191.23
470.278	2238.46
470.65	2231.45
471.022	2235.97
471.394	2304.45
471.766	2322.75
472.138	2348.29
472.51	2377.66
472.882	2372.69
473.253	2431.45
473.625	2478.9
473.997	2483.65
474.369	2487.49
474.74	2527.49
475.112	2526.81
475.484	2543.08
475.855	2600.03
476.227	2609.3
476.598	2727.03
476.97	2711.89
477.341	2748.73
477.713	2765.68
478.084	2770.65
478.455	2833.92
478.827	2851.32
479.198	2903.98
479.569	2854.71
479.94	2960.02
480.311	2986.91
480.682	3055.39
481.053	3101.26
481.424	3128.6
481.795	3153.91
482.166	3203.4
482.537	3201.82
482.908	3245.89
483.279	3277.53
483.65	3309.39
484.021	3357.07
484.391	3381.03
484.762	3423.29
485.133	3468.71
485.503	3447.92
485.874	3520.68
486.244	3556.16
486.615	3580.8
486.985	3630.51
487.356	3641.13
487.726	3684.07
488.097	3755.71
488.467	3760.23
488.837	3828.25
489.207	3865.99
489.578	3866.89
489.948	3885.65
490.318	3921.35
490.688	3972.42
491.058	4011.52
491.428	4025.3
491.798	4067.34
492.168	4102.59
492.538	4140.55
492.908	4190.72
493.278	4187.11
493.648	4193.89
494.017	4267.33
494.387	4315.24
494.757	4345.75
495.126	4334.9
495.496	4353.43
495.866	4364.96
496.235	4387.78
496.605	4402.47
496.974	4461.45
497.344	4498.96
497.713	4505.74
498.082	4526.08
498.452	4584.61
498.821	4564.27
499.19	4566.98
499.559	4588.9
499.928	4595.68
500.298	4628.9
500.667	4649.47
501.036	4707.77
501.405	4673.87
501.774	4699.64
502.143	4740.54
502.512	4724.72
502.88	4780.09
503.249	4716.13
503.618	4806.53
503.987	4823.25
504.356	4834.32
504.724	4860.31
505.093	4845.4
505.462	4891.72
505.83	4891.95
506.199	4926.97
506.567	4954.77
506.936	4943.92
507.304	4997.26
507.672	5001.32
508.041	5022.57
508.409	5044.94
508.777	5003.36
509.145	5129.91
509.514	5077.25
509.882	5082
510.25	5116.12
510.618	5156.35
510.986	5108.21
511.354	5173.75
511.722	5202.67
512.09	5198.38
512.458	5197.02
512.826	5233.86
513.193	5257.36
513.561	5284.03
513.929	5263.69
514.297	5266.63
514.664	5294.2
515.032	5314.31
515.4	5313.18
515.767	5355.89
516.135	5375.32
516.502	5328.09
516.869	5400.86
517.237	5408.54
517.604	5327.64
517.972	5452.16
518.339	5461.88
518.706	5444.48
519.073	5426.4
519.44	5515.66
519.808	5477.69
520.175	5496.68
520.542	5588.88
520.909	5491.03
521.276	5496.23
521.643	5594.75
522.009	5596.34
522.376	5620.06
522.743	5648.99
523.11	5640.63
523.477	5665.49
523.843	5757.46
524.21	5725.15
524.577	5702.55
524.943	5795.88
525.31	5780.51
525.676	5814.18
526.043	5845.14
526.409	5855.31
526.776	5883.11
527.142	5876.1
527.508	5929.43
527.874	5982.09
528.241	5953.16
528.607	5999.49
528.973	6053.95
529.339	5990.9
529.705	6100.28
530.071	6055.53
530.437	6069.09
530.803	6087.62
531.169	6128.3
531.535	6135.76
531.901	6130.11
532.267	6151.35
532.632	6153.61
532.998	6213.72
533.364	6234.29
533.73	6239.03
534.095	6258.01
534.461	6294.85
534.826	6296.66
535.192	6304.79
535.557	6300.95
535.923	6289.2
536.288	6359.93
536.653	6341.63
537.019	6377.78
537.384	6360.84
537.749	6421.17
538.114	6398.35
538.479	6429.76
538.845	6473.6
539.21	6393.6
539.575	6453.94
539.94	6436.09
540.305	6520.15
540.67	6474.28
541.034	6535.97
541.399	6522.64
541.764	6528.74
542.129	6484.45
542.494	6543.66
542.858	6592.24
543.223	6575.97
543.587	6626.59
543.952	6561.06
544.316	6573.94
544.681	6626.37
545.045	6621.39
545.41	6659.36
545.774	6736.19
546.138	6675.4
546.503	6680.38
546.867	6696.87
547.231	6740.94
547.595	6721.96
547.959	6756.08
548.324	6716.76
548.688	6704.56
549.052	6762.41
549.416	6787.94
549.779	6776.64
550.143	6796.3
550.507	6804.67
550.871	6825.46
551.235	6824.55
551.599	6851.67
551.962	6857.32
552.326	6843.08
552.689	6901.39
553.053	6901.84
553.417	6912.01
553.78	6911.56
554.143	6863.87
554.507	6956.53
554.87	6939.58
555.234	6997.43
555.597	6943.19
555.96	6984.32
556.323	7014.38
556.686	7044.66
557.05	7006.47
557.413	7010.31
557.776	7051.89
558.139	7175.05
558.502	7086.01
558.865	7030.42
559.228	7146.35
559.59	7177.76
559.953	7196.97
560.316	7238.78
560.679	7241.49
561.041	7314.48
561.404	7256.63
561.767	7330.3
562.129	7264.54
562.492	7353.35
562.854	7357.65
563.217	7359.23
563.579	7368.72
563.941	7401.03
564.304	7443.74
564.666	7514.7
565.028	7510.86
565.39	7470.64
565.753	7522.61
566.115	7582.27
566.477	7607.36
566.839	7584.31
567.201	7670.63
567.563	7685.77
567.925	7708.6
568.287	7704.08
568.648	7706.11
569.01	7763.51
569.372	7829.72
569.734	7723.06
570.095	7886.67
570.457	7885.99
570.819	7874.92
571.18	7886.22
571.542	7950.17
571.903	7970.06
572.265	8021.13
572.626	8039.66
572.987	8022.03
573.349	8081.02
573.71	8079.21
574.071	8147.23
574.432	8172.31
574.794	8227.45
575.155	8149.26
575.516	8228.36
575.877	8284.17
576.238	8284.63
576.599	8308.58
576.96	8305.19
577.32	8360.56
577.681	8419.54
578.042	8485.98
578.403	8504.51
578.763	8550.38
579.124	8556.26
579.485	8568.46
579.845	8670.83
580.206	8710.6
580.566	8690.94
580.927	8796.25
581.287	8890.49
581.648	8857.04
582.008	8938.62
582.368	8952.63
582.728	9028.56
583.089	8996.25
583.449	9078.73
583.809	9124.15
584.169	9196.02
584.529	9190.14
584.889	9338.84
585.249	9326.86
585.609	9323.92
585.969	9419.51
586.329	9457.7
586.688	9467.19
587.048	9581.54
587.408	9574.76
587.768	9690.92
588.127	9719.39
588.487	9788.32
588.846	9893.85
589.206	9838.03
589.565	9999.61
589.925	9998.48
590.284	10061.53
590.643	10184.01
591.003	10246.84
591.362	10287.29
591.721	10361.63
592.08	10384.01
592.44	10526.6
592.799	10514.17
593.158	10579.48
593.517	10602.76
593.876	10644.11
594.235	10709.65
594.593	10816.09
594.952	10856.99
595.311	10878.46
595.67	10917.78
596.029	11053.37
596.387	11107.38
596.746	11223.76
597.104	11167.94
597.463	11268.73
597.822	11374.04
598.18	11310.31
598.538	11368.39
598.897	11439.12
599.255	11407.03
599.613	11631.43
599.972	11574.71
600.33	11643.41
600.688	11630.3
601.046	11721.15
601.404	11900.12
601.762	11776.29
602.12	11937.41
602.478	11839.79
602.836	11994.36
603.194	11907.36
603.552	11974.02
603.91	12016.73
604.268	12083.62
604.625	12082.04
604.983	12237.29
605.341	12176.05
605.698	12261.7
606.056	12275.93
606.413	12230.06
606.771	12267.35
607.128	12419.21
607.485	12373.56
607.843	12396.61
608.2	12508.24
608.557	12534.23
608.914	12534.46
609.272	12533.1
609.629	12703.04
609.986	12668.47
610.343	12696.04
610.7	12770.16
611.057	12796.37
611.414	12736.49
611.771	12761.57
612.127	12929.93
612.484	12823.72
612.841	12861.68
613.198	12865.07
613.554	12894.9
613.911	13022.81
614.267	12952.75
614.624	12982.58
614.98	13059.64
615.337	13147.1
615.693	13017.16
616.05	13092.18
616.406	13255.12
616.762	13206.08
617.118	13123.82
617.475	13171.5
617.831	13212.63
618.187	13266.87
618.543	13215.34
618.899	13388.67
619.255	13393.87
619.611	13314.55
619.967	13331.95
620.323	13412.63
620.678	13346.87
621.034	13409.69
621.39	13428.22
621.746	13400.2
622.101	13534.21
622.457	13380.54
622.812	13445.4
623.168	13507.99
623.523	13499.18
623.879	13519.74
624.234	13392.29
624.589	13476.35
624.945	13499.86
625.3	13543.7
625.655	13475.22
626.01	13606.29
626.365	13548.22
626.72	13455.34
627.075	13524.26
627.43	13538.05
627.785	13488.78
628.14	13506.41
628.495	13525.84
628.85	13598.39
629.205	13535.79
629.559	13552.28
629.914	13533.98
630.269	13462.12
630.623	13480.87
630.978	13404.94
631.332	13510.03
631.687	13506.86
632.041	13445.62
632.396	13492.85
632.75	13464.15
633.104	13527.43
633.459	13394.32
633.813	13413.76
634.167	13366.08
634.521	13421.21
634.875	13389.8
635.229	13392.52
635.583	13357.49
635.937	13379.86
636.291	13307.77
636.645	13411.05
636.999	13378.73
637.352	13373.53
637.706	13249.69
638.06	13247.21
638.413	13276.59
638.767	13245.17
639.121	13296.92
639.474	13239.75
639.828	13140.54
640.181	13242.69
640.534	13271.39
640.888	13149.58
641.241	13108.45
641.594	13253.76
641.947	13217.83
642.301	13136.7
642.654	13178.96
643.007	13201.79
643.36	13129.7
643.713	13136.48
644.066	13245.63
644.419	13047.21
644.771	13074.33
645.124	12892.19
645.477	12916.82
645.83	12843.6
646.182	12757.5
646.535	12765.86
646.888	12806.99
647.24	12685.19
647.593	12740.78
647.945	12763.15
648.298	12726.54
648.65	12726.09
649.002	12695.81
649.355	12749.14
649.707	12732.42
650.059	12811.29
650.411	13026.87
650.763	13042.24
651.115	13103.71
651.467	13038.4
651.819	13046.54
652.171	13077.5
652.523	13059.42
652.875	13018.51
653.227	12949.14
653.578	13048.12
653.93	13133.76
654.282	12971.51
654.633	12955.69
654.985	13000.44
655.337	13025.52
655.688	13016.71
656.039	13113.2
656.391	13013.32
656.742	13032.52
657.094	13024.84
657.445	13072.75
657.796	13112.3
658.147	13049.47
658.498	13095.57
658.849	13047.44
659.2	13057.16
659.551	12992.07
659.902	13145.97
660.253	13098.29
660.604	13046.99
660.955	13056.48
661.306	13095.35
661.656	13071.85
662.007	13063.94
662.358	13158.85
662.708	13120.21
663.059	13089.7
663.409	13056.48
663.76	13162.92
664.11	13151.39
664.461	13190.26
664.811	13146.65
665.161	13115.01
665.511	13105.52
665.862	13168.34
666.212	13185.51
666.562	13264.61
666.912	13216.02
667.262	13133.76
667.612	13158.62
667.962	13121.56
668.312	13207.21
668.662	13277.04
669.011	13129.47
669.361	13197.94
669.711	13120.43
670.06	13167.89
670.41	13143.26
670.76	13123.37
671.109	13191.84
671.459	13092.86
671.808	13119.98
672.157	13117.95
672.507	13064.16
672.856	13056.25
673.205	13061.22
673.554	13072.3
673.904	13048.8
674.253	13038.85
674.602	13051.28
674.951	12895.8
675.3	12785.53
675.649	13064.61
675.998	13036.82
676.346	12938.97
676.695	13002.47
677.044	12892.19
677.393	12929.7
677.741	12909.59
678.09	12873.43
678.438	12792.3
678.787	12844.96
679.135	12841.57
679.484	12827.11
679.832	12812.64
680.181	12771.06
680.529	12777.62
680.877	12791.4
681.225	12734.23
681.573	12854.22
681.922	12732.19
682.27	12589.82
682.618	12679.77
682.966	12643.16
683.314	12603.38
683.661	12623.5
684.009	12566.77
684.357	12551.41
684.705	12529.03
685.053	12517.06
685.4	12502.14
685.748	12427.12
686.095	12473.9
686.443	12336.05
686.79	12360.68
687.138	12401.13
687.485	12397.74
687.832	12266.44
688.18	12294.24
688.527	12247.01
688.874	12240.91
689.221	12130.18
689.568	12134.92
689.915	12153.68
690.262	12121.36
690.609	12059.44
690.956	11996.17
691.303	11953
691.65	11930.63
691.997	11860.58
692.344	11832.1
692.69	11756.17
693.037	11760.24
693.383	11667.81
693.73	11713.01
694.077	11610.87
694.423	11628.72
694.769	11594.82
695.116	11573.81
695.462	11587.36
695.808	11427.82
696.155	11456.29
696.501	11351.44
696.847	11353.47
697.193	11379.69
697.539	11320.93
697.885	11167.04
698.231	11193.93
698.577	11143.53
698.923	11181.5
699.269	11098.56
699.614	11054.27
699.96	10970.88
700.306	11007.27
700.651	10919.13
700.997	10860.6
701.342	10907.16
701.688	10909.42
702.033	10786.93
702.379	10807.27
702.724	10715.3
703.069	10754.84
703.415	10671.68
703.76	10708.52
704.105	10648.86
704.45	10565.02
704.795	10478.24
705.14	10448.86
705.485	10502.2
705.83	10397.11
706.175	10398.7
706.52	10401.18
706.865	10294.07
707.209	10326.38
707.554	10249.32
707.899	10234.41
708.243	10182.88
708.588	10231.24
708.932	10150.11
709.277	10115.77
709.621	10144.01
709.966	10003.9
710.31	10023.56
710.654	10035.99
710.998	9995.77
711.342	9978.14
711.687	9963.9
712.031	9884.58
712.375	9863.57
712.719	9850.91
713.063	9785.6
713.407	9916.45
713.75	9851.59
714.094	9827.41
714.438	9747.64
714.782	9762.55
715.125	9690.69
715.469	9632.84
715.812	9688.21
716.156	9602.56
716.499	9627.19
716.843	9614.99
717.186	9608.43
717.53	9621.31
717.873	9646.4
718.216	9602.11
718.559	9526.18
718.902	9465.39
719.246	9575.21
719.589	9444.37
719.932	9433.3
720.275	9422.22
720.617	9450.7
720.96	9460.64
721.303	9420.64
721.646	9458.16
721.989	9369.12
722.331	9381.1
722.674	9392.17
723.016	9404.6
723.359	9408.44
723.701	9350.81
724.044	9319.4
724.386	9284.83
724.729	9281.21
725.071	9308.78
725.413	9326.18
725.755	9292.51
726.097	9333.41
726.439	9325.28
726.782	9241.66
727.124	9281.66
727.465	9289.8
727.807	9295
728.149	9233.3
728.491	9289.57
728.833	9282.79
729.175	9202.34
729.516	9291.38
729.858	9259.74
730.199	9255.9
730.541	9240.76
730.882	9140.88
731.224	9259.29
731.565	9229.46
731.906	9200.99
732.248	9193.08
732.589	9196.47
732.93	9172.06
733.271	9174.09
733.612	9194.21
733.953	9165.06
734.294	9162.12
734.635	9229.91
734.976	9173.42
735.317	9190.82
735.658	9236.01
735.999	9184.72
736.339	9173.19
736.68	9255.22
737.021	9176.35
737.361	9118.96
737.702	9256.13
738.042	9154.21
738.383	9184.04
738.723	9245.73
739.063	9227.43
739.404	9256.8
739.744	9257.03
740.084	9365.28
740.424	9336.35
740.764	9330.02
741.104	9349.46
741.444	9271.95
741.784	9277.37
742.124	9312.85
742.464	9350.14
742.804	9368.67
743.143	9363.24
743.483	9437.14
743.823	9454.31
744.162	9385.84
744.502	9566.63
744.841	9494.54
745.181	9523.92
745.52	9583.12
745.86	9685.27
746.199	9677.13
746.538	9755.77
746.877	9713.29
747.216	9755.77
747.556	9810.46
747.895	9871.48
748.234	9867.18
748.573	9966.39
748.911	10033.06
749.25	10036.22
749.589	10105.14
749.928	10236.67
750.267	10353.72
750.605	10322.31
750.944	10363.44
751.283	10377.91
751.621	10539.93
751.96	10630.1
752.298	10713.04
752.636	10895.41
752.975	10854.73
753.313	10961.62
753.651	11094.95
753.989	11183.53
754.327	11323.64
754.666	11293.36
755.004	11543.75
755.342	11626.46
755.679	11734.25
756.017	11803.63
756.355	12022.16
756.693	12085.66
757.031	12253.34
757.368	12384.63
757.706	12438.42
758.044	12643.61
758.381	12720.44
758.719	12807.22
759.056	12943.71
759.394	13119.3
759.731	13202.69
760.068	13275.91
760.405	13445.62
760.743	13648.1
761.08	13737.36
761.417	13933.07
761.754	14110.46
762.091	14324.24
762.428	14330.12
762.765	14449.44
763.102	14651.69
763.438	14742.76
763.775	14858.69
764.112	15049.42
764.449	15151.79
764.785	15289.19
765.122	15299.81
765.458	15476.08
765.795	15666.58
766.131	15729.85
766.467	15804.88
766.804	15936.63
767.14	16015.5
767.476	16150.18
767.812	16228.82
768.148	16380.91
768.485	16468.37
768.821	16400.8
769.157	16532.09
769.492	16716.72
769.828	16867.68
770.164	16767.12
770.5	16872.65
770.836	17042.36
771.171	16972.08
771.507	17054.57
771.842	17011.18
772.178	17162.81
772.513	17312.64
772.849	17237.84
773.184	17285.07
773.519	17396.03
773.855	17349.93
774.19	17449.81
774.525	17476.25
774.86	17454.1
775.195	17597.15
775.53	17563.7
775.865	17549.47
776.2	17490.49
776.535	17506.31
776.87	17654.55
777.205	17569.81
777.539	17550.37
777.874	17749.69
778.209	17604.38
778.543	17641.89
778.878	17574.55
779.212	17656.13
779.547	17575.68
779.881	17604.61
780.215	17596.25
780.55	17791.04
780.884	17655
781.218	17691.84
781.552	17703.36
781.886	17648.67
782.22	17499.07
782.554	17545.4
782.888	17472.41
783.222	17393.54
783.556	17398.96
783.889	17365.07
784.223	17294.33
784.557	17360.77
784.89	17477.38
785.224	17457.94
785.557	17273.99
785.891	17337.72
786.224	17324.62
786.558	17299.76
786.891	17178.18
787.224	17081.01
787.557	17225.63
787.891	17166.88
788.224	17159.65
788.557	17146.54
788.89	17110.61
789.223	17041.91
789.556	16973.89
789.888	17003.72
790.221	16892.31
790.554	16837.85
790.887	16875.59
791.219	16757.4
791.552	16838.75
791.884	16639.44
792.217	16664.75
792.549	16660
792.882	16472.89
793.214	16497.74
793.546	16602.6
793.879	16385.2
794.211	16392.89
794.543	16451.64
794.875	16323.74
795.207	16481.47
795.539	16388.82
795.871	16334.13
796.203	16266.11
796.535	16150.86
796.867	16176.4
797.198	16089.85
797.53	16102.27
797.862	16006.01
798.193	16094.36
798.525	15990.86
798.856	16002.39
799.188	15872.9
799.519	15821.6
799.85	15676.75
800.182	15714.26
800.513	15776.63
800.844	15578.9
801.175	15658.9
801.506	15662.51
801.837	15599.24
802.168	15553.14
802.499	15533.7
802.83	15394.5
803.161	15369.64
803.491	15419.58
803.822	15326.93
804.153	15352.46
804.483	15137.33
804.814	15204.44
805.145	15117.44
805.475	15142.75
805.805	15106.37
806.136	15134.62
806.466	15109.76
806.796	15033.15
807.126	14959.93
807.457	14814.17
807.787	14851.91
808.117	14894.85
808.447	14837.45
808.777	14895.3
809.107	14786.15
809.436	14779.37
809.766	14721.07
810.096	14617.12
810.426	14614.4
810.755	14642.65
811.085	14517.91
811.414	14524.01
811.744	14470.45
812.073	14495.99
812.403	14382.55
812.732	14342.32
813.061	14349.1
813.39	14271.81
813.719	14126.73
814.049	14333.28
814.378	14354.75
814.707	14252.83
815.036	14261.42
815.365	14147.98
815.693	14009
816.022	14052.61
816.351	14016.68
816.68	13930.35
817.008	13988.66
817.337	13830.7
817.665	13856.91
817.994	13976.91
818.322	13884.71
818.651	13803.58
818.979	13791.83
819.307	13780.75
819.636	13774.65
819.964	13676.8
820.292	13693.75
820.62	13706.86
820.948	13695.11
821.276	13710.02
821.604	13681.77
821.932	13636.8
822.259	13736.23
822.587	13596.35
822.915	13665.5
823.243	13736.69
823.57	13658.72
823.898	13674.77
824.225	13560.19
824.553	13639.74
824.88	13628.44
825.207	13557.71
825.535	13657.37
825.862	13708.66
826.189	13585.96
826.516	13595.22
826.843	13668.44
827.17	13620.31
827.497	13669.12
827.824	13701.89
828.151	13750.02
828.478	13671.6
828.805	13783.47
829.131	13620.08
829.458	13644.03
829.785	13565.39
830.111	13631.6
830.438	13641.32
830.764	13663.02
831.09	13639.74
831.417	13500.99
831.743	13602.45
832.069	13602.68
832.395	13538.05
832.722	13641.77
833.048	13488.78
833.374	13475.22
833.7	13510.03
834.026	13523.81
834.351	13501.21
834.677	13506.86
835.003	13550.93
835.329	13555.9
835.654	13583.24
835.98	13396.58
836.306	13451.72
836.631	13387.77
836.956	13482
837.282	13463.93
837.607	13340.77
837.932	13300.54
838.258	13335.79
838.583	13324.72
838.908	13243.14
839.233	13226.87
839.558	13214.67
839.883	13202.92
840.208	13128.79
840.533	13161.79
840.858	13208.57
841.182	13223.48
841.507	13096.03
841.832	13007.67
842.156	13034.33
842.481	13071.85
842.805	13039.3
843.13	12936.48
843.454	12956.82
843.778	12893.09
844.103	12871.17
844.427	12942.58
844.751	12849.03
845.075	12859.2
845.399	12796.82
845.723	12648.58
846.047	12656.94
846.371	12591.41
846.695	12628.69
847.019	12549.37
847.343	12468.92
847.666	12375.37
847.99	12321.36
848.313	12417.17
848.637	12243.17
848.96	12221.02
849.284	12254.47
849.607	12142.38
849.931	12182.83
850.254	12039.33
850.577	11918.66
850.9	11894.25
851.223	11873.91
851.546	11829.17
851.869	11689.51
852.192	11759.11
852.515	11647.93
852.838	11615.84
853.161	11618.1
853.483	11515.05
853.806	11546.91
854.129	11524.77
854.451	11433.47
854.774	11447.26
855.096	11332.91
855.419	11410.65
855.741	11364.09
856.063	11294.72
856.385	11327.26
856.708	11125.23
857.03	11188.73
857.352	11144.21
857.674	11126.13
857.996	11113.25
858.318	10977.89
858.64	11049.3
858.961	10906.48
859.283	10937.66
859.605	10837.78
859.926	10882.98
860.248	10843.66
860.57	10831.45
860.891	10836.65
861.212	10773.37
861.534	10776.54
861.855	10734.96
862.176	10755.75
862.498	10698.35
862.819	10762.3
863.14	10722.3
863.461	10643.66
863.782	10615.64
864.103	10602.08
864.424	10537.22
864.745	10541.29
865.065	10540.39
865.386	10485.7
865.707	10446.38
866.027	10537.45
866.348	10475.3
866.668	10420.62
866.989	10449.54
867.309	10318.92
867.63	10352.82
867.95	10450.22
868.27	10259.94
868.59	10348.98
868.91	10281.41
869.23	10387.62
869.55	10188.31
869.87	10272.6
870.19	10237.57
870.51	10213.16
870.83	10196.67
871.15	10195.09
871.469	10189.89
871.789	10202.54
872.109	10134.75
872.428	10116.44
872.748	10160.74
873.067	10100.85
873.386	10205.03
873.706	10120.06
874.025	10035.77
874.344	10050.46
874.663	10036.45
874.982	9967.97
875.301	9959.84
875.62	9932.72
875.939	9946.73
876.258	9962.55
876.577	9963
876.896	9912.38
877.214	9852.04
877.533	9894.98
877.852	9862.89
878.17	9832.16
878.489	9859.5
878.807	9796.9
879.125	9756.45
879.444	9795.32
879.762	9708.54
880.08	9755.77
880.398	9753.97
880.716	9785.15
881.034	9688.43
881.352	9677.13
881.67	9627.42
881.988	9664.93
882.306	9635.33
882.624	9617.7
882.941	9482.79
883.259	9525.72
883.577	9484.14
883.894	9464.71
884.212	9540.86
884.529	9516.01
884.846	9398.95
885.164	9435.33
885.481	9367.76
885.798	9393.3
886.115	9337.48
886.432	9349.46
886.75	9302.23
887.067	9293.19
887.383	9224.94
887.7	9276.92
888.017	9222.91
888.334	9225.17
888.651	9202.12
888.967	9170.93
889.284	9079.41
889.6	9053.65
889.917	9033.08
890.233	9049.13
890.55	9019.3
890.866	8994.21
891.182	8960.99
891.498	8957.38
891.815	8884.16
892.131	8808.23
892.447	8850.04
892.763	8788.34
893.079	8778.4
893.395	8784.73
893.71	8688.91
894.026	8709.02
894.342	8603.49
894.657	8699.08
894.973	8633.77
895.289	8593.09
895.604	8627.44
895.92	8597.84
896.235	8430.39
896.55	8489.14
896.865	8479.88
897.181	8442.36
897.496	8468.58
897.811	8358.75
898.126	8345.19
898.441	8348.35
898.756	8304.29
899.071	8288.69
899.386	8252.31
899.7	8204.63
900.015	8129.6
900.33	8050.73
900.644	8091.19
900.959	8120.79
901.273	8046.89
901.588	8014.13
901.902	7974.35
902.216	7956.95
902.531	7916.5
902.845	7912.43
903.159	7819.1
903.473	7842.6
903.787	7791.53
904.101	7756.05
904.415	7760.12
904.729	7713.79
905.042	7687.13
905.356	7625.21
905.67	7600.58
905.984	7669.05
906.297	7537.3
906.611	7571.2
906.924	7503.18
907.237	7551.54
907.551	7479.22
907.864	7452.78
908.177	7386.8
908.491	7451.88
908.804	7386.12
909.117	7319.23
909.43	7224.77
909.743	7247.37
910.056	7236.97
910.368	7229.06
910.681	7158.55
910.994	7140.93
911.307	7085.79
911.619	7032.68
911.932	7011.67
912.244	6984.55
912.557	6991.78
912.869	7014.6
913.181	6976.86
913.494	6903.42
913.806	6893.02
914.118	6855.29
914.43	6821.84
914.742	6807.38
915.054	6721.5
915.366	6789.75
915.678	6773.93
915.99	6690.32
916.302	6641.05
916.613	6639.47
916.925	6596.54
917.236	6606.7
917.548	6529.87
917.859	6573.26
918.171	6456.88
918.482	6416.88
918.794	6385.02
919.105	6460.49
919.416	6338.24
919.727	6378.91
920.038	6320.84
920.349	6316.09
920.66	6291.91
920.971	6270.22
921.282	6250.1
921.593	6195.87
921.903	6167.62
922.214	6159.48
922.525	6120.16
922.835	6083.55
923.146	6067.74
923.456	6077.91
923.767	6056.66
924.077	5998.13
924.387	5940.51
924.697	5965.82
925.008	5963.11
925.318	5888.31
925.628	5894.41
925.938	5879.72
926.248	5832.26
926.558	5787.29
926.867	5726.05
927.177	5785.71
927.487	5736.67
927.796	5728.76
928.106	5734.64
928.416	5671.59
928.725	5678.59
929.034	5584.81
929.344	5643.11
929.653	5597.69
929.962	5554.76
930.271	5526.06
930.581	5530.57
930.89	5458.49
931.199	5465.27
931.508	5455.77
931.817	5460.07
932.125	5386.4
932.434	5403.8
932.743	5365.61
933.051	5322.44
933.36	5280.41
933.669	5235.22
933.977	5236.57
934.286	5230.24
934.594	5215.78
934.902	5206.29
935.21	5171.49
935.519	5185.95
935.827	5166.29
936.135	5110.02
936.443	5082.45
936.751	5079.06
937.059	5063.47
937.367	5028.89
937.674	5057.14
937.982	5035.22
938.29	4928.1
938.597	4945.73
938.905	4838.62
939.213	4871.84
939.52	4846.07
939.827	4901.89
940.135	4855.56
940.442	4813.31
940.749	4802.23
941.056	4790.48
941.363	4765.17
941.67	4813.98
941.977	4711.84
942.284	4654.44
942.591	4648.34
942.898	4584.84
943.205	4636.36
943.511	4592.52
943.818	4600.2
944.125	4564.72
944.431	4533.99
944.738	4537.61
945.044	4484.95
945.35	4514.1
945.657	4434.78
945.963	4459.87
946.269	4456.7
946.575	4410.83
946.881	4378.29
947.187	4386.2
947.493	4366.31
947.799	4318.63
948.105	4336.48
948.41	4252.64
948.716	4298.29
949.022	4278.4
949.327	4248.35
949.633	4203.38
949.938	4257.16
950.244	4232.08
950.549	4124.28
950.854	4142.59
951.16	4111.4
951.465	4129.48
951.77	4076.15
952.075	4082.25
952.38	4056.26
952.685	4063.49
952.99	3991.41
953.294	4014
953.599	3987.11
953.904	3965.19
954.209	3932.42
954.513	3939.43
954.818	3894.23
955.122	3925.19
955.426	3854.91
955.731	3935.14
956.035	3876.83
956.339	3864.4
956.643	3841.35
956.948	3814.24
957.252	3788.93
957.556	3785.08
957.86	3785.76
958.163	3755.71
958.467	3707.57
958.771	3719.55
959.075	3703.5
959.378	3670.06
959.682	3661.02
959.985	3649.04
960.289	3631.19
960.592	3628.48
960.896	3593.9
961.199	3613.79
961.502	3572.89
961.805	3563.85
962.108	3557.07
962.411	3538.76
962.714	3512.32
963.017	3490.18
963.32	3531.08
963.623	3495.83
963.926	3511.42
964.228	3418.99
964.531	3424.64
964.833	3386.45
965.136	3383.74
965.438	3389.61
965.741	3375.15
966.043	3345.1
966.345	3357.07
966.648	3369.73
966.95	3314.81
967.252	3293.12
967.554	3290.41
967.856	3290.18
968.158	3256.96
968.46	3261.71
968.761	3263.06
969.063	3214.25
969.365	3220.35
969.666	3196.4
969.968	3167.47
970.269	3148.72
970.571	3146.68
970.872	3176.51
971.174	3127.02
971.475	3103.52
971.776	3110.07
972.077	3082.28
972.378	3073.46
972.679	3065.55
972.98	3064.88
973.281	3024.65
973.582	2982.17
973.883	3001.38
974.183	3016.74
974.484	2982.85
974.785	2957.76
975.085	2958.44
975.386	2933.36
975.686	2922.28
975.986	2875.28
976.287	2875.28
976.587	2854.04
976.887	2846.8
977.187	2903.07
977.487	2858.78
977.787	2802.29
978.087	2829.18
978.387	2786.01
978.687	2788.27
978.987	2770.87
979.286	2740.59
979.586	2765.9
979.885	2743.98
980.185	2730.2
980.484	2685.9
980.784	2707.6
981.083	2685
981.382	2689.07
981.682	2691.55
981.981	2650.2
982.28	2625.34
982.579	2641.84
982.878	2609.07
983.177	2650.88
983.475	2588.05
983.774	2581.95
984.073	2591.9
984.372	2548.51
984.67	2547.15
984.969	2535.63
985.267	2547.38
985.566	2525.23
985.864	2516.87
986.162	2513.25
986.461	2484.78
986.759	2470.54
987.057	2467.83
987.355	2450.43
987.653	2431.22
987.951	2445.23
988.249	2418.34
988.547	2425.8
988.844	2413.14
989.142	2419.92
989.44	2375.63
989.737	2315.74
990.035	2354.39
990.332	2311
990.63	2356.42
990.927	2290.43
991.224	2317.78
991.521	2299.47
991.819	2299.47
992.116	2261.06
992.413	2273.26
992.71	2272.81
993.006	2223.09
993.303	2213.6
993.6	2213.15
993.897	2189.87
994.193	2234.62
994.49	2192.13
994.787	2188.97
995.083	2170.89
995.379	2122.53
995.676	2202.75
995.972	2145.13
996.268	2122.75
996.565	2111.68
996.861	2090.44
997.157	2117.11
997.453	2085.69
997.749	2053.83
998.044	2068.29
998.34	2047.95
998.636	2042.31
998.932	2046.6
999.227	2023.55
999.523	2038.01
999.818	2012.7
1000.114	1980.61
1000.409	1995.3
1000.704	2003.44
1001	1973.15
1001.295	1934.96
1001.59	1929.09
1001.885	1951.23
1002.18	1920.27
1002.475	1914.17
1002.77	1929.31
1003.065	1884.12
1003.359	1874.85
1003.654	1882.31
1003.949	1870.11
1004.243	1824.23
1004.538	1863.1
1004.832	1819.49
1005.127	1847.96
1005.421	1812.48
1005.715	1813.38
1006.009	1796.44
1006.304	1773.61
1006.598	1776.78
1006.892	1764.35
1007.186	1733.61
1007.48	1752.14
1007.773	1723.67
1008.067	1726.83
1008.361	1719.15
1008.655	1700.62
1008.948	1676.44
1009.242	1697.91
1009.535	1695.87
1009.829	1667.4
1010.122	1646.61
1010.415	1631.24
1010.708	1649.32
1011.001	1630.11
1011.295	1632.6
1011.588	1602.99
1011.881	1589.21
1012.173	1565.03
1012.466	1570.23
1012.759	1558.48
1013.052	1540.85
1013.344	1577.91
1013.637	1550.57
1013.93	1553.28
1014.222	1522.77
1014.514	1530
1014.807	1545.82
1015.099	1509.66
1015.391	1469.21
1015.683	1511.47
1015.976	1490.91
1016.268	1492.94
1016.56	1465.6
1016.851	1445.94
1017.143	1445.94
1017.435	1433.51
1017.727	1425.15
1018.018	1410.46
1018.31	1402.77
1018.602	1423.56
1018.893	1363.45
1019.185	1370.46
1019.476	1352.61
1019.767	1370.91
1020.058	1348.54
1020.35	1354.87
1020.641	1324.81
1020.932	1341.31
1021.223	1308.77
1021.514	1292.72
1021.804	1306.05
1022.095	1291.36
1022.386	1291.14
1022.677	1300.18
1022.967	1284.81
1023.258	1268.09
1023.548	1250.69
1023.839	1246.17
1024.129	1227.64
1024.419	1197.58
1024.709	1226.73
1025	1221.54
1025.29	1188.32
1025.58	1209.33
1025.87	1199.62
1026.16	1185.83
1026.449	1188.09
1026.739	1182.44
1027.029	1148.54
1027.319	1136.34
1027.608	1115.1
1027.898	1142.67
1028.187	1124.14
1028.477	1119.84
1028.766	1110.8
1029.055	1102.89
1029.344	1105.38
1029.634	1104.25
1029.923	1103.57
1030.212	1074.19
1030.501	1077.81
1030.79	1043.46
1031.078	1070.81
1031.367	1032.16
1031.656	1022.22
1031.945	1057.92
1032.233	1053.86
1032.522	1013.63
1032.81	1016.12
1033.099	996.23
1033.387	1037.13
1033.675	1022.67
1033.963	999.85
1034.251	1019.73
1034.54	974.08
1034.828	986.06
1035.116	995.55
1035.403	969.11
1035.691	942
1035.979	950.81
1036.267	975.67
1036.554	946.51
1036.842	958.04
1037.129	938.83
1037.417	941.77
1037.704	943.35
1037.992	911.71
1038.279	927.76
1038.566	882.34
1038.853	882.34
1039.14	882.34
