Data from hue_50_FLMS001491_43.txt Node
Date: Mon Feb 06 15:10:11 GMT 2017
User: dcchb
Spectrometer: FLMS00149
Trigger mode: 0
Integration Time (sec): 2.000000E-2
Scans to average: 10
Electric dark correction enabled: true
Nonlinearity correction enabled: false
Boxcar width: 0
XAxis mode: Wavelengths
Number of Pixels in Spectrum: 2048
>>>>>Begin Spectral Data<<<<<
341.393	-11.96
341.776	-11.96
342.16	-11.96
342.543	-69.59
342.927	-64.16
343.31	-72.3
343.693	-74.79
344.077	-55.8
344.46	-50.15
344.843	-49.02
345.226	-39.53
345.61	-21.23
345.993	-20.32
346.376	-7.67
346.759	12.44
347.142	13.57
347.525	35.27
347.908	68.26
348.291	61.93
348.674	76.17
349.057	123.17
349.44	130.63
349.823	162.95
350.206	163.85
350.588	192.1
350.971	219.44
351.354	244.3
351.737	242.72
352.119	265.54
352.502	252.44
352.884	274.81
353.267	291.53
353.65	304.64
354.032	297.86
354.414	308.03
354.797	297.18
355.179	327.46
355.562	335.37
355.944	313.23
356.326	339.67
356.709	342.6
357.091	338.31
357.473	376.73
357.855	324.98
358.238	344.41
358.62	338.54
359.002	333.11
359.384	353.45
359.766	336.73
360.148	337.18
360.53	354.81
360.912	328.14
361.294	339.44
361.676	345.09
362.057	339.67
362.439	314.13
362.821	328.82
363.203	331.08
363.584	305.77
363.966	321.14
364.348	331.98
364.729	308.71
365.111	320.46
365.493	323.4
365.874	329.95
366.256	340.8
366.637	323.4
367.019	303.06
367.4	314.58
367.781	320.01
368.163	321.36
368.544	305.99
368.925	303.28
369.306	310.97
369.688	306.45
370.069	290.85
370.45	315.26
370.831	301.48
371.212	312.77
371.593	320.46
371.974	329.72
372.355	300.12
372.736	314.58
373.117	297.18
373.498	323.85
373.879	309.16
374.26	320.91
374.641	322.27
375.021	324.98
375.402	310.74
375.783	330.4
376.163	346.45
376.544	331.53
376.925	315.49
377.305	343.51
377.686	324.07
378.066	332.21
378.447	320.23
378.827	315.71
379.208	338.54
379.588	346.9
379.968	327.46
380.349	349.61
380.729	325.88
381.109	316.39
381.489	324.53
381.87	341.47
382.25	348.93
382.63	331.98
383.01	341.02
383.39	326.79
383.77	347.35
384.15	333.11
384.53	358.2
384.91	336.28
385.29	338.54
385.67	326.56
386.049	338.76
386.429	341.25
386.809	333.34
387.189	365.43
387.568	357.52
387.948	334.02
388.328	345.32
388.707	364.07
389.087	356.84
389.466	346.45
389.846	340.57
390.225	345.99
390.605	352.55
390.984	370.4
391.363	351.64
391.743	351.64
392.122	357.97
392.501	354.58
392.881	363.62
393.26	374.92
393.639	378.76
394.018	361.59
394.397	355.94
394.776	367.01
395.155	373.79
395.534	376.95
395.913	364.3
396.292	364.07
396.671	378.54
397.05	371.76
397.429	389.83
397.808	376.28
398.186	384.18
398.565	371.08
398.944	383.51
399.323	371.53
399.701	380.8
400.08	389.16
400.458	390.29
400.837	425.54
401.215	381.25
401.594	398.87
401.972	393.9
402.351	379.44
402.729	398.2
403.107	399.55
403.486	385.54
403.864	410.62
404.242	396.84
404.62	410.17
404.999	398.42
405.377	390.74
405.755	405.88
406.133	386.44
406.511	410.17
406.889	406.56
407.267	426.67
407.645	413.56
408.023	402.49
408.401	423.28
408.779	383.96
409.156	410.4
409.534	423.28
409.912	442.49
410.29	433.45
410.667	426.22
411.045	410.62
411.422	427.8
411.8	433.22
412.178	444.97
412.555	442.49
412.933	438.65
413.31	445.2
413.687	454.47
414.065	485.2
414.442	453.11
414.819	461.47
415.197	440
415.574	452.43
415.951	467.57
416.328	449.27
416.705	464.41
417.082	465.76
417.46	475.26
417.837	480
418.214	470.28
418.591	489.94
418.967	469.83
419.344	473
419.721	473.45
420.098	463.96
420.475	481.81
420.852	501.92
421.228	493.56
421.605	501.02
421.982	495.14
422.358	496.72
422.735	498.76
423.111	481.13
423.488	497.18
423.864	501.92
424.241	518.19
424.617	503.28
424.994	525.88
425.37	511.64
425.746	515.03
426.123	538.08
426.499	512.09
426.875	547.12
427.251	515.93
427.627	526.55
428.003	553.9
428.379	543.28
428.756	568.36
429.132	530.62
429.507	543.05
429.883	551.19
430.259	560.45
430.635	568.59
431.011	547.8
431.387	594.35
431.763	592.09
432.138	572.2
432.514	601.58
432.89	595.03
433.265	593.44
433.641	571.07
434.016	624.18
434.392	620.56
434.767	608.81
435.143	595.7
435.518	626.89
435.894	613.33
436.269	640
436.644	610.85
437.02	620.79
437.395	642.94
437.77	657.4
438.145	651.3
438.52	637.74
438.895	653.33
439.271	671.41
439.646	687.91
440.021	655.36
440.395	646.32
440.77	676.61
441.145	659.66
441.52	701.01
441.895	679.09
442.27	678.19
442.645	704.63
443.019	689.04
443.394	706.89
443.769	715.48
444.143	689.26
444.518	709.6
444.892	705.76
445.267	737.4
445.641	716.61
446.016	719.09
446.39	722.93
446.764	731.97
447.139	723.16
447.513	708.92
447.887	739.43
448.262	734.68
448.636	750.5
449.01	748.92
449.384	758.19
449.758	762.03
450.132	768.58
450.506	777.39
450.88	776.49
451.254	783.72
451.628	755.02
452.002	797.73
452.376	814.68
452.75	809.48
453.123	803.38
453.497	814.23
453.871	827.79
454.244	843.61
454.618	849.26
454.992	860.1
455.365	841.12
455.739	843.38
456.112	862.14
456.486	873.89
456.859	889.48
457.232	905.3
457.606	889.93
457.979	889.71
458.352	905.08
458.725	942.14
459.099	947.33
459.472	935.81
459.845	966.09
460.218	951.85
460.591	950.27
460.964	983.72
461.337	1014.9
461.71	1036.82
462.083	1010.38
462.456	1006.09
462.829	1032.08
463.201	1054.22
463.574	1046.99
463.947	1066.2
464.32	1089.03
464.692	1092.64
465.065	1119.98
465.438	1135.58
465.81	1149.14
466.183	1161.79
466.555	1172.19
466.928	1182.58
467.3	1170.83
467.672	1228.46
468.045	1242.92
468.417	1262.35
468.789	1261.9
469.161	1274.1
469.534	1307.32
469.906	1335.35
470.278	1343.26
470.65	1369.7
471.022	1402.24
471.394	1422.8
471.766	1434.78
472.138	1468.22
472.51	1486.08
472.882	1524.04
473.253	1555.23
473.625	1578.73
473.997	1641.1
474.369	1657.15
474.74	1679.97
475.112	1718.39
475.484	1759.52
475.855	1792.28
476.227	1801.32
476.598	1885.39
476.97	1967.42
477.341	2018.04
477.713	2044.03
478.084	2073.41
478.455	2154.08
478.827	2205.15
479.198	2292.38
479.569	2324.47
479.94	2396.79
480.311	2456.45
480.682	2525.15
481.053	2596.33
481.424	2674.52
481.795	2730.34
482.166	2809.43
482.537	2888.75
482.908	2976.66
483.279	3039.93
483.65	3139.14
484.021	3292.36
484.391	3314.96
484.762	3392.24
485.133	3474.05
485.503	3561.73
485.874	3736.87
486.244	3798.11
486.615	3952.9
486.985	3982.51
487.356	4109.06
487.726	4209.17
488.097	4330.75
488.467	4458.2
488.837	4630.85
489.207	4699.78
489.578	4845.76
489.948	4907
490.318	5074.91
490.688	5103.61
491.058	5344.05
491.428	5389.7
491.798	5528.91
492.168	5701.33
492.538	5838.73
492.908	5948.33
493.278	6121.89
493.648	6095.22
494.017	6306.97
494.387	6446.4
494.757	6565.49
495.126	6695.21
495.496	6741.53
495.866	6980.62
496.235	7053.16
496.605	7232.14
496.974	7307.84
497.344	7445.47
497.713	7559.36
498.082	7679.36
498.452	7827.15
498.821	7932.23
499.19	8003.42
499.559	8151.44
499.928	8190.08
500.298	8408.61
500.667	8496.74
501.036	8649.73
501.405	8691.54
501.774	8785.09
502.143	8955.48
502.512	8999.55
502.88	9101.47
503.249	9213.78
503.618	9345.76
503.987	9435.92
504.356	9548.24
504.724	9674.11
505.093	9686.99
505.462	9841.56
505.83	10000.66
506.199	10049.02
506.567	10212.4
506.936	10336.01
507.304	10503.24
507.672	10462.79
508.041	10594.76
508.409	10734.87
508.777	10919.05
509.145	10972.83
509.514	11057.8
509.882	11213.73
510.25	11239.27
510.618	11372.6
510.986	11409.88
511.354	11570.56
511.722	11653.49
512.09	11843.77
512.458	11801.74
512.826	11899.14
513.193	11973.26
513.561	12075.63
513.929	12275.17
514.297	12381.16
514.664	12356.98
515.032	12509.06
515.4	12622.96
515.767	12726.01
516.135	12819.79
516.502	12806.68
516.869	13016.4
517.237	13061.59
517.604	13153.79
517.972	13264.75
518.339	13396.05
518.706	13444.41
519.073	13467.68
519.44	13671.97
519.808	13800.1
520.175	13751.52
520.542	13978.18
520.909	14050.49
521.276	14173.43
521.643	14270.37
522.009	14436.24
522.376	14569.35
522.743	14518.73
523.11	14683.7
523.477	14862.9
523.843	14946.29
524.21	15110.8
524.577	15217.47
524.943	15254.53
525.31	15345.15
525.676	15475.77
526.043	15646.83
526.409	15723.89
526.776	15840.05
527.142	15980.61
527.508	15951.91
527.874	16066.03
528.241	16215.18
528.607	16202.75
528.973	16443.42
529.339	16482.97
529.705	16616.3
530.071	16796.18
530.437	16725.9
530.803	16932.22
531.169	17015.84
531.535	17095.84
531.901	17134.03
532.267	17122.28
532.632	17296.96
532.998	17379.44
533.364	17464.19
533.73	17512.1
534.095	17722.94
534.461	17705.31
534.826	17818.75
535.192	17819.43
535.557	17997.51
535.923	17983.27
536.288	18076.37
536.653	18254.45
537.019	18167.22
537.384	18341
537.749	18413.54
538.114	18350.04
538.479	18504.16
538.845	18573.09
539.21	18639.52
539.575	18700.77
539.94	18808.33
540.305	18824.6
540.67	18915.67
541.034	18945.96
541.399	19078.16
541.764	19088.33
542.129	19141.66
542.494	19202.9
542.858	19361.09
543.223	19277.02
543.587	19532.38
543.952	19505.04
544.316	19555.43
544.681	19541.42
545.045	19744.58
545.41	19834.75
545.774	19840.85
546.138	19866.84
546.503	19901.41
546.867	19886.5
547.231	20138.92
547.595	20152.25
547.959	20228.86
548.324	20257.79
548.688	20336.43
549.052	20354.06
549.416	20573.94
549.779	20508.85
550.143	20463.66
550.507	20761.5
550.871	20774.38
551.235	20691.67
551.599	21001.04
551.962	21077.65
552.326	21022.74
552.689	21135.73
553.053	21020.93
553.417	21283.97
553.78	21531.88
554.143	21348.38
554.507	21487.13
554.87	21569.16
555.234	21748.14
555.597	21556.51
555.96	21803.51
556.323	21866.56
556.686	21802.6
557.05	22088.02
557.413	22167.79
557.776	22093.67
558.139	22273.55
558.502	22290.05
558.865	22479.65
559.228	22654.11
559.59	22595.13
559.953	22615.92
560.316	23013.42
560.679	22809.81
561.041	23002.57
561.404	23057.49
561.767	23256.58
562.129	23189.23
562.492	23395.78
562.854	23541.32
563.217	23454.99
563.579	23628.55
563.941	23701.31
564.304	23812.27
564.666	23952.6
565.028	23972.49
565.39	24090
565.753	24299.04
566.115	24245.03
566.477	24451.12
566.839	24440.95
567.201	24554.85
567.563	24606.82
567.925	24885.91
568.287	24809.31
568.648	24790.77
569.01	25069.86
569.372	25211.78
569.734	25081.16
570.095	25244.55
570.457	25301.27
570.819	25607.02
571.18	25576.74
571.542	25643.18
571.903	25811.76
572.265	25820.58
572.626	25903.51
572.987	26072.55
573.349	26143.73
573.71	26279.78
574.071	26277.74
574.432	26435.93
574.794	26677.28
575.155	26608.81
575.516	26530.16
575.877	26749.82
576.238	26829.14
576.599	26948.91
576.96	26957.5
577.32	27093.77
577.681	27234.33
578.042	27405.17
578.403	27324.95
578.763	27416.92
579.124	27493.98
579.485	27737.82
579.845	27855.1
580.206	27752.73
580.566	27856.91
580.927	27945.04
581.287	27956.79
581.648	28035.66
582.008	28315.2
582.368	28317.24
582.728	28408.08
583.089	28441.53
583.449	28545.93
583.809	28680.16
584.169	28799.03
584.529	28818.47
584.889	29225.69
585.249	28943.21
585.609	29075.63
585.969	29240.6
586.329	29376.64
586.688	29350.2
587.048	29388.85
587.408	29547.49
587.768	29635.17
588.127	29653.25
588.487	29675.84
588.846	30099.56
589.206	29895.05
589.565	29957.42
589.925	30162.38
590.284	30258.88
590.643	30346.33
591.003	30518.31
591.362	30708.36
591.721	30744.97
592.08	30756.27
592.44	30981.8
592.799	31096.15
593.158	31053.66
593.517	31093.43
593.876	31210.49
594.235	31304.95
594.593	31386.99
594.952	31522.8
595.311	31442.8
595.67	31620.2
596.029	31902.9
596.387	31982.45
596.746	32171.6
597.104	31969.34
597.463	31960.3
597.822	32197.13
598.18	32104.03
598.538	32214.53
598.897	32484.81
599.255	32287.75
599.613	32862.88
599.972	32710.79
600.33	32790.11
600.688	32773.39
601.046	32954.18
601.404	33172.93
601.762	33127.28
602.12	33259.7
602.478	33247.73
602.836	33388.06
603.194	33292.25
603.552	33482.98
603.91	33492.47
604.268	33604.1
604.625	33579.7
604.983	33722.07
605.341	33718.9
605.698	33952.79
606.056	34013.58
606.413	33906.24
606.771	34134.03
607.128	34228.49
607.485	34054.03
607.843	34224.65
608.2	34405.66
608.557	34525.21
608.914	34472.1
609.272	34643.62
609.629	34790.96
609.986	34849.27
610.343	34732.43
610.7	35043.16
611.057	35018.3
611.414	35010.84
611.771	35115.93
612.127	35266.43
612.484	35382.13
612.841	35407.44
613.198	35258.3
613.554	35468.69
613.911	35713.43
614.267	35741.22
614.624	35773.99
614.98	35726.31
615.337	35861.22
615.693	35880.88
616.05	35817.83
616.406	36298.49
616.762	36062.57
617.118	36102.79
617.475	36075
617.831	36199.06
618.187	36249.68
618.543	36353.41
618.899	36499.39
619.255	36462.78
619.611	36557.24
619.967	36577.58
620.323	36762.66
620.678	36438.83
621.034	36542.78
621.39	36741.42
621.746	36708.65
622.101	37036.1
622.457	36794.75
622.812	36980.51
623.168	36968.31
623.523	36962.88
623.879	37133.73
624.234	36886.05
624.589	37156.55
624.945	37173.95
625.3	37168.53
625.655	37144.8
626.01	37334.63
626.365	37365.36
626.72	37134.18
627.075	37063.22
627.43	37226.61
627.785	37140.73
628.14	37302.76
628.495	37397
628.85	37274.97
629.205	37102.32
629.559	37317
629.914	37090.34
630.269	37433.61
630.623	37232.26
630.978	37118.13
631.332	37320.16
631.687	37380.73
632.041	37257.34
632.396	37192.93
632.75	37335.53
633.104	37313.84
633.459	37066.61
633.813	37072.71
634.167	37093.05
634.521	37116.1
634.875	37147.74
635.229	37171.01
635.583	37026.61
635.937	36965.82
636.291	36864.13
636.645	37017.8
636.999	36895.99
637.352	37072.94
637.706	36873.39
638.06	36985.26
638.413	36785.71
638.767	36861.19
639.121	36985.71
639.474	36631.59
639.828	36742.1
640.181	36839.05
640.534	36745.26
640.888	36731.25
641.241	36618.49
641.594	36733.74
641.947	36798.37
642.301	36654.64
642.654	36681.08
643.007	36622.1
643.36	36666.17
643.713	36656.9
644.066	36637.69
644.419	36518.6
644.771	36182.79
645.124	36024.38
645.477	35902.57
645.83	35616.93
646.182	35519.76
646.535	35326.54
646.888	35557.95
647.24	35314.34
647.593	35512.98
647.945	35484.5
648.298	35179.88
648.65	35093.78
649.002	35108.7
649.355	35290.16
649.707	35288.8
650.059	35411.96
650.411	35743.93
650.763	35743.26
651.115	36187.76
651.467	36036.35
651.819	36076.13
652.171	35936.92
652.523	35975.57
652.875	35943.93
653.227	35755.46
653.578	36023.47
653.93	35968.11
654.282	35616.93
654.633	35710.49
654.985	35809.02
655.337	35737.61
655.688	35854.21
656.039	35904.38
656.391	35488.12
656.742	35695.57
657.094	35734.67
657.445	35854.66
657.796	35699.41
658.147	35625.29
658.498	35490.38
658.849	35749.36
659.2	35703.03
659.551	35569.93
659.902	35704.39
660.253	35559.98
660.604	35633.65
660.955	35509.81
661.306	35581
661.656	35628.68
662.007	35488.57
662.358	35421.23
662.708	35552.53
663.059	35490.61
663.409	35294
663.76	35549.81
664.11	35438.18
664.461	35425.98
664.811	35571.73
665.161	35456.71
665.511	35421.68
665.862	35394.79
666.212	35413.32
666.562	35532.87
666.912	35475.24
667.262	35307.56
667.612	35440.66
667.962	35473.21
668.312	35297.17
668.662	35526.99
669.011	35364.73
669.361	35353.21
669.711	35303.04
670.06	35306.88
670.41	35073.67
670.76	35280.22
671.109	35299.2
671.459	35209.48
671.808	35217.17
672.157	35242.03
672.507	35117.06
672.856	35144.85
673.205	35151.41
673.554	35390.04
673.904	35170.61
674.253	35269.6
674.602	35067.57
674.951	34660.8
675.3	34463.74
675.649	35066.89
675.998	34956.84
676.346	35024.18
676.695	35227.56
677.044	34732.21
677.393	34945.31
677.741	34909.83
678.09	34967.91
678.438	34880.23
678.787	34932.88
679.135	34855.37
679.484	34644.3
679.832	34773.11
680.181	34676.39
680.529	34840.23
680.877	34580.57
681.225	34575.83
681.573	34658.54
681.922	34468.94
682.27	34427.81
682.618	34462.38
682.966	34437.98
683.314	34390.75
683.661	34270.75
684.009	34089.06
684.357	33939.23
684.705	33990.53
685.053	33967.26
685.4	33951.66
685.748	33741.27
686.095	33844.1
686.443	33774.95
686.79	33697.21
687.138	33763.65
687.485	33633.25
687.832	33543.99
688.18	33573.59
688.527	33319.36
688.874	33400.04
689.221	33434.16
689.568	33459.93
689.915	33151.91
690.262	33238.01
690.609	33092.7
690.956	32946.04
691.303	32978.13
691.65	32732.71
691.997	32793.73
692.344	32637.35
692.69	32619.95
693.037	32598.25
693.383	32469.89
693.73	32503.34
694.077	32259.5
694.423	32313.06
694.769	32231.93
695.116	32157.13
695.462	32024.48
695.808	31975.44
696.155	32060.41
696.501	31750.37
696.847	31768.44
697.193	31617.71
697.539	31778.61
697.885	31346.08
698.231	31339.98
698.577	31291.62
698.923	31493.42
699.269	31129.82
699.614	31058.63
699.96	30973.21
700.306	30974.79
700.651	30896.6
700.997	30778.19
701.342	30664.97
701.688	30645.76
702.033	30653.67
702.379	30583.39
702.724	30380.01
703.069	30474.47
703.415	30051.43
703.76	30172.33
704.105	30181.59
704.45	30236.96
704.795	29936.63
705.14	29923.07
705.485	29858.89
705.83	29739.57
706.175	29880.13
706.52	29694.15
706.865	29559.01
707.209	29545.23
707.554	29531.44
707.899	29473.59
708.243	29248.28
708.588	29340.94
708.932	29123.54
709.277	29122.41
709.621	28949.08
709.966	28911.12
710.31	29082.19
710.654	28784.57
710.998	28843.55
711.342	28790.44
711.687	28776.66
712.031	28658.47
712.375	28456.89
712.719	28518.59
713.063	28418.93
713.407	28545.7
713.75	28331.92
714.094	28304.58
714.438	28223.23
714.782	28216.22
715.125	28058.03
715.469	28090.57
715.812	27921.54
716.156	27840.41
716.499	27871.15
716.843	27946.17
717.186	27619.17
717.53	27870.02
717.873	27818.94
718.216	27709.57
718.559	27568.33
718.902	27357.71
719.246	27469.35
719.589	27472.96
719.932	27279.3
720.275	27423.47
720.617	27321.33
720.96	27237.94
721.303	27175.8
721.646	27160.43
721.989	27031.39
722.331	27078.62
722.674	26983.03
723.016	26994.78
723.359	26976.93
723.701	27000.66
724.044	26851.51
724.386	26763.38
724.729	26866.88
725.071	26730.38
725.413	26755.24
725.755	26668.69
726.097	26570.84
726.439	26496.27
726.782	26517.51
727.124	26599.99
727.465	26438.42
727.807	26375.14
728.149	26370.17
728.491	26357.06
728.833	26408.36
729.175	26188.7
729.516	26195.03
729.858	26166.56
730.199	26178.53
730.541	26059.89
730.882	26163.85
731.224	26134.92
731.565	25969.95
731.906	25953.46
732.248	25907.13
732.589	25809.05
732.93	25847.02
733.271	25763.18
733.612	25727.25
733.953	25907.13
734.294	25624.43
734.635	25578.78
734.976	25624.2
735.317	25419.01
735.658	25564.31
735.999	25533.35
736.339	25345.11
736.68	25539.46
737.021	25484.77
737.361	25312.34
737.702	25406.13
738.042	25389.18
738.383	25367.48
738.723	25303.08
739.063	25221.5
739.404	25263.76
739.744	25113.48
740.084	25060.6
740.424	25051.33
740.764	25014.27
741.104	25113.93
741.444	24981.05
741.784	24766.82
742.124	24919.81
742.464	24773.6
742.804	24899.92
743.143	24708.07
743.483	24733.38
743.823	24606.15
744.162	24666.48
744.502	24678.46
744.841	24570.44
745.181	24583.32
745.52	24574.96
745.86	24567.5
746.199	24487.51
746.538	24438.69
746.877	24393.27
747.216	24432.59
747.556	24427.85
747.895	24373.16
748.234	24250.45
748.573	24230.79
748.911	24170.45
749.25	24186.72
749.589	24052.94
749.928	24144.92
750.267	24165.48
750.605	24012.26
750.944	23918.93
751.283	23952.38
751.621	23859.27
751.96	23732.95
752.298	23770.24
752.636	23761.2
752.975	23525.27
753.313	23624.93
753.651	23870.12
753.989	23632.61
754.327	23641.2
754.666	23393.07
755.004	23606.63
755.342	23453.63
755.679	23266.3
756.017	23237.82
756.355	23355.11
756.693	23259.97
757.031	23308.55
757.368	23066.3
757.706	23097.26
758.044	22978.39
758.381	22998.28
758.719	22843.03
759.056	22864.72
759.394	22768.46
759.731	22678.29
760.068	22606.43
760.405	22537.05
760.743	22457.05
761.08	22512.87
761.417	22344.51
761.754	22321.24
762.091	22332.76
762.428	22208.47
762.765	22018.87
763.102	22111.75
763.438	22022.94
763.775	21980
764.112	21982.71
764.449	21964.41
764.785	21838.99
765.122	21717.41
765.458	21610.07
765.795	21551.31
766.131	21530.52
766.467	21501.6
766.804	21269.29
767.14	21223.18
767.476	21224.99
767.812	21126.24
768.148	21152.68
768.485	20996.52
768.821	20912.46
769.157	20830.88
769.492	20780.71
769.828	20781.39
770.164	20483.09
770.5	20544.11
770.836	20579.13
771.171	20464.11
771.507	20439.48
771.842	20327.84
772.178	20263.44
772.513	20084.91
772.849	20120.16
773.184	20081.97
773.519	20060.73
773.855	19879.27
774.19	19837.23
774.525	19815.54
774.86	19763.11
775.195	19635.88
775.53	19497.81
775.865	19575.32
776.2	19389.79
776.535	19285.38
776.87	19219.62
777.205	19254.2
777.539	19171.71
777.874	19218.27
778.209	18893.75
778.543	18899.4
778.878	18903.25
779.212	18757.04
779.547	18827.09
779.881	18812.4
780.215	18632.97
780.55	18634.78
780.884	18564.27
781.218	18440.66
781.552	18508.68
781.886	18402.47
782.22	18222.81
782.554	18198.18
782.888	18007.22
783.222	17898.07
783.556	17891.3
783.889	17954.8
784.223	17738.3
784.557	17727.01
784.89	17776.5
785.224	17645.2
785.557	17569.5
785.891	17608.82
786.224	17529.04
786.558	17447.01
786.891	17249.73
787.224	17280.01
787.557	17193.01
787.891	17137.42
788.224	17197.75
788.557	17089.51
788.89	17045.44
789.223	16957.76
789.556	16891.77
789.888	16888.16
790.221	16739.69
790.554	16666.02
790.887	16579.01
791.219	16541.5
791.552	16445.01
791.884	16477.55
792.217	16311.68
792.549	16320.04
792.882	16249.76
793.214	16144.22
793.546	16168.18
793.879	16072.36
794.211	15923.89
794.543	16067.39
794.875	16000.05
795.207	15959.14
795.539	15886.6
795.871	15817.45
796.203	15743.1
796.535	15646.61
796.867	15679.83
797.198	15455.88
797.53	15466.5
797.862	15338.14
798.193	15514.18
798.525	15337.24
798.856	15424.69
799.188	15199.39
799.519	15200.29
799.85	15030.35
800.182	15161.2
800.513	15029
800.844	14902.67
801.175	15065.15
801.506	15006.85
801.837	14819.51
802.168	14830.36
802.499	14853.86
802.83	14762.11
803.161	14726.86
803.491	14678.05
803.822	14634.66
804.153	14606.86
804.483	14433.76
804.814	14424.72
805.145	14438.05
805.475	14390.14
805.805	14335.91
806.136	14349.24
806.466	14364.16
806.796	14262.69
807.126	14141.79
807.457	14162.58
807.787	14157.38
808.117	14066.76
808.447	14042.36
808.777	14008.23
809.107	14006.88
809.436	13965.52
809.766	13917.61
810.096	13827
810.426	13843.72
810.755	13784.06
811.085	13793.55
811.414	13712.42
811.744	13622.03
812.073	13599.88
812.403	13666.77
812.732	13536.16
813.061	13509.49
813.39	13472.88
813.719	13421.81
814.049	13446.44
814.378	13394.01
814.707	13412.54
815.036	13376.39
815.365	13260.23
815.693	13150.85
816.022	13154.02
816.351	13161.48
816.68	13152.66
817.008	13101.36
817.337	13006.68
817.665	13002.38
817.994	12951.76
818.322	12963.29
818.651	12935.95
818.979	12854.59
819.307	12971.2
819.636	12903.63
819.964	12724.65
820.292	12865.66
820.62	12754.93
820.948	12778.44
821.276	12792.67
821.604	12764.65
821.932	12770.53
822.259	12789.73
822.587	12725.56
822.915	12746.8
823.243	12726.46
823.57	12723.52
823.898	12714.26
824.225	12632.22
824.553	12636.74
824.88	12616.86
825.207	12669.06
825.535	12649.17
825.862	12654.14
826.189	12653.69
826.516	12683.3
826.843	12702.73
827.17	12659.34
827.497	12650.3
827.824	12559.23
828.151	12696.63
828.478	12598.33
828.805	12646.69
829.131	12591.1
829.458	12592.9
829.785	12565.79
830.111	12605.56
830.438	12594.94
830.764	12587.93
831.09	12601.72
831.417	12575.73
831.743	12582.73
832.069	12616.86
832.395	12520.14
832.722	12591.55
833.048	12568.05
833.374	12577.76
833.7	12474.04
834.026	12515.62
834.351	12564.88
834.677	12472
835.003	12515.17
835.329	12540.02
835.654	12461.61
835.98	12433.81
836.306	12401.72
836.631	12347.26
836.956	12459.35
837.282	12427.71
837.607	12249.86
837.932	12302.06
838.258	12345.23
838.583	12267.04
838.908	12288.73
839.233	12279.24
839.558	12246.47
839.883	12222.74
840.208	12200.37
840.533	12130.54
840.858	12178.68
841.182	12162.41
841.507	12125.57
841.832	12066.82
842.156	12043.54
842.481	12063.88
842.805	11992.02
843.13	11923.77
843.454	11890.32
843.778	11897.55
844.103	11825.92
844.427	11798.35
844.751	11888.29
845.075	11770.1
845.399	11770.78
845.723	11719.03
846.047	11666.37
846.371	11582.08
846.695	11562.42
847.019	11556.32
847.343	11462.09
847.666	11399.71
847.99	11368.53
848.313	11343.44
848.637	11212.37
848.96	11336.89
849.284	11281.07
849.607	11147.07
849.931	11071.14
850.254	11058.25
850.577	11022.55
850.9	10901.42
851.223	10962.21
851.546	10935.09
851.869	10788.66
852.192	10855.1
852.515	10773.97
852.838	10753.4
853.161	10644.48
853.483	10613.29
853.806	10621.43
854.129	10677.93
854.451	10497.59
854.774	10531.71
855.096	10446.07
855.419	10479.96
855.741	10418.05
856.063	10399.29
856.385	10347.31
856.708	10305.51
857.03	10201.78
857.352	10245.62
857.674	10221.89
857.996	10215.56
858.318	10116.13
858.64	10211.05
858.961	10078.17
859.283	10078.39
859.605	10028
859.926	10148.45
860.248	10011.5
860.57	9987.32
860.891	9944.61
861.212	9901.22
861.534	9884.95
861.855	9883.37
862.176	9819.87
862.498	9858.29
862.819	9865.29
863.14	9810.6
863.461	9803.82
863.782	9752.07
864.103	9823.48
864.424	9710.04
864.745	9738.52
865.065	9669.14
865.386	9652.42
865.707	9692.41
866.027	9648.12
866.348	9632.53
866.668	9617.39
866.989	9545.3
867.309	9498.97
867.63	9562.25
867.95	9542.36
868.27	9424.85
868.59	9509.59
868.91	9458.97
869.23	9427.56
869.55	9439.77
869.87	9449.71
870.19	9406.55
870.51	9399.77
870.83	9427.34
871.15	9357.73
871.469	9302.59
871.789	9374.68
872.109	9346.44
872.428	9282.26
872.748	9223.27
873.067	9221.69
873.386	9291.97
873.706	9259.88
874.025	9262.37
874.344	9217.62
874.663	9164.97
874.982	9242.03
875.301	9187.57
875.62	9109.61
875.939	9135.37
876.258	9105.31
876.577	9062.6
876.896	9067.12
877.214	9042.71
877.533	9067.12
877.852	9058.53
878.17	9007.23
878.489	8969.27
878.807	8986.22
879.125	9025.77
879.444	8955.26
879.762	8959.78
880.08	8884.3
880.398	8858.76
880.716	8929.04
881.034	8866.22
881.352	8842.04
881.67	8815.15
881.988	8882.94
882.306	8823.06
882.624	8794.59
882.941	8756.39
883.259	8748.71
883.577	8664.65
883.894	8739.67
884.212	8662.16
884.529	8718.88
884.846	8584.2
885.164	8592.56
885.481	8621.03
885.798	8604.08
886.115	8596.85
886.432	8524.08
886.75	8532.9
887.067	8531.32
887.383	8452.9
887.7	8463.07
888.017	8404.31
888.334	8449.51
888.651	8405.67
888.967	8360.02
889.284	8333.81
889.6	8357.08
889.917	8284.54
890.233	8279.8
890.55	8269.4
890.866	8275.05
891.182	8224.2
891.498	8177.43
891.815	8195.05
892.131	8103.3
892.447	8124.32
892.763	8101.95
893.079	8033.02
893.395	8079.12
893.71	8041.61
894.026	8016.07
894.342	7964.78
894.657	7946.25
894.973	7935.62
895.289	7890.65
895.604	7923.42
895.92	7830.77
896.235	7859.24
896.55	7907.38
896.865	7743.54
897.181	7755.52
897.496	7771.11
897.811	7648.17
898.126	7674.39
898.441	7662.41
898.756	7628.74
899.071	7588.29
899.386	7574.73
899.7	7579.48
900.015	7510.55
900.33	7466.94
900.644	7453.6
900.959	7413.38
901.273	7413.6
901.588	7328.18
901.902	7305.58
902.216	7306.04
902.531	7271.01
902.845	7280.27
903.159	7268.75
903.473	7140.39
903.787	7143.78
904.101	7158.47
904.415	7073.5
904.729	7070.11
905.042	7079.83
905.356	7021.07
905.67	7035.31
905.984	7004.8
906.297	6989.66
906.611	6950.34
906.924	6964.35
907.237	6942.88
907.551	6886.84
907.864	6844.13
908.177	6884.35
908.491	6799.16
908.804	6787.86
909.117	6766.84
909.43	6730.46
909.743	6622.66
910.056	6689.78
910.368	6669.22
910.681	6602.78
910.994	6543.12
911.307	6565.72
911.619	6514.19
911.932	6525.49
912.244	6463.57
912.557	6428.77
912.869	6424.25
913.181	6414.99
913.494	6372.73
913.806	6353.97
914.118	6321.43
914.43	6337.25
914.742	6283.69
915.054	6284.82
915.366	6227.2
915.678	6191.72
915.99	6124.6
916.302	6132.28
916.613	6134.77
916.925	6091.38
917.236	6059.74
917.548	6044.15
917.859	6025.84
918.171	5980.42
918.482	5960.08
918.794	5891.38
919.105	5902.23
919.416	5880.09
919.727	5876.02
920.038	5895.23
920.349	5861.1
920.66	5789.01
920.971	5796.02
921.282	5785.85
921.593	5742.01
921.903	5704.72
922.214	5731.16
922.525	5649.81
922.835	5657.94
923.146	5598.96
923.456	5615.23
923.767	5577.04
924.077	5558.96
924.387	5570.26
924.697	5464.28
925.008	5539.98
925.318	5481
925.628	5478.06
925.938	5463.37
926.248	5389.7
926.558	5386.09
926.867	5360.1
927.177	5341.79
927.487	5266.09
927.796	5282.36
928.106	5279.2
928.416	5234.68
928.725	5243.72
929.034	5195.81
929.344	5187.67
929.653	5185.19
929.962	5079.43
930.271	5086.21
930.581	5127.56
930.89	5056.38
931.199	4984.52
931.508	5004.4
931.817	4986.55
932.125	4980.9
932.434	4918.08
932.743	4923.05
933.051	4876.27
933.36	4887.34
933.669	4876.5
933.977	4839.21
934.286	4794.69
934.594	4797.63
934.902	4775.26
935.21	4705.2
935.519	4779.32
935.827	4727.35
936.135	4694.13
936.443	4645.09
936.751	4643.73
937.059	4670.4
937.367	4643.28
937.674	4591.98
937.982	4629.04
938.29	4570.52
938.597	4542.49
938.905	4527.8
939.213	4508.82
939.52	4474.25
939.827	4519.9
940.135	4435.15
940.442	4423.4
940.749	4439.22
941.056	4434.25
941.363	4374.36
941.67	4406.45
941.977	4313.57
942.284	4332.33
942.591	4300.47
942.898	4251.43
943.205	4253.91
943.511	4236.74
943.818	4241.94
944.125	4188.83
944.431	4151.54
944.738	4195.84
945.044	4143.63
945.35	4149.74
945.657	4097.08
945.963	4090.98
946.269	4050.08
946.575	4089.17
946.881	4065.9
947.187	4017.31
947.493	4024.54
947.799	4014.37
948.105	4006.91
948.41	3948.16
948.716	3940.25
949.022	3904.54
949.327	3947.71
949.633	3914.71
949.938	3881.27
950.244	3876.52
950.549	3875.17
950.854	3836.75
951.16	3805.79
951.465	3759.01
951.77	3783.42
952.075	3784.32
952.38	3754.72
952.685	3740.25
952.99	3703.19
953.294	3709.07
953.599	3735.74
953.904	3708.17
954.209	3673.14
954.513	3662.74
954.818	3651.9
955.122	3591.78
955.426	3609.41
955.731	3554.95
956.035	3566.47
956.339	3520.15
956.643	3526.93
956.948	3504.33
957.252	3516.53
957.556	3502.97
957.86	3481.73
958.163	3484.67
958.467	3462.52
958.771	3419.81
959.075	3409.87
959.378	3380.49
959.682	3371
959.985	3360.83
960.289	3333.71
960.592	3357.67
960.896	3353.37
961.199	3306.82
961.502	3280.15
961.805	3264.56
962.108	3239.25
962.411	3244.9
962.714	3203.09
963.017	3194.28
963.32	3182.76
963.623	3161.74
963.926	3213.04
964.228	3159.71
964.531	3157.9
964.833	3192.92
965.136	3121.51
965.438	3140.27
965.741	3086.71
966.043	3073.61
966.345	3055.75
966.648	3066.37
966.95	3041.06
967.252	3057.33
967.554	2998.58
967.856	3019.82
968.158	2989.09
968.46	2999.94
968.761	2939.82
969.063	2967.62
969.365	2929.65
969.666	2954.74
969.968	2918.58
970.269	2941.63
970.571	2919.03
970.872	2910.22
971.174	2861.63
971.475	2856.66
971.776	2872.03
972.077	2844.23
972.378	2814.4
972.679	2808.98
972.98	2794.06
973.281	2808.53
973.582	2750.68
973.883	2788.42
974.183	2774.63
974.484	2771.47
974.785	2774.18
975.085	2727.17
975.386	2724.46
975.686	2718.81
975.986	2671.36
976.287	2664.35
976.587	2659.15
976.887	2658.25
977.187	2642.2
977.487	2620.28
977.787	2593.39
978.087	2606.05
978.387	2603.11
978.687	2571.02
978.987	2580.96
979.286	2565.14
979.586	2521.08
979.885	2550
980.185	2539.16
980.484	2507.29
980.784	2470.01
981.083	2474.07
981.382	2493.28
981.682	2492.6
981.981	2486.28
982.28	2453.51
982.579	2444.02
982.878	2455.09
983.177	2426.62
983.475	2428.88
983.774	2387.75
984.073	2373.74
984.372	2391.59
984.67	2406.73
984.969	2359.27
985.267	2349.56
985.566	2352.27
985.864	2340.74
986.162	2326.51
986.461	2326.51
986.759	2293.97
987.057	2269.11
987.355	2269.33
987.653	2241.31
987.951	2241.31
988.249	2253.51
988.547	2251.71
988.844	2220.52
989.142	2236.57
989.44	2223.68
989.737	2232.95
990.035	2194.98
990.332	2150.92
990.63	2148.21
990.927	2148.88
991.224	2119.28
991.521	2100.3
991.819	2115.21
992.116	2097.36
992.413	2108.43
992.71	2084.93
993.006	2114.31
993.303	2079.73
993.6	2065.95
993.897	2054.42
994.193	2041.77
994.49	2056.68
994.787	2043.8
995.083	2026.63
995.379	2005.39
995.676	2023.69
995.972	1985.5
996.268	1969
996.565	1984.14
996.861	1972.39
997.157	1964.93
997.453	1927.2
997.749	1941.21
998.044	1910.02
998.34	1953.64
998.636	1887.2
998.932	1888.33
999.227	1883.35
999.523	1893.98
999.818	1840.19
1000.114	1852.17
1000.409	1871.38
1000.704	1845.84
1001	1855.11
1001.295	1795.9
1001.59	1839.74
1001.885	1815.79
1002.18	1801.32
1002.475	1792.06
1002.77	1800.42
1003.065	1749.8
1003.359	1783.47
1003.654	1757.26
1003.949	1747.76
1004.243	1718.39
1004.538	1686.52
1004.832	1742.57
1005.127	1722.23
1005.421	1698.95
1005.715	1716.81
1006.009	1676.35
1006.304	1666.64
1006.598	1663.25
1006.892	1650.59
1007.186	1644.49
1007.48	1625.96
1007.773	1607.2
1008.067	1630.48
1008.361	1593.64
1008.655	1580.54
1008.948	1585.74
1009.242	1589.58
1009.535	1557.49
1009.829	1562.46
1010.122	1558.62
1010.415	1556.36
1010.708	1529.47
1011.001	1549.13
1011.295	1507.55
1011.588	1523.36
1011.881	1496.7
1012.173	1493.76
1012.466	1513.87
1012.759	1493.08
1013.052	1507.09
1013.344	1472.52
1013.637	1461.22
1013.93	1471.39
1014.222	1444.04
1014.514	1444.95
1014.807	1411.73
1015.099	1432.74
1015.391	1405.17
1015.683	1406.53
1015.976	1411.05
1016.268	1399.53
1016.56	1371.96
1016.851	1382.8
1017.143	1372.18
1017.435	1363.14
1017.727	1337.38
1018.018	1327.21
1018.31	1342.35
1018.602	1304.61
1018.893	1299.87
1019.185	1294.9
1019.476	1303.26
1019.767	1316.36
1020.058	1275.23
1020.35	1273.65
1020.641	1279.08
1020.932	1260.55
1021.223	1257.83
1021.514	1259.19
1021.804	1229.81
1022.095	1226.42
1022.386	1218.97
1022.677	1205.18
1022.967	1215.58
1023.258	1180.77
1023.548	1197.95
1023.839	1182.13
1024.129	1199.3
1024.419	1178.06
1024.709	1150.27
1025	1152.3
1025.29	1110.27
1025.58	1134
1025.87	1146.2
1026.16	1122.02
1026.449	1126.09
1026.739	1085.86
1027.029	1108.91
1027.319	1068.69
1027.608	1097.39
1027.898	1094.22
1028.187	1063.49
1028.477	1073.66
1028.766	1089.25
1029.055	1070.49
1029.344	1072.08
1029.634	1037.5
1029.923	1038.18
1030.212	1026.88
1030.501	1020.55
1030.79	1013.77
1031.078	1006.32
1031.367	1015.13
1031.656	977.16
1031.945	974.45
1032.233	997.28
1032.522	967.67
1032.81	959.31
1033.099	958.86
1033.387	955.02
1033.675	972.64
1033.963	974.68
1034.251	941.68
1034.54	941.68
1034.828	915.47
1035.116	922.02
1035.403	921.35
1035.691	934
1035.979	923.15
1036.267	894.23
1036.554	920.67
1036.842	898.75
1037.129	885.41
1037.417	873.89
1037.704	899.43
1037.992	883.15
1038.279	864.85
1038.566	863.49
1038.853	863.49
1039.14	863.49
