Data from hue_150_FLMS001491_00080.txt Node
Date: Tue Feb 07 16:54:31 GMT 2017
User: dcchb
Spectrometer: FLMS00149
Trigger mode: 0
Integration Time (sec): 2.000000E-2
Scans to average: 10
Electric dark correction enabled: true
Nonlinearity correction enabled: false
Boxcar width: 0
XAxis mode: Wavelengths
Number of Pixels in Spectrum: 2048
>>>>>Begin Spectral Data<<<<<
341.393	-12.71
341.776	-12.71
342.16	-12.71
342.543	-53.84
342.927	-64.69
343.31	-74.86
343.693	-95.2
344.077	-59.72
344.46	-43.22
344.843	-49.09
345.226	-25.82
345.61	-39.15
345.993	-21.52
346.376	10.56
346.759	-5.25
347.142	31.36
347.525	55.76
347.908	68.42
348.291	79.49
348.674	77.68
349.057	90.56
349.44	126.49
349.823	158.36
350.206	159.04
350.588	213.05
350.971	223.21
351.354	222.99
351.737	240.62
352.119	260.5
352.502	250.78
352.884	268.41
353.267	274.29
353.65	293.72
354.032	293.72
354.414	295.08
354.797	292.14
355.179	308.18
355.562	319.48
355.944	334.4
356.326	328.07
356.709	350.89
357.091	338.69
357.473	347.96
357.855	351.57
358.238	341.4
358.62	338.24
359.002	328.75
359.384	349.54
359.766	327.84
360.148	339.82
360.53	343.66
360.912	328.75
361.294	337.34
361.676	331.91
362.057	337.11
362.439	336.66
362.821	322.65
363.203	321.52
363.584	326.26
363.966	316.77
364.348	314.29
364.729	316.77
365.111	338.69
365.493	317
365.874	319.48
366.256	320.16
366.637	320.39
367.019	309.77
367.4	314.74
367.781	313.16
368.163	319.03
368.544	326.04
368.925	292.82
369.306	318.58
369.688	332.36
370.069	317.22
370.45	314.29
370.831	298.47
371.212	331.01
371.593	303.89
371.974	324.91
372.355	289.2
372.736	321.29
373.117	314.96
373.498	312.03
373.879	313.61
374.26	320.39
374.641	286.04
375.021	316.09
375.402	310.22
375.783	338.47
376.163	348.86
376.544	307.05
376.925	318.58
377.305	315.42
377.686	313.16
378.066	343.44
378.447	314.06
378.827	331.01
379.208	329.88
379.588	307.96
379.968	326.26
380.349	332.82
380.729	347.28
381.109	339.14
381.489	347.5
381.87	328.75
382.25	349.76
382.63	345.7
383.01	349.09
383.39	345.47
383.77	353.61
384.15	342.08
384.53	345.47
384.91	349.76
385.29	353.38
385.67	356.09
386.049	366.26
386.429	367.84
386.809	356.54
387.189	354.51
387.568	344.79
387.948	369.88
388.328	374.4
388.707	375.75
389.087	368.75
389.466	355.41
389.846	362.19
390.225	365.58
390.605	354.51
390.984	348.86
391.363	360.61
391.743	372.14
392.122	368.52
392.501	383.44
392.881	382.76
393.26	354.51
393.639	379.59
394.018	390.22
394.397	378.46
394.776	370.1
395.155	375.98
395.534	415.3
395.913	402.19
396.292	403.77
396.671	399.93
397.05	395.19
397.429	389.31
397.808	385.02
398.186	392.7
398.565	396.77
398.944	385.92
399.323	377.11
399.701	411.23
400.08	387.28
400.458	405.58
400.837	399.71
401.215	407.84
401.594	414.4
401.972	406.49
402.351	396.09
402.729	410.78
403.107	425.24
403.486	411.46
403.864	425.47
404.242	403.55
404.62	414.62
404.999	422.53
405.377	426.37
405.755	436.54
406.133	444.23
406.511	434.96
406.889	439.48
407.267	458.24
407.645	428.18
408.023	441.06
408.401	441.51
408.779	432.47
409.156	468.86
409.534	448.07
409.912	461.17
410.29	471.34
410.667	463.66
411.045	463.21
411.422	479.7
411.8	452.36
412.178	453.94
412.555	486.71
412.933	488.07
413.31	488.74
413.687	471.12
414.065	472.47
414.442	503.89
414.819	496.2
415.197	492.36
415.574	505.24
415.951	507.5
416.328	496.88
416.705	495.75
417.082	509.99
417.46	509.99
417.837	533.49
418.214	538.01
418.591	538.91
418.967	516.31
419.344	523.55
419.721	528.52
420.098	528.74
420.475	536.2
420.852	551.12
421.228	539.14
421.605	561.28
421.982	549.31
422.358	575.52
422.735	557.89
423.111	566.48
423.488	557.22
423.864	564.9
424.241	587.05
424.617	611
424.994	595.18
425.37	571.45
425.746	570.32
426.123	601.74
426.499	573.04
426.875	599.25
427.251	643.54
427.627	592.92
428.003	616.88
428.379	631.11
428.756	622.3
429.132	661.62
429.507	644.9
429.883	655.52
430.259	655.75
430.635	644.22
431.011	669.98
431.387	681.51
431.763	683.54
432.138	688.51
432.514	693.03
432.89	681.96
433.265	681.06
433.641	705.69
434.016	711.79
434.392	721.05
434.767	727.83
435.143	719.92
435.518	732.81
435.894	749.3
436.269	769.64
436.644	740.94
437.02	765.57
437.395	748.85
437.77	756.31
438.145	789.75
438.52	803.99
438.895	793.82
439.271	798.57
439.646	783.65
440.021	800.83
440.395	791.34
440.77	805.57
441.145	822.29
441.52	825.46
441.895	835.18
442.27	850.99
442.645	842.18
443.019	896.64
443.394	865.46
443.769	877.21
444.143	864.33
444.518	899.35
444.892	887.6
445.267	892.58
445.641	884.89
446.016	894.38
446.39	897.32
446.764	921.5
447.139	902.97
447.513	923.08
447.887	936.42
448.262	948.85
448.636	951.33
449.01	933.03
449.384	948.85
449.758	961.95
450.132	963.31
450.506	958.79
450.88	997.88
451.254	984.32
451.628	1001.95
452.002	1009.86
452.376	1000.37
452.75	1004.21
453.123	1032.23
453.497	1040.14
453.871	1018.67
454.244	1070.65
454.618	1046.92
454.992	1084.21
455.365	1095.51
455.739	1117.65
456.112	1125.34
456.486	1124.66
456.859	1133.7
457.232	1144.55
457.606	1146.58
457.979	1169.86
458.352	1180.03
458.725	1247.82
459.099	1210.53
459.472	1235.39
459.845	1210.53
460.218	1261.61
460.591	1276.52
460.964	1309.29
461.337	1293.24
461.71	1340.93
462.083	1359
462.456	1349.96
462.829	1344.99
463.201	1376.18
463.574	1379.79
463.947	1437.87
464.32	1420.02
464.692	1460.02
465.065	1497.98
465.438	1511.09
465.81	1505.21
466.183	1529.39
466.555	1588.83
466.928	1589.96
467.3	1581.82
467.672	1615.04
468.045	1659.33
468.417	1690.29
468.789	1724.19
469.161	1743.4
469.534	1729.16
469.906	1789.95
470.278	1817.75
470.65	1869.5
471.022	1907.69
471.394	1930.74
471.766	1984.52
472.138	1997.41
472.51	2063.62
472.882	2088.25
473.253	2093.9
473.625	2147.01
473.997	2202.82
474.369	2232.43
474.74	2298.19
475.112	2369.82
475.484	2349.26
475.855	2462.25
476.227	2479.65
476.598	2545.87
476.97	2628.35
477.341	2656.6
477.713	2773.66
478.084	2805.97
478.455	2896.36
478.827	2938.4
479.198	3093.87
479.569	3072.41
479.94	3227.66
480.311	3253.87
480.682	3368.89
481.053	3478.04
481.424	3558.04
481.795	3680.07
482.166	3707.64
482.537	3833.74
482.908	3941.76
483.279	4047.97
483.65	4162.77
484.021	4239.83
484.391	4327.06
484.762	4470.33
485.133	4519.82
485.503	4649.54
485.874	4759.59
486.244	4904.22
486.615	5045.46
486.985	5140.37
487.356	5239.13
487.726	5336.53
488.097	5569.97
488.467	5582.62
488.837	5787.36
489.207	5893.57
489.578	6053.57
489.948	6170.4
490.318	6316.61
490.688	6358.65
491.058	6555.25
491.428	6701.24
491.798	6836.83
492.168	6975.81
492.538	7111.39
492.908	7167.44
493.278	7340.54
493.648	7440.88
494.017	7650.82
494.387	7741.89
494.757	7884.03
495.126	7955.21
495.496	8085.61
495.866	8219.39
496.235	8371.47
496.605	8455.31
496.974	8591.13
497.344	8721.52
497.713	8811.92
498.082	8992.02
498.452	9102.53
498.821	9156.31
499.19	9233.37
499.559	9427.49
499.928	9453.71
500.298	9531.67
500.667	9698.9
501.036	9683.53
501.405	9927.37
501.774	9944.99
502.143	10082.16
502.512	10074.25
502.88	10116.51
503.249	10248.04
503.618	10356.06
503.987	10403.29
504.356	10522.15
504.724	10616.16
505.093	10665.2
505.462	10714.46
505.83	10860.67
506.199	10896.83
506.567	11051.86
506.936	11068.58
507.304	11252.08
507.672	11225.86
508.041	11319.87
508.409	11435.12
508.777	11523.93
509.145	11590.83
509.514	11570.94
509.882	11661.33
510.25	11628.56
510.618	11747.88
510.986	11820.88
511.354	11934.54
511.722	12073.52
512.09	12051.83
512.458	11997.14
512.826	12060.87
513.193	12111.94
513.561	12186.97
513.929	12199.4
514.297	12317.59
514.664	12380.41
515.032	12355.78
515.4	12466.96
515.767	12488.65
516.135	12628.76
516.502	12555.55
516.869	12671.02
517.237	12730.68
517.604	12675.09
517.972	12785.14
518.339	12795.31
518.706	12774.97
519.073	12807.29
519.44	12838.48
519.808	12934.97
520.175	12981.3
520.542	13080.05
520.909	13056.32
521.276	13082.54
521.643	13140.39
522.009	13207.51
522.376	13225.81
522.743	13242.08
523.11	13280.5
523.477	13364.34
523.843	13465.58
524.21	13516.42
524.577	13571.11
524.943	13513.94
525.31	13553.26
525.676	13637.33
526.043	13688.4
526.409	13619.47
526.776	13731.11
527.142	13772.69
527.508	13739.92
527.874	13746.47
528.241	13703.54
528.607	13748.96
528.973	13858.34
529.339	13788.06
529.705	13950.54
530.071	13949.63
530.437	13843.65
530.803	13948.05
531.169	13893.59
531.535	13838.45
531.901	13880.48
532.267	13896.08
532.632	13940.59
532.998	13907.83
533.364	13885.45
533.73	13882.74
534.095	13903.76
534.461	13829.41
534.826	13869.18
535.192	13903.98
535.557	13948.28
535.923	13824.21
536.288	13830.54
536.653	13869.86
537.019	13794.61
537.384	13797.09
537.749	13714.84
538.114	13797.55
538.479	13667.83
538.845	13731.79
539.21	13619.92
539.575	13631
539.94	13562.3
540.305	13628.29
540.67	13535.86
541.034	13517.1
541.399	13555.97
541.764	13537.67
542.129	13534.95
542.494	13407.95
542.858	13480.27
543.223	13372.47
543.587	13336.54
543.952	13360.27
544.316	13264
544.681	13186.26
545.045	13317.33
545.41	13180.61
545.774	13233.49
546.138	13086.38
546.503	13106.04
546.867	13055.65
547.231	13101.07
547.595	13101.75
547.959	12946.04
548.324	12933.16
548.688	12899.27
549.052	12931.13
549.416	12849.32
549.779	12910.34
550.143	12876.67
550.507	12917.34
550.871	12864.69
551.235	12755.99
551.599	12824.92
551.962	12797.12
552.326	12748.99
552.689	12680.06
553.053	12613.85
553.417	12567.52
553.78	12710.34
554.143	12563.23
554.507	12611.14
554.87	12565.71
555.234	12622.66
555.597	12488.43
555.96	12468.99
556.323	12580.18
556.686	12515.77
557.05	12561.87
557.413	12603.23
557.776	12464.02
558.139	12584.7
558.502	12485.72
558.865	12491.37
559.228	12554.19
559.59	12520.97
559.953	12468.54
560.316	12564.81
560.679	12552.61
561.041	12537.69
561.404	12552.16
561.767	12615.21
562.129	12495.43
562.492	12553.06
562.854	12555.55
563.217	12529.11
563.579	12490.69
563.941	12546.51
564.304	12561.42
564.666	12598.71
565.028	12624.02
565.39	12570.91
565.753	12642.1
566.115	12612.72
566.477	12597.13
566.839	12674.64
567.201	12718.93
567.563	12716.45
567.925	12740.17
568.287	12727.52
568.648	12716.45
569.01	12694.3
569.372	12711.93
569.734	12682.77
570.095	12873.05
570.457	12758.93
570.819	12815.88
571.18	12857.68
571.542	12881.41
571.903	12829.44
572.265	12901.07
572.626	12906.27
572.987	12835.54
573.349	12802.32
573.71	12898.14
574.071	12919.83
574.432	12922.54
574.794	13001.18
575.155	12950.56
575.516	12914.41
575.877	12936.55
576.238	12969.09
576.599	12996.21
576.96	12984.69
577.32	12937.68
577.681	13035.31
578.042	12972.03
578.403	12944.69
578.763	12989.21
579.124	12976.78
579.485	12992.6
579.845	13083.44
580.206	12915.31
580.566	13003.44
580.927	12987.4
581.287	13036.66
581.648	12990.79
582.008	13031.24
582.368	12985.36
582.728	13018.81
583.089	13051.8
583.449	12955.54
583.809	12945.59
584.169	12911.69
584.529	12949.21
584.889	13066.94
585.249	12913.73
585.609	12906.04
585.969	12908.98
586.329	12860.4
586.688	12904.01
587.048	12841.87
587.408	12822.21
587.768	12854.97
588.127	12834.86
588.487	12710.57
588.846	12879.83
589.206	12795.31
589.565	12817.23
589.925	12877.35
590.284	12805.26
590.643	12894.52
591.003	12806.16
591.362	12881.41
591.721	12821.3
592.08	12864.24
592.44	12791.47
592.799	12757.35
593.158	12831.47
593.517	12775.88
593.876	12771.36
594.235	12759.38
594.593	12759.16
594.952	12799.83
595.311	12704.47
595.67	12702.66
596.029	12803.9
596.387	12772.49
596.746	12802.77
597.104	12729.78
597.463	12725.94
597.822	12812.49
598.18	12675.32
598.538	12694.3
598.897	12710.34
599.255	12583.34
599.613	12784.24
599.972	12700.85
600.33	12734.52
600.688	12647.52
601.046	12706.28
601.404	12817.01
601.762	12721.42
602.12	12731.13
602.478	12758.93
602.836	12702.89
603.194	12643.45
603.552	12665.83
603.91	12703.79
604.268	12723.9
604.625	12685.49
604.983	12670.8
605.341	12603.45
605.698	12688.2
606.056	12690.91
606.413	12645.03
606.771	12738.59
607.128	12753.73
607.485	12626.05
607.843	12574.53
608.2	12716.67
608.557	12697.24
608.914	12678.03
609.272	12823.34
609.629	12854.07
609.986	12803.22
610.343	12733.85
610.7	12788.76
611.057	12889.1
611.414	12800.96
611.771	12781.53
612.127	12960.05
612.484	12860.4
612.841	12935.2
613.198	12843.67
613.554	12892.26
613.911	12883.9
614.267	12991.24
614.624	12890.23
614.98	12878.25
615.337	12946.5
615.693	12967.74
616.05	12941.07
616.406	13024.01
616.762	13025.59
617.118	13019.71
617.475	12947.4
617.831	13030.11
618.187	13043.22
618.543	13094.06
618.899	13132.25
619.255	13060.17
619.611	13050
619.967	13140.84
620.323	13148.3
620.678	13141.29
621.034	13078.7
621.39	13015.42
621.746	13031.69
622.101	13175.42
622.457	13081.41
622.812	13046.61
623.168	13114.63
623.523	13138.36
623.879	13074.4
624.234	13046.15
624.589	13040.5
624.945	13109.2
625.3	13015.87
625.655	13002.54
626.01	13051.8
626.365	13089.09
626.72	13111.01
627.075	13059.71
627.43	13088.64
627.785	13006.61
628.14	13017.91
628.495	13115.53
628.85	13082.31
629.205	12949.21
629.559	13029.88
629.914	13000.73
630.269	13032.37
630.623	13017
630.978	12978.81
631.332	12978.59
631.687	13047.06
632.041	12983.33
632.396	13000.51
632.75	12916.21
633.104	13020.17
633.459	12874.18
633.813	12830.79
634.167	12889.55
634.521	12839.38
634.875	12854.07
635.229	12787.4
635.583	12867.85
635.937	12752.83
636.291	12779.49
636.645	12837.8
636.999	12798.7
637.352	12737.91
637.706	12707.18
638.06	12800.06
638.413	12629.89
638.767	12629.89
639.121	12590.35
639.474	12640.74
639.828	12655.88
640.181	12653.85
640.534	12592.38
640.888	12592.38
641.241	12513.29
641.594	12522.55
641.947	12617.01
642.301	12529.33
642.654	12549.44
643.007	12470.12
643.36	12506.73
643.713	12483.68
644.066	12591.93
644.419	12440.97
644.771	12384.02
645.124	12383.35
645.477	12249.11
645.83	12199.85
646.182	12136.57
646.535	12090.02
646.888	12100.87
647.24	12063.36
647.593	12155.33
647.945	12075.33
648.298	12011.83
648.65	12012.51
649.002	11996.92
649.355	12070.81
649.707	12088.44
650.059	12180.64
650.411	12285.5
650.763	12246.4
651.115	12431.26
651.467	12379.05
651.819	12342.44
652.171	12284.14
652.523	12424.25
652.875	12313.07
653.227	12298.15
653.578	12374.53
653.93	12405.04
654.282	12319.62
654.633	12302.9
654.985	12327.3
655.337	12330.24
655.688	12397.13
656.039	12332.27
656.391	12259.51
656.742	12306.74
657.094	12336.12
657.445	12348.09
657.796	12278.72
658.147	12326.85
658.498	12305.38
658.849	12254.31
659.2	12318.26
659.551	12299.06
659.902	12338.38
660.253	12299.28
660.604	12381.54
660.955	12316.91
661.306	12380.63
661.656	12397.13
662.007	12377.7
662.358	12387.64
662.708	12355.78
663.059	12331.6
663.409	12331.6
663.76	12387.41
664.11	12472.16
664.461	12344.48
664.811	12356.45
665.161	12412.27
665.511	12347.19
665.862	12364.59
666.212	12355.1
666.562	12376.12
666.912	12336.34
667.262	12353.07
667.612	12343.12
667.962	12443.01
668.312	12304.93
668.662	12458.6
669.011	12318.26
669.361	12418.37
669.711	12418.37
670.06	12359.17
670.41	12369.11
670.76	12258.15
671.109	12386.06
671.459	12353.07
671.808	12283.91
672.157	12362.78
672.507	12291.37
672.856	12234.42
673.205	12346.74
673.554	12333.18
673.904	12177.48
674.253	12243.69
674.602	12264.71
674.951	12089.34
675.3	11988.33
675.649	12228.32
675.998	12159.85
676.346	12133.64
676.695	12211.6
677.044	12046.63
677.393	12243.69
677.741	12163.01
678.09	12100.87
678.438	12148.55
678.787	12103.81
679.135	12042.79
679.484	12061.55
679.832	12100.64
680.181	11989.01
680.529	12036.01
680.877	11881.44
681.225	11927.09
681.573	11976.58
681.922	11902.91
682.27	11894.09
682.618	11861.33
682.966	11785.4
683.314	11814.55
683.661	11670.6
684.009	11789.69
684.357	11695.91
684.705	11722.8
685.053	11682.12
685.4	11694.33
685.748	11582.46
686.095	11662.69
686.443	11615.46
686.79	11533.43
687.138	11607.55
687.485	11567.1
687.832	11466.31
688.18	11556.48
688.527	11481.22
688.874	11484.84
689.221	11344.5
689.568	11361.68
689.915	11383.15
690.262	11290.04
690.609	11276.48
690.956	11280.1
691.303	11267.44
691.65	11163.72
691.997	11222.02
692.344	11104.96
692.69	11094.79
693.037	10999.2
693.383	10939.09
693.73	10978.19
694.077	10892.99
694.423	10909.71
694.769	10888.24
695.116	10824.07
695.462	10848.7
695.808	10825.87
696.155	10868.81
696.501	10741.36
696.847	10744.07
697.193	10635.37
697.539	10657.74
697.885	10508.37
698.231	10532.77
698.577	10502.72
698.923	10546.56
699.269	10377.3
699.614	10407.13
699.96	10300.01
700.306	10336.17
700.651	10288.49
700.997	10179.56
701.342	10219.79
701.688	10180.47
702.033	10075.16
702.379	10142.5
702.724	10037.42
703.069	10063.41
703.415	9961.26
703.76	9930.53
704.105	10007.59
704.45	9941.83
704.795	9844.43
705.14	9873.58
705.485	9789.29
705.83	9817.54
706.175	9771.89
706.52	9794.26
706.865	9754.26
707.209	9648.73
707.554	9566.47
707.899	9674.27
708.243	9636.07
708.588	9547.04
708.932	9500.94
709.277	9507.04
709.621	9539.13
709.966	9413.93
710.31	9437.21
710.654	9369.64
710.998	9381.39
711.342	9362.64
711.687	9311.56
712.031	9331.22
712.375	9248.29
712.719	9315.18
713.063	9225.24
713.407	9296.2
713.75	9197.44
714.094	9194.73
714.438	9101.17
714.782	9155.18
715.125	9146.82
715.469	9116.99
715.812	9103.43
716.156	9041.97
716.499	9079.7
716.843	9027.73
717.186	8982.53
717.53	9088.29
717.873	9044
718.216	9056.88
718.559	9018.92
718.902	8907.28
719.246	8978.92
719.589	8954.28
719.932	8913.61
720.275	8925.81
720.617	8869.54
720.96	8881.07
721.303	8865.93
721.646	8912.48
721.989	8863.21
722.331	8844.23
722.674	8823.21
723.016	8785.7
723.359	8862.76
723.701	8839.49
724.044	8841.97
724.386	8742.54
724.729	8795.42
725.071	8793.38
725.413	8748.19
725.755	8768.75
726.097	8752.48
726.439	8746.61
726.782	8677.91
727.124	8768.07
727.465	8719.71
727.807	8652.6
728.149	8672.03
728.491	8704.35
728.833	8654.86
729.175	8637.91
729.516	8679.72
729.858	8630.23
730.199	8676.1
730.541	8656.67
730.882	8649.21
731.224	8657.79
731.565	8572.6
731.906	8620.73
732.248	8576.67
732.589	8559.04
732.93	8570.34
733.271	8515.43
733.612	8547.29
733.953	8641.3
734.294	8608.98
734.635	8562.66
734.976	8559.49
735.317	8541.64
735.658	8599.72
735.999	8597.68
736.339	8596.33
736.68	8613.28
737.021	8628.64
737.361	8560.4
737.702	8587.51
738.042	8603.56
738.383	8558.81
738.723	8635.42
739.063	8577.8
739.404	8637.91
739.744	8646.27
740.084	8592.26
740.424	8621.86
740.764	8592.94
741.104	8666.83
741.444	8659.6
741.784	8709.32
742.124	8721.97
742.464	8733.73
742.804	8741.86
743.143	8767.62
743.483	8795.42
743.823	8766.27
744.162	8816.89
744.502	8871.8
744.841	8850.11
745.181	8872.93
745.52	8885.81
745.86	8893.04
746.199	8910.44
746.538	8971.46
746.877	9051.91
747.216	9111.12
747.556	9123.77
747.895	9135.3
748.234	9205.13
748.573	9230.44
748.911	9236.08
749.25	9385.23
749.589	9380.49
749.928	9438.79
750.267	9481.73
750.605	9609.18
750.944	9621.61
751.283	9681.04
751.621	9774.6
751.96	9842.4
752.298	9931.21
752.636	10095.5
752.975	10182.27
753.313	10240.58
753.651	10324.64
753.989	10420.23
754.327	10439.67
754.666	10593.56
755.004	10784.29
755.342	10841.01
755.679	10932.09
756.017	11053.21
756.355	11182.93
756.693	11297.95
757.031	11487.1
757.368	11518.96
757.706	11718.73
758.044	11874.43
758.381	11978.61
758.719	12165.95
759.056	12309.22
759.394	12455.44
759.731	12553.06
760.068	12730.46
760.405	12807.29
760.743	12995.99
761.08	13121.86
761.417	13203.89
761.754	13460.61
762.091	13626.7
762.428	13792.35
762.765	13826.92
763.102	14012.68
763.438	14230.53
763.775	14259.23
764.112	14425.55
764.449	14580.35
764.785	14887.01
765.122	14862.38
765.458	14932.43
765.795	15143.05
766.131	15283.84
766.467	15397.05
766.804	15529.93
767.14	15672.07
767.476	15876.14
767.812	15908
768.148	16111.61
768.485	16117.94
768.821	16214.43
769.157	16362.9
769.492	16517.48
769.828	16673.86
770.164	16675.89
770.5	16779.16
770.836	16865.26
771.171	16932.61
771.507	17072.71
771.842	17107.74
772.178	17239.26
772.513	17404.01
772.849	17366.72
773.184	17466.38
773.519	17609.65
773.855	17608.52
774.19	17685.81
774.525	17702.08
774.86	17787.95
775.195	17813.94
775.53	17917.44
775.865	17892.81
776.2	17854.84
776.535	17867.5
776.87	17961.51
777.205	17959.92
777.539	18012.35
777.874	17983.65
778.209	17984.33
778.543	18128.73
778.878	17992.46
779.212	18154.72
779.547	18060.71
779.881	18189.75
780.215	18082.63
780.55	18264.1
780.884	18129.64
781.218	18182.52
781.552	18192.69
781.886	18218
782.22	18173.48
782.554	18230.2
782.888	18041.28
783.222	18040.15
783.556	18071.11
783.889	18003.76
784.223	18105.68
784.557	18080.6
784.89	18090.99
785.224	18060.94
785.557	18032.46
785.891	17956.31
786.224	17986.14
786.558	17953.82
786.891	17921.51
787.224	17780.04
787.557	17778.23
787.891	17947.04
788.224	17814.62
788.557	17909.98
788.89	17873.82
789.223	17805.8
789.556	17783.43
789.888	17677.22
790.221	17685.35
790.554	17679.48
790.887	17603.55
791.219	17627.95
791.552	17527.62
791.884	17520.84
792.217	17536.21
792.549	17428.19
792.882	17376.89
793.214	17339.15
793.546	17434.29
793.879	17256.44
794.211	17156.1
794.543	17386.6
794.875	17276.1
795.207	17273.39
795.539	17220.51
795.871	17154.07
796.203	17117.69
796.535	17077.23
796.867	16988.42
797.198	16917.92
797.53	16961.08
797.862	16844.25
798.193	16964.47
798.525	16846.05
798.856	16802.21
799.188	16686.96
799.519	16691.48
799.85	16623.24
800.182	16574.65
800.513	16568.1
800.844	16425.05
801.175	16552.95
801.506	16588.43
801.837	16503.24
802.168	16472.5
802.499	16379.4
802.83	16350.93
803.161	16249.01
803.491	16363.58
803.822	16278.39
804.153	16200.87
804.483	16084.94
804.814	16057.83
805.145	16056.47
805.475	15992.29
805.805	15892.63
806.136	15907.32
806.466	15910.94
806.796	15876.59
807.126	15777.61
807.457	15753.43
807.787	15759.53
808.117	15689.25
808.447	15682.69
808.777	15649.25
809.107	15618.52
809.436	15608.57
809.766	15481.34
810.096	15526.31
810.426	15410.39
810.755	15468.01
811.085	15380.1
811.414	15362.48
811.744	15268.92
812.073	15217.62
812.403	15159.09
812.732	15291.29
813.061	15240.9
813.39	15071.19
813.719	15079.77
814.049	15160
814.378	15151.64
814.707	15063.28
815.036	15008.36
815.365	14963.39
815.693	14821.02
816.022	14863.73
816.351	14852.66
816.68	14815.37
817.008	14870.74
817.337	14696.51
817.665	14685.89
817.994	14722.49
818.322	14744.19
818.651	14629.16
818.979	14649.73
819.307	14678.2
819.636	14691.08
819.964	14477.53
820.292	14537.19
820.62	14654.25
820.948	14489.05
821.276	14556.85
821.604	14465.55
821.932	14545.78
822.259	14595.49
822.587	14537.64
822.915	14440.24
823.243	14489.96
823.57	14507.13
823.898	14472.11
824.225	14482.95
824.553	14430.52
824.88	14479.79
825.207	14510.75
825.535	14392.56
825.862	14603.18
826.189	14552.33
826.516	14503.97
826.843	14552.33
827.17	14561.82
827.497	14534.25
827.824	14590.97
828.151	14588.26
828.478	14514.59
828.805	14534.93
829.131	14556.62
829.458	14570.18
829.785	14444.99
830.111	14495.16
830.438	14627.58
830.764	14573.8
831.09	14451.31
831.417	14573.35
831.743	14499.68
832.069	14506.68
832.395	14392.56
832.722	14421.26
833.048	14433.91
833.374	14466
833.7	14400.24
834.026	14362.73
834.351	14464.2
834.677	14427.13
835.003	14312.56
835.329	14392.56
835.654	14323.41
835.98	14297.42
836.306	14309.17
836.631	14326.35
836.956	14351.66
837.282	14293.35
837.607	14235.05
837.932	14211.1
838.258	14178.1
838.583	14184.88
838.908	14183.98
839.233	14154.37
839.558	14090.87
839.883	14076.64
840.208	14026.69
840.533	14102.4
840.858	14012
841.182	13948.73
841.507	13979.69
841.832	13979.46
842.156	13915.51
842.481	13975.4
842.805	13881.39
843.13	13795.96
843.454	13807.72
843.778	13760.71
844.103	13745.12
844.427	13642.97
844.751	13794.38
845.075	13693.59
845.399	13716.64
845.723	13546.25
846.047	13541.73
846.371	13421.29
846.695	13414.73
847.019	13379.25
847.343	13346.26
847.666	13156.43
847.99	13193.72
848.313	13123.89
848.637	13070.56
848.96	13103.78
849.284	12998.25
849.607	12943.56
849.931	12898.14
850.254	12767.74
850.577	12778.82
850.9	12676.22
851.223	12616.79
851.546	12562.1
851.869	12567.07
852.192	12578.14
852.515	12439.84
852.838	12419.05
853.161	12481.88
853.483	12371.82
853.806	12276.68
854.129	12317.13
854.451	12251.37
854.774	12194.65
855.096	12151.26
855.419	12072.85
855.741	12066.07
856.063	11996.46
856.385	12021.32
856.708	12015.9
857.03	11887.09
857.352	11913.3
857.674	11858.39
857.996	11817.49
858.318	11784.04
858.64	11785.17
858.961	11670.82
859.283	11636.47
859.605	11563.71
859.926	11602.58
860.248	11564.84
860.57	11519.87
860.891	11628.56
861.212	11471.05
861.534	11426.76
861.855	11432.64
862.176	11445.07
862.498	11363.26
862.819	11396.93
863.14	11380.21
863.461	11358.74
863.782	11325.75
864.103	11254.79
864.424	11205.07
864.745	11264.05
865.065	11230.83
865.386	11201.46
865.707	11107.45
866.027	11185.86
866.348	11175.02
866.668	11135.02
866.989	11051.86
867.309	11005.53
867.63	11027.9
867.95	11063.38
868.27	10944.06
868.59	11031.52
868.91	10927.79
869.23	11011.41
869.55	10833.33
869.87	10891.41
870.19	10937.28
870.51	10921.69
870.83	10876.27
871.15	10861.35
871.469	10870.17
871.789	10855.93
872.109	10748.59
872.428	10748.14
872.748	10841.92
873.067	10787.23
873.386	10764.63
873.706	10757.63
874.025	10681.92
874.344	10697.06
874.663	10724.63
874.982	10677.4
875.301	10668.14
875.62	10562.83
875.939	10656.84
876.258	10577.29
876.577	10514.24
876.896	10617.29
877.214	10516.28
877.533	10497.07
877.852	10443.28
878.17	10497.29
878.489	10491.87
878.807	10485.09
879.125	10448.26
879.444	10474.7
879.762	10440.35
880.08	10340.24
880.398	10393.57
880.716	10329.39
881.034	10305.21
881.352	10349.28
881.67	10313.8
881.988	10243.74
882.306	10219.34
882.624	10201.26
882.941	10100.24
883.259	10147.02
883.577	10154.03
883.894	10107.02
884.212	10081.94
884.529	10077.87
884.846	10064.76
885.164	9982.51
885.481	9977.76
885.798	9950.19
886.115	9882.85
886.432	9928.27
886.75	9928.72
887.067	9906.58
887.383	9825
887.7	9890.08
888.017	9827.71
888.334	9805.34
888.651	9831.32
888.967	9690.08
889.284	9694.83
889.6	9642.18
889.917	9668.16
890.233	9574.83
890.55	9602.18
890.866	9602.4
891.182	9582.52
891.498	9550.2
891.815	9504.1
892.131	9442.41
892.447	9471.56
892.763	9414.16
893.079	9399.7
893.395	9407.83
893.71	9331
894.026	9320.15
894.342	9250.1
894.657	9231.57
894.973	9232.47
895.289	9162.41
895.604	9175.75
895.92	9035.86
896.235	9064.34
896.55	9056.65
896.865	9047.16
897.181	8983.89
897.496	8990.67
897.811	8903.89
898.126	8989.99
898.441	8857.11
898.756	8837.45
899.071	8770.79
899.386	8761.3
899.7	8718.81
900.015	8699.15
900.33	8647.4
900.644	8639.72
900.959	8638.81
901.273	8608.53
901.588	8610.79
901.902	8489.66
902.216	8505.48
902.531	8442.89
902.845	8388.42
903.159	8463.9
903.473	8372.38
903.787	8336
904.101	8284.02
904.415	8236.11
904.729	8223.91
905.042	8176.68
905.356	8149.56
905.67	8113.63
905.984	8145.27
906.297	8039.51
906.611	8022.11
906.924	8019.85
907.237	7992.5
907.551	7932.39
907.864	7980.07
908.177	7901.66
908.491	7887.65
908.804	7828.89
909.117	7805.39
909.43	7678.16
909.743	7669.8
910.056	7702.79
910.368	7670.7
910.681	7638.16
910.994	7581.67
911.307	7587.31
911.619	7484.94
911.932	7527.66
912.244	7479.29
912.557	7457.83
912.869	7344.61
913.181	7362.69
913.494	7402.01
913.806	7296.7
914.118	7274.33
914.43	7265.06
914.742	7229.13
915.054	7209.7
915.366	7108.46
915.678	7098.29
915.99	7099.42
916.302	7073.43
916.613	7061.45
916.925	7049.7
917.236	6977.16
917.548	6936.71
917.859	6951.17
918.171	6941.91
918.482	6886.09
918.794	6860.1
919.105	6877.5
919.416	6763.16
919.727	6802.02
920.038	6754.12
920.349	6738.98
920.66	6694.46
920.971	6676.6
921.282	6637.96
921.593	6669.82
921.903	6639.32
922.214	6574.01
922.525	6533.33
922.835	6556.61
923.146	6483.16
923.456	6486.78
923.767	6420.11
924.077	6375.82
924.387	6331.98
924.697	6312.55
925.008	6289.04
925.318	6286.33
925.628	6267.12
925.938	6245.88
926.248	6233.45
926.558	6216.05
926.867	6194.58
927.177	6173.11
927.487	6116.84
927.796	6073.68
928.106	6051.99
928.416	6029.84
928.725	5984.64
929.034	5931.31
929.344	5962.72
929.653	5947.36
929.962	5879.56
930.271	5916.17
930.581	5847.47
930.89	5835.95
931.199	5812.45
931.508	5794.14
931.817	5779.23
932.125	5723.63
932.434	5720.7
932.743	5687.7
933.051	5639.12
933.36	5632.79
933.669	5620.36
933.977	5609.06
934.286	5579.68
934.594	5559.8
934.902	5517.54
935.21	5501.95
935.519	5517.54
935.827	5493.13
936.135	5454.04
936.443	5411.1
936.751	5347.83
937.059	5372.01
937.367	5325.91
937.674	5333.81
937.982	5343.31
938.29	5286.13
938.597	5257.88
938.905	5216.76
939.213	5218.56
939.52	5172.46
939.827	5157.32
940.135	5167.49
940.442	5164.55
940.749	5139.02
941.056	5143.99
941.363	5039.81
941.67	5074.39
941.977	5031.22
942.284	4982.64
942.591	5012.69
942.898	4926.37
943.205	4967.72
943.511	4922.07
943.818	4900.38
944.125	4921.17
944.431	4871.23
944.738	4816.77
945.044	4845.47
945.35	4776.32
945.657	4774.96
945.963	4719.59
946.269	4718.46
946.575	4708.75
946.881	4700.84
947.187	4682.08
947.493	4630.1
947.799	4636.21
948.105	4602.76
948.41	4597.79
948.716	4620.16
949.022	4578.58
949.327	4559.6
949.633	4517.34
949.938	4500.62
950.244	4492.25
950.549	4485.48
950.854	4410.22
951.16	4451.58
951.465	4395.31
951.77	4380.17
952.075	4376.78
952.38	4340.85
952.685	4318.7
952.99	4333.84
953.294	4267.18
953.599	4258.14
953.904	4254.07
954.209	4187.4
954.513	4261.53
954.818	4177.23
955.122	4163.68
955.426	4175.88
955.731	4163.68
956.035	4142.43
956.339	4123.45
956.643	4124.35
956.948	4120.51
957.252	4096.33
957.556	4036
957.86	4004.36
958.163	3999.16
958.467	3991.93
958.771	3945.38
959.075	4014.98
959.378	3936.11
959.682	3894.53
959.985	3900.86
960.289	3894.98
960.592	3901.99
960.896	3831.48
961.199	3843.68
961.502	3829.45
961.805	3776.79
962.108	3767.3
962.411	3807.3
962.714	3766.17
963.017	3719.17
963.32	3727.3
963.623	3684.14
963.926	3717.81
964.228	3690.92
964.531	3673.97
964.833	3663.58
965.136	3639.4
965.438	3626.29
965.741	3570.47
966.043	3596.01
966.345	3574.31
966.648	3574.31
966.95	3563.24
967.252	3506.52
967.554	3525.5
967.856	3437.82
968.158	3458.16
968.46	3458.38
968.761	3447.99
969.063	3395.56
969.365	3424.71
969.666	3398.95
969.968	3400.08
970.269	3385.39
970.571	3333.19
970.872	3332.06
971.174	3293.19
971.475	3295.68
971.776	3312.4
972.077	3287.77
972.378	3261.33
972.679	3239.63
972.98	3250.03
973.281	3210.93
973.582	3228.56
973.883	3195.79
974.183	3171.84
974.484	3191.95
974.785	3135.68
975.085	3158.96
975.386	3121.44
975.686	3088
975.986	3089.35
976.287	3127.32
976.587	3043.03
976.887	3050.71
977.187	3078.05
977.487	3045.97
977.787	3023.14
978.087	3026.76
978.387	2997.6
978.687	3016.81
978.987	2948.11
979.286	2951.28
979.586	2956.02
979.885	2957.83
980.185	2898.17
980.484	2900.21
980.784	2884.61
981.083	2890.26
981.382	2877.61
981.682	2887.33
981.981	2842.35
982.28	2842.58
982.579	2832.41
982.878	2846.87
983.177	2837.61
983.475	2776.59
983.774	2782.24
984.073	2749.48
984.372	2746.54
984.67	2736.82
984.969	2696.37
985.267	2749.7
985.566	2702.7
985.864	2653.66
986.162	2680.78
986.461	2650.04
986.759	2645.98
987.057	2625.64
987.355	2607.78
987.653	2566.43
987.951	2552.64
988.249	2591.06
988.547	2603.72
988.844	2591.29
989.142	2560.1
989.44	2527.79
989.737	2544.06
990.035	2511.74
990.332	2522.36
990.63	2481.23
990.927	2482.82
991.224	2518.07
991.521	2457.96
991.819	2412.99
992.116	2434
992.413	2417.28
992.71	2416.83
993.006	2402.37
993.303	2364.18
993.6	2376.83
993.897	2361.24
994.193	2340.22
994.49	2322.37
994.787	2302.71
995.083	2340.45
995.379	2341.8
995.676	2328.7
995.972	2285.53
996.268	2292.09
996.565	2284.18
996.861	2248.02
997.157	2251.18
997.453	2225.42
997.749	2202.15
998.044	2222.94
998.34	2206.21
998.636	2183.84
998.932	2159.43
999.227	2149.27
999.523	2183.39
999.818	2118.98
1000.114	2127.57
1000.409	2077.18
1000.704	2087.57
1001	2072.43
1001.295	2099.1
1001.59	2076.95
1001.885	2074.92
1002.18	2061.58
1002.475	2035.82
1002.77	2058.19
1003.065	2030.85
1003.359	2017.97
1003.654	2007.8
1003.949	1984.52
1004.243	2033.11
1004.538	1959.44
1004.832	1932.77
1005.127	1944.98
1005.421	1939.1
1005.715	1954.24
1006.009	1926.67
1006.304	1910.63
1006.598	1886.9
1006.892	1859.33
1007.186	1873.11
1007.48	1834.92
1007.773	1851.42
1008.067	1848.26
1008.361	1810.74
1008.655	1807.35
1008.948	1811.42
1009.242	1818.2
1009.535	1796.51
1009.829	1752.44
1010.122	1741.59
1010.415	1780.01
1010.708	1742.5
1011.001	1720.58
1011.295	1740.69
1011.588	1729.16
1011.881	1697.07
1012.173	1704.98
1012.466	1702.27
1012.759	1691.2
1013.052	1675.83
1013.344	1642.84
1013.637	1633.8
1013.93	1635.61
1014.222	1625.89
1014.514	1608.04
1014.807	1615.04
1015.099	1606.45
1015.391	1607.36
1015.683	1614.14
1015.976	1570.98
1016.268	1558.55
1016.56	1548.15
1016.851	1501.6
1017.143	1550.64
1017.435	1521.94
1017.727	1506.34
1018.018	1471.77
1018.31	1472.9
1018.602	1471.09
1018.893	1450.07
1019.185	1467.02
1019.476	1463.18
1019.767	1434.26
1020.058	1448.94
1020.35	1454.37
1020.641	1424.76
1020.932	1410.08
1021.223	1401.26
1021.514	1393.81
1021.804	1361.94
1022.095	1387.48
1022.386	1338.89
1022.677	1365.78
1022.967	1344.99
1023.258	1348.38
1023.548	1332.56
1023.839	1325.56
1024.129	1338.89
1024.419	1290.53
1024.709	1319
1025	1291.21
1025.29	1272.23
1025.58	1259.12
1025.87	1253.47
1026.16	1246.92
1026.449	1236.07
1026.739	1239.91
1027.029	1251.44
1027.319	1233.81
1027.608	1232.68
1027.898	1224.54
1028.187	1212.79
1028.477	1174.83
1028.766	1168.5
1029.055	1167.6
1029.344	1165.11
1029.634	1151.1
1029.923	1156.75
1030.212	1138.9
1030.501	1123.53
1030.79	1146.13
1031.078	1140.93
1031.367	1133.7
1031.656	1116.07
1031.945	1129.63
1032.233	1080.82
1032.522	1085.11
1032.81	1089.18
1033.099	1084.21
1033.387	1077.88
1033.675	1099.58
1033.963	1059.8
1034.251	1053.25
1034.54	1045.11
1034.828	1045.79
1035.116	1034.49
1035.403	996.08
1035.691	1013.02
1035.979	1005.34
1036.267	1018.67
1036.554	997.88
1036.842	990.65
1037.129	1029.75
1037.417	978.22
1037.704	975.06
1037.992	958.79
1038.279	949.07
1038.566	965.34
1038.853	965.34
1039.14	965.34
