Data from hue_300_FLMS001491_00019.txt Node
Date: Tue Feb 07 15:50:23 GMT 2017
User: dcchb
Spectrometer: FLMS00149
Trigger mode: 0
Integration Time (sec): 2.000000E-2
Scans to average: 10
Electric dark correction enabled: true
Nonlinearity correction enabled: false
Boxcar width: 0
XAxis mode: Wavelengths
Number of Pixels in Spectrum: 2048
>>>>>Begin Spectral Data<<<<<
341.393	-13.06
341.776	-13.06
342.16	-13.06
342.543	-49.22
342.927	-69.56
343.31	-63.01
343.693	-78.6
344.077	-54.19
344.46	-59.84
344.843	-58.04
345.226	-51.71
345.61	-36.34
345.993	-26.17
346.376	-9.22
346.759	15.41
347.142	7.73
347.525	65.8
347.908	59.93
348.291	81.17
348.674	99.25
349.057	107.84
349.44	120.04
349.823	117.33
350.206	160.94
350.588	202.3
350.971	213.14
351.354	218.12
351.737	211.11
352.119	217.66
352.502	261.96
352.884	270.54
353.267	261.73
353.65	270.32
354.032	290.43
354.414	282.52
354.797	285.46
355.179	298.34
355.562	297.66
355.944	299.92
356.326	325.91
356.709	324.1
357.091	328.4
357.473	332.46
357.855	325.68
358.238	334.27
358.62	298.79
359.002	303.54
359.384	316.64
359.766	335.85
360.148	332.24
360.53	330.66
360.912	337.89
361.294	321.39
361.676	310.54
362.057	328.17
362.439	303.09
362.821	312.12
363.203	313.25
363.584	339.47
363.966	296.98
364.348	307.6
364.729	305.35
365.111	318.23
365.493	306.7
365.874	313.71
366.256	311.9
366.637	304.44
367.019	302.41
367.4	313.03
367.781	285.46
368.163	298.57
368.544	297.89
368.925	308.51
369.306	303.76
369.688	313.48
370.069	314.61
370.45	309.64
370.831	343.08
371.212	290.2
371.593	298.11
371.974	306.47
372.355	300.6
372.736	298.34
373.117	304.67
373.498	290.43
373.879	307.15
374.26	307.83
374.641	311.22
375.021	315.29
375.402	305.8
375.783	321.39
376.163	314.84
376.544	321.39
376.925	305.57
377.305	305.8
377.686	319.13
378.066	301.05
378.447	306.47
378.827	301.73
379.208	310.54
379.588	340.15
379.968	324.55
380.349	330.66
380.729	315.29
381.109	334.95
381.489	331.56
381.87	334.04
382.25	321.39
382.63	331.56
383.01	316.19
383.39	323.42
383.77	323.2
384.15	322.75
384.53	336.98
384.91	334.5
385.29	344.21
385.67	344.21
386.049	334.27
386.429	329.3
386.809	331.33
387.189	313.25
387.568	357.77
387.948	368.85
388.328	330.88
388.707	345.34
389.087	329.3
389.466	352.8
389.846	341.05
390.225	349.41
390.605	358.68
390.984	379.47
391.363	352.58
391.743	361.16
392.122	358
392.501	355.29
392.881	351.9
393.26	375.85
393.639	354.84
394.018	346.93
394.397	359.81
394.776	391.67
395.155	386.47
395.534	378.79
395.913	368.17
396.292	360.94
396.671	372.69
397.05	366.59
397.429	387.38
397.808	380.6
398.186	381.5
398.565	379.69
398.944	375.85
399.323	381.28
399.701	375.4
400.08	403.65
400.458	371.11
400.837	393.48
401.215	395.51
401.594	418.11
401.972	403.87
402.351	399.81
402.729	400.94
403.107	415.4
403.486	409.07
403.864	408.39
404.242	404.33
404.62	419.92
404.999	428.96
405.377	420.37
405.755	436.19
406.133	431.22
406.511	435.96
406.889	445
407.267	421.73
407.645	451.56
408.023	447.49
408.401	464.66
408.779	461.95
409.156	473.48
409.534	459.01
409.912	471.67
410.29	464.89
410.667	479.58
411.045	500.14
411.422	501.72
411.8	515.74
412.178	536.53
412.555	525.68
412.933	532.23
413.31	558.22
413.687	529.75
414.065	534.94
414.442	537.2
414.819	568.61
415.197	581.27
415.574	581.5
415.951	582.17
416.328	583.08
416.705	600.03
417.082	617.65
417.46	635.51
417.837	628.73
418.214	627.82
418.591	644.32
418.967	638.67
419.344	658.33
419.721	670.76
420.098	657.88
420.475	707.82
420.852	676.41
421.228	681.61
421.605	678.67
421.982	712.57
422.358	718.44
422.735	739.01
423.111	718.44
423.488	733.58
423.864	757.31
424.241	765.9
424.617	758.21
424.994	752.79
425.37	797.76
425.746	784.88
426.123	791.43
426.499	813.58
426.875	786.46
427.251	821.04
427.627	818.1
428.003	837.53
428.379	847.93
428.756	862.84
429.132	876.86
429.507	856.97
429.883	870.08
430.259	893.35
430.635	916.63
431.011	946.91
431.387	924.09
431.763	967.25
432.138	942.39
432.514	963.86
432.89	964.99
433.265	1003.63
433.641	992.56
434.016	1010.86
434.392	1026.91
434.767	1034.37
435.143	1026
435.518	1031.43
435.894	1035.27
436.269	1020.81
436.644	1063.07
437.02	1094.02
437.395	1089.51
437.77	1094.93
438.145	1117.08
438.52	1144.42
438.895	1151.88
439.271	1150.52
439.646	1152.78
440.021	1167.24
440.395	1169.96
440.77	1169.96
441.145	1172.21
441.52	1167.02
441.895	1202.72
442.27	1197.3
442.645	1239.78
443.019	1211.31
443.394	1200.46
443.769	1218.77
444.143	1217.86
444.518	1260.12
444.892	1242.72
445.267	1255.83
445.641	1246.34
446.016	1258.77
446.39	1278.88
446.764	1241.59
447.139	1240.46
447.513	1264.87
447.887	1271.42
448.262	1294.7
448.636	1266.68
449.01	1286.56
449.384	1289.27
449.758	1271.87
450.132	1316.62
450.506	1304.41
450.88	1299.67
451.254	1353.91
451.628	1317.3
452.002	1339.22
452.376	1337.41
452.75	1362.49
453.123	1376.05
453.497	1360.68
453.871	1341.02
454.244	1378.54
454.618	1380.12
454.992	1379.44
455.365	1386.67
455.739	1433
456.112	1435.71
456.486	1433
456.859	1438.42
457.232	1479.78
457.606	1448.37
457.979	1467.12
458.352	1474.81
458.725	1467.12
459.099	1526.33
459.472	1526.33
459.845	1538.53
460.218	1538.53
460.591	1557.97
460.964	1567.23
461.337	1575.14
461.71	1597.74
462.083	1599.1
462.456	1612.66
462.829	1601.58
463.201	1632.32
463.574	1596.16
463.947	1644.52
464.32	1646.1
464.692	1666.89
465.065	1690.17
465.438	1645.2
465.81	1694.24
466.183	1721.58
466.555	1728.58
466.928	1726.55
467.3	1750.73
467.672	1767.45
468.045	1807.68
468.417	1773.78
468.789	1784.18
469.161	1811.07
469.534	1844.74
469.906	1842.48
470.278	1847.23
470.65	1879.54
471.022	1851.29
471.394	1899.2
471.766	1897.39
472.138	1922.48
472.51	1945.3
472.882	1974.23
473.253	1953.66
473.625	2002.93
473.997	2019.88
474.369	2034.79
474.74	2028.01
475.112	2055.13
475.484	2082.7
475.855	2110.04
476.227	2124.28
476.598	2160.66
476.97	2186.43
477.341	2193.88
477.713	2212.64
478.084	2210.83
478.455	2265.07
478.827	2275.91
479.198	2319.98
479.569	2332.86
479.94	2351.62
480.311	2343.03
480.682	2438.17
481.053	2393.88
481.424	2494.21
481.795	2463.25
482.166	2478.4
482.537	2505.29
482.908	2508
483.279	2563.36
483.65	2581.9
484.021	2615.57
484.391	2626.19
484.762	2631.39
485.133	2657.37
485.503	2675.45
485.874	2692.17
486.244	2728.33
486.615	2775.56
486.985	2800.19
487.356	2801.78
487.726	2837.26
488.097	2882.68
488.467	2867.99
488.837	2911.83
489.207	2917.93
489.578	2971.72
489.948	2960.42
490.318	2981.43
490.688	3013.3
491.058	3037.02
491.428	3052.84
491.798	3064.82
492.168	3086.74
492.538	3131.03
492.908	3143.01
493.278	3197.25
493.648	3174.42
494.017	3209.45
494.387	3201.99
494.757	3202.22
495.126	3256.68
495.496	3251.93
495.866	3285.83
496.235	3316.11
496.605	3333.29
496.974	3329.9
497.344	3315.44
497.713	3345.94
498.082	3342.78
498.452	3392.5
498.821	3405.83
499.19	3395.66
499.559	3420.29
499.928	3445.15
500.298	3471.36
500.667	3535.09
501.036	3430.23
501.405	3490.12
501.774	3509.78
502.143	3498.48
502.512	3540.29
502.88	3526.73
503.249	3537.58
503.618	3563.34
503.987	3572.6
504.356	3550.68
504.724	3578.48
505.093	3580.06
505.462	3536.22
505.83	3640.4
506.199	3617.12
506.567	3608.99
506.936	3619.83
507.304	3667.97
507.672	3652.38
508.041	3680.17
508.409	3692.15
508.777	3680.62
509.145	3719.49
509.514	3715.2
509.882	3738.93
510.25	3744.35
510.618	3768.76
510.986	3780.28
511.354	3775.76
511.722	3848.3
512.09	3816.89
512.458	3794.07
512.826	3838.13
513.193	3859.83
513.561	3838.81
513.929	3851.01
514.297	3885.82
514.664	3926.94
515.032	3872.48
515.4	3873.39
515.767	3909.32
516.135	3889.21
516.502	3910
516.869	3915.87
517.237	3877.68
517.604	3911.58
517.972	3944.12
518.339	3978.02
518.706	3972.82
519.073	3916.32
519.44	3993.61
519.808	3976.66
520.175	4015.53
520.542	4029.77
520.909	4063.21
521.276	4034.06
521.643	4037.22
522.009	3999.94
522.376	4100.73
522.743	4113.61
523.11	4157.22
523.477	4114.28
523.843	4151.57
524.21	4170.1
524.577	4178.69
524.943	4196.09
525.31	4258.46
525.676	4226.37
526.043	4233.15
526.409	4284.9
526.776	4279.25
527.142	4269.31
527.508	4292.81
527.874	4348.85
528.241	4366.93
528.607	4365.8
528.973	4401.73
529.339	4359.48
529.705	4405.8
530.071	4430.89
530.437	4467.72
530.803	4441.73
531.169	4482.41
531.535	4528.06
531.901	4543.88
532.267	4544.56
532.632	4578.45
532.998	4593.82
533.364	4598.34
533.73	4605.57
534.095	4657.77
534.461	4667.94
534.826	4664.55
535.192	4699.35
535.557	4739.8
535.923	4734.61
536.288	4743.65
536.653	4712.69
537.019	4724.21
537.384	4765.57
537.749	4830.65
538.114	4777.32
538.479	4770.09
538.845	4825.23
539.21	4876.52
539.575	4857.32
539.94	4909.07
540.305	4894.38
540.67	4931.89
541.034	4943.64
541.399	4980.93
541.764	5019.35
542.129	4984.77
542.494	5003.98
542.858	5060.7
543.223	5019.35
543.587	5056.41
543.952	5099.34
544.316	5122.85
544.681	5122.39
545.045	5150.87
545.41	5138.44
545.774	5182.96
546.138	5218.44
546.503	5234.03
546.867	5222.28
547.231	5281.26
547.595	5276.06
547.959	5303.86
548.324	5286.68
548.688	5294.59
549.052	5351.31
549.416	5354.48
549.779	5344.08
550.143	5359.22
550.507	5422.95
550.871	5414.59
551.235	5448.49
551.599	5500.24
551.962	5472.44
552.326	5516.51
552.689	5519.22
553.053	5490.29
553.417	5523.06
553.78	5596.05
554.143	5605.77
554.507	5632.44
554.87	5616.84
555.234	5648.48
555.597	5629.05
555.96	5614.81
556.323	5689.61
556.686	5707.69
557.05	5660.23
557.413	5688.25
557.776	5742.72
558.139	5748.59
558.502	5764.86
558.865	5805.31
559.228	5735.48
559.59	5840.11
559.953	5793.56
560.316	5843.96
560.679	5823.84
561.041	5913.56
561.404	5889.15
561.767	5919.21
562.129	5903.62
562.492	5968.02
562.854	5984.74
563.217	5980.9
563.579	5961.47
563.941	6023.39
564.304	6000.56
564.666	6035.36
565.028	6069.94
565.39	6071.97
565.753	6115.14
566.115	6119.2
566.477	6155.36
566.839	6182.48
567.201	6185.87
567.563	6215.02
567.925	6189.94
568.287	6290.72
568.648	6240.1
569.01	6311.29
569.372	6330.5
569.734	6357.16
570.095	6399.65
570.457	6417.5
570.819	6410.5
571.18	6485.52
571.542	6463.15
571.903	6516.03
572.265	6500.66
572.626	6599.19
572.987	6613.43
573.349	6695.69
573.71	6643.03
574.071	6751.28
574.432	6765.06
574.794	6878.73
575.155	6925.51
575.516	6962.8
575.877	6972.97
576.238	7003.93
576.599	7127.99
576.96	7161.89
577.32	7257.93
577.681	7277.82
578.042	7396.91
578.403	7496.79
578.763	7554.87
579.124	7715.32
579.485	7744.7
579.845	7822.21
580.206	7983.56
580.566	8045.25
580.927	8140.85
581.287	8289.99
581.648	8348.07
582.008	8523.89
582.368	8661.06
582.728	8788.51
583.089	8937.21
583.449	9109.86
583.809	9243.64
584.169	9470.98
584.529	9584.88
584.889	9827.81
585.249	9962.49
585.609	10169.27
585.969	10435.7
586.329	10543.04
586.688	10842.02
587.048	10948
587.408	11155
587.768	11496.69
588.127	11674.76
588.487	11919.5
588.846	12237.69
589.206	12387.74
589.565	12606.49
589.925	12971
590.284	13185.91
590.643	13504.77
591.003	13752
591.362	14089.84
591.721	14276.96
592.08	14581.58
592.44	14985.19
592.799	15149.47
593.158	15482.57
593.517	15716.47
593.876	16021.09
594.235	16277.13
594.593	16641.86
594.952	16913.95
595.311	17108.97
595.67	17512.8
596.029	17855.17
596.387	18187.59
596.746	18521.59
597.104	18745.31
597.463	19023.95
597.822	19429.14
598.18	19617.83
598.538	19963.36
598.897	20383.01
599.255	20455.32
599.613	21062.99
599.972	21173.72
600.33	21508.4
600.688	21693.03
601.046	22020.25
601.404	22410.53
601.762	22548.15
602.12	23018.42
602.478	23267.68
602.836	23541.57
603.194	23576.82
603.552	24050.71
603.91	24135.45
604.268	24558.49
604.625	24728.66
604.983	25019.95
605.341	25180.4
605.698	25562.08
606.056	25879.59
606.413	26083.42
606.771	26385.79
607.128	26574.94
607.485	26686.12
607.843	27011.31
608.2	27362.26
608.557	27709.82
608.914	27657.39
609.272	28058.74
609.629	28226.87
609.986	28574.66
610.343	28646.52
610.7	29008.32
611.057	29120.63
611.414	29368.31
611.771	29468.87
612.127	29792.93
612.484	29930.78
612.841	30119.25
613.198	30187.5
613.554	30276.08
613.911	30738.44
614.267	30942.28
614.624	30922.17
614.98	31154.48
615.337	31402.61
615.693	31612.54
616.05	31607.12
616.406	32012.53
616.762	31986.09
617.118	32158.07
617.475	32282.81
617.831	32464.73
618.187	32649.13
618.543	32788.56
618.899	33001.89
619.255	33079.62
619.611	33063.35
619.967	33326.17
620.323	33455.43
620.678	33402.33
621.034	33485.04
621.39	33639.16
621.746	33654.98
622.101	34156.21
622.457	34049.32
622.812	34158.69
623.168	34247.73
623.523	34426.26
623.879	34652.24
624.234	34397.78
624.589	34760.26
624.945	34717.55
625.3	34797.09
625.655	34968.39
626.01	34992.12
626.365	35128.84
626.72	35030.53
627.075	35094.71
627.43	35158.67
627.785	35236.63
628.14	35253.8
628.495	35364.31
628.85	35413.35
629.205	35369.51
629.559	35501.26
629.914	35491.31
630.269	35599.56
630.623	35527.7
630.978	35444.08
631.332	35617.86
631.687	35749.38
632.041	35830.74
632.396	35721.36
632.75	35675.94
633.104	35729.27
633.459	35694.02
633.813	35562.95
634.167	35692.44
634.521	35577.86
634.875	35832.55
635.229	35784.19
635.583	35714.58
635.937	35666.22
636.291	35851.53
636.645	35869.61
636.999	35696.05
637.352	35817.18
637.706	35604.98
638.06	35912.09
638.413	35882.49
638.767	35770.4
639.121	35844.07
639.474	35576.96
639.828	35710.29
640.181	35747.13
640.534	35796.62
640.888	35683.17
641.241	35541.71
641.594	35531.54
641.947	35825.99
642.301	35729.05
642.654	35752.77
643.007	35851.53
643.36	35738.76
643.713	35762.94
644.066	35833.9
644.419	35691.53
644.771	35452.9
645.124	35155.05
645.477	34946.02
645.83	34801.16
646.182	34668.96
646.535	34722.97
646.888	34760.26
647.24	34512.81
647.593	34787.15
647.945	34631
648.298	34613.14
648.65	34519.13
649.002	34378.8
649.355	34715.51
649.707	34566.14
650.059	34798.68
650.411	35189.17
650.763	35200.47
651.115	35627.58
651.467	35584.64
651.819	35457.87
652.171	35496.06
652.523	35303.75
652.875	35305.1
653.227	35255.16
653.578	35561.37
653.93	35403.86
654.282	35235.73
654.633	35239.34
654.985	35211.77
655.337	35293.8
655.688	35215.16
656.039	35325.89
656.391	35046.13
656.742	35227.36
657.094	35313.46
657.445	35241.83
657.796	35263.07
658.147	35165.9
658.498	35096.52
658.849	35191.66
659.2	35143.3
659.551	35032.79
659.902	35139.23
660.253	35271.43
660.604	35313.24
660.955	35132.9
661.306	35167.25
661.656	35073.47
662.007	35141.49
662.358	35091.55
662.708	35073.24
663.059	35117.31
663.409	34930.2
663.76	35191.89
664.11	35080.48
664.461	35072.79
664.811	35143.53
665.161	35130.64
665.511	35029.4
665.862	35117.31
666.212	35140.36
666.562	35097.65
666.912	35193.02
667.262	35085.45
667.612	35061.49
667.962	35149.4
668.312	34979.01
668.662	35116.63
669.011	35139.46
669.361	35040.48
669.711	35057.88
670.06	35003.42
670.41	34922.06
670.76	34954.15
671.109	35023.53
671.459	35058.56
671.808	34889.52
672.157	34868.28
672.507	34646.14
672.856	34946.24
673.205	34932.68
673.554	34940.82
673.904	34783.76
674.253	35077.76
674.602	34904.44
674.951	34385.13
675.3	34209.54
675.649	34717.32
675.998	34724.55
676.346	34629.41
676.695	34797.55
677.044	34623.09
677.393	34692.24
677.741	34750.09
678.09	34607.27
678.438	34540.6
678.787	34541.51
679.135	34613.14
679.484	34449.08
679.832	34485.46
680.181	34304.23
680.529	34452.92
680.877	34415.86
681.225	34342.42
681.573	34466.93
681.922	34261.06
682.27	34151.01
682.618	34195.53
682.966	34003.89
683.314	34212.25
683.661	34014.74
684.009	33861.98
684.357	33740.17
684.705	33787.63
685.053	33851.13
685.4	33805.48
685.748	33665.37
686.095	33592.83
686.443	33491.14
686.79	33438.94
687.138	33543.57
687.485	33374.76
687.832	33337.47
688.18	33279.62
688.527	33102.67
688.874	33113.75
689.221	33048.89
689.568	33023.35
689.915	33002.56
690.262	33063.58
690.609	32848.67
690.956	32757.6
691.303	32698.62
691.65	32646.64
691.997	32605.74
692.344	32450.26
692.69	32423.37
693.037	32337.27
693.383	32281.23
693.73	32260.44
694.077	32118.52
694.423	32120.1
694.769	31923.04
695.116	31789.04
695.462	31839.21
695.808	31667.23
696.155	31810.05
696.501	31476.5
696.847	31544.98
697.193	31234.02
697.539	31468.37
697.885	31206.91
698.231	31067.7
698.577	31159.68
698.923	31101.15
699.269	30887.14
699.614	30725.79
699.96	30681.72
700.306	30730.31
700.651	30624.1
700.997	30438.34
701.342	30511.33
701.688	30398.57
702.033	30259.59
702.379	30267.27
702.724	30238.57
703.069	30258.68
703.415	29860.73
703.76	30054.85
704.105	29953.61
704.45	29775.08
704.795	29759.71
705.14	29580.51
705.485	29646.49
705.83	29533.96
706.175	29536.67
706.52	29427.29
706.865	29413.51
707.209	29255.09
707.554	29227.97
707.899	29282.66
708.243	29063.46
708.588	29154.53
708.932	28855.33
709.277	28803.13
709.621	28855.33
709.966	28655.79
710.31	28759.74
710.654	28597.48
710.998	28634.32
711.342	28573.75
711.687	28559.52
712.031	28334.21
712.375	28195.69
712.719	28372.63
713.063	28277.72
713.407	28345.06
713.75	28278.85
714.094	28146.87
714.438	27981.23
714.782	28207.89
715.125	27994.11
715.469	28080.66
715.812	27876.6
716.156	27688.35
716.499	27743.49
716.843	27664.63
717.186	27526.78
717.53	27746.21
717.873	27552.09
718.216	27590.73
718.559	27453.33
718.902	27241.81
719.246	27390.73
719.589	27242.04
719.932	27146.45
720.275	27155.49
720.617	27123.17
720.96	27075.49
721.303	27066
721.646	27105.77
721.989	26771.09
722.331	26934.7
722.674	26861.03
723.016	26951.42
723.359	26680.24
723.701	26774.93
724.044	26631.43
724.386	26523.86
724.729	26622.17
725.071	26569.51
725.413	26464.66
725.755	26467.6
726.097	26448.39
726.439	26269.18
726.782	26327.49
727.124	26499.68
727.465	26310.54
727.807	26296.75
728.149	26204.33
728.491	26061.96
728.833	26154.61
729.175	25974.05
729.516	25947.38
729.858	25990.77
730.199	25996.19
730.541	25980.15
730.882	26020.83
731.224	26130.43
731.565	25831.91
731.906	25773.15
732.248	25857.22
732.589	25720.27
732.93	25650.67
733.271	25711.23
733.612	25571.12
733.953	25668.52
734.294	25590.56
734.635	25497.68
734.976	25543.78
735.317	25386.27
735.658	25510.33
735.999	25314.86
736.339	25291.58
736.68	25411.8
737.021	25307.4
737.361	25159.61
737.702	25282.77
738.042	25219.27
738.383	25236.44
738.723	25219.94
739.063	25177.46
739.404	25176.1
739.744	25154.18
740.084	24974.07
740.424	25124.13
740.764	24929.33
741.104	25034.19
741.444	24864.02
741.784	24838.94
742.124	24897.01
742.464	24892.27
742.804	24845.72
743.143	24730.92
743.483	24770.92
743.823	24619.51
744.162	24604.37
744.502	24678.26
744.841	24651.82
745.181	24764.14
745.52	24574.54
745.86	24581.32
746.199	24584.93
746.538	24622.67
746.877	24540.87
747.216	24491.15
747.556	24467.42
747.895	24567.31
748.234	24497.03
748.573	24374.77
748.911	24339.74
749.25	24278.5
749.589	24306.3
749.928	24311.72
750.267	24305.17
750.605	24295.9
750.944	24102.46
751.283	24085.74
751.621	24207.99
751.96	24052.52
752.298	24015.68
752.636	23988.56
752.975	23965.51
753.313	23943.59
753.651	23955.57
753.989	23858.4
754.327	23864.73
754.666	23737.27
755.004	23843.03
755.342	23932.97
755.679	23879.41
756.017	23634.9
756.355	23854.33
756.693	23587.22
757.031	23645.52
757.368	23539.99
757.706	23635.81
758.044	23450.5
758.381	23553.1
758.719	23436.71
759.056	23493.21
759.394	23409.14
759.731	23299.99
760.068	23278.07
760.405	23113.11
760.743	23145.65
761.08	23191.97
761.417	23105.2
761.754	23211.64
762.091	22996.27
762.428	22890.51
762.765	22829.5
763.102	22828.82
763.438	22728.94
763.775	22718.77
764.112	22708.15
764.449	22798.99
764.785	22629.5
765.122	22489.39
765.458	22363.3
765.795	22424.09
766.131	22326.23
766.467	22304.09
766.804	22169.4
767.14	22141.83
767.476	22025.45
767.812	21965.79
768.148	22021.61
768.485	21887.38
768.821	21763.09
769.157	21855.96
769.492	21689.19
769.828	21720.38
770.164	21566.03
770.5	21470.21
770.836	21526.71
771.171	21320.39
771.507	21367.84
771.842	21131.46
772.178	21149.77
772.513	21173.5
772.849	21070.45
773.184	20924.24
773.519	20924.01
773.855	20853.05
774.19	20705.03
774.525	20730.57
774.86	20725.37
775.195	20602.44
775.53	20528.54
775.865	20371.48
776.2	20361.99
776.535	20219.17
776.87	20196.12
777.205	20103.02
777.539	20048.78
777.874	20090.81
778.209	19843.59
778.543	19755.91
778.878	19689.47
779.212	19777.15
779.547	19547.1
779.881	19554.1
780.215	19499.87
780.55	19533.31
780.884	19316.37
781.218	19351.17
781.552	19339.87
781.886	19182.59
782.22	19087.45
782.554	19095.81
782.888	18939.88
783.222	18782.6
783.556	18791.19
783.889	18694.24
784.223	18651.53
784.557	18553.45
784.89	18656.05
785.224	18428.71
785.557	18401.14
785.891	18325.21
786.224	18285.89
786.558	18216.29
786.891	18017.42
787.224	18030.75
787.557	17962.06
787.891	18002.28
788.224	17931.55
788.557	17930.64
788.89	17777.88
789.223	17753.47
789.556	17599.13
789.888	17580.37
790.221	17517.55
790.554	17398.91
790.887	17406.82
791.219	17370.89
791.552	17245.01
791.884	17180.38
792.217	17152.59
792.549	17155.52
792.882	16959.37
793.214	17029.43
793.546	16996.43
793.879	16861.29
794.211	16755.99
794.543	16889.09
794.875	16729.55
795.207	16819.04
795.539	16636.89
795.871	16577.69
796.203	16490.91
796.535	16445.49
796.867	16354.87
797.198	16329.33
797.53	16374.53
797.862	16214.53
798.193	16207.3
798.525	16175.89
798.856	16160.07
799.188	15990.36
799.519	15876.46
799.85	15807.76
800.182	15832.62
800.513	15743.81
800.844	15664.04
801.175	15729.12
801.506	15761.66
801.837	15533.19
802.168	15551.27
802.499	15627.65
802.83	15490.93
803.161	15367.55
803.491	15377.49
803.822	15421.56
804.153	15301.11
804.483	15243.03
804.814	15151.06
805.145	15117.38
805.475	15073.32
805.805	15011.63
806.136	15019.76
806.466	15010.04
806.796	14956.49
807.126	14816.38
807.457	14822.48
807.787	14867.9
808.117	14778.64
808.447	14692.76
808.777	14758.07
809.107	14688.47
809.436	14659.54
809.766	14617.96
810.096	14605.76
810.426	14497.29
810.755	14514.91
811.085	14491.86
811.414	14493.9
811.744	14375.26
812.073	14368.03
812.403	14310.17
812.732	14280.34
813.061	14207.58
813.39	14053.68
813.719	14063.63
814.049	14165.77
814.378	14096.62
814.707	14000.8
815.036	14000.8
815.365	13988.38
815.693	13878.32
816.022	13932.56
816.351	13823.86
816.68	13697.31
817.008	13741.38
817.337	13632.9
817.665	13658.21
817.994	13640.59
818.322	13621.61
818.651	13581.15
818.979	13434.94
819.307	13538.9
819.636	13529.18
819.964	13389.29
820.292	13427.71
820.62	13459.58
820.948	13428.84
821.276	13493.47
821.604	13279.02
821.932	13322.86
822.259	13365.79
822.587	13399.46
822.915	13282.18
823.243	13367.6
823.57	13291.22
823.898	13308.17
824.225	13332.8
824.553	13338.45
824.88	13393.14
825.207	13353.59
825.535	13297.55
825.862	13300.94
826.189	13307.94
826.516	13335.51
826.843	13413.25
827.17	13330.99
827.497	13327.38
827.824	13355.85
828.151	13339.8
828.478	13309.52
828.805	13313.59
829.131	13314.04
829.458	13296.87
829.785	13213.25
830.111	13246.93
830.438	13250.99
830.764	13361.05
831.09	13336.19
831.417	13257.32
831.743	13277.43
832.069	13315.62
832.395	13177.77
832.722	13369.18
833.048	13222.07
833.374	13206.25
833.7	13164.67
834.026	13218.23
834.351	13253.71
834.677	13128.51
835.003	13153.37
835.329	13103.43
835.654	13003.09
835.98	13079.92
836.306	13078.34
836.631	13029.98
836.956	13044.9
837.282	13073.14
837.607	12985.46
837.932	12917.89
838.258	12908.63
838.583	12915.18
838.908	12848.74
839.233	12858.46
839.558	12814.85
839.883	12821.17
840.208	12771.01
840.533	12760.61
840.858	12779.82
841.182	12652.37
841.507	12703.21
841.832	12626.38
842.156	12609.88
842.481	12522.2
842.805	12629.77
843.13	12505.02
843.454	12529.43
843.778	12394.74
844.103	12491.01
844.427	12362.66
844.751	12368.98
845.075	12418.92
845.399	12334.41
845.723	12276.33
846.047	12353.39
846.371	12166.73
846.695	12211.47
847.019	12169.89
847.343	12053.51
847.666	11959.28
847.99	11925.6
848.313	11828.43
848.637	11818.71
848.96	11823.46
849.284	11838.6
849.607	11706.85
849.931	11702.33
850.254	11613.52
850.577	11534.43
850.9	11497.37
851.223	11542.56
851.546	11413.75
851.869	11398.84
852.192	11343.47
852.515	11286.98
852.838	11276.81
853.161	11223.93
853.483	11172.4
853.806	11124.72
854.129	11102.35
854.451	11032.07
854.774	11136.7
855.096	11021.22
855.419	10922.92
855.741	10894.45
856.063	10876.37
856.385	10875.24
856.708	10872.98
857.03	10804.96
857.352	10808.57
857.674	10808.35
857.996	10746.88
858.318	10670.72
858.64	10667.56
858.961	10601.57
859.283	10582.81
859.605	10528.13
859.926	10574.91
860.248	10558.86
860.57	10424.63
860.891	10488.35
861.212	10428.02
861.534	10456.72
861.855	10380.79
862.176	10330.17
862.498	10381.24
862.819	10374.23
863.14	10330.17
863.461	10276.38
863.782	10259.21
864.103	10231.41
864.424	10168.81
864.745	10183.5
865.065	10156.61
865.386	10158.65
865.707	10123.17
866.027	10105.09
866.348	10039.1
866.668	10115.93
866.989	10095.37
867.309	10023.06
867.63	10047.91
867.95	10019.21
868.27	9979.89
868.59	9989.16
868.91	9948.93
869.23	9900.35
869.55	9903.74
869.87	9936.05
870.19	9943.51
870.51	9882.49
870.83	9881.82
871.15	9808.6
871.469	9837.75
871.789	9772.89
872.109	9833.46
872.428	9747.58
872.748	9767.47
873.067	9745.1
873.386	9735.38
873.706	9737.87
874.025	9678.88
874.344	9715.49
874.663	9664.42
874.982	9641.82
875.301	9666.23
875.62	9595.95
875.939	9582.16
876.258	9612.22
876.577	9564.76
876.896	9489.06
877.214	9517.08
877.533	9514.14
877.852	9606.8
878.17	9494.48
878.489	9490.19
878.807	9485.67
879.125	9534.93
879.444	9447.93
879.762	9403.41
880.08	9415.39
880.398	9352.79
880.716	9353.47
881.034	9273.02
881.352	9310.31
881.67	9324.99
881.988	9317.54
882.306	9328.38
882.624	9284.32
882.941	9204.09
883.259	9183.98
883.577	9204.09
883.894	9180.59
884.212	9192.12
884.529	9119.58
884.846	9166.81
885.164	9123.19
885.481	9073.02
885.798	9115.06
886.115	8950.32
886.432	9000.03
886.75	8978.56
887.067	8920.94
887.383	8953.48
887.7	8874.84
888.017	8869.64
888.334	8771.56
888.651	8848.85
888.967	8828.74
889.284	8720.49
889.6	8802.3
889.917	8695.18
890.233	8706.25
890.55	8604.11
890.866	8659.93
891.182	8649.53
891.498	8637.78
891.815	8541.29
892.131	8531.8
892.447	8525.69
892.763	8503.77
893.079	8422.42
893.395	8440.05
893.71	8369.31
894.026	8409.09
894.342	8358.92
894.657	8290.45
894.973	8295.42
895.289	8361.4
895.604	8291.8
895.92	8169.32
896.235	8179.04
896.55	8185.82
896.865	8185.59
897.181	8115.99
897.496	8133.16
897.811	8111.24
898.126	8009.32
898.441	8046.38
898.756	7974.07
899.071	8004.8
899.386	7956.22
899.7	7930.91
900.015	7856.33
900.33	7810.46
900.644	7834.41
900.959	7832.15
901.273	7791.93
901.588	7780.18
901.902	7727.3
902.216	7716.45
902.531	7691.82
902.845	7632.61
903.159	7588.09
903.473	7551.48
903.787	7526.4
904.101	7523.46
904.415	7414.08
904.729	7492.27
905.042	7412.05
905.356	7361.43
905.67	7340.87
905.984	7385.84
906.297	7395.1
906.611	7268.1
906.924	7302.45
907.237	7250.93
907.551	7162.79
907.864	7217.48
908.177	7118.73
908.491	7149.46
908.804	7132.28
909.117	7094.77
909.43	7028.11
909.743	7007.77
910.056	6944.72
910.368	6971.16
910.681	6886.41
910.994	6941.55
911.307	6879.64
911.619	6872.63
911.932	6822.46
912.244	6751.5
912.557	6760.32
912.869	6760.32
913.181	6728
913.494	6668.57
913.806	6653.88
914.118	6695.23
914.43	6572.3
914.742	6583.6
915.054	6519.19
915.366	6529.14
915.678	6486.65
915.99	6495.01
916.302	6434.68
916.613	6406.65
916.925	6363.94
917.236	6391.96
917.548	6373.21
917.859	6321.46
918.171	6244.4
918.482	6307.67
918.794	6219.99
919.105	6253.44
919.416	6228.13
919.727	6137.28
920.038	6128.92
920.349	6034.91
920.66	6097.96
920.971	6076.27
921.282	6016.83
921.593	6012.54
921.903	5997.17
922.214	5943.39
922.525	5920.79
922.835	5864.29
923.146	5832.43
923.456	5801.7
923.767	5825.2
924.077	5796.05
924.387	5819.32
924.697	5742.49
925.008	5707.46
925.318	5714.92
925.628	5683.96
925.938	5625.88
926.248	5567.13
926.558	5583.4
926.867	5617.07
927.177	5569.16
927.487	5503.4
927.796	5460.69
928.106	5477.19
928.416	5417.98
928.725	5446.45
929.034	5362.61
929.344	5394.48
929.653	5353.8
929.962	5319.68
930.271	5325.1
930.581	5276.29
930.89	5281.26
931.199	5206.91
931.508	5213.69
931.817	5198.78
932.125	5223.63
932.434	5179.12
932.743	5111.77
933.051	5113.81
933.36	5120.36
933.669	5027.71
933.977	5040.81
934.286	5073.58
934.594	5059.57
934.902	4945.45
935.21	4950.65
935.519	4952.68
935.827	4977.09
936.135	4904.55
936.443	4891.89
936.751	4816.41
937.059	4852.8
937.367	4841.95
937.674	4844.43
937.982	4780.48
938.29	4799.46
938.597	4728.51
938.905	4727.38
939.213	4659.35
939.52	4682.86
939.827	4709.75
940.135	4652.8
940.442	4672.69
940.749	4622.29
941.056	4585.68
941.363	4562.18
941.67	4549.3
941.977	4492.35
942.284	4432.47
942.591	4500.49
942.898	4490.09
943.205	4439.7
943.511	4418.46
943.818	4414.39
944.125	4387.72
944.431	4393.37
944.738	4359.02
945.044	4346.82
945.35	4321.28
945.657	4275.18
945.963	4273.15
946.269	4283.09
946.575	4247.39
946.881	4183.89
947.187	4219.14
947.493	4186.15
947.799	4150.44
948.105	4171.23
948.41	4140.5
948.716	4145.92
949.022	4077.45
949.327	4077
949.633	4048.98
949.938	4060.27
950.244	4028.41
950.549	3956.1
950.854	4007.85
951.16	3979.15
951.465	3995.87
951.77	3917.23
952.075	3905.48
952.38	3885.59
952.685	3918.81
952.99	3831.35
953.294	3797
953.599	3809.66
953.904	3830
954.209	3783.9
954.513	3775.08
954.818	3792.26
955.122	3785.48
955.426	3739.83
955.731	3723.79
956.035	3722.88
956.339	3682.66
956.643	3666.16
956.948	3651.47
957.252	3609.89
957.556	3672.49
957.86	3632.26
958.163	3601.98
958.467	3599.5
958.771	3540.97
959.075	3574.41
959.378	3492.83
959.682	3518.82
959.985	3471.36
960.289	3483.79
960.592	3456.45
960.896	3466.84
961.199	3471.59
961.502	3420.97
961.805	3394.76
962.108	3359.73
962.411	3357.69
962.714	3360.86
963.017	3382.55
963.32	3386.17
963.623	3318.15
963.926	3319.96
964.228	3300.97
964.531	3270.92
964.833	3276.79
965.136	3244.7
965.438	3245.38
965.741	3183.46
966.043	3217.36
966.345	3168.55
966.648	3196.12
966.95	3190.69
967.252	3118.83
967.554	3134.65
967.856	3143.69
968.158	3103.24
968.46	3098.72
968.761	3076.12
969.063	3074.54
969.365	3044.71
969.666	3048.1
969.968	3037.93
970.269	3018.27
970.571	3030.92
970.872	2958.16
971.174	2972.62
971.475	2962.68
971.776	2913.41
972.077	2951.83
972.378	2907.08
972.679	2936.01
972.98	2927.65
973.281	2930.36
973.582	2925.39
973.883	2864.37
974.183	2860.76
974.484	2839.97
974.785	2828.89
975.085	2795.45
975.386	2792.29
975.686	2797.26
975.986	2809.91
976.287	2788.9
976.587	2776.69
976.887	2745.28
977.187	2724.72
977.487	2733.08
977.787	2686.3
978.087	2712.06
978.387	2671.84
978.687	2687.66
978.987	2627.54
979.286	2646.07
979.586	2644.49
979.885	2597.04
980.185	2609.24
980.484	2609.92
980.784	2580.99
981.083	2581.44
981.382	2564.04
981.682	2567.66
981.981	2514.78
982.28	2546.64
982.579	2488.79
982.878	2531.95
983.177	2505.29
983.475	2509.58
983.774	2501.45
984.073	2429.36
984.372	2443.37
984.67	2439.07
984.969	2464.61
985.267	2426.87
985.566	2418.74
985.864	2399.75
986.162	2397.27
986.461	2361.11
986.759	2372.86
987.057	2352.97
987.355	2331.73
987.653	2363.82
987.951	2292.86
988.249	2324.95
988.547	2325.4
988.844	2291.51
989.142	2286.08
989.44	2259.64
989.737	2249.93
990.035	2233.43
990.332	2246.76
990.63	2198.63
990.927	2254.9
991.224	2212.64
991.521	2192.75
991.819	2196.59
992.116	2181.45
992.413	2183.04
992.71	2168.12
993.006	2142.81
993.303	2162.7
993.6	2148.46
993.897	2145.3
994.193	2122.7
994.49	2125.86
994.787	2054.9
995.083	2030.95
995.379	2066.2
995.676	2056.71
995.972	2071.4
996.268	2009.26
996.565	2028.01
996.861	2032.53
997.157	2065.52
997.453	1989.59
997.749	1971.52
998.044	1975.36
998.34	1973.1
998.636	1975.81
998.932	1963.83
999.227	1953.21
999.523	1939.88
999.818	1921.57
1000.114	1911.86
1000.409	1901.01
1000.704	1871.18
1001	1882.7
1001.295	1858.3
1001.59	1852.88
1001.885	1851.52
1002.18	1847.45
1002.475	1853.55
1002.77	1816.27
1003.065	1794.35
1003.359	1810.84
1003.654	1799.77
1003.949	1763.84
1004.243	1779.2
1004.538	1748.24
1004.832	1757.74
1005.127	1750.5
1005.421	1717.51
1005.715	1723.61
1006.009	1723.39
1006.304	1713.9
1006.598	1684.52
1006.892	1701.92
1007.186	1680.9
1007.48	1661.92
1007.773	1643.84
1008.067	1653.78
1008.361	1638.64
1008.655	1642.26
1008.948	1605.88
1009.242	1630.06
1009.535	1578.31
1009.829	1602.26
1010.122	1599.1
1010.415	1598.19
1010.708	1612.43
1011.001	1534.24
1011.295	1567.46
1011.588	1511.87
1011.881	1536.5
1012.173	1513.22
1012.466	1549.15
1012.759	1520.68
1013.052	1515.03
1013.344	1477.07
1013.637	1470.96
1013.93	1492.21
1014.222	1488.36
1014.514	1466.44
1014.807	1469.83
1015.099	1413.34
1015.391	1438.87
1015.683	1433
1015.976	1417.86
1016.268	1444.75
1016.56	1385.32
1016.851	1376.5
1017.143	1371.31
1017.435	1394.81
1017.727	1363.4
1018.018	1364.53
1018.31	1343.06
1018.602	1318.65
1018.893	1323.85
1019.185	1328.14
1019.476	1315.04
1019.767	1281.36
1020.058	1306.45
1020.35	1299.44
1020.641	1275.26
1020.932	1307.8
1021.223	1284.08
1021.514	1260.35
1021.804	1239.56
1022.095	1221.71
1022.386	1254.92
1022.677	1240.91
1022.967	1204.08
1023.258	1209.5
1023.548	1209.5
1023.839	1193.46
1024.129	1194.36
1024.419	1206.56
1024.709	1189.62
1025	1176.28
1025.29	1149.62
1025.58	1151.42
1025.87	1136.51
1026.16	1131.09
1026.449	1149.16
1026.739	1124.53
1027.029	1139.9
1027.319	1136.06
1027.608	1115.27
1027.898	1142.39
1028.187	1080.92
1028.477	1091.77
1028.766	1108.49
1029.055	1057.87
1029.344	1058.77
1029.634	1046.79
1029.923	1074.82
1030.212	1052.22
1030.501	1052.67
1030.79	1035.95
1031.078	1011.09
1031.367	1008.15
1031.656	1006.8
1031.945	996.17
1032.233	1015.38
1032.522	1011.32
1032.81	1000.47
1033.099	999.34
1033.387	974.03
1033.675	972.9
1033.963	954.59
1034.251	956.85
1034.54	952.11
1034.828	947.59
1035.116	935.39
1035.403	914.59
1035.691	934.03
1035.979	924.76
1036.267	929.74
1036.554	925.67
1036.842	918.21
1037.129	899.68
1037.417	900.13
1037.704	889.51
1037.992	869.62
1038.279	858.55
1038.566	857.19
1038.853	857.19
1039.14	857.19
