Data from hue_22_FLMS001491_00027.txt Node
Date: Tue Feb 07 17:09:52 GMT 2017
User: dcchb
Spectrometer: FLMS00149
Trigger mode: 0
Integration Time (sec): 2.000000E-2
Scans to average: 10
Electric dark correction enabled: true
Nonlinearity correction enabled: false
Boxcar width: 0
XAxis mode: Wavelengths
Number of Pixels in Spectrum: 2048
>>>>>Begin Spectral Data<<<<<
341.393	-17.67
341.776	-17.67
342.16	-17.67
342.543	-68.06
342.927	-71.45
343.31	-82.53
343.693	-58.12
344.077	-64.45
344.46	-50.21
344.843	-59.48
345.226	-40.95
345.61	-24
345.993	-23.09
346.376	-14.28
346.759	7.87
347.142	17.81
347.525	56.23
347.908	59.17
348.291	63.91
348.674	112.95
349.057	99.16
349.44	109.56
349.823	152.72
350.206	163.8
350.588	185.72
350.971	207.41
351.354	224.36
351.737	250.12
352.119	259.16
352.502	269.33
352.884	285.15
353.267	292.61
353.65	290.8
354.032	301.19
354.414	298.25
354.797	293.96
355.179	327.63
355.562	337.12
355.944	331.02
356.326	342.55
356.709	339.16
357.091	344.81
357.473	360.17
357.855	355.88
358.238	340.97
358.62	345.94
359.002	322.21
359.384	350
359.766	340.51
360.148	345.71
360.53	337.12
360.912	335.32
361.294	341.64
361.676	344.13
362.057	321.76
362.439	328.54
362.821	335.77
363.203	328.76
363.584	317.69
363.966	317.92
364.348	306.62
364.729	313.85
365.111	326.28
365.493	337.12
365.874	297.12
366.256	311.14
366.637	317.24
367.019	305.94
367.4	310.01
367.781	312.04
368.163	320.63
368.544	315.66
368.925	318.59
369.306	323.11
369.688	334.19
370.069	313.62
370.45	340.51
370.831	315.2
371.212	327.18
371.593	320.4
371.974	309.33
372.355	318.59
372.736	327.41
373.117	328.99
373.498	324.92
373.879	305.94
374.26	305.71
374.641	333.51
375.021	327.41
375.402	324.02
375.783	330.8
376.163	334.41
376.544	326.28
376.925	344.36
377.305	320.85
377.686	328.99
378.066	307.07
378.447	332.38
378.827	310.91
379.208	340.51
379.588	326.95
379.968	323.56
380.349	351.36
380.729	329.67
381.109	338.03
381.489	349.33
381.87	356.33
382.25	357.91
382.63	338.48
383.01	364.92
383.39	346.16
383.77	348.88
384.15	340.97
384.53	346.16
384.91	347.75
385.29	352.26
385.67	350
386.049	343.23
386.429	363.34
386.809	365.15
387.189	353.62
387.568	333.73
387.948	368.99
388.328	352.72
388.707	377.12
389.087	359.95
389.466	358.59
389.846	361.08
390.225	356.78
390.605	363.56
390.984	364.47
391.363	374.86
391.743	361.3
392.122	364.92
392.501	388.42
392.881	384.35
393.26	363.79
393.639	381.19
394.018	383.22
394.397	373.51
394.776	385.03
395.155	405.82
395.534	380.29
395.913	379.16
396.292	391.36
396.671	386.61
397.05	409.21
397.429	405.14
397.808	383.9
398.186	410.34
398.565	411.47
398.944	397.46
399.323	388.2
399.701	388.87
400.08	405.14
400.458	384.81
400.837	408.76
401.215	394.3
401.594	412.15
401.972	406.5
402.351	396.33
402.729	403.56
403.107	405.37
403.486	419.61
403.864	417.8
404.242	431.81
404.62	422.32
404.999	407.86
405.377	430.23
405.755	426.61
406.133	441.3
406.511	442.43
406.889	439.95
407.267	434.07
407.645	453.96
408.023	415.99
408.401	433.17
408.779	426.16
409.156	467.52
409.534	452.15
409.912	468.19
410.29	446.27
410.667	461.41
411.045	473.84
411.422	469.1
411.8	455.54
412.178	478.59
412.555	467.29
412.933	462.54
413.31	469.78
413.687	481.75
414.065	486.72
414.442	493.73
414.819	481.07
415.197	480.85
415.574	493.73
415.951	495.31
416.328	506.38
416.705	500.96
417.082	496.67
417.46	503.67
417.837	499.61
418.214	504.13
418.591	492.37
418.967	507.51
419.344	512.94
419.721	504.35
420.098	527.63
420.475	533.73
420.852	536.21
421.228	554.07
421.605	537.34
421.982	522.66
422.358	554.97
422.735	537.12
423.111	536.89
423.488	534.86
423.864	548.87
424.241	566.27
424.617	563.11
424.994	550.23
425.37	568.76
425.746	571.47
426.123	585.48
426.499	583.45
426.875	593.16
427.251	583.9
427.627	588.42
428.003	597.91
428.379	607.85
428.756	580.06
429.132	630.45
429.507	605.14
429.883	605.37
430.259	623.9
430.635	625.25
431.011	617.34
431.387	632.26
431.763	644.01
432.138	647.4
432.514	632.94
432.89	643.1
433.265	651.47
433.641	681.97
434.016	666.61
434.392	681.75
434.767	684.23
435.143	676.78
435.518	683.78
435.894	713.84
436.269	709.09
436.644	689.43
437.02	686.95
437.395	707.06
437.77	714.29
438.145	714.74
438.52	733.95
438.895	740.73
439.271	734.4
439.646	734.4
440.021	750.67
440.395	765.14
440.77	760.62
441.145	731.46
441.52	764.01
441.895	761.07
442.27	768.98
442.645	779.82
443.019	791.58
443.394	763.33
443.769	797.22
444.143	779.15
444.518	802.2
444.892	797.22
445.267	804
445.641	800.39
446.016	818.24
446.39	815.76
446.764	798.13
447.139	812.59
447.513	845.13
447.887	821.4
448.262	811.91
448.636	823.66
449.01	868.41
449.384	854.17
449.758	884.45
450.132	856.66
450.506	875.19
450.88	862.53
451.254	867.73
451.628	903.89
452.002	893.95
452.376	890.33
452.75	892.82
453.123	893.27
453.497	924.45
453.871	931.23
454.244	927.39
454.618	941.18
454.992	938.46
455.365	950.44
455.739	960.61
456.112	1003.77
456.486	971.23
456.859	1020.95
457.232	1018.46
457.606	995.19
457.979	1028.18
458.352	1042.87
458.725	1039.48
459.099	1066.14
459.472	1049.87
459.845	1065.24
460.218	1087.84
460.591	1108.86
460.964	1099.14
461.337	1133.94
461.71	1113.15
462.083	1148.63
462.456	1142.53
462.829	1143.2
463.201	1178.46
463.574	1175.75
463.947	1216.87
464.32	1193.15
464.692	1214.61
465.065	1227.95
465.438	1268.62
465.81	1248.96
466.183	1277.89
466.555	1291
466.928	1292.8
467.3	1293.26
467.672	1301.17
468.045	1346.14
468.417	1349.3
468.789	1355.4
469.161	1399.47
469.534	1396.31
469.906	1448.51
470.278	1464.78
470.65	1460.03
471.022	1494.61
471.394	1516.53
471.766	1528.96
472.138	1523.76
472.51	1579.13
472.882	1591.55
473.253	1616.19
473.625	1637.65
473.997	1696.86
474.369	1669.07
474.74	1709.74
475.112	1708.61
475.484	1786.8
475.855	1801.04
476.227	1810.76
476.598	1840.14
476.97	1863.19
477.341	1923.75
477.713	1947.25
478.084	1973.47
478.455	2014.37
478.827	2081.48
479.198	2106.79
479.569	2095.72
479.94	2188.37
480.311	2160.8
480.682	2229.05
481.053	2283.74
481.424	2330.74
481.795	2366
482.166	2407.35
482.537	2452.1
482.908	2514.24
483.279	2500
483.65	2599.21
484.021	2608.02
484.391	2660.45
484.762	2754.01
485.133	2743.84
485.503	2797.85
485.874	2849.83
486.244	2873.33
486.615	2961.69
486.985	2952.87
487.356	3038.3
487.726	3094.34
488.097	3144.28
488.467	3158.74
488.837	3227.67
489.207	3308.12
489.578	3339.3
489.948	3367.78
490.318	3376.14
490.688	3424.05
491.058	3469.47
491.428	3536.36
491.798	3564.16
492.168	3678.5
492.538	3683.25
492.908	3723.25
493.278	3813.64
493.648	3780.42
494.017	3843.7
494.387	3889.12
494.757	3939.29
495.126	3958.5
495.496	4003.24
495.866	3977.25
496.235	4069.46
496.605	4134.99
496.974	4113.52
497.344	4160.75
497.713	4213.63
498.082	4225.61
498.452	4242.11
498.821	4309.9
499.19	4306.96
499.559	4396.68
499.928	4415.89
500.298	4433.74
500.667	4483.68
501.036	4485.49
501.405	4527.52
501.774	4574.07
502.143	4553.51
502.512	4595.32
502.88	4672.83
503.249	4668.99
503.618	4677.8
503.987	4681.19
504.356	4735.2
504.724	4753.73
505.093	4824.69
505.462	4802.32
505.83	4823.11
506.199	4834.41
506.567	4932.03
506.936	4930.22
507.304	4981.3
507.672	4996.66
508.041	5014.97
508.409	5014.97
508.777	5044.8
509.145	5078.92
509.514	5098.58
509.882	5157.56
510.25	5151.46
510.618	5164.79
510.986	5219.26
511.354	5200.27
511.722	5257.67
512.09	5309.2
512.458	5341.29
512.826	5353.72
513.193	5348.52
513.561	5348.97
513.929	5419.93
514.297	5452.47
514.664	5491.11
515.032	5519.13
515.4	5513.71
515.767	5541.73
516.135	5561.85
516.502	5555.97
516.869	5605.69
517.237	5704.21
517.604	5594.61
517.972	5665.8
518.339	5671.67
518.706	5708.28
519.073	5729.07
519.44	5777.66
519.808	5800.48
520.175	5788.96
520.542	5878
520.909	5912.12
521.276	5929.97
521.643	5931.78
522.009	5989.4
522.376	6021.27
522.743	6059.91
523.11	6055.39
523.477	6113.24
523.843	6182.62
524.21	6176.52
524.577	6218.1
524.943	6174.71
525.31	6246.35
525.676	6316.63
526.043	6323.63
526.409	6378.77
526.776	6426
527.142	6444.76
527.508	6440.92
527.874	6511.2
528.241	6578.32
528.607	6589.84
528.973	6581.71
529.339	6657.18
529.705	6693.34
530.071	6694.24
530.437	6734.02
530.803	6775.37
531.169	6898.08
531.535	6843.17
531.901	6864.86
532.267	6921.58
532.632	6952.32
532.998	6970.62
533.364	6990.96
533.73	6968.59
534.095	7098.98
534.461	7099.21
534.826	7167
535.192	7184.18
535.557	7183.05
535.923	7247.68
536.288	7243.16
536.653	7276.15
537.019	7259.65
537.384	7272.53
537.749	7328.35
538.114	7368.13
538.479	7412.42
538.845	7412.19
539.21	7427.78
539.575	7516.6
539.94	7502.81
540.305	7513.66
540.67	7552.3
541.034	7547.1
541.399	7662.13
541.764	7712.98
542.129	7689.92
542.494	7723.6
542.858	7762.24
543.223	7778.28
543.587	7824.84
543.952	7913.42
544.316	7861.45
544.681	7865.74
545.045	7925.17
545.41	7958.39
545.774	8017.37
546.138	8025.74
546.503	8057.15
546.867	8056.69
547.231	8084.04
547.595	8130.82
547.959	8191.83
548.324	8164.04
548.688	8122.91
549.052	8245.39
549.416	8232.51
549.779	8217.59
550.143	8341.21
550.507	8357.48
550.871	8350.7
551.235	8411.94
551.599	8460.53
551.962	8455.33
552.326	8503.91
552.689	8562.44
553.053	8527.42
553.417	8529.45
553.78	8649.22
554.143	8611.26
554.507	8646.51
554.87	8713.63
555.234	8777.81
555.597	8734.42
555.96	8740.74
556.323	8870.46
556.686	8804.25
557.05	8806.51
557.413	8891.02
557.776	8882.89
558.139	8954.52
558.502	9000.4
558.865	8961.98
559.228	9019.38
559.59	9126.72
559.953	9090.79
560.316	9220.96
560.679	9222.77
561.041	9275.19
561.404	9243.56
561.767	9277.23
562.129	9308.64
562.492	9368.98
562.854	9374.17
563.217	9357.9
563.579	9445.58
563.941	9513.61
564.304	9491.91
564.666	9578.46
565.028	9573.04
565.39	9575.75
565.753	9624.79
566.115	9682.87
566.477	9715.63
566.839	9726.48
567.201	9834.73
567.563	9790.89
567.925	9951.11
568.287	9875.63
568.648	9903.43
569.01	9977.32
569.372	9981.39
569.734	10018.23
570.095	10100.71
570.457	10170.54
570.819	10198.56
571.18	10191.55
571.542	10314.26
571.903	10203.08
572.265	10335.96
572.626	10477.2
572.987	10426.8
573.349	10440.36
573.71	10527.59
574.071	10537.31
574.432	10635.16
574.794	10696.4
575.155	10737.98
575.516	10793.8
575.877	10878.09
576.238	10916.73
576.599	11061.14
576.96	11104.07
577.32	11160.57
577.681	11296.61
578.042	11316.04
578.403	11401.24
578.763	11519.43
579.124	11593.55
579.485	11729.14
579.845	11846.65
580.206	11875.8
580.566	11923.26
580.927	12097.49
581.287	12279.18
581.648	12411.83
582.008	12556.01
582.368	12667.87
582.728	12791.94
583.089	12853.63
583.449	13033.97
583.809	13295.2
584.169	13405.25
584.529	13515.08
584.889	13854.28
585.249	13905.13
585.609	14050.89
585.969	14310.32
586.329	14503.53
586.688	14764.99
587.048	14979.22
587.408	15200.01
587.768	15371.08
588.127	15588.25
588.487	15792.08
588.846	16218.06
589.206	16322.24
589.565	16660.54
589.925	16903.47
590.284	17140.52
590.643	17511.14
591.003	17702.99
591.362	18042.65
591.721	18258.91
592.08	18552.24
592.44	18851.44
592.799	19105.67
593.158	19433.8
593.517	19657.29
593.876	20039.43
594.235	20212.53
594.593	20556.03
594.952	20885.06
595.311	21156.69
595.67	21542.67
596.029	21902.21
596.387	22272.14
596.746	22544.68
597.104	22797.32
597.463	23161.38
597.822	23443.86
598.18	23707.36
598.538	24098.53
598.897	24542.36
599.255	24654.45
599.613	25333.08
599.972	25321.1
600.33	25700.98
600.688	25997.01
601.046	26313.39
601.404	26724.9
601.762	26958.12
602.12	27460.25
602.478	27600.59
602.836	27951.09
603.194	28162.15
603.552	28531.86
603.91	28698.41
604.268	29170.04
604.625	29301.56
604.983	29750.14
605.341	29979.28
605.698	30241.42
606.056	30565.93
606.413	30662.65
606.771	31033.72
607.128	31316.2
607.485	31524.55
607.843	31764.77
608.2	32201.6
608.557	32553
608.914	32710.06
609.272	32912.99
609.629	33213.55
609.986	33629.36
610.343	33646.08
610.7	34138.04
611.057	34289
611.414	34209.23
611.771	34600.18
612.127	34939.38
612.484	35073.16
612.841	35400.38
613.198	35401.06
613.554	35719.24
613.911	36013.7
614.267	36109.06
614.624	36317.87
614.98	36463.86
615.337	36970.06
615.693	36956.73
616.05	37178.87
616.406	37423.15
616.762	37492.76
617.118	37620.89
617.475	37885.06
617.831	38166.41
618.187	38323.24
618.543	38328.89
618.899	38690.01
619.255	38875.55
619.611	38911.48
619.967	39087.07
620.323	39301.52
620.678	39291.58
621.034	39283.9
621.39	39506.72
621.746	39522.31
622.101	40119.13
622.457	39965.46
622.812	40019.92
623.168	40255.4
623.523	40267.37
623.879	40457.42
624.234	40349.63
624.589	40596.18
624.945	40631.88
625.3	40904.42
625.655	40737.42
626.01	40894.48
626.365	41038.65
626.72	41070.97
627.075	41011.53
627.43	41144.86
627.785	41152.77
628.14	41254.01
628.495	41421.92
628.85	41339.44
629.205	41335.14
629.559	41660.33
629.914	41509.15
630.269	41681.35
630.623	41608.58
630.978	41500.34
631.332	41924.5
631.687	41889.7
632.041	41732.65
632.396	41868.69
632.75	41880.66
633.104	41981.23
633.459	41833.43
633.813	41866.65
634.167	41944.39
634.521	42037.5
634.875	42010.38
635.229	41986.88
635.583	41950.72
635.937	42035.46
636.291	41977.38
636.645	42107.55
636.999	41941.45
637.352	42058.96
637.706	41828.46
638.06	42095.8
638.413	41935.13
638.767	41837.5
639.121	41999.53
639.474	41734.68
639.828	41803.83
640.181	41955.01
640.534	41958.4
640.888	41920.44
641.241	41722.02
641.594	41883.38
641.947	41971.28
642.301	41791.85
642.654	41830.04
643.007	41861.23
643.36	41838.18
643.713	41818.97
644.066	41963.37
644.419	41727.9
644.771	41576.04
645.124	41195.71
645.477	41079.1
645.83	40911.88
646.182	40764.31
646.535	40781.94
646.888	40747.13
647.24	40658.78
647.593	40826
647.945	40803.86
648.298	40652.22
648.65	40583.07
649.002	40449.06
649.355	40736.29
649.707	40641.15
650.059	40685.44
650.411	41321.58
650.763	41295.59
651.115	41717.73
651.467	41617.39
651.819	41544.85
652.171	41281.81
652.523	41278.87
652.875	41291.53
653.227	41306.44
653.578	41500.79
653.93	41446.1
654.282	41303.73
654.633	41268.48
654.985	41230.96
655.337	41372.88
655.688	41339.44
656.039	41513.89
656.391	41140.57
656.742	41345.99
657.094	41347.8
657.445	41473.22
657.796	41334.69
658.147	41300.34
658.498	41260.57
658.849	41193.68
659.2	41212.43
659.551	41028.03
659.902	41226.44
660.253	41294.01
660.604	41225.54
660.955	41056.96
661.306	41137.63
661.656	41245.2
662.007	41107.35
662.358	41168.82
662.708	41172.89
663.059	41040.91
663.409	40892.67
663.76	41243.39
664.11	41158.42
664.461	41056.51
664.811	41250.85
665.161	41067.13
665.511	41024.19
665.862	41035.94
666.212	41254.92
666.562	41135.83
666.912	40997.3
667.262	41004.98
667.612	41015.83
667.962	40990.97
668.312	40988.03
668.662	41138.99
669.011	41044.53
669.361	41025.77
669.711	40952.1
670.06	40874.14
670.41	40872.33
670.76	40811.77
671.109	41011.99
671.459	41002.95
671.808	40681.6
672.157	40907.81
672.507	40842.27
672.856	40734.48
673.205	40901.03
673.554	40946.68
673.904	40847.25
674.253	40923.85
674.602	40831.88
674.951	40278.45
675.3	40157.55
675.649	40705.1
675.998	40747.36
676.346	40612.68
676.695	40768.15
677.044	40526.35
677.393	40746
677.741	40611.09
678.09	40676.4
678.438	40490.64
678.787	40523.41
679.135	40630.53
679.484	40306.92
679.832	40441.83
680.181	40219.47
680.529	40290.65
680.877	40316.86
681.225	40279.8
681.573	40456.3
681.922	40176.53
682.27	40150.54
682.618	39944.67
682.966	39921.17
683.314	40072.12
683.661	39895.86
684.009	39710.33
684.357	39662.64
684.705	39655.64
685.053	39603.66
685.4	39626.49
685.748	39416.1
686.095	39348.75
686.443	39275.99
686.79	39194.86
687.138	39315.53
687.485	39336.32
687.832	39304.69
688.18	39209.1
688.527	39050.68
688.874	39007.29
689.221	38898.82
689.568	38822.89
689.915	38745.83
690.262	38688.43
690.609	38604.37
690.956	38516.46
691.303	38454.31
691.65	38270.14
691.997	38380.64
692.344	38038.28
692.69	38091.39
693.037	38137.49
693.383	37773.2
693.73	37921.9
694.077	37555.13
694.423	37763.48
694.769	37532.53
695.116	37564.17
695.462	37483.49
695.808	37405.98
696.155	37378.18
696.501	37125.54
696.847	37045.76
697.193	36919.89
697.539	37089.6
697.885	36802.61
698.231	36756.05
698.577	36623.18
698.923	36704.76
699.269	36447.36
699.614	36192.9
699.96	36229.51
700.306	36161.27
700.651	36053.47
700.997	35880.6
701.342	35921.95
701.688	35797.43
702.033	35655.97
702.379	35717.89
702.724	35601.06
703.069	35702.07
703.415	35240.84
703.76	35349.08
704.105	35282.87
704.45	35187.51
704.795	35122.88
705.14	34942.32
705.485	35093.5
705.83	34776.9
706.175	34880.17
706.52	34875.42
706.865	34620.29
707.209	34509.11
707.554	34446.51
707.899	34491.93
708.243	34337.59
708.588	34259.62
708.932	34031.61
709.277	34099.85
709.621	34109.12
709.966	33937.14
710.31	33789.8
710.654	33538.74
710.998	33699.86
711.342	33730.14
711.687	33635.23
712.031	33424.84
712.375	33440.43
712.719	33529.92
713.063	33420.77
713.407	33368.12
713.75	33165.64
714.094	33268.69
714.438	33179.2
714.782	33165.41
715.125	32997.73
715.469	32928.13
715.812	32826.21
716.156	32700.57
716.499	32587.12
716.843	32801.58
717.186	32513.68
717.53	32832.31
717.873	32699.89
718.216	32543.96
718.559	32383.06
718.902	32225.32
719.246	32447.47
719.589	32184.87
719.932	32132.22
720.275	32160.69
720.617	32042.28
720.96	31996.18
721.303	31945.11
721.646	31808.39
721.989	31711.44
722.331	31799.8
722.674	31661.95
723.016	31821.49
723.359	31665.11
723.701	31687.71
724.044	31507.83
724.386	31420.15
724.729	31451.79
725.071	31454.95
725.413	31362.97
725.755	31259.93
726.097	31154.17
726.439	31104.9
726.782	31159.36
727.124	31233.94
727.465	31080.04
727.807	30992.59
728.149	30965.02
728.491	30839.15
728.833	30888.41
729.175	30766.61
729.516	30787.62
729.858	30767.06
730.199	30851.35
730.541	30596.67
730.882	30572.04
731.224	30671.92
731.565	30508.31
731.906	30529.55
732.248	30575.65
732.589	30357.8
732.93	30315.09
733.271	30069.68
733.612	30323.23
733.953	30168.43
734.294	30179.05
734.635	30083.69
734.976	30157.13
735.317	30005.27
735.658	30076.68
735.999	30073.07
736.339	29885.27
736.68	30033.74
737.021	29878.27
737.361	29729.8
737.702	29897.48
738.042	29670.59
738.383	29690.48
738.723	29815.44
739.063	29657.93
739.404	29630.14
739.744	29570.48
740.084	29454.78
740.424	29576.58
740.764	29500.65
741.104	29570.25
741.444	29375.91
741.784	29278.06
742.124	29368.45
742.464	29244.16
742.804	29275.12
743.143	29174.33
743.483	29108.12
743.823	28991.74
744.162	28995.13
744.502	29076.93
744.841	28931.4
745.181	29059.53
745.52	28838.97
745.86	28892.98
746.199	28814.57
746.538	28854.11
746.877	28872.42
747.216	28933.21
747.556	28638.3
747.895	28628.36
748.234	28524.86
748.573	28480.56
748.911	28571.18
749.25	28541.13
749.589	28514.46
749.928	28476.5
750.267	28513.11
750.605	28464.75
750.944	28274.69
751.283	28205.54
751.621	28261.81
751.96	28078.54
752.298	28090.97
752.636	28156.96
752.975	28090.07
753.313	27958.32
753.651	28017.53
753.989	27874.48
754.327	27885.78
754.666	27577.99
755.004	27666.12
755.342	27721.94
755.679	27587.93
756.017	27374.38
756.355	27463.64
756.693	27368.05
757.031	27420.93
757.368	27265.23
757.706	27225.68
758.044	27222.52
758.381	27242.63
758.719	27106.59
759.056	27116.76
759.394	26981.17
759.731	26738.69
760.068	26707.28
760.405	26631.12
760.743	26658.24
761.08	26594.51
761.417	26485.36
761.754	26446.27
762.091	26532.14
762.428	26370.56
762.765	26121.76
763.102	26232.71
763.438	26076.56
763.775	25878.6
764.112	26013.74
764.449	25940.29
764.785	25883.8
765.122	25655.55
765.458	25612.17
765.795	25552.96
766.131	25470.02
766.467	25417.37
766.804	25239.97
767.14	25231.16
767.476	25208.11
767.812	25061.9
768.148	25081.11
768.485	24895.12
768.821	24797.5
769.157	24844.73
769.492	24710.95
769.828	24753.88
770.164	24481.8
770.5	24320.22
770.836	24410.16
771.171	24345.76
771.507	24237.06
771.842	24138.08
772.178	24044.52
772.513	24099.21
772.849	23993.68
773.184	23857.18
773.519	23741.25
773.855	23574.25
774.19	23619.22
774.525	23481.83
774.86	23500.13
775.195	23512.79
775.53	23274.6
775.865	23151.44
776.2	23034.15
776.535	22887.72
776.87	22912.35
777.205	22881.62
777.539	22683.88
777.874	22658.34
778.209	22515.98
778.543	22517.56
778.878	22352.14
779.212	22348.52
779.547	22195.53
779.881	22341.29
780.215	21986.72
780.55	22184.23
780.884	21878.03
781.218	21922.32
781.552	21940.62
781.886	21760.52
782.22	21631.71
782.554	21643.68
782.888	21498.15
783.222	21376.12
783.556	21257.93
783.889	21328.44
784.223	21136.8
784.557	20982
784.89	21161.66
785.224	20973.64
785.557	20878.73
785.891	20811.84
786.224	20654.78
786.558	20756.02
786.891	20559.42
787.224	20359.87
787.557	20388.12
787.891	20354
788.224	20374.79
788.557	20234
788.89	20166.43
789.223	20306.09
789.556	20037.62
789.888	20051.63
790.221	19942.94
790.554	19757.63
790.887	19716.95
791.219	19734.13
791.552	19694.36
791.884	19504.08
792.217	19491.65
792.549	19417.07
792.882	19312.44
793.214	19229.06
793.546	19338.21
793.879	19089.17
794.211	19066.57
794.543	19111.32
794.875	18990.87
795.207	19002.85
795.539	18976.41
795.871	18989.97
796.203	18726.92
796.535	18705.68
796.867	18583.88
797.198	18535.74
797.53	18503.88
797.862	18428.85
798.193	18347.95
798.525	18318.35
798.856	18395.63
799.188	18114.96
799.519	17952.03
799.85	17986.38
800.182	18009.2
800.513	18077.45
800.844	17839.94
801.175	17837
801.506	17924.01
801.837	17774.63
802.168	17707.06
802.499	17600.17
802.83	17571.92
803.161	17554.52
803.491	17457.13
803.822	17561.76
804.153	17370.8
804.483	17225.04
804.814	17138.49
805.145	17167.64
805.475	17217.58
805.805	17092.39
806.136	17039.51
806.466	17101.43
806.796	16956.8
807.126	16904.82
807.457	16855.33
807.787	16783.25
808.117	16745.51
808.447	16667.32
808.777	16743.02
809.107	16598.84
809.436	16566.75
809.766	16649.92
810.096	16512.07
810.426	16388.23
810.755	16470.94
811.085	16366.98
811.414	16373.31
811.744	16254.45
812.073	16242.69
812.403	16187.55
812.732	16052.42
813.061	16148.01
813.39	16013.1
813.719	16042.25
814.049	16068.91
814.378	15986.2
814.707	15847.68
815.036	15883.16
815.365	15858.52
815.693	15711.41
816.022	15780.56
816.351	15681.35
816.68	15534.46
817.008	15664.86
817.337	15492.66
817.665	15485.43
817.994	15461.02
818.322	15454.69
818.651	15393.68
818.979	15304.64
819.307	15454.24
819.636	15371.98
819.964	15221.03
820.292	15319.78
820.62	15312.32
820.948	15215.38
821.276	15238.2
821.604	15189.16
821.932	15267.8
822.259	15196.17
822.587	15120.92
822.915	15084.31
823.243	15197.52
823.57	15107.13
823.898	15108.71
824.225	15156.4
824.553	15076.17
824.88	15143.06
825.207	15174.02
825.535	14986.91
825.862	15104.87
826.189	15118.43
826.516	15152.33
826.843	15160.01
827.17	15126.11
827.497	15134.47
827.824	15070.07
828.151	15159.79
828.478	15088.37
828.805	15157.07
829.131	15044.31
829.458	15062.84
829.785	15009.96
830.111	15108.94
830.438	15152.33
830.764	15035.04
831.09	15048.83
831.417	15005.44
831.743	15029.62
832.069	15026.68
832.395	14939
832.722	14982.61
833.048	14931.54
833.374	14973.35
833.7	14870.3
834.026	14847.7
834.351	14966.57
834.677	14790.98
835.003	14857.65
835.329	14820.81
835.654	14849.96
835.98	14793.24
836.306	14872.33
836.631	14814.48
836.956	14878.66
837.282	14792.11
837.607	14727.48
837.932	14648.16
838.258	14717.08
838.583	14642.51
838.908	14622.17
839.233	14642.51
839.558	14589.18
839.883	14469.41
840.208	14522.51
840.533	14492.01
840.858	14508.5
841.182	14489.52
841.507	14460.82
841.832	14341.73
842.156	14362.29
842.481	14393.7
842.805	14334.5
843.13	14261.28
843.454	14231.67
843.778	14193.93
844.103	14228.96
844.427	14198
844.751	14105.8
845.075	14047.27
845.399	14060.38
845.723	13873.27
846.047	13928.18
846.371	13851.57
846.695	13866.94
847.019	13773.38
847.343	13690.45
847.666	13584.01
847.99	13538.13
848.313	13503.56
848.637	13502.2
848.96	13398.25
849.284	13380.4
849.607	13245.71
849.931	13320.96
850.254	13204.58
850.577	13107.86
850.9	13045.72
851.223	13030.58
851.546	12965.49
851.869	12967.98
852.192	12937.7
852.515	12725.05
852.838	12754.42
853.161	12702.9
853.483	12669.68
853.806	12623.13
854.129	12581.32
854.451	12502.68
854.774	12483.02
855.096	12448.44
855.419	12434.43
855.741	12403.47
856.063	12353.98
856.385	12264.49
856.708	12239.64
857.03	12205.51
857.352	12206.42
857.674	12207.77
857.996	12145.85
858.318	12096.14
858.64	12039.64
858.961	12049.13
859.283	12001
859.605	11839.87
859.926	11984.73
860.248	11941.79
860.57	11843.71
860.891	11913.77
861.212	11762.59
861.534	11733.89
861.855	11793.77
862.176	11794.68
862.498	11771.63
862.819	11689.82
863.14	11694.79
863.461	11636.04
863.782	11553.1
864.103	11613.21
864.424	11487.57
864.745	11559.88
865.065	11487.34
865.386	11446.66
865.707	11444.4
866.027	11493.67
866.348	11450.5
866.668	11445.76
866.989	11370.96
867.309	11369.83
867.63	11318.53
867.95	11347.23
868.27	11339.32
868.59	11270.85
868.91	11326.67
869.23	11241.92
869.55	11187.01
869.87	11241.02
870.19	11243.28
870.51	11185.43
870.83	11192.88
871.15	11078.54
871.469	11176.61
871.789	11105.43
872.109	11079.89
872.428	11058.2
872.748	11078.99
873.067	11087.35
873.386	11013.91
873.706	11000.12
874.025	10948.37
874.344	10941.14
874.663	10937.52
874.982	10907.69
875.301	10918.99
875.62	10878.77
875.939	10785.66
876.258	10867.02
876.577	10805.1
876.896	10862.95
877.214	10780.92
877.533	10743.18
877.852	10707.92
878.17	10716.06
878.489	10735.49
878.807	10760.8
879.125	10706.34
879.444	10728.94
879.762	10715.16
880.08	10680.81
880.398	10577.98
880.716	10660.92
881.034	10618.89
881.352	10626.8
881.67	10549.74
881.988	10565.33
882.306	10483.07
882.624	10427.03
882.941	10389.51
883.259	10373.24
883.577	10376.86
883.894	10387.26
884.212	10312
884.529	10382.74
884.846	10334.83
885.164	10271.78
885.481	10280.14
885.798	10269.29
886.115	10189.97
886.432	10246.02
886.75	10108.39
887.067	10158.79
887.383	10056.42
887.7	10135.06
888.017	10072.24
888.334	10072.24
888.651	10021.16
888.967	10029.52
889.284	9957.44
889.6	9861.85
889.917	9865.69
890.233	9941.17
890.55	9849.42
890.866	9868.85
891.182	9766.48
891.498	9743.2
891.815	9713.83
892.131	9618.46
892.447	9656.43
892.763	9638.35
893.079	9659.14
893.395	9592.93
893.71	9587.73
894.026	9519.03
894.342	9512.93
894.657	9454.4
894.973	9484.91
895.289	9434.51
895.604	9433.16
895.92	9282.43
896.235	9300.73
896.55	9284.69
896.865	9216.89
897.181	9197.68
897.496	9185.7
897.811	9197.23
898.126	9131.47
898.441	9142.09
898.756	9043.56
899.071	9013.51
899.386	8999.72
899.7	8937.8
900.015	8979.38
900.33	8864.36
900.644	8884.47
900.959	8841.53
901.273	8884.02
901.588	8890.8
901.902	8746.39
902.216	8738.26
902.531	8694.19
902.845	8638.15
903.159	8609.67
903.473	8596.79
903.787	8611.93
904.101	8512.5
904.415	8519.28
904.729	8476.57
905.042	8428.21
905.356	8367.65
905.67	8389.12
905.984	8358.83
906.297	8385.95
906.611	8319.96
906.924	8255.56
907.237	8251.49
907.551	8218.27
907.864	8135.11
908.177	8148.9
908.491	8200.65
908.804	8066.64
909.117	8025.06
909.43	7948.9
909.743	7990.71
910.056	7924.27
910.368	7831.62
910.681	7839.07
910.994	7854.44
911.307	7787.32
911.619	7788.68
911.932	7795.46
912.244	7733.99
912.557	7643.15
912.869	7635.46
913.181	7602.47
913.494	7527.67
913.806	7523.83
914.118	7512.53
914.43	7475.24
914.742	7477.28
915.054	7439.54
915.366	7456.71
915.678	7452.42
915.99	7392.08
916.302	7338.3
916.613	7282.7
916.925	7219.88
917.236	7297.84
917.548	7191.63
917.859	7230.5
918.171	7147.57
918.482	7132.43
918.794	7018.53
919.105	7141.69
919.416	6950.96
919.727	6993.45
920.038	6962.71
920.349	6985.99
920.66	6903.5
920.971	6893.56
921.282	6880.91
921.593	6822.6
921.903	6812.43
922.214	6734.47
922.525	6742.61
922.835	6705.54
923.146	6667.13
923.456	6662.83
923.767	6586.23
924.077	6630.74
924.387	6553.46
924.697	6519.11
925.008	6497.41
925.318	6463.74
925.628	6501.26
925.938	6426.23
926.248	6384.42
926.558	6314.37
926.867	6376.06
927.177	6297.65
927.487	6294.26
927.796	6196.63
928.106	6262.39
928.416	6216.07
928.725	6210.42
929.034	6108.95
929.344	6148.72
929.653	6114.15
929.962	6043.41
930.271	6019.69
930.581	6002.74
930.89	5914.83
931.199	5917.32
931.508	5941.95
931.817	5953.47
932.125	5891.33
932.434	5897.66
932.743	5826.7
933.051	5833.02
933.36	5819.47
933.669	5728.39
933.977	5722.97
934.286	5721.84
934.594	5680.03
934.902	5600.49
935.21	5681.84
935.519	5582.64
935.827	5584.44
936.135	5573.82
936.443	5510.1
936.751	5520.04
937.059	5497.67
937.367	5494.95
937.674	5456.09
937.982	5458.8
938.29	5417.67
938.597	5372.92
938.905	5328.18
939.213	5280.5
939.52	5299.25
939.827	5280.95
940.135	5243.89
940.442	5187.62
940.749	5256.77
941.056	5189.65
941.363	5187.84
941.67	5129.54
941.977	5116.66
942.284	5087.73
942.591	5072.37
942.898	5058.58
943.205	5044.34
943.511	5019.03
943.818	5008.19
944.125	4926.38
944.431	4958.47
944.738	4917.12
945.044	4944.69
945.35	4867.4
945.657	4847.97
945.963	4835.99
946.269	4813.16
946.575	4774.52
946.881	4738.59
947.187	4748.53
947.493	4703.56
947.799	4718.7
948.105	4694.98
948.41	4685.03
948.716	4675.99
949.022	4654.75
949.327	4626.28
949.633	4588.31
949.938	4576.79
950.244	4564.13
950.549	4518.26
950.854	4552.83
951.16	4489.56
951.465	4470.8
951.77	4460.86
952.075	4459.05
952.38	4394.64
952.685	4418.82
952.99	4335.44
953.294	4349.67
953.599	4336.11
953.904	4313.74
954.209	4314.65
954.513	4294.76
954.818	4245.27
955.122	4230.13
955.426	4268.77
955.731	4192.16
956.035	4216.57
956.339	4178.15
956.643	4175.22
956.948	4157.14
957.252	4132.96
957.556	4142.45
957.86	4100.87
958.163	4083.24
958.467	4071.71
958.771	4026.07
959.075	4008.89
959.378	3986.97
959.682	3990.36
959.985	3972.73
960.289	3969.34
960.592	3929.12
960.896	3946.97
961.199	3897.26
961.502	3896.8
961.805	3849.12
962.108	3878.27
962.411	3841.21
962.714	3818.84
963.017	3810.48
963.32	3737.26
963.623	3751.27
963.926	3781.33
964.228	3712.4
964.531	3693.42
964.833	3719.86
965.136	3685.28
965.438	3678.05
965.741	3666.3
966.043	3649.13
966.345	3611.84
966.648	3650.71
966.95	3589.24
967.252	3546.98
967.554	3503.37
967.856	3560.54
968.158	3537.49
968.46	3488.23
968.761	3486.19
969.063	3492.07
969.365	3488.91
969.666	3417.49
969.968	3400.77
970.269	3441.22
970.571	3406.87
970.872	3386.31
971.174	3388.12
971.475	3382.69
971.776	3332.07
972.077	3332.07
972.378	3305.63
972.679	3301.34
972.98	3311.51
973.281	3262.7
973.582	3274.45
973.883	3267.22
974.183	3219.53
974.484	3182.25
974.785	3247.56
975.085	3209.82
975.386	3181.79
975.686	3158.74
975.986	3158.74
976.287	3126.88
976.587	3080.33
976.887	3137.05
977.187	3109.03
977.487	3096.15
977.787	3074.68
978.087	3027.67
978.387	3066.32
978.687	3043.72
978.987	2984.74
979.286	2965.08
979.586	2972.53
979.885	2965.08
980.185	2949.03
980.484	2987.68
980.784	2933.67
981.083	2867.45
981.382	2897.06
981.682	2883.5
981.981	2883.27
982.28	2859.54
982.579	2873.33
982.878	2875.36
983.177	2864.52
983.475	2804.18
983.774	2784.52
984.073	2830.39
984.372	2777.51
984.67	2780.22
984.969	2788.81
985.267	2762.82
985.566	2773.9
985.864	2728.7
986.162	2705.88
986.461	2708.14
986.759	2664.29
987.057	2690.06
987.355	2671.07
987.653	2645.76
987.951	2640.34
988.249	2619.78
988.547	2612.54
988.844	2613.9
989.142	2579.32
989.44	2560.34
989.737	2569.16
990.035	2554.24
990.332	2551.08
990.63	2540
990.927	2514.02
991.224	2518.31
991.521	2513.56
991.819	2475.82
992.116	2481.02
992.413	2473.79
992.71	2471.53
993.006	2447.8
993.303	2432.89
993.6	2428.14
993.897	2407.35
994.193	2413.68
994.49	2388.37
994.787	2351.08
995.083	2351.08
995.379	2328.94
995.676	2333
995.972	2315.38
996.268	2347.24
996.565	2300.46
996.861	2290.07
997.157	2274.25
997.453	2283.06
997.749	2231.31
998.044	2241.71
998.34	2244.87
998.636	2212.78
998.932	2244.19
999.227	2165.32
999.523	2207.81
999.818	2185.66
1000.114	2164.19
1000.409	2175.27
1000.704	2148.15
1001	2101.37
1001.295	2137.75
1001.59	2089.85
1001.885	2101.6
1002.18	2081.48
1002.475	2071.09
1002.77	2056.4
1003.065	2053.46
1003.359	2029.96
1003.654	2040.58
1003.949	2036.51
1004.243	2001.94
1004.538	1982.5
1004.832	2006.23
1005.127	1996.52
1005.421	1975.95
1005.715	1959.45
1006.009	1945.9
1006.304	1944.77
1006.598	1917.65
1006.892	1890.76
1007.186	1881.72
1007.48	1883.07
1007.773	1907.93
1008.067	1892.11
1008.361	1861.15
1008.655	1835.84
1008.948	1849.4
1009.242	1870.87
1009.535	1796.29
1009.829	1797.2
1010.122	1778.22
1010.415	1804.2
1010.708	1793.13
1011.001	1780.7
1011.295	1758.33
1011.588	1770.53
1011.881	1703.87
1012.173	1702.06
1012.466	1687.37
1012.759	1727.14
1013.052	1730.99
1013.344	1650.31
1013.637	1675.85
1013.93	1679.46
1014.222	1657.99
1014.514	1636.75
1014.807	1631.1
1015.099	1640.59
1015.391	1618.9
1015.683	1613.02
1015.976	1585
1016.268	1588.16
1016.56	1585.68
1016.851	1570.99
1017.143	1536.87
1017.435	1569.18
1017.727	1523.99
1018.018	1518.79
1018.31	1526.92
1018.602	1510.88
1018.893	1484.89
1019.185	1499.58
1019.476	1483.53
1019.767	1475.4
1020.058	1491.9
1020.35	1477.21
1020.641	1457.32
1020.932	1448.96
1021.223	1435.17
1021.514	1425
1021.804	1412.8
1022.095	1385.46
1022.386	1375.97
1022.677	1359.24
1022.967	1368.51
1023.258	1371.9
1023.548	1358.57
1023.839	1349.98
1024.129	1345.68
1024.419	1324.89
1024.709	1333.71
1025	1308.62
1025.29	1338.91
1025.58	1278.12
1025.87	1262.3
1026.16	1274.73
1026.449	1264.33
1026.739	1281.05
1027.029	1263.88
1027.319	1225.46
1027.608	1254.39
1027.898	1242.86
1028.187	1216.87
1028.477	1202.41
1028.766	1229.3
1029.055	1200.83
1029.344	1212.13
1029.634	1192.92
1029.923	1178.68
1030.212	1186.59
1030.501	1162.64
1030.79	1157.89
1031.078	1143.66
1031.367	1133.26
1031.656	1165.35
1031.945	1108.4
1032.233	1117.67
1032.522	1112.47
1032.81	1117.22
1033.099	1084.67
1033.387	1097.56
1033.675	1079.93
1033.963	1061.4
1034.251	1087.84
1034.54	1081.74
1034.828	1032.47
1035.116	1039.25
1035.403	1042.19
1035.691	1032.7
1035.979	1031.34
1036.267	998.58
1036.554	1002.87
1036.842	1021.63
1037.129	987.73
1037.417	957.9
1037.704	992.25
1037.992	999.71
1038.279	947.5
1038.566	959.48
1038.853	959.48
1039.14	959.48
