Data from hue_38_FLMS001491_00009.txt Node
Date: Tue Feb 07 17:30:59 GMT 2017
User: dcchb
Spectrometer: FLMS00149
Trigger mode: 0
Integration Time (sec): 2.000000E-2
Scans to average: 10
Electric dark correction enabled: true
Nonlinearity correction enabled: false
Boxcar width: 0
XAxis mode: Wavelengths
Number of Pixels in Spectrum: 2048
>>>>>Begin Spectral Data<<<<<
341.393	-18.53
341.776	-18.53
342.16	-18.53
342.543	-42.71
342.927	-71.41
343.31	-69.15
343.693	-79.09
344.077	-62.82
344.46	-62.82
344.843	-36.61
345.226	-29.15
345.61	-30.28
345.993	-2.26
346.376	-12.88
346.759	-18.08
347.142	41.58
347.525	39.32
347.908	57.4
348.291	54.69
348.674	88.36
349.057	121.8
349.44	131.07
349.823	167.45
350.206	170.17
350.588	206.32
350.971	207.9
351.354	230.5
351.737	235.7
352.119	254.46
352.502	274.12
352.884	289.48
353.267	283.16
353.65	304.17
354.032	294.46
354.414	322.48
354.797	337.39
355.179	309.37
355.562	316.15
355.944	340.78
356.326	324.29
356.709	347.79
357.091	353.44
357.473	337.62
357.855	326.55
358.238	342.36
358.62	336.94
359.002	351.18
359.384	334.45
359.766	351.63
360.148	337.39
360.53	328.35
360.912	350.27
361.294	338.3
361.676	328.13
362.057	318.18
362.439	317.05
362.821	316.6
363.203	326.77
363.584	321.57
363.966	328.8
364.348	337.17
364.729	312.08
365.111	329.71
365.493	320.67
365.874	337.62
366.256	335.13
366.637	335.81
367.019	329.48
367.4	315.47
367.781	324.06
368.163	340.33
368.544	322.25
368.925	325.87
369.306	314.79
369.688	314.79
370.069	321.8
370.45	318.86
370.831	318.86
371.212	325.87
371.593	337.39
371.974	315.7
372.355	323.38
372.736	345.98
373.117	333.32
373.498	317.51
373.879	324.51
374.26	319.09
374.641	301.69
375.021	326.77
375.402	310.73
375.783	322.7
376.163	325.64
376.544	353.21
376.925	331.97
377.305	339.65
377.686	311.4
378.066	336.71
378.447	323.38
378.827	349.6
379.208	327.45
379.588	343.72
379.968	345.98
380.349	345.98
380.729	325.42
381.109	360.89
381.489	341.01
381.87	341.46
382.25	349.37
382.63	349.82
383.01	332.87
383.39	341.91
383.77	360.22
384.15	345.75
384.53	348.47
384.91	350.5
385.29	364.74
385.67	354.57
386.049	349.82
386.429	367
386.809	345.08
387.189	353.44
387.568	343.49
387.948	337.39
388.328	369.48
388.707	347.79
389.087	348.47
389.466	373.1
389.846	368.13
390.225	374.23
390.605	371.97
390.984	370.16
391.363	388.92
391.743	369.26
392.122	368.58
392.501	362.93
392.881	377.39
393.26	381.46
393.639	388.92
394.018	366.09
394.397	367.9
394.776	386.66
395.155	369.03
395.534	357.28
395.913	381.68
396.292	394.79
396.671	378.75
397.05	385.53
397.429	392.31
397.808	383.94
398.186	379.43
398.565	397.96
398.944	412.64
399.323	398.18
399.701	392.76
400.08	417.84
400.458	388.69
400.837	402.7
401.215	400.22
401.594	404.06
401.972	378.3
402.351	397.96
402.729	402.93
403.107	411.51
403.486	413.1
403.864	411.29
404.242	409.25
404.62	420.55
404.999	406.77
405.377	414.9
405.755	436.6
406.133	431.63
406.511	437.95
406.889	452.42
407.267	437.5
407.645	433.89
408.023	431.63
408.401	442.02
408.779	445.86
409.156	448.12
409.534	462.13
409.912	449.48
410.29	446.77
410.667	466.2
411.045	455.58
411.422	475.92
411.8	461.46
412.178	475.92
412.555	491.06
412.933	472.3
413.31	493.32
413.687	479.08
414.065	478.18
414.442	488.35
414.819	506.43
415.197	498.29
415.574	499.2
415.951	505.07
416.328	503.26
416.705	513.66
417.082	510.72
417.46	515.69
417.837	513.88
418.214	521.34
418.591	507.78
418.967	533.09
419.344	527.44
419.721	528.8
420.098	513.43
420.475	538.52
420.852	537.84
421.228	557.05
421.605	557.27
421.982	560.89
422.358	560.66
422.735	558.4
423.111	569.48
423.488	583.49
423.864	561.57
424.241	576.03
424.617	564.73
424.994	585.07
425.37	603.37
425.746	572.19
426.123	585.3
426.499	584.84
426.875	606.54
427.251	595.24
427.627	602.92
428.003	613.77
428.379	598.85
428.756	602.02
429.132	620.32
429.507	635.46
429.883	642.24
430.259	640.66
430.635	647.44
431.011	647.21
431.387	661.9
431.763	644.05
432.138	682.24
432.514	655.8
432.89	665.75
433.265	696.25
433.641	696.48
434.016	700.09
434.392	703.71
434.767	708
435.143	705.74
435.518	715.69
435.894	722.01
436.269	726.53
436.644	753.65
437.02	748.68
437.395	747.1
437.77	776.7
438.145	766.31
438.52	773.99
438.895	772.86
439.271	765.4
439.646	788.45
440.021	787.78
440.395	798.62
440.77	777.83
441.145	794.33
441.52	777.15
441.895	785.29
442.27	800.66
442.645	814.89
443.019	806.31
443.394	848.79
443.769	819.41
444.143	827.77
444.518	826.87
444.892	855.34
445.267	839.53
445.641	843.82
446.016	851.28
446.39	873.42
446.764	867.32
447.139	868.23
447.513	889.69
447.887	871.16
448.262	857.6
448.636	886.76
449.01	919.75
449.384	901.22
449.758	896.7
450.132	903.03
450.506	901.9
450.88	912.52
451.254	942.35
451.628	924.72
452.002	970.14
452.376	971.73
452.75	953.2
453.123	967.66
453.497	946.19
453.871	969.01
454.244	1007.21
454.618	997.71
454.992	1016.24
455.365	1014.66
455.739	1050.14
456.112	1039.52
456.486	1035.9
456.859	1061.22
457.232	1086.53
457.606	1091.04
457.979	1101.21
458.352	1111.61
458.725	1096.92
459.099	1114.32
459.472	1133.3
459.845	1156.13
460.218	1157.48
460.591	1159.52
460.964	1177.14
461.337	1225.28
461.71	1228.44
462.083	1233.64
462.456	1227.09
462.829	1220.98
463.201	1264.15
463.574	1260.98
463.947	1279.74
464.32	1337.37
464.692	1335.33
465.065	1353.18
465.438	1364.26
465.81	1380.08
466.183	1367.65
466.555	1428.21
466.928	1436.57
467.3	1453.3
467.672	1465.95
468.045	1458.72
468.417	1505.05
468.789	1509.79
469.161	1537.13
469.534	1573.07
469.906	1597.7
470.278	1597.02
470.65	1624.14
471.022	1649.67
471.394	1697.58
471.766	1714.08
472.138	1710.92
472.51	1792.72
472.882	1838.14
473.253	1873.85
473.625	1871.59
473.997	1912.04
474.369	1939.61
474.74	1970.57
475.112	2006.5
475.484	2074.52
475.855	2087.18
476.227	2135.76
476.598	2209.21
476.97	2209.89
477.341	2309.09
477.713	2301.86
478.084	2341.18
478.455	2454.62
478.827	2519.93
479.198	2539.82
479.569	2626.82
479.94	2702.08
480.311	2756.99
480.682	2811.23
481.053	2879.92
481.424	2947.72
481.795	3014.16
482.166	3094.61
482.537	3116.3
482.908	3223.64
483.279	3272
483.65	3363.53
484.021	3493.92
484.391	3588.83
484.762	3606.91
485.133	3694.82
485.503	3747.7
485.874	3864.53
486.244	3936.62
486.615	4054.81
486.985	4147.24
487.356	4229.49
487.726	4326.44
488.097	4433.1
488.467	4480.79
488.837	4600.78
489.207	4729.82
489.578	4829.93
489.948	4938.85
490.318	5002.13
490.688	5100.66
491.058	5179.98
491.428	5295.68
491.798	5369.12
492.168	5537.26
492.538	5640.3
492.908	5726.4
493.278	5840.75
493.648	5837.59
494.017	5956.68
494.387	6086.39
494.757	6238.48
495.126	6287.29
495.496	6377.91
495.866	6490
496.235	6551.69
496.605	6639.15
496.974	6777.45
497.344	6857.67
497.713	6947.61
498.082	7045.92
498.452	7115.75
498.821	7194.61
499.19	7310.09
499.559	7372.91
499.928	7482.52
500.298	7518.9
500.667	7664.43
501.036	7697.88
501.405	7846.57
501.774	7819.91
502.143	7975.84
502.512	8075.72
502.88	8151.88
503.249	8175.6
503.618	8216.06
503.987	8292.66
504.356	8394.13
504.724	8456.05
505.093	8588.93
505.462	8638.19
505.83	8707.57
506.199	8806.77
506.567	8929.26
506.936	8865.3
507.304	9034.79
507.672	9073.89
508.041	9198.63
508.409	9264.62
508.777	9374.44
509.145	9410.37
509.514	9462.58
509.882	9504.16
510.25	9551.61
510.618	9667.32
510.986	9763.81
511.354	9842.23
511.722	9911.15
512.09	9974.88
512.458	9926.52
512.826	10105.27
513.193	10145.72
513.561	10245.83
513.929	10316.11
514.297	10364.25
514.664	10491.25
515.032	10505.26
515.4	10623
515.767	10582.55
516.135	10716.1
516.502	10714.29
516.869	10905.7
517.237	10893.27
517.604	10959.03
517.972	11055.75
518.339	11083.55
518.706	11190.89
519.073	11223.66
519.44	11326.93
519.808	11475.4
520.175	11388.4
520.542	11537.78
520.909	11605.57
521.276	11636.08
521.643	11715.4
522.009	11765.57
522.376	11856.86
522.743	11903.64
523.11	12008.27
523.477	12138.89
523.843	12270.64
524.21	12316.96
524.577	12425.66
524.943	12482.16
525.31	12545.88
525.676	12672.66
526.043	12725.77
526.409	12760.12
526.776	12898.87
527.142	12996.72
527.508	13011.64
527.874	13040.11
528.241	13220.44
528.607	13180.22
528.973	13327.79
529.339	13261.8
529.705	13479.65
530.071	13639.19
530.437	13665.18
530.803	13690.04
531.169	13786.53
531.535	13808.68
531.901	13870.6
532.267	13997.15
532.632	14047.09
532.998	14115.11
533.364	14214.32
533.73	14195.33
534.095	14422.9
534.461	14370.02
534.826	14424.48
535.192	14481.88
535.557	14552.39
535.923	14592.16
536.288	14652.5
536.653	14745.15
537.019	14754.41
537.384	14748.54
537.749	14885.03
538.114	14915.09
538.479	14989.44
538.845	14954.18
539.21	14997.8
539.575	15186.49
539.94	15208.19
540.305	15341.74
540.67	15278.69
541.034	15390.56
541.399	15417.9
541.764	15421.29
542.129	15493.15
542.494	15552.59
542.858	15549.2
543.223	15619.93
543.587	15786.25
543.952	15765.69
544.316	15831.9
544.681	15800.26
545.045	15944.67
545.41	16053.36
545.774	16089.52
546.138	16087.71
546.503	16258.78
546.867	16131.33
547.231	16460.81
547.595	16371.77
547.959	16451.32
548.324	16498.78
548.688	16520.92
549.052	16628.72
549.416	16660.8
549.779	16703.74
550.143	16699.9
550.507	16875.26
550.871	16943.06
551.235	16864.19
551.599	17035.26
551.962	17050.17
552.326	17109.38
552.689	17267.57
553.053	17124.75
553.417	17271.18
553.78	17418.53
554.143	17428.69
554.507	17428.69
554.87	17551.63
555.234	17650.16
555.597	17540.56
555.96	17611.51
556.323	17717.73
556.686	17786.42
557.05	17884.28
557.413	17863.49
557.776	17980.09
558.139	17978.74
558.502	18198.39
558.865	18187.54
559.228	18296.47
559.59	18266.41
559.953	18343.7
560.316	18640.41
560.679	18635.67
561.041	18687.64
561.404	18717.47
561.767	18893.29
562.129	18783.23
562.492	19003.79
562.854	18954.53
563.217	18862.1
563.579	19003.34
563.941	19061.19
564.304	19165.6
564.666	19291.92
565.028	19363.56
565.39	19455.31
565.753	19474.74
566.115	19578.47
566.477	19677.9
566.839	19724
567.201	19923.77
567.563	19845.81
567.925	20034.73
568.287	20023.2
568.648	20091.45
569.01	20222.52
569.372	20315.85
569.734	20283.53
570.095	20524.66
570.457	20551.78
570.819	20638.55
571.18	20573.02
571.542	20699.79
571.903	20862.05
572.265	20924.2
572.626	20974.36
572.987	21111.54
573.349	21147.24
573.71	21204.41
574.071	21334.13
574.432	21473.33
574.794	21691.63
575.155	21640.33
575.516	21738.19
575.877	21870.61
576.238	21910.61
576.599	22113.32
576.96	22148.12
577.32	22338.85
577.681	22485.06
578.042	22566.19
578.403	22670.36
578.763	22716.69
579.124	22926.18
579.485	23198.94
579.845	23208.88
580.206	23319.39
580.566	23391.93
580.927	23621.3
581.287	23871.91
581.648	23983.32
582.008	24144.9
582.368	24261.96
582.728	24402.3
583.089	24576.98
583.449	24682.51
583.809	24924.32
584.169	25193.24
584.529	25068.04
584.889	25470.29
585.249	25480.91
585.609	25656.27
585.969	26025.76
586.329	26157.5
586.688	26515.46
587.048	26552.52
587.408	26720.2
587.768	26974.88
588.127	27169.23
588.487	27378.04
588.846	27694.19
589.206	27666.17
589.565	27974.86
589.925	28274.51
590.284	28360.16
590.643	28697.32
591.003	28885.34
591.362	29239.91
591.721	29296.18
592.08	29425.22
592.44	29830.4
592.799	29994.47
593.158	30171.86
593.517	30426.77
593.876	30568.46
594.235	30667.44
594.593	31029.47
594.952	31208.67
595.311	31422.22
595.67	31608.66
596.029	31878.94
596.387	32289.77
596.746	32386.95
597.104	32454.74
597.463	32580.84
597.822	32936.31
598.18	33035.06
598.538	33179.69
598.897	33546.24
599.255	33435.51
599.613	34079.78
599.972	34058.31
600.33	34376.95
600.688	34307.57
601.046	34652.42
601.404	34783.27
601.762	34981.91
602.12	35130.83
602.478	35425.06
602.836	35500.54
603.194	35540.53
603.552	35835.44
603.91	35695.56
604.268	36086.73
604.625	36167.86
604.983	36522.66
605.341	36284.92
605.698	36667.06
606.056	36904.57
606.413	36848.07
606.771	37173.71
607.128	37431.11
607.485	37322.41
607.843	37435.17
608.2	37752.91
608.557	38007.36
608.914	38018.89
609.272	38157.87
609.629	38518.54
609.986	38668.36
610.343	38601.24
610.7	38911.52
611.057	38996.94
611.414	39045.08
611.771	39080.1
612.127	39341.79
612.484	39255.92
612.841	39638.05
613.198	39578.17
613.554	39664.04
613.911	39962.11
614.267	40118.04
614.624	40005.05
614.98	40157.36
615.337	40454.53
615.693	40432.84
616.05	40399.62
616.406	40595.09
616.762	40720.74
617.118	40765.26
617.475	40815.42
617.831	40951.47
618.187	41020.16
618.543	41182.19
618.899	41391.23
619.255	41421.06
619.611	41336.54
619.967	41632.13
620.323	41649.53
620.678	41645.91
621.034	41625.35
621.39	41819.24
621.746	41707.6
622.101	42226.23
622.457	41993.92
622.812	41950.31
623.168	42138.1
623.523	42265.1
623.879	42302.84
624.234	42139.23
624.589	42322.73
624.945	42280.7
625.3	42399.79
625.655	42480.69
626.01	42572.67
626.365	42584.19
626.72	42476.85
627.075	42433.91
627.43	42732.44
627.785	42541.03
628.14	42642.04
628.495	42733.79
628.85	42739.44
629.205	42632.55
629.559	42922.26
629.914	42658.31
630.269	42804.3
630.623	42679.78
630.978	42683.4
631.332	42913.9
631.687	42926.55
632.041	42779.44
632.396	42835.03
632.75	42796.39
633.104	42823.28
633.459	42690.85
633.813	42640.91
634.167	42733.57
634.521	42800.23
634.875	42733.57
635.229	42741.7
635.583	42602.95
635.937	42688.14
636.291	42720.91
636.645	42745.32
636.999	42576.28
637.352	42713.23
637.706	42437.75
638.06	42640.46
638.413	42578.32
638.767	42422.39
639.121	42494.7
639.474	42394.59
639.828	42393.46
640.181	42444.53
640.534	42515.72
640.888	42347.14
641.241	42221.94
641.594	42334.48
641.947	42516.85
642.301	42346.23
642.654	42300.13
643.007	42380.58
643.36	42290.41
643.713	42256.52
644.066	42371.09
644.419	42061.49
644.771	41880.03
645.124	41449.53
645.477	41437.1
645.83	41234.4
646.182	41118.01
646.535	41071.69
646.888	41207.96
647.24	40900.62
647.593	41170.67
647.945	41194.17
648.298	40843.45
648.65	40829.66
649.002	40754.63
649.355	40967.28
649.707	40792.6
650.059	41002.09
650.411	41419.7
650.763	41430.32
651.115	41920.71
651.467	41840.26
651.819	41793.93
652.171	41654.5
652.523	41695.85
652.875	41601.84
653.227	41437.55
653.578	41824.44
653.93	41675.29
654.282	41531.11
654.633	41382.87
654.985	41476.65
655.337	41525.91
655.688	41540.15
656.039	41575.86
656.391	41343.55
656.742	41391.45
657.094	41458.12
657.445	41547.16
657.796	41519.81
658.147	41418.35
658.498	41316.2
658.849	41448.85
659.2	41231.46
659.551	41299.71
659.902	41440.49
660.253	41334.51
660.604	41362.3
660.955	41080.73
661.306	41276.2
661.656	41305.58
662.007	41191.91
662.358	41241.63
662.708	41248.63
663.059	41322.3
663.409	40951.47
663.76	41205.24
664.11	41093.16
664.461	41209.09
664.811	41225.13
665.161	41323.66
665.511	41083.89
665.862	41053.16
666.212	41196.88
666.562	41151.23
666.912	41160.05
667.262	41161.86
667.612	41155.53
667.962	41011.13
668.312	41065.59
668.662	41275.98
669.011	41026.04
669.361	41052.48
669.711	41035.98
670.06	40869.43
670.41	40962.31
670.76	40962.99
671.109	41035.08
671.459	40913.05
671.808	40866.5
672.157	40894.52
672.507	40796.44
672.856	40648.2
673.205	40877.8
673.554	40977
673.904	40792.15
674.253	40904.46
674.602	40842.77
674.951	40269.68
675.3	40103.8
675.649	40805.71
675.998	40641.42
676.346	40704.92
676.695	40687.07
677.044	40571.81
677.393	40531.14
677.741	40669.67
678.09	40538.6
678.438	40358.71
678.787	40545.37
679.135	40517.58
679.484	40314.42
679.832	40504.92
680.181	40363.91
680.529	40453.4
680.877	40233.29
681.225	40156.68
681.573	40432.38
681.922	40006.86
682.27	39946.29
682.618	40010.93
682.966	39876.47
683.314	39923.24
683.661	39811.38
684.009	39882.57
684.357	39694.78
684.705	39640.77
685.053	39656.36
685.4	39683.48
685.748	39579.52
686.095	39465.63
686.443	39371.39
686.79	39172.3
687.138	39431.05
687.485	39299.31
687.832	39133.21
688.18	39266.31
688.527	38978.18
688.874	39030.84
689.221	38879.88
689.568	38780.68
689.915	38658.42
690.262	38608.25
690.609	38512.89
690.956	38434.92
691.303	38361.93
691.65	38339.78
691.997	38299.56
692.344	37942.05
692.69	38111.99
693.037	38185.89
693.383	37683.53
693.73	37873.58
694.077	37648.73
694.423	37576.64
694.769	37539.35
695.116	37480.6
695.462	37476.98
695.808	37300.26
696.155	37316.98
696.501	37044.9
696.847	37029.31
697.193	36848.52
697.539	37027.05
697.885	36684.46
698.231	36568.08
698.577	36715.87
698.923	36535.31
699.269	36343.23
699.614	36211.48
699.96	36203.12
700.306	36178.26
700.651	36038.83
700.997	36052.16
701.342	35826.85
701.688	35838.61
702.033	35619.4
702.379	35648.33
702.724	35537.37
703.069	35738.72
703.415	35221.9
703.76	35281.56
704.105	35319.98
704.45	35101.9
704.795	35047.67
705.14	34841.12
705.485	34846.32
705.83	34668.47
706.175	34783.72
706.52	34685.87
706.865	34540.11
707.209	34472.54
707.554	34534.91
707.899	34437.74
708.243	34288.14
708.588	34152.1
708.932	34064.19
709.277	34140.8
709.621	33949.39
709.966	33827.13
710.31	33835.04
710.654	33453.81
710.998	33657.87
711.342	33561.38
711.687	33613.58
712.031	33315.73
712.375	33340.59
712.719	33433.7
713.063	33234.83
713.407	33304.21
713.75	33195.29
714.094	33047.04
714.438	32989.19
714.782	33015.18
715.125	32797.1
715.469	32923.88
715.812	32768.18
716.156	32608.18
716.499	32744.45
716.843	32534.06
717.186	32416.32
717.53	32505.81
717.873	32604.34
718.216	32416.32
718.559	32331.81
718.902	32104.01
719.246	32155.99
719.589	32063.56
719.932	32004.58
720.275	31939.73
720.617	31924.36
720.96	31862.67
721.303	31842.33
721.646	31729.34
721.989	31682.1
722.331	31760.52
722.674	31719.62
723.016	31621.77
723.359	31553.52
723.701	31576.8
724.044	31386.07
724.386	31260.42
724.729	31345.62
725.071	31283.47
725.413	31300.42
725.755	31248.67
726.097	31101.33
726.439	31080.54
726.782	31016.81
727.124	31058.17
727.465	30790.38
727.807	30791.51
728.149	30830.6
728.491	30862.69
728.833	30899.98
729.175	30679.87
729.516	30794.22
729.858	30554.9
730.199	30586.77
730.541	30493.66
730.882	30471.29
731.224	30652.53
731.565	30419.54
731.906	30399.65
732.248	30440.78
732.589	30244.85
732.93	30133.9
733.271	30187.23
733.612	30231.3
733.953	30303.38
734.294	30055.03
734.635	30012.32
734.976	30127.34
735.317	29981.58
735.658	29857.29
735.999	29779.33
736.339	29769.84
736.68	29905.65
737.021	29834.24
737.361	29587.47
737.702	29812.32
738.042	29601.26
738.383	29582.27
738.723	29649.84
739.063	29624.31
739.404	29465.44
739.744	29422.96
740.084	29351.54
740.424	29377.08
740.764	29256.41
741.104	29409.17
741.444	29203.98
741.784	29157.65
742.124	29211.89
742.464	29093.92
742.804	28952.46
743.143	29057.54
743.483	29020.48
743.823	28834.95
744.162	28735.74
744.502	28911.33
744.841	28683.54
745.181	28817.32
745.52	28631.56
745.86	28847.6
746.199	28599.02
746.538	28676.99
746.877	28702.07
747.216	28576.65
747.556	28535.29
747.895	28448.52
748.234	28399.71
748.573	28439.48
748.911	28385.92
749.25	28379.82
749.589	28229.77
749.928	28122.2
750.267	28263.89
750.605	28126.72
750.944	28083.33
751.283	27876.56
751.621	27995.87
751.96	27834.3
752.298	27769.89
752.636	27886.72
752.975	27725.6
753.313	27668.65
753.651	27672.72
753.989	27618.71
754.327	27528.54
754.666	27424.82
755.004	27470.01
755.342	27497.36
755.679	27377.81
756.017	27229.79
756.355	27272.96
756.693	27212.17
757.031	27199.51
757.368	27129.68
757.706	27011.72
758.044	26980.76
758.381	26928.78
758.719	26836.13
759.056	26850.37
759.394	26775.57
759.731	26583.93
760.068	26604.5
760.405	26505.07
760.743	26198.41
761.08	26464.39
761.417	26228.46
761.754	26292.42
762.091	26135.36
762.428	26106.21
762.765	25914.57
763.102	26022.14
763.438	25758.87
763.775	25674.35
764.112	25780.11
764.449	25684.97
764.785	25557.07
765.122	25368.82
765.458	25302.16
765.795	25318.2
766.131	25241.37
766.467	25227.81
766.804	25017.87
767.14	24938.33
767.476	24867.82
767.812	24829.63
768.148	24828.95
768.485	24645.45
768.821	24465.57
769.157	24579.47
769.492	24445.23
769.828	24463.54
770.164	24103.55
770.5	24208.63
770.836	24260.61
771.171	23981.29
771.507	23921.63
771.842	23833.95
772.178	23811.8
772.513	23709.89
772.849	23632.6
773.184	23511.7
773.519	23537.69
773.855	23373.85
774.19	23240.52
774.525	23190.8
774.86	23207.07
775.195	23129.34
775.53	23053.63
775.865	22921.21
776.2	22761.44
776.535	22608.45
776.87	22677.6
777.205	22541.33
777.539	22336.81
777.874	22491.16
778.209	22230.15
778.543	22149.47
778.878	22179.98
779.212	21996.94
779.547	22029.93
779.881	22061.34
780.215	21928.01
780.55	21781.8
780.884	21657.51
781.218	21544.29
781.552	21595.14
781.886	21462.03
782.22	21456.38
782.554	21344.75
782.888	21043.51
783.222	20953.12
783.556	20995.83
783.889	20843.07
784.223	20840.36
784.557	20765.78
784.89	20807.36
785.224	20718.1
785.557	20498.9
785.891	20542.28
786.224	20491.21
786.558	20538.89
786.891	20309.52
787.224	20262.52
787.557	20172.12
787.891	20110.43
788.224	20055.07
788.557	20099.58
788.89	20011
789.223	20021.62
789.556	19852.59
789.888	19838.35
790.221	19625.47
790.554	19584.12
790.887	19569.88
791.219	19440.84
791.552	19467.06
791.884	19240.4
792.217	19232.71
792.549	19221.64
792.882	19030.91
793.214	19052.61
793.546	19004.02
793.879	18849.67
794.211	18693.97
794.543	18968.77
794.875	18753.41
795.207	18853.29
795.539	18692.16
795.871	18613.3
796.203	18351.83
796.535	18359.52
796.867	18287.43
797.198	18283.14
797.53	18363.36
797.862	18171.05
798.193	18165.17
798.525	18104.38
798.856	18030.94
799.188	17927.89
799.519	17763.15
799.85	17756.6
800.182	17742.81
800.513	17728.8
800.844	17590.95
801.175	17753.43
801.506	17649.25
801.837	17569.03
802.168	17521.12
802.499	17397.96
802.83	17345.76
803.161	17266.21
803.491	17297.62
803.822	17244.07
804.153	17128.82
804.483	17048.37
804.814	16951.42
805.145	16978.08
805.475	16918.65
805.805	16832.78
806.136	16845.43
806.466	16897.41
806.796	16639.79
807.126	16699
807.457	16607.02
807.787	16613.57
808.117	16476.85
808.447	16498.55
808.777	16527.25
809.107	16427.14
809.436	16378.1
809.766	16364.99
810.096	16213.58
810.426	16173.81
810.755	16273.7
811.085	16184.66
811.414	16149.41
811.744	15965.68
812.073	15949.41
812.403	15943.99
812.732	15927.49
813.061	15860.83
813.39	15823.31
813.719	15734.95
814.049	15798.68
814.378	15748.51
814.707	15676.88
815.036	15679.36
815.365	15553.49
815.693	15507.16
816.022	15441.18
816.351	15416.32
816.68	15366.38
817.008	15371.12
817.337	15232.59
817.665	15290.22
817.994	15327.28
818.322	15202.54
818.651	15166.38
818.979	15107.85
819.307	15126.38
819.636	15090.22
819.964	15010.23
820.292	15056.1
820.62	15088.19
820.948	14984.24
821.276	15014.29
821.604	15026.95
821.932	14991.24
822.259	15010.9
822.587	14926.16
822.915	14905.82
823.243	14975.65
823.57	14960.51
823.898	14936.1
824.225	14891.59
824.553	14892.26
824.88	14843.9
825.207	14917.35
825.535	14930.23
825.862	14936.33
826.189	14903.11
826.516	14958.25
826.843	14964.58
827.17	14869.44
827.497	14813.62
827.824	14863.79
828.151	14927.07
828.478	14841.19
828.805	14959.15
829.131	14839.84
829.458	14835.77
829.785	14720.29
830.111	14806.16
830.438	14865.37
830.764	14875.32
831.09	14897.46
831.417	14739.73
831.743	14864.02
832.069	14845.49
832.395	14792.61
832.722	14796.22
833.048	14762.1
833.374	14808.2
833.7	14705.83
834.026	14668.99
834.351	14677.13
834.677	14641.2
835.003	14774.98
835.329	14708.31
835.654	14616.79
835.98	14589.22
836.306	14640.74
836.631	14528.21
836.956	14604.36
837.282	14489.11
837.607	14393.75
837.932	14436.46
838.258	14431.94
838.583	14431.94
838.908	14345.61
839.233	14374.99
839.558	14329.34
839.883	14321.21
840.208	14260.87
840.533	14395.55
840.858	14163.92
841.182	14233.52
841.507	14245.28
841.832	14106.52
842.156	14121.21
842.481	14150.81
842.805	14218.16
843.13	13995.79
843.454	14065.62
843.778	13955.11
844.103	13957.15
844.427	13906.98
844.751	13937.71
845.075	13879.86
845.399	13858.17
845.723	13745.63
846.047	13742.24
846.371	13543.37
846.695	13619.3
847.019	13587.67
847.343	13513.32
847.666	13347.45
847.99	13431.74
848.313	13351.97
848.637	13289.14
848.96	13299.31
849.284	13222.25
849.607	13085.53
849.931	13071.07
850.254	12995.36
850.577	12974.12
850.9	12896.61
851.223	12826.33
851.546	12802.15
851.869	12774.35
852.192	12728.03
852.515	12649.38
852.838	12590.63
853.161	12643.74
853.483	12443.97
853.806	12497.75
854.129	12512.89
854.451	12331.88
854.774	12307.92
855.096	12270.19
855.419	12290.52
855.741	12246.68
856.063	12178.44
856.385	12109.74
856.708	12099.12
857.03	12037.42
857.352	12056.86
857.674	12056.63
857.996	11929.86
858.318	11889.18
858.64	11935.51
858.961	11853.25
859.283	11778.67
859.605	11704.78
859.926	11792.68
860.248	11742.97
860.57	11672.01
860.891	11692.8
861.212	11648.51
861.534	11544.33
861.855	11596.76
862.176	11573.71
862.498	11621.39
862.819	11549.53
863.14	11456.65
863.461	11452.58
863.782	11474.05
864.103	11409.64
864.424	11420.94
864.745	11401.96
865.065	11308.86
865.386	11328.29
865.707	11353.15
866.027	11271.57
866.348	11201.06
866.668	11282.42
866.989	11317.44
867.309	11143.44
867.63	11179.37
867.95	11183.21
868.27	11074.29
868.59	11177.11
868.91	11095.3
869.23	11111.57
869.55	11083.55
869.87	11117.45
870.19	11042.2
870.51	11161.74
870.83	11053.49
871.15	11008.75
871.469	10931.01
871.789	11031.57
872.109	11002.42
872.428	10876.32
872.748	10920.62
873.067	10886.04
873.386	10886.04
873.706	10981.41
874.025	10848.08
874.344	10807.85
874.663	10840.17
874.982	10725.37
875.301	10796.78
875.62	10695.54
875.939	10733.73
876.258	10705.71
876.577	10690.57
876.896	10723.11
877.214	10655.54
877.533	10601.08
877.852	10606.73
878.17	10632.26
878.489	10607.18
878.807	10606.27
879.125	10609.21
879.444	10577.12
879.762	10471.59
880.08	10458.48
880.398	10458.93
880.716	10460.29
881.034	10384.13
881.352	10368.31
881.67	10312.5
881.988	10351.37
882.306	10340.07
882.624	10325.38
882.941	10256.91
883.259	10239.28
883.577	10198.38
883.894	10205.83
884.212	10147.3
884.529	10216
884.846	10121.77
885.164	10135.78
885.481	10099.62
885.798	10109.34
886.115	9982.34
886.432	10001.54
886.75	10004.93
887.067	9998.38
887.383	9942.34
887.7	9992.28
888.017	9894.43
888.334	9916.12
888.651	9877.48
888.967	9813.08
889.284	9856.92
889.6	9755.68
889.917	9677.26
890.233	9745.96
890.55	9735.11
890.866	9695.34
891.182	9639.07
891.498	9602.23
891.815	9596.36
892.131	9577.15
892.447	9511.16
892.763	9502.12
893.079	9446.98
893.395	9484.27
893.71	9412.41
894.026	9375.57
894.342	9352.75
894.657	9310.26
894.973	9279.98
895.289	9327.44
895.604	9285.41
895.92	9206.76
896.235	9194.56
896.55	9160.89
896.865	9167.67
897.181	9133.32
897.496	9108.91
897.811	9018.75
898.126	9038.86
898.441	9008.35
898.756	8947.34
899.071	8855.59
899.386	8911.4
899.7	8815.59
900.015	8797.73
900.33	8773.1
900.644	8738.75
900.959	8764.74
901.273	8681.58
901.588	8616.5
901.902	8614.01
902.216	8681.13
902.531	8575.37
902.845	8497.63
903.159	8505.31
903.473	8463.05
903.787	8436.39
904.101	8448.14
904.415	8360.23
904.729	8335.6
905.042	8328.14
905.356	8324.3
905.67	8207.47
905.984	8237.98
906.297	8171.08
906.611	8150.29
906.924	8210.63
907.237	8131.99
907.551	8103.06
907.864	7986
908.177	7989.39
908.491	7994.37
908.804	7926.57
909.117	7845.44
909.43	7902.84
909.743	7831.66
910.056	7834.6
910.368	7719.57
910.681	7732.68
910.994	7672.11
911.307	7695.16
911.619	7637.99
911.932	7617.43
912.244	7529.29
912.557	7612.46
912.869	7520.71
913.181	7505.11
913.494	7499.46
913.806	7425.79
914.118	7407.26
914.43	7348.06
914.742	7346.02
915.054	7221.96
915.366	7222.41
915.678	7263.54
915.99	7226.02
916.302	7188.06
916.613	7167.95
916.925	7106.48
917.236	7138.8
917.548	7042.75
917.859	7073.26
918.171	6989.42
918.482	7063.77
918.794	7028.74
919.105	6974.51
919.416	6855.86
919.727	6917.56
920.038	6874.85
920.349	6815.87
920.66	6809.09
920.971	6793.04
921.282	6758.92
921.593	6716.66
921.903	6712.37
922.214	6670.33
922.525	6600.5
922.835	6552.82
923.146	6489.09
923.456	6569.32
923.767	6506.95
924.077	6486.38
924.387	6438.93
924.697	6392.15
925.008	6402.09
925.318	6372.26
925.628	6383.11
925.938	6365.26
926.248	6263.56
926.558	6244.58
926.867	6250.68
927.177	6233.06
927.487	6183.11
927.796	6160.52
928.106	6130.69
928.416	6151.7
928.725	6111.48
929.034	6070.12
929.344	6036.23
929.653	6012.27
929.962	5995.55
930.271	5908.32
930.581	5929.34
930.89	5858.15
931.199	5855.67
931.508	5857.7
931.817	5838.49
932.125	5794.2
932.434	5835.55
932.743	5743.58
933.051	5696.12
933.36	5693.41
933.669	5657.7
933.977	5624.71
934.286	5636.69
934.594	5565.5
934.902	5578.16
935.21	5541.55
935.519	5546.07
935.827	5464.94
936.135	5438.5
936.443	5443.92
936.751	5417.48
937.059	5442.79
937.367	5397.37
937.674	5365.06
937.982	5341.33
938.29	5313.76
938.597	5271.27
938.905	5259.75
939.213	5288.22
939.52	5252.97
939.827	5281.9
940.135	5178.17
940.442	5153.08
940.749	5165.29
941.056	5135.68
941.363	5085.74
941.67	5074.89
941.977	5033.09
942.284	4964.62
942.591	5010.04
942.898	4967.33
943.205	4974.56
943.511	4974.56
943.818	4944.05
944.125	4922.13
944.431	4888.23
944.738	4881.68
945.044	4868.35
945.35	4901.11
945.657	4827.9
945.963	4807.11
946.269	4754.68
946.575	4725.53
946.881	4740.67
947.187	4735.02
947.493	4666.77
947.799	4664.51
948.105	4649.6
948.41	4612.99
948.716	4565.53
949.022	4565.53
949.327	4600.56
949.633	4526.43
949.938	4499.99
950.244	4542.25
950.549	4466.78
950.854	4440.34
951.16	4405.53
951.465	4415.93
951.77	4392.43
952.075	4366.89
952.38	4425.42
952.685	4370.05
952.99	4282.6
953.294	4287.34
953.599	4298.87
953.904	4236.27
954.209	4256.39
954.513	4234.01
954.818	4170.06
955.122	4207.12
955.426	4189.95
955.731	4160.57
956.035	4159.44
956.339	4160.34
956.643	4062.04
956.948	4072.89
957.252	4093.23
957.556	4068.37
957.86	4057.29
958.163	4002.61
958.467	4018.2
958.771	3987.69
959.075	4011.42
959.378	3981.36
959.682	3899.56
959.985	3914.47
960.289	3910.86
960.592	3897.3
960.896	3880.12
961.199	3836.28
961.502	3877.86
961.805	3849.16
962.108	3784.31
962.411	3785.89
962.714	3772.1
963.017	3730.98
963.32	3757.87
963.623	3704.76
963.926	3730.07
964.228	3711.31
964.531	3667.25
964.833	3669.96
965.136	3607.81
965.438	3657.53
965.741	3636.97
966.043	3585.44
966.345	3584.31
966.648	3550.64
966.95	3485.33
967.252	3565.33
967.554	3544.09
967.856	3492.56
968.158	3441.49
968.46	3484.2
968.761	3471.77
969.063	3427.25
969.365	3423.19
969.666	3405.33
969.968	3405.79
970.269	3385.45
970.571	3415.28
970.872	3355.62
971.174	3329.86
971.475	3307.71
971.776	3246.69
972.077	3303.87
972.378	3288.73
972.679	3247.37
972.98	3272.46
973.281	3221.84
973.582	3187.71
973.883	3211.89
974.183	3218.45
974.484	3164.89
974.785	3158.11
975.085	3204.44
975.386	3184.78
975.686	3123.08
975.986	3130.09
976.287	3039.69
976.587	3043.54
976.887	3075.17
977.187	3035.17
977.487	3048.73
977.787	3053.71
978.087	3038.79
978.387	3016.19
978.687	2989.3
978.987	2989.07
979.286	2942.75
979.586	2957.21
979.885	2903.2
980.185	2925.8
980.484	2923.99
980.784	2916.08
981.083	2866.82
981.382	2894.16
981.682	2848.06
981.981	2826.82
982.28	2835.18
982.579	2805.8
982.878	2815.07
983.177	2814.16
983.475	2779.59
983.774	2755.86
984.073	2751.11
984.372	2706.82
984.67	2709.31
984.969	2698.01
985.267	2687.84
985.566	2695.3
985.864	2663.43
986.162	2694.84
986.461	2629.31
986.759	2640.38
987.057	2616.88
987.355	2592.02
987.653	2610.55
987.951	2565.13
988.249	2611
988.547	2558.58
988.844	2562.19
989.142	2563.55
989.44	2557.9
989.737	2506.15
990.035	2504.11
990.332	2484.68
990.63	2494.85
990.927	2466.6
991.224	2468.41
991.521	2509.76
991.819	2439.48
992.116	2452.14
992.413	2430.67
992.71	2395.87
993.006	2415.08
993.303	2376.21
993.6	2387.28
993.897	2379.6
994.193	2359.94
994.49	2352.93
994.787	2344.57
995.083	2293.5
995.379	2304.57
995.676	2265.93
995.972	2256.21
996.268	2294.4
996.565	2275.19
996.861	2268.19
997.157	2259.6
997.453	2200.39
997.749	2241.52
998.044	2212.6
998.34	2203.11
998.636	2205.82
998.932	2160.62
999.227	2150
999.523	2156.55
999.818	2192.48
1000.114	2134.41
1000.409	2112.03
1000.704	2091.47
1001	2097.8
1001.295	2093.5
1001.59	2072.94
1001.885	2049.89
1002.18	2062.09
1002.475	2078.59
1002.77	2050.57
1003.065	2032.94
1003.359	2019.38
1003.654	1984.35
1003.949	1973.28
1004.243	1966.73
1004.538	1950.46
1004.832	1991.13
1005.127	1962.66
1005.421	1942.32
1005.715	1938.93
1006.009	1949.1
1006.304	1910.91
1006.598	1896
1006.892	1898.71
1007.186	1877.92
1007.48	1864.13
1007.773	1860.52
1008.067	1850.12
1008.361	1852.83
1008.655	1813.74
1008.948	1843.57
1009.242	1815.55
1009.535	1797.01
1009.829	1785.49
1010.122	1770.8
1010.415	1756.56
1010.708	1752.72
1011.001	1738.94
1011.295	1727.86
1011.588	1732.16
1011.881	1706.85
1012.173	1707.98
1012.466	1703.68
1012.759	1686.28
1013.052	1669.79
1013.344	1656
1013.637	1649.9
1013.93	1628.88
1014.222	1638.83
1014.514	1630.69
1014.807	1638.6
1015.099	1594.08
1015.391	1601.31
1015.683	1593.63
1015.976	1554.54
1016.268	1577.81
1016.56	1578.94
1016.851	1565.16
1017.143	1557.47
1017.435	1538.94
1017.727	1513.63
1018.018	1501.88
1018.31	1502.11
1018.602	1498.94
1018.893	1473.18
1019.185	1484.25
1019.476	1456.23
1019.767	1459.85
1020.058	1459.85
1020.35	1419.17
1020.641	1421.21
1020.932	1444.48
1021.223	1417.36
1021.514	1408.55
1021.804	1361.55
1022.095	1378.95
1022.386	1368.55
1022.677	1376.01
1022.967	1355.9
1023.258	1354.99
1023.548	1341.66
1023.839	1360.42
1024.129	1337.59
1024.419	1315.45
1024.709	1324.71
1025	1294.88
1025.29	1281.77
1025.58	1299.4
1025.87	1295.79
1026.16	1228.89
1026.449	1281.1
1026.739	1257.59
1027.029	1244.71
1027.319	1230.93
1027.608	1212.85
1027.898	1211.04
1028.187	1221.21
1028.477	1221.89
1028.766	1214.43
1029.055	1196.13
1029.344	1198.84
1029.634	1169.01
1029.923	1170.82
1030.212	1189.35
1030.501	1142.57
1030.79	1125.17
1031.078	1157.71
1031.367	1136.69
1031.656	1127.2
1031.945	1109.8
1032.233	1104.38
1032.522	1128.78
1032.81	1105.06
1033.099	1098.73
1033.387	1067.77
1033.675	1070.03
1033.963	1071.38
1034.251	1044.04
1034.54	1049.46
1034.828	1063.7
1035.116	1029.13
1035.403	1033.65
1035.691	1028.9
1035.979	1007.43
1036.267	1023.93
1036.554	1036.13
1036.842	992.97
1037.129	991.39
1037.417	973.76
1037.704	998.62
1037.992	973.53
1038.279	969.69
1038.566	951.84
1038.853	951.84
1039.14	951.84
