Data from hue_180_FLMS001491_00068.txt Node
Date: Tue Feb 07 16:47:20 GMT 2017
User: dcchb
Spectrometer: FLMS00149
Trigger mode: 0
Integration Time (sec): 2.000000E-2
Scans to average: 10
Electric dark correction enabled: true
Nonlinearity correction enabled: false
Boxcar width: 0
XAxis mode: Wavelengths
Number of Pixels in Spectrum: 2048
>>>>>Begin Spectral Data<<<<<
341.393	-16.65
341.776	-16.65
342.16	-16.65
342.543	-53.04
342.927	-78.57
343.31	-56.43
343.693	-88.74
344.077	-57.78
344.46	-75.63
344.843	-47.39
345.226	-36.09
345.61	-23.21
345.993	-18.01
346.376	-3.55
346.759	0.3
347.142	33.52
347.525	43.91
347.908	59.05
348.291	74.42
348.674	85.27
349.057	110.35
349.44	137.69
349.823	140.86
350.206	164.81
350.588	194.19
350.971	193.06
351.354	205.26
351.737	245.04
352.119	248.43
352.502	271.02
352.884	264.47
353.267	270.8
353.65	308.99
354.032	294.98
354.414	315.32
354.797	303.57
355.179	323.45
355.562	311.7
355.944	320.29
356.326	336.11
356.709	332.72
357.091	316.9
357.473	353.96
357.855	327.07
358.238	331.59
358.62	341.3
359.002	314.41
359.384	353.06
359.766	330.91
360.148	323.23
360.53	343.11
360.912	337.24
361.294	348.31
361.676	327.29
362.057	346.05
362.439	329.55
362.821	344.92
363.203	327.52
363.584	315.77
363.966	323.45
364.348	321.64
364.729	310.8
365.111	300.18
365.493	315.99
365.874	301.53
366.256	311.02
366.637	286.16
367.019	298.59
367.4	307.18
367.781	300.18
368.163	322.1
368.544	310.12
368.925	290.46
369.306	313.06
369.688	316.9
370.069	315.77
370.45	304.24
370.831	293.4
371.212	299.05
371.593	299.05
371.974	301.98
372.355	312.83
372.736	311.25
373.117	304.92
373.498	310.12
373.879	300.18
374.26	298.37
374.641	303.57
375.021	325.71
375.402	322.77
375.783	332.72
376.163	336.56
376.544	337.91
376.925	312.83
377.305	319.61
377.686	318.48
378.066	312.6
378.447	335.2
378.827	321.87
379.208	337.91
379.588	338.37
379.968	333.17
380.349	328.42
380.729	310.57
381.109	310.34
381.489	324.58
381.87	327.07
382.25	340.85
382.63	336.78
383.01	329.55
383.39	309.22
383.77	341.98
384.15	320.06
384.53	304.92
384.91	347.18
385.29	332.04
385.67	344.02
386.049	341.53
386.429	339.5
386.809	353.96
387.189	351.7
387.568	353.28
387.948	357.8
388.328	345.6
388.707	360.51
389.087	339.04
389.466	353.96
389.846	341.76
390.225	358.93
390.605	362.09
390.984	354.19
391.363	364.81
391.743	358.71
392.122	359.84
392.501	389.89
392.881	371.59
393.26	375.2
393.639	386.05
394.018	346.73
394.397	370.68
394.776	376.56
395.155	384.02
395.534	373.39
395.913	373.39
396.292	369.33
396.671	381.98
397.05	363.68
397.429	372.94
397.808	395.99
398.186	371.59
398.565	393.05
398.944	379.04
399.323	408.65
399.701	392.15
400.08	410.91
400.458	400.51
400.837	406.84
401.215	407.74
401.594	407.52
401.972	405.03
402.351	418.82
402.729	398.03
403.107	390.34
403.486	407.74
403.864	397.12
404.242	442.77
404.62	427.63
404.999	429.21
405.377	448.87
405.755	445.03
406.133	450.91
406.511	432.6
406.889	460.62
407.267	443.9
407.645	442.32
408.023	466.73
408.401	468.76
408.779	468.98
409.156	462.43
409.534	482.54
409.912	495.42
410.29	476.67
410.667	496.78
411.045	494.29
411.422	540.62
411.8	500.4
412.178	544.46
412.555	525.48
412.933	539.49
413.31	553.05
413.687	555.99
414.065	568.19
414.442	583.78
414.819	573.84
415.197	588.98
415.574	573.61
415.951	607.51
416.328	602.54
416.705	610
417.082	605.48
417.46	619.72
417.837	652.26
418.214	610.22
418.591	649.55
418.967	645.03
419.344	666.27
419.721	667.17
420.098	669.21
420.475	680.96
420.852	692.03
421.228	696.55
421.605	692.71
421.982	725.48
422.358	703.78
422.735	732.03
423.111	723.67
423.488	759.15
423.864	779.26
424.241	782.87
424.617	765.02
424.994	806.83
425.37	813.16
425.746	817.9
426.123	825.36
426.499	828.52
426.875	881.18
427.251	846.83
427.627	895.64
428.003	886.15
428.379	877.79
428.756	911.23
429.132	903.78
429.507	911.23
429.883	934.06
430.259	927.73
430.635	961.63
431.011	955.3
431.387	993.26
431.763	1018.8
432.138	988.52
432.514	991.46
432.89	1013.6
433.265	1039.82
433.641	1039.82
434.016	1053.83
434.392	1090.89
434.767	1106.71
435.143	1113.49
435.518	1132.24
435.894	1162.53
436.269	1168.18
436.644	1181.51
437.02	1227.61
437.395	1185.8
437.77	1235.52
438.145	1281.39
438.52	1269.87
438.895	1300.38
439.271	1288.85
439.646	1358
440.021	1346.02
440.395	1362.75
440.77	1352.13
441.145	1392.58
441.52	1367.72
441.895	1399.58
442.27	1416.76
442.645	1432.58
443.019	1451.56
443.394	1473.25
443.769	1492.91
444.143	1502.86
444.518	1523.42
444.892	1520.26
445.267	1520.71
445.641	1569.97
446.016	1551.67
446.39	1548.73
446.764	1593.48
447.139	1570.2
447.513	1607.26
447.887	1612.01
448.262	1622.4
448.636	1625.34
449.01	1673.47
449.384	1702.85
449.758	1656.3
450.132	1717.77
450.506	1713.92
450.88	1718.44
451.254	1743.53
451.628	1757.99
452.002	1784.43
452.376	1807.48
452.75	1773.81
453.123	1824.66
453.497	1884.31
453.871	1866.01
454.244	1914.14
454.618	1899.46
454.992	1951.88
455.365	1966.8
455.739	2005.44
456.112	2020.58
456.486	2022.62
456.859	2078.89
457.232	2095.61
457.606	2100.13
457.979	2109.85
458.352	2156.62
458.725	2165.89
459.099	2213.35
459.472	2237.53
459.845	2249.05
460.218	2287.24
460.591	2289.28
460.964	2295.38
461.337	2342.83
461.71	2435.49
462.083	2442.72
462.456	2432.32
462.829	2458.31
463.201	2538.08
463.574	2497.63
463.947	2553.68
464.32	2633
464.692	2602.94
465.065	2656.72
465.438	2696.72
465.81	2771.98
466.183	2774.23
466.555	2861.69
466.928	2856.04
467.3	2840
467.672	2930.39
468.045	2987.34
468.417	3002.03
468.789	3062.59
469.161	3074.79
469.534	3147.33
469.906	3234.79
470.278	3228.69
470.65	3260.78
471.022	3302.13
471.394	3395.91
471.766	3462.58
472.138	3447.89
472.51	3570.82
472.882	3647.66
473.253	3661.22
473.625	3697.37
473.997	3793.19
474.369	3843.81
474.74	3877.71
475.112	3983.02
475.484	4021.66
475.855	4074.31
476.227	4159.06
476.598	4251.71
476.97	4317.7
477.341	4413.51
477.713	4511.14
478.084	4548.43
478.455	4633.17
478.827	4687.63
479.198	4879.72
479.569	4879.26
479.94	4992.48
480.311	5085.13
480.682	5178.01
481.053	5312.93
481.424	5427.5
481.795	5432.92
482.166	5617.78
482.537	5695.97
482.908	5818.9
483.279	5856.87
483.65	6018.9
484.021	6093.24
484.391	6189.74
484.762	6225.67
485.133	6359.23
485.503	6475.61
485.874	6614.81
486.244	6652.1
486.615	6797.86
486.985	6882.15
487.356	7065.87
487.726	7090.05
488.097	7202.14
488.467	7239.2
488.837	7445.52
489.207	7548.12
489.578	7668.57
489.948	7768.23
490.318	7909.92
490.688	7875.34
491.058	7986.98
491.428	8156.01
491.798	8258.38
492.168	8398.72
492.538	8447.31
492.908	8563.01
493.278	8659.28
493.648	8706.73
494.017	8772.04
494.387	8932.94
494.757	8994.86
495.126	9029.89
495.496	9170
495.866	9127.06
496.235	9281.86
496.605	9261.3
496.974	9386.94
497.344	9436.21
497.713	9556.2
498.082	9546.26
498.452	9715.97
498.821	9721.4
499.19	9740.61
499.559	9791.45
499.928	9858.34
500.298	9905.12
500.667	9945.12
501.036	9996.42
501.405	10084.33
501.774	10160.03
502.143	10245.22
502.512	10184.66
502.88	10246.58
503.249	10288.61
503.618	10381.27
503.987	10294.04
504.356	10391.66
504.724	10453.36
505.093	10461.49
505.462	10440.02
505.83	10569.28
506.199	10608.61
506.567	10745.32
506.936	10786.68
507.304	10769.73
507.672	10858.32
508.041	10883.63
508.409	10931.53
508.777	11006.11
509.145	10984.19
509.514	11017.18
509.882	10954.36
510.25	11019.89
510.618	11047.24
510.986	11101.25
511.354	11095.15
511.722	11246.1
512.09	11277.29
512.458	11175.14
512.826	11235.03
513.193	11272.99
513.561	11323.84
513.929	11407.68
514.297	11368.81
514.664	11476.38
515.032	11455.81
515.4	11464.63
515.767	11491.07
516.135	11554.12
516.502	11402.48
516.869	11501.46
517.237	11581.69
517.604	11477.28
517.972	11576.26
518.339	11653.78
518.706	11515.7
519.073	11561.57
519.44	11614.68
519.808	11665.98
520.175	11661.23
520.542	11730.16
520.909	11782.81
521.276	11675.7
521.643	11785.3
522.009	11797.05
522.376	11844.96
522.743	11797.27
523.11	11867.78
523.477	11905.52
523.843	11925.63
524.21	11951.85
524.577	11955.91
524.943	12014.9
525.31	11909.59
525.676	12016.93
526.043	12038.62
526.409	12013.31
526.776	12058.74
527.142	11984.39
527.508	12085.63
527.874	12089.24
528.241	12083.82
528.607	12010.6
528.973	12065.74
529.339	12121.11
529.705	11968.8
530.071	12084.27
530.437	12012.41
530.803	12034.56
531.169	12032.75
531.535	11946.65
531.901	11934.9
532.267	11912.75
532.632	11962.24
532.998	11963.6
533.364	11875.01
533.73	11926.31
534.095	11874.11
534.461	11813.09
534.826	11852.87
535.192	11786.65
535.557	11854.9
535.923	11747.11
536.288	11685.41
536.653	11688.12
537.019	11589.14
537.384	11585.75
537.749	11647.22
538.114	11483.84
538.479	11561.35
538.845	11473.67
539.21	11449.94
539.575	11416.72
539.94	11411.3
540.305	11339.43
540.67	11279.77
541.034	11288.81
541.399	11268.93
541.764	11171.3
542.129	11167.01
542.494	11133.11
542.858	11100.34
543.223	11019.89
543.587	11094.92
543.952	10953.68
544.316	10911.2
544.681	10842.05
545.045	10865.32
545.41	10837.3
545.774	10772.67
546.138	10791.43
546.503	10697.87
546.867	10677.53
547.231	10666.68
547.595	10605.67
547.959	10619.68
548.324	10568.38
548.688	10454.26
549.052	10463.3
549.416	10453.81
549.779	10376.52
550.143	10386.69
550.507	10337.43
550.871	10257.2
551.235	10280.03
551.599	10286.35
551.962	10202.29
552.326	10148.96
552.689	10137.66
553.053	10074.38
553.417	10050.88
553.78	10124.1
554.143	10035.06
554.507	10027.38
554.87	9978.11
555.234	9957.1
555.597	9929.08
555.96	9915.52
556.323	9956.42
556.686	9894.27
557.05	9846.82
557.413	9841.17
557.776	9805.24
558.139	9775.18
558.502	9729.98
558.865	9735.18
559.228	9710.32
559.59	9779.02
559.953	9720.04
560.316	9816.54
560.679	9668.29
561.041	9695.86
561.404	9715.3
561.767	9696.31
562.129	9604.11
562.492	9736.54
562.854	9666.94
563.217	9644.11
563.579	9598.46
563.941	9671.68
564.304	9675.75
564.666	9648.4
565.028	9692.25
565.39	9646.14
565.753	9572.93
566.115	9680.72
566.477	9754.16
566.839	9724.33
567.201	9682.98
567.563	9668.06
567.925	9664.9
568.287	9767.72
568.648	9605.47
569.01	9662.64
569.372	9755.52
569.734	9638.91
570.095	9662.87
570.457	9762.75
570.819	9706.26
571.18	9702.41
571.542	9755.29
571.903	9715.07
572.265	9694.96
572.626	9686.14
572.987	9705.58
573.349	9736.31
573.71	9710.78
574.071	9693.83
574.432	9707.16
574.794	9815.18
575.155	9704.9
575.516	9687.05
575.877	9721.85
576.238	9793.26
576.599	9776.08
576.96	9721.62
577.32	9724.79
577.681	9760.04
578.042	9763.88
578.403	9672.81
578.763	9697.67
579.124	9775.63
579.485	9720.94
579.845	9781.96
580.206	9808.17
580.566	9734.73
580.927	9730.66
581.287	9719.14
581.648	9673.49
582.008	9738.8
582.368	9717.33
582.728	9661.96
583.089	9751.23
583.449	9668.97
583.809	9653.15
584.169	9681.17
584.529	9651.12
584.889	9688.86
585.249	9631.46
585.609	9567.73
585.969	9674.39
586.329	9639.37
586.688	9567.5
587.048	9600.04
587.408	9552.81
587.768	9550.55
588.127	9622.19
588.487	9591.23
588.846	9565.47
589.206	9539.03
589.565	9495.87
589.925	9589.2
590.284	9556.66
590.643	9499.03
591.003	9564.56
591.362	9558.92
591.721	9536.54
592.08	9502.87
592.44	9524.79
592.799	9504.23
593.158	9485.24
593.517	9469.2
593.876	9460.84
594.235	9403.21
594.593	9433.95
594.952	9469.2
595.311	9413.16
595.67	9515.3
596.029	9472.59
596.387	9437.34
596.746	9444.57
597.104	9369.54
597.463	9383.1
597.822	9404.12
598.18	9377.23
598.538	9419.26
598.897	9396.43
599.255	9340.62
599.613	9501.52
599.972	9395.53
600.33	9317.79
600.688	9327.73
601.046	9366.38
601.404	9352.82
601.762	9391.24
602.12	9368.86
602.478	9381.74
602.836	9353.95
603.194	9280.05
603.552	9277.34
603.91	9247.29
604.268	9367.06
604.625	9347.17
604.983	9372.25
605.341	9303.55
605.698	9277.11
606.056	9329.32
606.413	9369.54
606.771	9351.92
607.128	9330.22
607.485	9271.92
607.843	9327.06
608.2	9359.82
608.557	9403.21
608.914	9300.17
609.272	9373.84
609.629	9386.04
609.986	9389.2
610.343	9351.46
610.7	9409.99
611.057	9393.72
611.414	9378.13
611.771	9421.97
612.127	9451.57
612.484	9345.81
612.841	9469.2
613.198	9415.42
613.554	9441.86
613.911	9405.25
614.267	9525.02
614.624	9473.27
614.98	9407.05
615.337	9451.35
615.693	9446.38
616.05	9442.99
616.406	9499.48
616.762	9480.05
617.118	9478.92
617.475	9454.96
617.831	9542.19
618.187	9545.58
618.543	9523.66
618.899	9504.23
619.255	9523.66
619.611	9568.18
619.967	9564.34
620.323	9602.53
620.678	9542.87
621.034	9581.97
621.39	9425.81
621.746	9422.65
622.101	9561.85
622.457	9513.04
622.812	9548.52
623.168	9515.53
623.523	9593.49
623.879	9616.54
624.234	9524.79
624.589	9515.3
624.945	9562.76
625.3	9601.63
625.655	9574.06
626.01	9578.58
626.365	9562.53
626.72	9518.24
627.075	9539.71
627.43	9523.44
627.785	9469.88
628.14	9496.77
628.495	9496.54
628.85	9446.83
629.205	9464.45
629.559	9503.78
629.914	9492.25
630.269	9495.19
630.623	9457.45
630.978	9413.61
631.332	9488.41
631.687	9419.03
632.041	9438.47
632.396	9400.73
632.75	9441.4
633.104	9334.74
633.459	9344.23
633.813	9406.15
634.167	9277.57
634.521	9373.38
634.875	9371.8
635.229	9297
635.583	9304.91
635.937	9295.87
636.291	9264.01
636.645	9285.02
636.999	9204.35
637.352	9281.86
637.706	9265.36
638.06	9271.92
638.413	9231.01
638.767	9193.28
639.121	9254.29
639.474	9163.45
639.828	9186.95
640.181	9209.09
640.534	9209.32
640.888	9202.54
641.241	9117.35
641.594	9147.63
641.947	9094.97
642.301	9139.27
642.654	9173.39
643.007	9181.07
643.36	9097.68
643.713	9074.86
644.066	9135.42
644.419	9104.24
644.771	8999.61
645.124	8960.74
645.477	8945.37
645.83	8896.11
646.182	8851.36
646.535	8847.3
646.888	8847.52
647.24	8788.09
647.593	8895.43
647.945	8873.74
648.298	8725.26
648.65	8750.12
649.002	8784.25
649.355	8799.84
649.707	8821.76
650.059	8823.34
650.411	8915.77
650.763	8921.87
651.115	9059.95
651.467	8982.21
651.819	8970.91
652.171	8966.61
652.523	8979.72
652.875	8976.11
653.227	8897.46
653.578	9008.87
653.93	8943.34
654.282	8948.76
654.633	8926.39
654.985	8980.85
655.337	8978.37
655.688	8976.78
656.039	9007.52
656.391	8905.15
656.742	8948.76
657.094	9010.23
657.445	9019.95
657.796	8960.74
658.147	8958.48
658.498	8966.61
658.849	8994.64
659.2	8976.78
659.551	8953.51
659.902	8971.59
660.253	9038.93
660.604	9008.65
660.955	8996.67
661.306	9030.34
661.656	9087.74
662.007	9035.77
662.358	9030.34
662.708	9026.95
663.059	9077.8
663.409	8966.61
663.76	9054.97
664.11	9084.35
664.461	9030.12
664.811	9077.57
665.161	9035.99
665.511	9014.52
665.862	9061.53
666.212	9085.26
666.562	9057.23
666.912	9048.42
667.262	9016.56
667.612	9071.24
667.962	8995.54
668.312	9045.93
668.662	9094.07
669.011	9028.76
669.361	9012.94
669.711	9068.76
670.06	9017.01
670.41	8982.43
670.76	9067.63
671.109	9013.84
671.459	8985.37
671.808	8986.5
672.157	8981.08
672.507	8960.51
672.856	9045.03
673.205	8975.65
673.554	9012.26
673.904	9009.78
674.253	9028.08
674.602	8961.87
674.951	8876.45
675.3	8826.28
675.649	8986.28
675.998	8878.26
676.346	8888.42
676.695	8956.67
677.044	8864.7
677.393	8893.17
677.741	8991.25
678.09	8851.36
678.438	8823.34
678.787	8865.6
679.135	8849.56
679.484	8706.28
679.832	8776.34
680.181	8730.91
680.529	8808.88
680.877	8822.66
681.225	8692.72
681.573	8726.39
681.922	8747.64
682.27	8663.35
682.618	8723.23
682.966	8630.35
683.314	8653.18
683.661	8641.43
684.009	8588.77
684.357	8568.43
684.705	8552.39
685.053	8561.65
685.4	8533.18
685.748	8486.63
686.095	8513.75
686.443	8456.12
686.79	8434.88
687.138	8403.69
687.485	8456.35
687.832	8437.81
688.18	8417.25
688.527	8363.24
688.874	8373.64
689.221	8343.35
689.568	8384.71
689.915	8267.65
690.262	8389.23
690.609	8214.09
690.956	8233.53
691.303	8195.34
691.65	8204.37
691.997	8149.46
692.344	8108.11
692.69	8063.36
693.037	8068.79
693.383	7976.81
693.73	7983.36
694.077	7975
694.423	7965.51
694.769	7909.92
695.116	7905.85
695.462	7922.57
695.808	7847.77
696.155	7892.52
696.501	7769.58
696.847	7768.91
697.193	7715.57
697.539	7660.89
697.885	7629.25
698.231	7609.36
698.577	7616.59
698.923	7576.14
699.269	7517.61
699.614	7461.8
699.96	7483.94
700.306	7409.37
700.651	7409.14
700.997	7355.81
701.342	7402.14
701.688	7306.55
702.033	7325.75
702.379	7338.18
702.724	7326.66
703.069	7318.07
703.415	7198.98
703.76	7204.4
704.105	7183.61
704.45	7137.06
704.795	7092.31
705.14	7137.06
705.485	7128.7
705.83	7005.76
706.175	7085.76
706.52	7079.66
706.865	7067.68
707.209	7015.93
707.554	7034.24
707.899	6943.62
708.243	6949.04
708.588	6869.49
708.932	6853.45
709.277	6873.34
709.621	6901.58
709.966	6834.24
710.31	6831.98
710.654	6796.05
710.998	6783.4
711.342	6745.2
711.687	6688.26
712.031	6696.17
712.375	6669.05
712.719	6676.73
713.063	6651.65
713.407	6579.33
713.75	6680.12
714.094	6624.98
714.438	6618.43
714.782	6641.25
715.125	6631.76
715.469	6616.85
715.812	6521.26
716.156	6503.85
716.499	6507.92
716.843	6530.97
717.186	6534.36
717.53	6536.4
717.873	6515.15
718.216	6463.63
718.559	6455.04
718.902	6406.46
719.246	6485.78
719.589	6411.43
719.932	6397.19
720.275	6422.5
720.617	6419.79
720.96	6463.18
721.303	6458.21
721.646	6450.3
721.989	6358.77
722.331	6426.79
722.674	6404.65
723.016	6345.21
723.359	6366.91
723.701	6365.33
724.044	6307.48
724.386	6314.93
724.729	6357.42
725.071	6312.45
725.413	6309.74
725.755	6393.57
726.097	6353.58
726.439	6295.05
726.782	6252.34
727.124	6329.4
727.465	6279.23
727.807	6340.92
728.149	6286.01
728.491	6273.13
728.833	6270.41
729.175	6246.23
729.516	6246.46
729.858	6261.15
730.199	6281.26
730.541	6244.65
730.882	6242.62
731.224	6285.33
731.565	6229.51
731.906	6192.22
732.248	6249.85
732.589	6197.2
732.93	6230.87
733.271	6222.51
733.612	6282.62
733.953	6234.03
734.294	6212.79
734.635	6249.4
734.976	6250.08
735.317	6288.49
735.658	6296.63
735.999	6297.76
736.339	6286.68
736.68	6333.24
737.021	6274.93
737.361	6259.79
737.702	6309.96
738.042	6297.53
738.383	6257.76
738.723	6353.58
739.063	6341.6
739.404	6390.86
739.744	6366.91
740.084	6382.28
740.424	6408.04
740.764	6349.28
741.104	6432.22
741.444	6410.52
741.784	6405.78
742.124	6434.7
742.464	6439.22
742.804	6448.71
743.143	6465.44
743.483	6464.53
743.823	6474.7
744.162	6528.94
744.502	6567.58
744.841	6572.55
745.181	6643.96
745.52	6618.88
745.86	6688.26
746.199	6711.31
746.538	6680.12
746.877	6777.75
747.216	6869.49
747.556	6874.69
747.895	6916.27
748.234	6976.38
748.573	7026.78
748.911	6995.59
749.25	7051.86
749.589	7117.62
749.928	7164.18
750.267	7249.37
750.605	7390.84
750.944	7375.92
751.283	7497.73
751.621	7537.95
751.96	7606.42
752.298	7687.55
752.636	7726.42
752.975	7833.54
753.313	7923.25
753.651	8095.45
753.989	8229.46
754.327	8229.23
754.666	8387.87
755.004	8398.04
755.342	8586.06
755.679	8714.42
756.017	8828.31
756.355	8969.33
756.693	9074.41
757.031	9241.64
757.368	9283.22
757.706	9430.56
758.044	9559.59
758.381	9742.19
758.719	9866.93
759.056	10012.91
759.394	10179.46
759.731	10261.27
760.068	10445.22
760.405	10543.07
760.743	10838.2
761.08	10895.15
761.417	10998.88
761.754	11178.76
762.091	11419.66
762.428	11585.08
762.765	11704.17
763.102	11859.19
763.438	12013.09
763.775	12127.44
764.112	12293.53
764.449	12676.8
764.785	12626.63
765.122	12822.56
765.458	12940.75
765.795	13144.58
766.131	13273.39
766.467	13403.33
766.804	13504.35
767.14	13651.24
767.476	13801.74
767.812	13958.57
768.148	14133.48
768.485	14182.3
768.821	14326.02
769.157	14447.15
769.492	14563.3
769.828	14723.53
770.164	14716.52
770.5	14810.08
770.836	15106.79
771.171	14995.38
771.507	15080.13
771.842	15241.25
772.178	15364.19
772.513	15431.08
772.849	15533.9
773.184	15598.98
773.519	15667.46
773.855	15777.28
774.19	15818.19
774.525	15828.58
774.86	15917.39
775.195	16081.68
775.53	16031.51
775.865	16150.38
776.2	16086.2
776.535	16144.96
776.87	16233.09
777.205	16282.13
777.539	16273.77
777.874	16418.4
778.209	16385.85
778.543	16350.15
778.878	16334.1
779.212	16418.62
779.547	16452.75
779.881	16567.32
780.215	16543.36
780.55	16588.56
780.884	16554.44
781.218	16584.49
781.552	16593.76
781.886	16747.2
782.22	16666.07
782.554	16626.75
782.888	16550.82
783.222	16606.19
783.556	16496.13
783.889	16507.43
784.223	16522.8
784.557	16560.09
784.89	16624.49
785.224	16577.49
785.557	16549.24
785.891	16573.42
786.224	16490.48
786.558	16442.58
786.891	16404.84
787.224	16444.61
787.557	16361.45
787.891	16420.88
788.224	16415.46
788.557	16412.52
788.89	16473.76
789.223	16471.5
789.556	16361.67
789.888	16297.72
790.221	16316.03
790.554	16195.8
790.887	16265.63
791.219	16230.38
791.552	16208.01
791.884	16167.78
792.217	16158.52
792.549	16013.89
792.882	16015.24
793.214	16014.34
793.546	16037.62
793.879	15913.55
794.211	15917.17
794.543	15970.72
794.875	15903.38
795.207	16055.69
795.539	15927.79
795.871	15937.05
796.203	15761.69
796.535	15679.43
796.867	15739.32
797.198	15666.1
797.53	15686.21
797.862	15566.89
798.193	15660.9
798.525	15546.33
798.856	15610.28
799.188	15424.3
799.519	15426.78
799.85	15233.57
800.182	15480.34
800.513	15386.11
800.844	15295.49
801.175	15347.24
801.506	15397.41
801.837	15302.04
802.168	15240.8
802.499	15152.21
802.83	15165.55
803.161	15062.27
803.491	15041.03
803.822	15107.92
804.153	14985.44
804.483	14970.52
804.814	14916.51
805.145	14998.09
805.475	14859.34
805.805	14812.34
806.136	14881.26
806.466	14785.22
806.796	14830.87
807.126	14611.21
807.457	14634.49
807.787	14624.09
808.117	14583.87
808.447	14529.41
808.777	14653.02
809.107	14521.72
809.436	14537.99
809.766	14462.52
810.096	14448.28
810.426	14389.07
810.755	14402.18
811.085	14376.19
811.414	14305.91
811.744	14256.19
812.073	14385.23
812.403	14250.77
812.732	14135.97
813.061	14161.96
813.39	14128.51
813.719	14051.9
814.049	14126.48
814.378	14082.86
814.707	14076.54
815.036	14006.48
815.365	13944.11
815.693	13888.97
816.022	13872.93
816.351	13809.88
816.68	13762.65
817.008	13874.06
817.337	13706.83
817.665	13746.6
817.994	13787.28
818.322	13659.37
818.651	13643.33
818.979	13641.97
819.307	13692.14
819.636	13590.45
819.964	13449.89
820.292	13610.79
820.62	13589.77
820.948	13547.51
821.276	13601.52
821.604	13550.22
821.932	13586.15
822.259	13695.53
822.587	13620.28
822.915	13469.32
823.243	13609.66
823.57	13508.64
823.898	13586.15
824.225	13572.14
824.553	13507.29
824.88	13643.1
825.207	13526.72
825.535	13613.95
825.862	13579.37
826.189	13488.53
826.516	13604.68
826.843	13640.16
827.17	13609.43
827.497	13646.49
827.824	13622.31
828.151	13589.09
828.478	13551.8
828.805	13648.98
829.131	13516.55
829.458	13562.88
829.785	13532.14
830.111	13603.33
830.438	13613.5
830.764	13541.18
831.09	13701.41
831.417	13499.15
831.743	13575.53
832.069	13549.32
832.395	13536.89
832.722	13562.43
833.048	13504.57
833.374	13481.3
833.7	13483.56
834.026	13488.53
834.351	13516.1
834.677	13503.9
835.003	13481.75
835.329	13474.29
835.654	13468.64
835.98	13414.18
836.306	13411.7
836.631	13371.47
836.956	13390.45
837.282	13424.12
837.607	13277.24
837.932	13307.07
838.258	13173.74
838.583	13316.1
838.908	13195.43
839.233	13280.63
839.558	13220.97
839.883	13139.84
840.208	13135.77
840.533	13045.38
840.858	13129.67
841.182	13095.77
841.507	13133.96
841.832	13026.39
842.156	12965.38
842.481	13026.62
842.805	13028.65
843.13	12947.07
843.454	12903.23
843.778	12836.57
844.103	12857.59
844.427	12828.66
844.751	12864.82
845.075	12766.74
845.399	12761.99
845.723	12655.33
846.047	12724.93
846.371	12564.71
846.695	12568.78
847.019	12522.45
847.343	12438.61
847.666	12357.26
847.99	12280.88
848.313	12372.17
848.637	12235.91
848.96	12156.14
849.284	12152.07
849.607	12080.2
849.931	12037.04
850.254	12076.59
850.577	11893.77
850.9	11866.2
851.223	11864.39
851.546	11755.47
851.869	11764.73
852.192	11823.71
852.515	11663.49
852.838	11608.8
853.161	11656.71
853.483	11524.74
853.806	11480.45
854.129	11437.74
854.451	11468.92
854.774	11442.26
855.096	11359.77
855.419	11328.36
855.741	11304.63
856.063	11310.28
856.385	11207.23
856.708	11240
857.03	11081.81
857.352	11134.92
857.674	11083.62
857.996	11026.45
858.318	11029.39
858.64	10970.4
858.961	10936.28
859.283	10922.04
859.605	10876.62
859.926	10904.87
860.248	10838.2
860.57	10881.82
860.891	10909.84
861.212	10778.54
861.534	10831.88
861.855	10692.22
862.176	10693.57
862.498	10723.18
862.819	10704.42
863.14	10575.61
863.461	10630.07
863.782	10604.76
864.103	10602.28
864.424	10553.24
864.745	10600.7
865.065	10519.57
865.386	10436.86
865.707	10506.46
866.027	10479.8
866.348	10447.71
866.668	10487.93
866.989	10442.73
867.309	10353.7
867.63	10417.42
867.95	10417.65
868.27	10358.44
868.59	10344.66
868.91	10255.17
869.23	10330.87
869.55	10209.52
869.87	10237.32
870.19	10197.54
870.51	10240.03
870.83	10200.93
871.15	10201.16
871.469	10266.24
871.789	10201.61
872.109	10179.01
872.428	10064.89
872.748	10176.53
873.067	10063.31
873.386	10148.28
873.706	10057.43
874.025	10061.5
874.344	9989.19
874.663	10061.5
874.982	10045.46
875.301	10023.31
875.62	10005.91
875.939	9950.09
876.258	9949.41
876.577	9943.09
876.896	9977.66
877.214	9842.3
877.533	9868.74
877.852	9826.25
878.17	9826.93
878.489	9880.26
878.807	9800.04
879.125	9836.42
879.444	9748.51
879.762	9768.4
880.08	9734.73
880.398	9680.27
880.716	9716.88
881.034	9670.1
881.352	9616.31
881.67	9647.5
881.988	9661.74
882.306	9615.64
882.624	9550.78
882.941	9568.41
883.259	9536.54
883.577	9545.81
883.894	9488.41
884.212	9529.54
884.529	9460.61
884.846	9419.26
885.164	9407.51
885.481	9344.91
885.798	9399.37
886.115	9333.38
886.432	9318.7
886.75	9246.61
887.067	9280.96
887.383	9256.55
887.7	9267.4
888.017	9264.23
888.334	9249.09
888.651	9204.35
888.967	9168.19
889.284	9220.62
889.6	9143.11
889.917	9040.28
890.233	9059.95
890.55	9059.95
890.866	9054.97
891.182	8952.6
891.498	8956.67
891.815	8941.53
892.131	8863.34
892.447	8843
892.763	8845.71
893.079	8780.18
893.395	8824.92
893.71	8776.11
894.026	8767.52
894.342	8705.83
894.657	8693.85
894.973	8716.9
895.289	8596
895.604	8556.68
895.92	8583.35
896.235	8516.23
896.55	8537.25
896.865	8471.49
897.181	8460.41
897.496	8462
897.811	8424.71
898.126	8380.87
898.441	8392.62
898.756	8297.03
899.071	8231.72
899.386	8268.33
899.7	8156.47
900.015	8220.65
900.33	8137.03
900.644	8066.53
900.959	8051.16
901.273	8085.73
901.588	8067.88
901.902	8013.19
902.216	7990.14
902.531	7878.73
902.845	7951.05
903.159	7845.29
903.473	7813.88
903.787	7826.31
904.101	7782.92
904.415	7791.96
904.729	7751.73
905.042	7657.5
905.356	7686.2
905.67	7645.07
905.984	7670.15
906.297	7608.68
906.611	7533.66
906.924	7538.4
907.237	7495.47
907.551	7446.88
907.864	7446.88
908.177	7470.61
908.491	7414.79
908.804	7359.65
909.117	7344.96
909.43	7241.01
909.743	7257.28
910.056	7226.1
910.368	7255.93
910.681	7171.63
910.994	7102.48
911.307	7082.82
911.619	7017.06
911.932	7054.8
912.244	6970.96
912.557	7055.03
912.869	6950.62
913.181	6925.99
913.494	6874.01
913.806	6871.3
914.118	6861.36
914.43	6787.01
914.742	6850.06
915.054	6839.44
915.366	6756.28
915.678	6711.08
915.99	6714.7
916.302	6634.92
916.613	6680.57
916.925	6642.38
917.236	6618.88
917.548	6542.27
917.859	6563.97
918.171	6548.37
918.482	6471.54
918.794	6450.07
919.105	6417.08
919.416	6368.49
919.727	6361.03
920.038	6350.64
920.349	6319.45
920.66	6242.17
920.971	6307.48
921.282	6294.59
921.593	6215.27
921.903	6186.12
922.214	6203.07
922.525	6148.61
922.835	6091.89
923.146	6149.51
923.456	6040.59
923.767	6047.14
924.077	6016.64
924.387	6004.66
924.697	5956.98
925.008	5958.56
925.318	5920.82
925.628	5899.8
925.938	5880.59
926.248	5815.28
926.558	5830.2
926.867	5815.74
927.177	5754.5
927.487	5801.73
927.796	5704.78
928.106	5689.64
928.416	5665.91
928.725	5708.4
929.034	5655.06
929.344	5660.94
929.653	5624.78
929.962	5529.42
930.271	5536.42
930.581	5557.66
930.89	5518.8
931.199	5500.49
931.508	5431.79
931.817	5435.86
932.125	5391.12
932.434	5387.95
932.743	5360.38
933.051	5310.67
933.36	5344.79
933.669	5322.42
933.977	5266.82
934.286	5288.75
934.594	5280.84
934.902	5223.44
935.21	5229.76
935.519	5192.02
935.827	5120.39
936.135	5186.6
936.443	5082.65
936.751	5079.49
937.059	5055.76
937.367	5032.71
937.674	5037.68
937.982	4998.36
938.29	5008.75
938.597	4991.58
938.905	4885.14
939.213	4900.51
939.52	4881.52
939.827	4902.31
940.135	4869.55
940.442	4835.88
940.749	4851.69
941.056	4838.59
941.363	4756.33
941.67	4793.84
941.977	4746.61
942.284	4719.95
942.591	4674.07
942.898	4682.89
943.205	4668.2
943.511	4622.32
943.818	4649.44
944.125	4584.81
944.431	4607.41
944.738	4563.34
945.044	4524.92
945.35	4543.45
945.657	4483.12
945.963	4520.63
946.269	4503.46
946.575	4458.03
946.881	4425.72
947.187	4430.91
947.493	4345.95
947.799	4427.98
948.105	4361.76
948.41	4337.81
948.716	4328.09
949.022	4300.07
949.327	4301.2
949.633	4256
949.938	4260.75
950.244	4243.57
950.549	4205.38
950.854	4160.41
951.16	4188.21
951.465	4173.07
951.77	4148.66
952.075	4135.1
952.38	4087.65
952.685	4093.52
952.99	4047.42
953.294	4053.3
953.599	4050.36
953.904	3995.9
954.209	3979.85
954.513	3975.79
954.818	3923.36
955.122	3986.18
955.426	3948.22
955.731	3910.02
956.035	3901.66
956.339	3904.6
956.643	3872.74
956.948	3823.25
957.252	3842.46
957.556	3822.57
957.86	3825.05
958.163	3789.8
958.467	3792.29
958.771	3773.08
959.075	3745.73
959.378	3717.26
959.682	3744.83
959.985	3728.11
960.289	3716.58
960.592	3644.49
960.896	3670.03
961.199	3620.54
961.502	3607.66
961.805	3628.22
962.108	3576.7
962.411	3542.12
962.714	3550.49
963.017	3546.19
963.32	3520.43
963.623	3523.14
963.926	3506.42
964.228	3494.89
964.531	3481.34
964.833	3449.02
965.136	3399.98
965.438	3418.51
965.741	3386.65
966.043	3379.64
966.345	3382.13
966.648	3360.21
966.95	3353.2
967.252	3320.44
967.554	3334.67
967.856	3294.9
968.158	3291.28
968.46	3268.23
968.761	3268.01
969.063	3199.31
969.365	3200.66
969.666	3218.97
969.968	3219.2
970.269	3190.04
970.571	3202.92
970.872	3174.68
971.174	3145.3
971.475	3131.51
971.776	3143.26
972.077	3118.86
972.378	3065.98
972.679	3079.99
972.98	3073.44
973.281	2993.89
973.582	3043.15
973.883	3024.62
974.183	3021.01
974.484	2999.54
974.785	2993.44
975.085	2992.31
975.386	2949.6
975.686	2923.38
975.986	2928.36
976.287	2936.49
976.587	2865.31
976.887	2907.11
977.187	2883.61
977.487	2898.53
977.787	2877.06
978.087	2822.82
978.387	2847.45
978.687	2847.91
978.987	2776.27
979.286	2789.38
979.586	2790.96
979.885	2790.05
980.185	2738.98
980.484	2732.43
980.784	2727.46
981.083	2730.39
981.382	2726.55
981.682	2726.78
981.981	2714.12
982.28	2647.91
982.579	2630.96
982.878	2641.13
983.177	2634.58
983.475	2644.29
983.774	2607.23
984.073	2640.45
984.372	2573.56
984.67	2576.27
984.969	2593.67
985.267	2572.66
985.566	2548.48
985.864	2511.64
986.162	2546.22
986.461	2503.96
986.759	2515.71
987.057	2507.12
987.355	2489.5
987.653	2493.34
987.951	2461.7
988.249	2482.72
988.547	2452.21
988.844	2437.75
989.142	2434.58
989.44	2382.83
989.737	2393.23
990.035	2377.41
990.332	2370.86
990.63	2373.12
990.927	2334.92
991.224	2342.16
991.521	2306
991.819	2318.43
992.116	2302.38
992.413	2306.9
992.71	2274.81
993.006	2277.98
993.303	2271.88
993.6	2235.94
993.897	2279.56
994.193	2211.09
994.49	2263.97
994.787	2186
995.083	2162.05
995.379	2193.23
995.676	2182.16
995.972	2186.23
996.268	2174.48
996.565	2137.42
996.861	2152.33
997.157	2108.94
997.453	2106.46
997.749	2107.59
998.044	2097.64
998.34	2101.71
998.636	2076.17
998.932	2088.38
999.227	2043.86
999.523	2045.89
999.818	2057.42
1000.114	2036.4
1000.409	2000.92
1000.704	2004.09
1001	1969.06
1001.295	1957.31
1001.59	1953.01
1001.885	1976.06
1002.18	1934.48
1002.475	1948.95
1002.77	1917.76
1003.065	1890.87
1003.359	1920.7
1003.654	1897.65
1003.949	1880.7
1004.243	1878.21
1004.538	1821.27
1004.832	1873.92
1005.127	1879.34
1005.421	1816.97
1005.715	1846.58
1006.009	1818.1
1006.304	1830.98
1006.598	1790.76
1006.892	1787.59
1007.186	1762.96
1007.48	1762.06
1007.773	1766.35
1008.067	1765.67
1008.361	1736.07
1008.655	1690.87
1008.948	1679.8
1009.242	1700.59
1009.535	1692.68
1009.829	1706.24
1010.122	1671.89
1010.415	1669.63
1010.708	1638.22
1011.001	1655.39
1011.295	1645.45
1011.588	1613.59
1011.881	1585.57
1012.173	1628.05
1012.466	1619.46
1012.759	1579.92
1013.052	1586.47
1013.344	1598.67
1013.637	1594.6
1013.93	1553.02
1014.222	1563.65
1014.514	1546.92
1014.807	1507.83
1015.099	1524.32
1015.391	1529.3
1015.683	1534.04
1015.976	1494.95
1016.268	1492.01
1016.56	1475.29
1016.851	1466.02
1017.143	1484.33
1017.435	1459.02
1017.727	1450.43
1018.018	1421.5
1018.31	1420.6
1018.602	1445.46
1018.893	1400.03
1019.185	1401.16
1019.476	1381.96
1019.767	1390.09
1020.058	1369.98
1020.35	1354.39
1020.641	1345.57
1020.932	1345.12
1021.223	1344.89
1021.514	1332.69
1021.804	1310.54
1022.095	1303.77
1022.386	1311.9
1022.677	1283.65
1022.967	1292.47
1023.258	1289.3
1023.548	1270.77
1023.839	1245.91
1024.129	1250.21
1024.419	1244.11
1024.709	1252.69
1025	1226.93
1025.29	1208.17
1025.58	1202.07
1025.87	1195.07
1026.16	1193.94
1026.449	1209.3
1026.739	1183.99
1027.029	1189.64
1027.319	1156.88
1027.608	1217.89
1027.898	1157.1
1028.187	1166.14
1028.477	1170.89
1028.766	1149.64
1029.055	1102.41
1029.344	1114.39
1029.634	1118.46
1029.923	1116.88
1030.212	1104.9
1030.501	1110.55
1030.79	1084.11
1031.078	1088.18
1031.367	1067.16
1031.656	1076.65
1031.945	1061.96
1032.233	1069.87
1032.522	1066.26
1032.81	1013.15
1033.099	1054.96
1033.387	1026.48
1033.675	1050.66
1033.963	1012.7
1034.251	983.32
1034.54	1011.57
1034.828	981.06
1035.116	994.85
1035.403	994.62
1035.691	994.62
1035.979	990.1
1036.267	967.5
1036.554	958.01
1036.842	952.36
1037.129	934.28
1037.417	932.7
1037.704	950.33
1037.992	941.51
1038.279	922.31
1038.566	914.62
1038.853	914.62
1039.14	914.62
