Data from hue_60_FLMS001491_12.txt Node
Date: Mon Feb 06 15:11:59 GMT 2017
User: dcchb
Spectrometer: FLMS00149
Trigger mode: 0
Integration Time (sec): 2.000000E-2
Scans to average: 10
Electric dark correction enabled: true
Nonlinearity correction enabled: false
Boxcar width: 0
XAxis mode: Wavelengths
Number of Pixels in Spectrum: 2048
>>>>>Begin Spectral Data<<<<<
341.393	-10.55
341.776	-10.55
342.16	-10.55
342.543	-45.13
342.927	-44.67
343.31	-58.01
343.693	-77.67
344.077	-74.96
344.46	-60.04
344.843	-41.96
345.226	-45.58
345.61	-32.02
345.993	-20.95
346.376	2.1
346.759	5.72
347.142	10.69
347.525	43.69
347.908	52.95
348.291	80.97
348.674	91.14
349.057	123.91
349.44	128.88
349.823	131.59
350.206	171.14
350.588	206.17
350.971	219.27
351.354	219.73
351.737	247.52
352.119	272.83
352.502	275.09
352.884	269.89
353.267	294.07
353.65	301.76
354.032	299.95
354.414	314.19
354.797	316.9
355.179	308.31
355.562	324.81
355.944	320.74
356.326	345.37
356.709	330.46
357.091	363.22
357.473	345.15
357.855	337.01
358.238	348.54
358.62	359.38
359.002	337.91
359.384	338.37
359.766	344.92
360.148	337.24
360.53	352.15
360.912	336.33
361.294	330.01
361.676	340.63
362.057	333.4
362.439	340.85
362.821	349.44
363.203	328.2
363.584	322.32
363.966	320.97
364.348	316.45
364.729	345.15
365.111	329.55
365.493	325.71
365.874	327.29
366.256	310.12
366.637	326.84
367.019	315.09
367.4	291.81
367.781	317.35
368.163	328.88
368.544	332.27
368.925	311.93
369.306	329.78
369.688	314.86
370.069	331.81
370.45	316.9
370.831	328.42
371.212	316.9
371.593	306.05
371.974	322.1
372.355	327.97
372.736	308.09
373.117	325.49
373.498	337.91
373.879	323.68
374.26	302.44
374.641	332.49
375.021	314.64
375.402	324.36
375.783	320.97
376.163	333.4
376.544	326.84
376.925	323.68
377.305	341.53
377.686	328.88
378.066	336.78
378.447	327.97
378.827	321.87
379.208	335.2
379.588	337.01
379.968	328.88
380.349	326.16
380.729	322.77
381.109	314.64
381.489	349.89
381.87	332.49
382.25	345.37
382.63	349.67
383.01	333.85
383.39	324.81
383.77	356.22
384.15	346.28
384.53	355.32
384.91	335.88
385.29	339.27
385.67	328.88
386.049	352.6
386.429	346.5
386.809	362.32
387.189	345.37
387.568	350.34
387.948	362.77
388.328	353.06
388.707	360.51
389.087	353.96
389.466	365.26
389.846	353.96
390.225	344.02
390.605	347.86
390.984	361.19
391.363	367.74
391.743	351.25
392.122	356.22
392.501	366.16
392.881	372.04
393.26	358.25
393.639	366.16
394.018	369.33
394.397	370.91
394.776	341.98
395.155	375.43
395.534	379.95
395.913	366.16
396.292	384.47
396.671	366.84
397.05	393.28
397.429	388.31
397.808	369.1
398.186	391.92
398.565	374.52
398.944	387.86
399.323	386.73
399.701	378.82
400.08	390.12
400.458	376.33
400.837	394.18
401.215	380.4
401.594	382.89
401.972	386.73
402.351	384.47
402.729	393.51
403.107	406.39
403.486	421.75
403.864	437.35
404.242	396.44
404.62	395.77
404.999	391.7
405.377	398.48
405.755	423.56
406.133	410.68
406.511	426.05
406.889	400.06
407.267	433.96
407.645	405.03
408.023	420.85
408.401	426.95
408.779	425.6
409.156	435.54
409.534	440.74
409.912	428.99
410.29	447.06
410.667	440.96
411.045	438.93
411.422	448.42
411.8	427.18
412.178	450
412.555	473.5
412.933	447.97
413.31	471.7
413.687	452.94
414.065	465.14
414.442	463.56
414.819	469.44
415.197	458.59
415.574	457.46
415.951	463.34
416.328	472.15
416.705	452.49
417.082	490.91
417.46	467.4
417.837	500.4
418.214	484.58
418.591	480.96
418.967	503.56
419.344	500.62
419.721	485.26
420.098	512.6
420.475	527.51
420.852	506.72
421.228	519.15
421.605	530.45
421.982	511.7
422.358	509.66
422.735	539.04
423.111	536.1
423.488	521.64
423.864	525.71
424.241	546.95
424.617	535.88
424.994	537.68
425.37	549.89
425.746	520.28
426.123	553.95
426.499	548.53
426.875	548.98
427.251	558.93
427.627	545.59
428.003	565.93
428.379	567.51
428.756	592.6
429.132	594.41
429.507	575.42
429.883	587.63
430.259	583.78
430.635	602.77
431.011	595.99
431.387	591.02
431.763	610.68
432.138	586.27
432.514	629.43
432.89	607.51
433.265	637.79
433.641	613.84
434.016	625.14
434.392	657.91
434.767	652.03
435.143	649.09
435.518	647.51
435.894	656.78
436.269	671.24
436.644	653.84
437.02	666.49
437.395	666.04
437.77	671.24
438.145	681.41
438.52	688.41
438.895	701.07
439.271	688.41
439.646	697.68
440.021	708.3
440.395	694.29
440.77	694.52
441.145	722.99
441.52	728.41
441.895	711.92
442.27	728.41
442.645	753.05
443.019	726.38
443.394	721.63
443.769	741.52
444.143	737.68
444.518	743.78
444.892	732.03
445.267	752.59
445.641	765.7
446.016	754.85
446.39	764.12
446.764	770.22
447.139	785.81
447.513	808.18
447.887	782.42
448.262	780.84
448.636	799.37
449.01	817.45
449.384	790.56
449.758	798.69
450.132	829.43
450.506	821.52
450.88	838.01
451.254	826.49
451.628	858.13
452.002	852.48
452.376	854.06
452.75	848.18
453.123	850.9
453.497	858.58
453.871	859.71
454.244	877.79
454.618	882.31
454.992	894.74
455.365	908.97
455.739	918.92
456.112	936.77
456.486	940.38
456.859	942.42
457.232	951.01
457.606	950.1
457.979	943.32
458.352	968.63
458.725	1002.53
459.099	976.54
459.472	1022.87
459.845	1018.57
460.218	1003.66
460.591	1024.45
460.964	1054.73
461.337	1077.1
461.71	1085.92
462.083	1078.01
462.456	1070.78
462.829	1087.05
463.201	1134.05
463.574	1122.08
463.947	1161.4
464.32	1192.58
464.692	1164.79
465.065	1195.29
465.438	1242.98
465.81	1217.21
466.183	1246.37
466.555	1256.31
466.928	1265.8
467.3	1248.4
467.672	1306.48
468.045	1335.18
468.417	1362.07
468.789	1346.48
469.161	1390.09
469.534	1386.25
469.906	1429.41
470.278	1448.17
470.65	1458.34
471.022	1491.1
471.394	1557.77
471.766	1566.58
472.138	1613.59
472.51	1618.11
472.882	1670.99
473.253	1700.14
473.625	1721.16
473.997	1783.3
474.369	1802.74
474.74	1835.05
475.112	1864.88
475.484	1918.66
475.855	1986.69
476.227	2009.96
476.598	2079.11
476.97	2084.54
477.341	2169.96
477.713	2243.63
478.084	2273.01
478.455	2374.25
478.827	2417.63
479.198	2522.04
479.569	2538.76
479.94	2654.92
480.311	2674.12
480.682	2809.49
481.053	2893.33
481.424	2959.09
481.795	3034.34
482.166	3120.44
482.537	3202.02
482.908	3329.93
483.279	3392.07
483.65	3505.97
484.021	3612.63
484.391	3723.59
484.762	3792.74
485.133	3889.69
485.503	3998.84
485.874	4160.19
486.244	4282.22
486.615	4361.76
486.985	4510.91
487.356	4658.25
487.726	4728.31
488.097	4867.51
488.467	5011.46
488.837	5151.8
489.207	5248.75
489.578	5451.23
489.948	5616.65
490.318	5714.72
490.688	5822.29
491.058	6031.32
491.428	6145.22
491.798	6314.93
492.168	6523.74
492.538	6582.95
492.908	6776.39
493.278	6966.44
493.648	6969.15
494.017	7222.25
494.387	7384.28
494.757	7558.97
495.126	7704.5
495.496	7772.75
495.866	7930.48
496.235	8149.69
496.605	8341.09
496.974	8410.92
497.344	8637.13
497.713	8725.49
498.082	8924.13
498.452	9070.34
498.821	9204.57
499.19	9315.98
499.559	9470.56
499.928	9623.55
500.298	9739.02
500.667	9936.08
501.036	10052.91
501.405	10235.28
501.774	10295.85
502.143	10548.95
502.512	10618.55
502.88	10742.16
503.249	10926.56
503.618	11027.13
503.987	11160.68
504.356	11389.38
504.724	11364.29
505.093	11498.75
505.462	11677.96
505.83	11844.73
506.199	12072.07
506.567	12105.06
506.936	12249.01
507.304	12511.15
507.672	12486.97
508.041	12672.05
508.409	12821.2
508.777	12993.4
509.145	13094.19
509.514	13180.52
509.882	13317.46
510.25	13432.03
510.618	13600.84
510.986	13733.49
511.354	13839.71
511.722	14041.06
512.09	14177.1
512.458	14238.11
512.826	14427.94
513.193	14465.9
513.561	14614.83
513.929	14787.25
514.297	14995.83
514.664	15053.01
515.032	15174.81
515.4	15368.25
515.767	15437.63
516.135	15651.41
516.502	15540.68
516.869	15911.52
517.237	15944.74
517.604	15982.7
517.972	16161.23
518.339	16350.83
518.706	16350.15
519.073	16395.57
519.44	16753.75
519.808	16898.84
520.175	16924.82
520.542	17123.24
520.909	17264.48
521.276	17351.7
521.643	17552.15
522.009	17742.2
522.376	17779.94
522.743	17925.02
523.11	18032.59
523.477	18399.81
523.843	18435.52
524.21	18625.57
524.577	18776.53
524.943	18861.5
525.31	18963.41
525.676	19156.4
526.043	19316.17
526.409	19425.55
526.776	19647.69
527.142	19593.23
527.508	19900.56
527.874	20039.54
528.241	20113.21
528.607	20271.18
528.973	20447.22
529.339	20424.39
529.705	20533.54
530.071	20777.6
530.437	20917.49
530.803	21050.59
531.169	21071.61
531.535	21201.32
531.901	21208.55
532.267	21342.11
532.632	21431.37
532.998	21687.18
533.364	21803.79
533.73	21744.58
534.095	21960.85
534.461	22002.66
534.826	22176.44
535.192	22288.52
535.557	22418.24
535.923	22360.39
536.288	22515.64
536.653	22576.88
537.019	22570.55
537.384	22769.19
537.749	22876.31
538.114	22978.68
538.479	22933.03
538.845	23125.11
539.21	22973.03
539.575	23201.95
539.94	23197.2
540.305	23495.95
540.67	23479.91
541.034	23527.81
541.399	23616.17
541.764	23695.49
542.129	23783.4
542.494	23757.86
542.858	23957.86
543.223	24038.99
543.587	24221.81
543.952	24236.5
544.316	24216.38
544.681	24294.8
545.045	24362.59
545.41	24516.71
545.774	24580.22
546.138	24575.92
546.503	24734.34
546.867	24692.3
547.231	25018.62
547.595	24965.52
547.959	25033.99
548.324	25030.15
548.688	25173.87
549.052	25258.16
549.416	25276.47
549.779	25318.5
550.143	25417.26
550.507	25615.67
550.871	25734.08
551.235	25609.34
551.599	25877.36
551.962	25935.21
552.326	25949.67
552.689	26164.81
553.053	26127.97
553.417	26081.64
553.78	26543.55
554.143	26472.37
554.507	26662.42
554.87	26549.66
555.234	26874.39
555.597	26658.8
555.96	26929.31
556.323	27033.94
556.686	26959.14
557.05	27250.2
557.413	27362.29
557.776	27312.12
558.139	27566.13
558.502	27579.91
558.865	27781.04
559.228	27943.52
559.59	28018.09
559.953	28068.26
560.316	28371.08
560.679	28322.72
561.041	28457.18
561.404	28692.42
561.767	28845.19
562.129	28740.78
562.492	29068.46
562.854	29075.46
563.217	29045.63
563.579	29303.93
563.941	29278.62
564.304	29558.84
564.666	29799.51
565.028	29812.85
565.39	29850.13
565.753	29992.73
566.115	30156.34
566.477	30314.75
566.839	30338.26
567.201	30612.37
567.563	30618.02
567.925	30798.36
568.287	30812.59
568.648	30868.19
569.01	31040.16
569.372	31242.86
569.734	31231.57
570.095	31494.38
570.457	31486.47
570.819	31568.05
571.18	31598.34
571.542	31870.65
571.903	31910.19
572.265	32029.06
572.626	32027.25
572.987	32132.79
573.349	32224.31
573.71	32461.14
574.071	32430.18
574.432	32483.06
574.794	32820.9
575.155	32729.38
575.516	32836.5
575.877	32682.38
576.238	32871.75
576.599	33049.6
576.96	33073.33
577.32	33047.11
577.681	33283.94
578.042	33367.1
578.403	33394.67
578.763	33415.69
579.124	33560.09
579.485	33612.97
579.845	33670.37
580.206	33631.95
580.566	33621.79
580.927	33617.27
581.287	33896.35
581.648	33696.13
582.008	33875.56
582.368	33821.1
582.728	33930.7
583.089	33930.25
583.449	33844.38
583.809	33922.79
584.169	33996.69
584.529	33991.04
584.889	34146.29
585.249	34083.02
585.609	33951.27
585.969	34110.59
586.329	34089.8
586.688	34289.79
587.048	34209.11
587.408	34003.92
587.768	34104.94
588.127	34039.63
588.487	34174.09
588.846	34297.02
589.206	34188.78
589.565	34137.93
589.925	34359.39
590.284	34123.02
590.643	34223.13
591.003	34315.78
591.362	34391.48
591.721	34277.59
592.08	34385.83
592.44	34320.98
592.799	34469.67
593.158	34410.24
593.517	34509.67
593.876	34562.55
594.235	34322.11
594.593	34429.67
594.952	34577.92
595.311	34401.2
595.67	34649.78
596.029	34708.08
596.387	34862.43
596.746	34967.06
597.104	34645.71
597.463	34723.9
597.822	34877.12
598.18	34763.45
598.538	34802.32
598.897	34932.49
599.255	34723.45
599.613	35161.18
599.972	35063.33
600.33	35055.19
600.688	34922.77
601.046	35188.07
601.404	35418.35
601.762	35185.13
602.12	35315.53
602.478	35475.52
602.836	35411.79
603.194	35285.24
603.552	35398.24
603.91	35222.87
604.268	35503.77
604.625	35453.83
604.983	35631
605.341	35445.47
605.698	35802.75
606.056	35664.22
606.413	35625.8
606.771	35754.61
607.128	35852.24
607.485	35832.57
607.843	35830.99
608.2	35946.47
608.557	36132.45
608.914	36038.22
609.272	36226.46
609.629	36357.53
609.986	36495.61
610.343	36270.3
610.7	36551.88
611.057	36473.91
611.414	36529.51
611.771	36571.09
612.127	36691.99
612.484	36755.94
612.841	36914.13
613.198	36732.44
613.554	36821.93
613.911	37071.19
614.267	36941.25
614.624	36936.05
614.98	37090.85
615.337	37256.04
615.693	37251.29
616.05	37140.34
616.406	37339.65
616.762	37353.66
617.118	37258.75
617.475	37425.75
617.831	37470.05
618.187	37520.67
618.543	37589.36
618.899	37811.73
619.255	37768.12
619.611	37705.75
619.967	37999.07
620.323	38041.33
620.678	37776.03
621.034	37774.9
621.39	37794.11
621.746	37767.21
622.101	38273.19
622.457	37952.52
622.812	38169.01
623.168	38072.29
623.523	38124.27
623.879	38235
624.234	38044.95
624.589	38133.76
624.945	38383.02
625.3	38327.65
625.655	38210.14
626.01	38281.1
626.365	38312.51
626.72	38223.47
627.075	38467.76
627.43	38282.91
627.785	38319.52
628.14	38499.85
628.495	38453.75
628.85	38379.85
629.205	38378.5
629.559	38596.12
629.914	38349.34
630.269	38419.4
630.623	38328.33
630.978	38213.76
631.332	38456.69
631.687	38418.72
632.041	38358.84
632.396	38377.14
632.75	38362.9
633.104	38290.59
633.459	38235.22
633.813	38183.02
634.167	38220.53
634.521	38077.71
634.875	38339.18
635.229	38275.22
635.583	37990.03
635.937	37984.38
636.291	38124.49
636.645	38062.35
636.999	38082.69
637.352	38086.53
637.706	37890.6
638.06	37939.41
638.413	37940.32
638.767	37816.25
639.121	37987.77
639.474	37681.57
639.828	37882.24
640.181	37901.67
640.534	37910.94
640.888	37681.57
641.241	37596.6
641.594	37696.93
641.947	37688.8
642.301	37683.6
642.654	37721.56
643.007	37715.01
643.36	37702.81
643.713	37552.76
644.066	37678.18
644.419	37369.26
644.771	37157.51
645.124	36880.23
645.477	36766.79
645.83	36613.57
646.182	36457.42
646.535	36342.62
646.888	36398.44
647.24	36254.94
647.593	36567.92
647.945	36394.59
648.298	36254.94
648.65	36196.86
649.002	36167.93
649.355	36255.84
649.707	36336.06
650.059	36440.24
650.411	36641.82
650.763	36771.31
651.115	37164.29
651.467	37106.44
651.819	36900.8
652.171	36883.85
652.523	36911.19
652.875	36906.67
653.227	36760.46
653.578	37089.26
653.93	36808.14
654.282	36740.35
654.633	36609.05
654.985	36815.6
655.337	36697.86
655.688	36727.24
656.039	36767.69
656.391	36570.63
656.742	36582.16
657.094	36626.68
657.445	36759.56
657.796	36632.78
658.147	36637.98
658.498	36617.19
658.849	36577.87
659.2	36499.68
659.551	36505.33
659.902	36747.58
660.253	36591.88
660.604	36696.28
660.955	36472.11
661.306	36618.99
661.656	36426.46
662.007	36375.61
662.358	36516.62
662.708	36442.5
663.059	36313.01
663.409	36222.4
663.76	36520.47
664.11	36414.03
664.461	36456.29
664.811	36410.19
665.161	36371.32
665.511	36317.08
665.862	36350.98
666.212	36520.01
666.562	36469.17
666.912	36382.62
667.262	36254.94
667.612	36293.35
667.962	36422.84
668.312	36228.72
668.662	36361.15
669.011	36386.68
669.361	36306.69
669.711	36213.36
670.06	36230.53
670.41	36146.46
670.76	36080.93
671.109	36296.29
671.459	36204.32
671.808	36161.83
672.157	36236.41
672.507	36038.22
672.856	36129.29
673.205	36092.45
673.554	36289.96
673.904	36051.33
674.253	36168.16
674.602	36193.7
674.951	35496.54
675.3	35349.42
675.649	35991.67
675.998	35912.57
676.346	36004.32
676.695	36045.9
677.044	35732.92
677.393	35908.96
677.741	35915.51
678.09	35830.54
678.438	35639.59
678.787	35893.36
679.135	35724.56
679.484	35592.58
679.832	35631.22
680.181	35553.03
680.529	35530.21
680.877	35519.14
681.225	35514.39
681.573	35593.71
681.922	35382.19
682.27	35352.14
682.618	35425.13
682.966	35284.57
683.314	35297.45
683.661	35191.01
684.009	35028.98
684.357	34992.82
684.705	34960.51
685.053	34954.86
685.4	34971.35
685.748	34880.28
686.095	34797.57
686.443	34567.07
686.79	34493.63
687.138	34664.7
687.485	34598.26
687.832	34398.71
688.18	34499.28
688.527	34310.81
688.874	34193.07
689.221	34292.95
689.568	34258.38
689.915	34214.54
690.262	34114.2
690.609	34083.92
690.956	33886.41
691.303	33689.81
691.65	33689.13
691.997	33743.59
692.344	33382.02
692.69	33503.14
693.037	33506.53
693.383	33264.28
693.73	33429.47
694.077	33149.03
694.423	33143.61
694.769	33165.98
695.116	32912.88
695.462	32843.27
695.808	32823.39
696.155	32770.96
696.501	32640.34
696.847	32695.71
697.193	32420.24
697.539	32501.36
697.885	32366.23
698.231	32214.14
698.577	32317.19
698.923	32187.02
699.269	31975.73
699.614	31905.45
699.96	31764.89
700.306	31841.95
700.651	31717.65
700.997	31543.65
701.342	31636.98
701.688	31478.34
702.033	31482.86
702.379	31442.63
702.724	31239.48
703.069	31431.11
703.415	31046.71
703.76	31062.98
704.105	31060.72
704.45	30980.5
704.795	30853.72
705.14	30522.66
705.485	30707.74
705.83	30653.05
706.175	30611.7
706.52	30654.18
706.865	30408.31
707.209	30367.41
707.554	30303.68
707.899	30358.82
708.243	30155.66
708.588	30087.87
708.932	29953.63
709.277	29919.28
709.621	29964.03
709.966	29707.54
710.31	29713.64
710.654	29417.15
710.998	29600.42
711.342	29663.47
711.687	29456.02
712.031	29272.52
712.375	29155.69
712.719	29212.41
713.063	29217.83
713.407	29354.55
713.75	29159.3
714.094	29146.42
714.438	28934.9
714.782	29049.25
715.125	28887.9
715.469	28943.94
715.812	28877.5
716.156	28616.72
716.499	28674.12
716.843	28758.86
717.186	28512.54
717.53	28788.47
717.873	28572.65
718.216	28551.41
718.559	28482.71
718.902	28267.58
719.246	28457.85
719.589	28227.13
719.932	28073.91
720.275	28153.68
720.617	28116.62
720.96	27984.19
721.303	27975.83
721.646	28014.02
721.989	27762.5
722.331	27820.81
722.674	27860.36
723.016	27862.61
723.359	27627.59
723.701	27761.83
724.044	27482.51
724.386	27492.23
724.729	27566.8
725.071	27525.9
725.413	27416.07
725.755	27429.63
726.097	27251.78
726.439	27091.56
726.782	27125.91
727.124	27213.82
727.465	27189.86
727.807	27148.51
728.149	26917.33
728.491	26928.63
728.833	27105.8
729.175	26807.28
729.516	26881.17
729.858	26796.88
730.199	26823.55
730.541	26741.97
730.882	26659.26
731.224	26769.31
731.565	26588.07
731.906	26676.88
732.248	26677.79
732.589	26558.69
732.93	26515.53
733.271	26454.97
733.612	26477.57
733.953	26617
734.294	26358.93
734.635	26315.54
734.976	26306.27
735.317	26235.99
735.658	26147.41
735.999	26231.47
736.339	26073.96
736.68	26096.11
737.021	26161.42
737.361	26010.69
737.702	26129.78
738.042	25925.49
738.383	25984.02
738.723	25981.08
739.063	25809.56
739.404	25856.34
739.744	25708.77
740.084	25686.4
740.424	25717.59
740.764	25686.85
741.104	25606.18
741.444	25519.85
741.784	25531.6
742.124	25435.33
742.464	25467.88
742.804	25438.72
743.143	25341.1
743.483	25437.14
743.823	25284.83
744.162	25257.71
744.502	25338.84
744.841	25171.61
745.181	25223.36
745.52	25145.4
745.86	25118.73
746.199	24903.6
746.538	25089.58
746.877	25084.61
747.216	25010.94
747.556	24986.98
747.895	24883.71
748.234	24893.88
748.573	24799.42
748.911	24774.11
749.25	24728.46
749.589	24556.49
749.928	24650.5
750.267	24714.45
750.605	24655.24
750.944	24519.43
751.283	24398.07
751.621	24478.97
751.96	24363.72
752.298	24284.18
752.636	24245.53
752.975	24164.18
753.313	24132.54
753.651	24180.23
753.989	24072.21
754.327	24069.95
754.666	23907.69
755.004	23789.05
755.342	23848.03
755.679	23824.75
756.017	23685.1
756.355	23786.11
756.693	23651.65
757.031	23804.64
757.368	23564.2
757.706	23587.47
758.044	23427.7
758.381	23415.27
758.719	23397.2
759.056	23348.84
759.394	23315.62
759.731	23143.64
760.068	23037.66
760.405	23038.56
760.743	22937.32
761.08	23005.57
761.417	22939.58
761.754	22786.82
762.091	22699.81
762.428	22653.94
762.765	22509.08
763.102	22607.39
763.438	22468.86
763.775	22279.03
764.112	22291.24
764.449	22388.18
764.785	22228.86
765.122	22175.53
765.458	22031.36
765.795	22034.75
766.131	21926.5
766.467	21859.83
766.804	21712.95
767.14	21643.57
767.476	21701.19
767.812	21558.6
768.148	21585.49
768.485	21490.8
768.821	21328.1
769.157	21292.84
769.492	21194.99
769.828	21176.69
770.164	20977.15
770.5	20958.62
770.836	20950.03
771.171	20836.36
771.507	20795
771.842	20724.95
772.178	20649.7
772.513	20544.84
772.849	20509.36
773.184	20476.37
773.519	20451.28
773.855	20318.63
774.19	20312.53
774.525	20200.44
774.86	20150.28
775.195	20163.61
775.53	19973.33
775.865	19883.84
776.2	19791.41
776.535	19745.54
776.87	19654.24
777.205	19663.96
777.539	19496.96
777.874	19537.41
778.209	19382.61
778.543	19297.64
778.878	19238.66
779.212	19220.13
779.547	19062.39
779.881	19143.07
780.215	19018.1
780.55	18954.6
780.884	18827.37
781.218	18760.48
781.552	18808.62
781.886	18688.62
782.22	18610.65
782.554	18549.64
782.888	18374.73
783.222	18233.26
783.556	18228.29
783.889	18162.98
784.223	17936.55
784.557	18125.92
784.89	18081.18
785.224	17975.64
785.557	17903.33
785.891	17770.22
786.224	17773.39
786.558	17786.72
786.891	17609.1
787.224	17544.47
787.557	17529.33
787.891	17519.16
788.224	17444.13
788.557	17408.65
788.89	17367.98
789.223	17326.39
789.556	17177.92
789.888	17180.86
790.221	17077.14
790.554	16942.22
790.887	16930.47
791.219	16869.68
791.552	16876.91
791.884	16757.14
792.217	16665.62
792.549	16638.73
792.882	16491.39
793.214	16480.77
793.546	16387.89
793.879	16444.61
794.211	16315.57
794.543	16322.81
794.875	16270.38
795.207	16280.09
795.539	16090.72
795.871	16168.91
796.203	15957.62
796.535	15907
796.867	15922.82
797.198	15811.41
797.53	15925.98
797.862	15760.11
798.193	15758.53
798.525	15688.92
798.856	15639.89
799.188	15470.4
799.519	15460
799.85	15410.06
800.182	15358.08
800.513	15396.5
800.844	15285.32
801.175	15358.31
801.506	15311.31
801.837	15226.11
802.168	15108.83
802.499	15112.89
802.83	14995.38
803.161	15007.13
803.491	15044.19
803.822	15008.49
804.153	14849.85
804.483	14711.55
804.814	14763.75
805.145	14692.79
805.475	14818.89
805.805	14690.76
806.136	14680.14
806.466	14697.09
806.796	14490.99
807.126	14507.26
807.457	14397.88
807.787	14477.43
808.117	14342.52
808.447	14283.54
808.777	14335.51
809.107	14229.08
809.436	14159.47
809.766	14211.45
810.096	14112.69
810.426	14061.4
810.755	14038.35
811.085	14095.75
811.414	14068.63
811.744	13883.77
812.073	13866.82
812.403	13820.72
812.732	13788.63
813.061	13799.03
813.39	13684.46
813.719	13716.32
814.049	13759.48
814.378	13686.49
814.707	13615.31
815.036	13598.58
815.365	13556.32
815.693	13426.38
816.022	13413.73
816.351	13313.39
816.68	13379.15
817.008	13319.95
817.337	13239.04
817.665	13204.02
817.994	13220.29
818.322	13256.22
818.651	13163.79
818.979	13095.55
819.307	13183.45
819.636	13036.56
819.964	12986.4
820.292	13096.45
820.62	13056
820.948	13014.64
821.276	13082.66
821.604	13026.17
821.932	13066.85
822.259	13021.42
822.587	12922.44
822.915	12965.38
823.243	12956.34
823.57	13014.42
823.898	12991.82
824.225	12901.88
824.553	12925.38
824.88	12900.07
825.207	12896.91
825.535	12904.82
825.862	12883.57
826.189	12901.2
826.516	12925.15
826.843	13002.21
827.17	12942.56
827.497	12972.38
827.824	12903.01
828.151	12952.5
828.478	13013.06
828.805	12931.03
829.131	12867.53
829.458	12831.37
829.785	12909.56
830.111	12888.77
830.438	12933.74
830.764	12829.56
831.09	12872.5
831.417	12797.47
831.743	12857.81
832.069	12831.6
832.395	12754.76
832.722	12849.9
833.048	12795.21
833.374	12773.97
833.7	12824.82
834.026	12796.12
834.351	12717.93
834.677	12684.93
835.003	12767.19
835.329	12718.15
835.654	12580.3
835.98	12568.55
836.306	12619.17
836.631	12571.27
836.956	12609
837.282	12621.43
837.607	12486.52
837.932	12550.48
838.258	12572.17
838.583	12547.09
838.908	12444.04
839.233	12452.17
839.558	12434.55
839.883	12371.72
840.208	12358.62
840.533	12352.74
840.858	12376.24
841.182	12425.73
841.507	12343.47
841.832	12278.62
842.156	12260.77
842.481	12319.29
842.805	12269.58
843.13	12201.78
843.454	12246.75
843.778	12064.16
844.103	12103.26
844.427	12017.61
844.751	12069.81
845.075	12035.01
845.399	11894.67
845.723	11909.59
846.047	12007.44
846.371	11863.71
846.695	11861.68
847.019	11761.34
847.343	11679.99
847.666	11610.84
847.99	11656.94
848.313	11599.31
848.637	11471.41
848.96	11515.02
849.284	11456.72
849.607	11401.35
849.931	11305.31
850.254	11289.72
850.577	11172.66
850.9	11169.49
851.223	11185.09
851.546	11112.32
851.869	11026.67
852.192	11092.43
852.515	10943.74
852.838	10955.26
853.161	10985.32
853.483	10902.83
853.806	10795.94
854.129	10731.99
854.451	10739.68
854.774	10688.83
855.096	10667.59
855.419	10576.06
855.741	10576.97
856.063	10515.73
856.385	10501.04
856.708	10471.43
857.03	10472.34
857.352	10479.34
857.674	10374.26
857.996	10423.75
858.318	10324.32
858.64	10281.83
858.961	10227.37
859.283	10242.29
859.605	10199.35
859.926	10236.86
860.248	10206.13
860.57	10120.48
860.891	10101.5
861.212	10120.93
861.534	10040.71
861.855	10000.94
862.176	10044.1
862.498	10034.38
862.819	9997.1
863.14	9998.68
863.461	9953.48
863.782	9962.29
864.103	9934.95
864.424	9883.88
864.745	9885.69
865.065	9889.98
865.386	9791.68
865.707	9733.15
866.027	9827.61
866.348	9772.02
866.668	9753.49
866.989	9780.38
867.309	9696.76
867.63	9694.73
867.95	9710.1
868.27	9672.58
868.59	9612.47
868.91	9619.7
869.23	9634.85
869.55	9633.94
869.87	9659.48
870.19	9602.53
870.51	9589.2
870.83	9540.38
871.15	9529.99
871.469	9530.44
871.789	9556.88
872.109	9546.03
872.428	9447.28
872.748	9522.53
873.067	9472.14
873.386	9507.17
873.706	9464.91
874.025	9370.67
874.344	9391.91
874.663	9361.41
874.982	9400.5
875.301	9361.63
875.62	9327.96
875.939	9299.94
876.258	9250
876.577	9236.44
876.896	9207.74
877.214	9148.76
877.533	9175.65
877.852	9188.53
878.17	9219.72
878.489	9168.87
878.807	9151.47
879.125	9211.58
879.444	9157.12
879.762	9143.56
880.08	9127.06
880.398	9035.31
880.716	9028.53
881.034	8982.43
881.352	9054.52
881.67	9005.26
881.988	8989.44
882.306	8954.64
882.624	8962.32
882.941	8961.19
883.259	8876.45
883.577	8906.5
883.894	8855.21
884.212	8913.06
884.529	8840.97
884.846	8839.16
885.164	8781.53
885.481	8783.79
885.798	8796
886.115	8697.02
886.432	8708.32
886.75	8680.07
887.067	8722.33
887.383	8644.36
887.7	8623.12
888.017	8580.41
888.334	8539.96
888.651	8571.6
888.967	8552.16
889.284	8450.7
889.6	8479.17
889.917	8402.56
890.233	8460.64
890.55	8381.32
890.866	8368.21
891.182	8369.34
891.498	8343.58
891.815	8277.37
892.131	8294.77
892.447	8215
892.763	8239.85
893.079	8227.42
893.395	8230.14
893.71	8192.85
894.026	8186.3
894.342	8158.5
894.657	8047.99
894.973	8091.84
895.289	8011.84
895.604	8044.38
895.92	7958.28
896.235	7943.82
896.55	7935.68
896.865	7888.9
897.181	7894.33
897.496	7883.71
897.811	7869.92
898.126	7765.06
898.441	7824.05
898.756	7800.77
899.071	7707.21
899.386	7741.34
899.7	7653.88
900.015	7718.06
900.33	7596.26
900.644	7542.7
900.959	7585.63
901.273	7576.37
901.588	7501.34
901.902	7474.45
902.216	7470.16
902.531	7437.39
902.845	7403.27
903.159	7337.28
903.473	7355.36
903.787	7301.57
904.101	7259.09
904.415	7229.03
904.729	7248.02
905.042	7197.85
905.356	7168.47
905.67	7214.57
905.984	7140
906.297	7144.06
906.611	7028.36
906.924	7016.61
907.237	7037.85
907.551	7000.79
907.864	6979.1
908.177	6945.2
908.491	6935.93
908.804	6904.97
909.117	6853.45
909.43	6890.28
909.743	6844.18
910.056	6816.39
910.368	6758.31
910.681	6770.29
910.994	6713.34
911.307	6707.24
911.619	6629.05
911.932	6632.66
912.244	6600.35
912.557	6602.61
912.869	6533.46
913.181	6513.57
913.494	6442.61
913.806	6496.85
914.118	6426.79
914.43	6380.69
914.742	6424.99
915.054	6312
915.366	6270.19
915.678	6312.9
915.99	6318.32
916.302	6264.99
916.613	6184.77
916.925	6187.7
917.236	6178.67
917.548	6146.8
917.859	6137.99
918.171	6097.31
918.482	6050.53
918.794	6027.48
919.105	6042.85
919.416	6003.98
919.727	6002.62
920.038	5916.07
920.349	5950.42
920.66	5921.95
920.971	5870.42
921.282	5867.26
921.593	5863.19
921.903	5775.51
922.214	5735.06
922.525	5738.9
922.835	5735.29
923.146	5716.98
923.456	5675.85
923.767	5657.55
924.077	5650.77
924.387	5613.71
924.697	5571.22
925.008	5584.33
925.318	5558.57
925.628	5568.29
925.938	5471.11
926.248	5460.49
926.558	5452.36
926.867	5434.5
927.177	5413.26
927.487	5373.94
927.796	5360.61
928.106	5380.95
928.416	5335.3
928.725	5296.43
929.034	5272.25
929.344	5291.91
929.653	5260.27
929.962	5214.62
930.271	5150.22
930.581	5121.52
930.89	5135.3
931.199	5131.24
931.508	5116.09
931.817	5091.24
932.125	5077.68
932.434	5062.08
932.743	5029.54
933.051	4993.16
933.36	4963.1
933.669	4900.96
933.977	4898.47
934.286	4874.07
934.594	4909.77
934.902	4872.71
935.21	4823.9
935.519	4820.96
935.827	4819.38
936.135	4792.04
936.443	4811.47
936.751	4699.16
937.059	4728.99
937.367	4698.03
937.674	4668.42
937.982	4660.06
938.29	4667.29
938.597	4630.46
938.905	4588.88
939.213	4548.65
939.52	4541.87
939.827	4571.93
940.135	4522.21
940.442	4494.87
940.749	4481.31
941.056	4514.98
941.363	4473.17
941.67	4481.99
941.977	4445.83
942.284	4393.18
942.591	4423.68
942.898	4383.68
943.205	4337.36
943.511	4345.49
943.818	4347.53
944.125	4260.07
944.431	4271.82
944.738	4303.23
945.044	4207.64
945.35	4227.08
945.657	4201.54
945.963	4211.03
946.269	4208.1
946.575	4150.47
946.881	4112.05
947.187	4092.39
947.493	4070.47
947.799	4027.76
948.105	4025.5
948.41	4026.18
948.716	4037.7
949.022	3973.98
949.327	3986.63
949.633	3963.81
949.938	3976.92
950.244	3931.04
950.549	3904.83
950.854	3903.47
951.16	3873.19
951.465	3882.23
951.77	3858.27
952.075	3830.7
952.38	3816.69
952.685	3810.14
952.99	3755.23
953.294	3772.4
953.599	3736.24
953.904	3722.68
954.209	3714.1
954.513	3698.96
954.818	3653.99
955.122	3678.39
955.426	3688.79
955.731	3626.42
956.035	3633.87
956.339	3583.25
956.643	3598.17
956.948	3556.81
957.252	3564.72
957.556	3547.1
957.86	3537.83
958.163	3540.99
958.467	3464.61
958.771	3464.16
959.075	3494.44
959.378	3449.92
959.682	3439.3
959.985	3440.66
960.289	3406.53
960.592	3380.09
960.896	3382.81
961.199	3371.73
961.502	3336.71
961.805	3357.95
962.108	3310.27
962.411	3295.58
962.714	3303.94
963.017	3291.28
963.32	3280.89
963.623	3240.21
963.926	3267.56
964.228	3219.2
964.531	3217.39
964.833	3192.76
965.136	3192.76
965.438	3192.53
965.741	3121.12
966.043	3139.88
966.345	3097.16
966.648	3112.98
966.95	3071.85
967.252	3091.29
967.554	3065.98
967.856	3045.19
968.158	3032.99
968.46	3023.49
968.761	3047
969.063	3036.6
969.365	3015.13
969.666	3007.68
969.968	2942.37
970.269	2958.41
970.571	2942.37
970.872	2923.84
971.174	2925.64
971.475	2926.1
971.776	2893.1
972.077	2896.94
972.378	2886.32
972.679	2859.43
972.98	2831.41
973.281	2795.7
973.582	2794.12
973.883	2834.12
974.183	2810.62
974.484	2790.73
974.785	2755.48
975.085	2769.94
975.386	2738.76
975.686	2718.87
975.986	2711.41
976.287	2703.5
976.587	2676.16
976.887	2678.87
977.187	2644.52
977.487	2678.64
977.787	2679.32
978.087	2680.9
978.387	2607.23
978.687	2617.85
978.987	2625.76
979.286	2583.96
979.586	2612.66
979.885	2582.15
980.185	2591.64
980.484	2533.56
980.784	2525.43
981.083	2525.2
981.382	2506.9
981.682	2519.55
981.981	2480.68
982.28	2510.51
982.579	2455.15
982.878	2483.4
983.177	2460.57
983.475	2455.83
983.774	2430.74
984.073	2386
984.372	2400.69
984.67	2422.15
984.969	2388.48
985.267	2383.06
985.566	2385.32
985.864	2370.63
986.162	2348.03
986.461	2335.38
986.759	2344.19
987.057	2326.56
987.355	2322.72
987.653	2284.98
987.951	2264.64
988.249	2296.28
988.547	2251.76
988.844	2235.27
989.142	2258.09
989.44	2219
989.737	2230.52
990.035	2227.36
990.332	2209.28
990.63	2210.41
990.927	2200.01
991.224	2155.27
991.521	2150.52
991.819	2137.64
992.116	2152.78
992.413	2131.54
992.71	2145.55
993.006	2121.6
993.303	2123.86
993.6	2120.69
993.897	2094.7
994.193	2094.7
994.49	2044.08
994.787	2068.26
995.083	2043.41
995.379	2055.38
995.676	2028.94
995.972	1998.21
996.268	2019
996.565	2015.16
996.861	1965.22
997.157	1990.98
997.453	1951.66
997.749	1960.25
998.044	1943.52
998.34	1949.17
998.636	1943.07
998.932	1932
999.227	1929.06
999.523	1881.38
999.818	1891.77
1000.114	1882.28
1000.409	1882.51
1000.704	1848.16
1001	1845.45
1001.295	1838.21
1001.59	1857.2
1001.885	1839.34
1002.18	1832.11
1002.475	1819.91
1002.77	1767.71
1003.065	1758.22
1003.359	1815.84
1003.654	1766.13
1003.949	1763.64
1004.243	1748.95
1004.538	1729.52
1004.832	1726.13
1005.127	1716.86
1005.421	1699.01
1005.715	1728.84
1006.009	1679.57
1006.304	1637.77
1006.598	1692.23
1006.892	1661.04
1007.186	1668.28
1007.48	1661.04
1007.773	1641.38
1008.067	1634.15
1008.361	1633.47
1008.655	1632.57
1008.948	1595.96
1009.242	1615.85
1009.535	1584.66
1009.829	1574.94
1010.122	1565.68
1010.415	1581.27
1010.708	1556.41
1011.001	1533.82
1011.295	1570.88
1011.588	1541.5
1011.881	1529.97
1012.173	1500.82
1012.466	1505.57
1012.759	1502.4
1013.052	1493.59
1013.344	1492.23
1013.637	1473.93
1013.93	1459.24
1014.222	1460.82
1014.514	1434.61
1014.807	1454.72
1015.099	1443.2
1015.391	1414.72
1015.683	1404.1
1015.976	1394.61
1016.268	1401.62
1016.56	1376.53
1016.851	1363.65
1017.143	1386.93
1017.435	1380.37
1017.727	1354.84
1018.018	1332.69
1018.31	1354.61
1018.602	1347.61
1018.893	1335.18
1019.185	1320.49
1019.476	1306.93
1019.767	1325.69
1020.058	1296.53
1020.35	1274.84
1020.641	1274.16
1020.932	1263.54
1021.223	1268.06
1021.514	1267.16
1021.804	1243.2
1022.095	1249.08
1022.386	1229.87
1022.677	1239.59
1022.967	1245.01
1023.258	1222.64
1023.548	1201.85
1023.839	1181.96
1024.129	1178.34
1024.419	1187.61
1024.709	1167.72
1025	1151
1025.29	1166.59
1025.58	1142.19
1025.87	1144.67
1026.16	1137.89
1026.449	1133.83
1026.739	1145.13
1027.029	1108.52
1027.319	1109.87
1027.608	1096.76
1027.898	1086.14
1028.187	1099.93
1028.477	1094.96
1028.766	1081.62
1029.055	1045.69
1029.344	1058.8
1029.634	1073.71
1029.923	1056.77
1030.212	1032.36
1030.501	1040.27
1030.79	1026.94
1031.078	1038.69
1031.367	1016.54
1031.656	1009.31
1031.945	1004.79
1032.233	1005.02
1032.522	982.19
1032.81	975.86
1033.099	962.53
1033.387	972.47
1033.675	961.18
1033.963	961.18
1034.251	930.22
1034.54	953.49
1034.828	955.75
1035.116	929.99
1035.403	940.84
1035.691	909.2
1035.979	941.51
1036.267	920.27
1036.554	885.92
1036.842	916.43
1037.129	896.54
1037.417	882.53
1037.704	914.4
1037.992	894.28
1038.279	900.61
1038.566	864.23
1038.853	864.23
1039.14	864.23
