Data from hue_130_FLMS001491_00017.txt Node
Date: Tue Feb 07 16:57:15 GMT 2017
User: dcchb
Spectrometer: FLMS00149
Trigger mode: 0
Integration Time (sec): 2.000000E-2
Scans to average: 10
Electric dark correction enabled: true
Nonlinearity correction enabled: false
Boxcar width: 0
XAxis mode: Wavelengths
Number of Pixels in Spectrum: 2048
>>>>>Begin Spectral Data<<<<<
341.393	-37.88
341.776	-37.88
342.16	-37.88
342.543	-60.25
342.927	-62.51
343.31	-65.9
343.693	-69.29
344.077	-68.84
344.46	-40.37
344.843	-43.76
345.226	-45.11
345.61	-31.55
345.993	-22.29
346.376	-8.73
346.759	2.57
347.142	22.46
347.525	40.31
347.908	64.72
348.291	82.57
348.674	89.12
349.057	94.09
349.44	110.14
349.823	131.61
350.206	126.86
350.588	193.75
350.971	197.59
351.354	224.03
351.737	222.45
352.119	249.34
352.502	241.21
352.884	273.98
353.267	278.04
353.65	297.48
354.032	274.43
354.414	296.57
354.797	326.4
355.179	304.26
355.562	313.07
355.944	320.08
356.326	324.14
356.709	341.54
357.091	351.04
357.473	327.08
357.855	325.73
358.238	334.77
358.62	348.55
359.002	315.33
359.384	318.04
359.766	334.31
360.148	340.41
360.53	329.12
360.912	340.64
361.294	311.71
361.676	325.95
362.057	317.82
362.439	337.93
362.821	332.51
363.203	313.07
363.584	329.79
363.966	317.36
364.348	321.66
364.729	323.47
365.111	328.89
365.493	335.44
365.874	323.69
366.256	301.77
366.637	306.74
367.019	303.35
367.4	308.1
367.781	291.83
368.163	321.43
368.544	311.49
368.925	292.05
369.306	343.8
369.688	297.93
370.069	301.32
370.45	316.46
370.831	316.69
371.212	321.88
371.593	303.81
371.974	282.34
372.355	317.36
372.736	312.62
373.117	316.23
373.498	301.55
373.879	321.88
374.26	310.59
374.641	307.2
375.021	328.21
375.402	329.79
375.783	315.78
376.163	314.43
376.544	338.38
376.925	323.69
377.305	322.34
377.686	334.54
378.066	308.1
378.447	300.64
378.827	305.16
379.208	334.54
379.588	325.95
379.968	337.93
380.349	335.67
380.729	317.59
381.109	321.88
381.489	343.35
381.87	345.61
382.25	345.84
382.63	326.4
383.01	324.6
383.39	323.47
383.77	330.47
384.15	354.65
384.53	329.12
384.91	368.21
385.29	343.13
385.67	350.36
386.049	376.12
386.429	335.44
386.809	342.45
387.189	358.72
387.568	350.36
387.948	347.42
388.328	358.04
388.707	342.67
389.087	339.06
389.466	365.72
389.846	347.87
390.225	354.65
390.605	351.04
390.984	358.04
391.363	353.52
391.743	367.98
392.122	353.75
392.501	374.76
392.881	363.47
393.26	367.53
393.639	378.38
394.018	384.03
394.397	375.67
394.776	374.54
395.155	382.9
395.534	358.04
395.913	373.63
396.292	382.22
396.671	387.42
397.05	391.71
397.429	405.5
397.808	377.25
398.186	380.19
398.565	393.75
398.944	373.41
399.323	384.71
399.701	392.84
400.08	392.84
400.458	402.33
400.837	399.4
401.215	388.55
401.594	407.76
401.972	389.91
402.351	409.57
402.729	400.75
403.107	390.58
403.486	408.66
403.864	406.18
404.242	406.18
404.62	415.44
404.999	411.15
405.377	389.45
405.755	391.49
406.133	409.11
406.511	420.86
406.889	429.68
407.267	431.71
407.645	431.49
408.023	440.98
408.401	421.99
408.779	445.95
409.156	430.36
409.534	449.34
409.912	433.29
410.29	435.1
410.667	440.3
411.045	472.39
411.422	457.93
411.8	462.22
412.178	453.18
412.555	475.1
412.933	463.58
413.31	462.67
413.687	458.6
414.065	488.89
414.442	484.14
414.819	478.72
415.197	498.6
415.574	492.95
415.951	513.97
416.328	482.56
416.705	495.89
417.082	496.57
417.46	495.89
417.837	519.39
418.214	504.7
418.591	513.07
418.967	495.21
419.344	499.96
419.721	509.9
420.098	492.73
420.475	535.21
420.852	544.93
421.228	536.79
421.605	546.74
421.982	538.83
422.358	542.22
422.735	527.08
423.111	551.93
423.488	544.25
423.864	575.44
424.241	558.49
424.617	560.52
424.994	565.49
425.37	552.39
425.746	591.26
426.123	588.32
426.499	547.19
426.875	598.26
427.251	579.5
427.627	574.98
428.003	602.33
428.379	611.14
428.756	602.78
429.132	607.53
429.507	613.4
429.883	609.33
430.259	602.55
430.635	606.4
431.011	620.63
431.387	643.46
431.763	647.75
432.138	623.57
432.514	668.99
432.89	656.56
433.265	654.3
433.641	666.73
434.016	686.39
434.392	681.65
434.767	687.52
435.143	672.61
435.518	687.98
435.894	693.85
436.269	711.25
436.644	717.13
437.02	703.34
437.395	735.88
437.77	722.1
438.145	744.02
438.52	734.3
438.895	745.83
439.271	742.89
439.646	750.8
440.021	781.53
440.395	771.59
440.77	802.32
441.145	760.74
441.52	797.58
441.895	797.58
442.27	817.92
442.645	803.68
443.019	810.23
443.394	795.54
443.769	803.45
444.143	795.32
444.518	813.62
444.892	805.49
445.267	810.23
445.641	839.84
446.016	857.69
446.39	845.03
446.764	849.33
447.139	824.02
447.513	861.08
447.887	855.66
448.262	854.98
448.636	866.05
449.01	885.26
449.384	918.7
449.758	883.68
450.132	930.23
450.506	899.95
450.88	910.34
451.254	908.31
451.628	926.61
452.002	951.47
452.376	942.66
452.75	952.15
453.123	975.88
453.497	962.55
453.871	996.44
454.244	1012.94
454.618	970.68
454.992	990.12
455.365	1014.75
455.739	1046.38
456.112	1063.79
456.486	1069.44
456.859	1054.29
457.232	1073.5
457.606	1073.28
457.979	1096.78
458.352	1075.31
458.725	1115.08
459.099	1132.03
459.472	1177.45
459.845	1150.11
460.218	1186.72
460.591	1146.95
460.964	1186.04
461.337	1235.08
461.71	1234.63
462.083	1251.8
462.456	1255.87
462.829	1255.42
463.201	1275.31
463.574	1308.75
463.947	1298.13
464.32	1355.76
464.692	1338.13
465.065	1379.48
465.438	1367.73
465.81	1398.01
466.183	1458.35
466.555	1431.23
466.928	1450.44
467.3	1473.72
467.672	1497.67
468.045	1508.75
468.417	1553.72
468.789	1579.7
469.161	1587.39
469.534	1613.83
469.906	1630.55
470.278	1683.66
470.65	1688.4
471.022	1721.4
471.394	1779.25
471.766	1760.72
472.138	1823.77
472.51	1864.22
472.882	1908.06
473.253	1941.95
473.625	1983.76
473.997	2028.05
474.369	2082.29
474.74	2128.39
475.112	2147.6
475.484	2210.87
475.855	2243.42
476.227	2321.15
476.598	2388.5
476.97	2417.2
477.341	2481.15
477.713	2557.98
478.084	2598.43
478.455	2685.89
478.827	2744.19
479.198	2858.09
479.569	2903.51
479.94	2955.71
480.311	3064.41
480.682	3119.32
481.053	3215.14
481.424	3285.42
481.795	3394.35
482.166	3435.02
482.537	3541.69
482.908	3705.98
483.279	3753.21
483.65	3876.59
484.021	3981
484.391	4048.57
484.762	4109.13
485.133	4236.36
485.503	4335.11
485.874	4491.49
486.244	4611.71
486.615	4708.44
486.985	4859.84
487.356	4967.19
487.726	5104.58
488.097	5281.08
488.467	5297.57
488.837	5501.86
489.207	5645.36
489.578	5757
489.948	5875.18
490.318	6025.69
490.688	6140.26
491.058	6243.08
491.428	6365.34
491.798	6510.42
492.168	6692.79
492.538	6776.86
492.908	6898.89
493.278	7066.34
493.648	7167.58
494.017	7344.3
494.387	7480.11
494.757	7577.96
495.126	7755.14
495.496	7880.1
495.866	7985.41
496.235	8124.84
496.605	8240.55
496.974	8305.18
497.344	8415.91
497.713	8557.6
498.082	8680.31
498.452	8818.84
498.821	8914.88
499.19	8956.01
499.559	9151.03
499.928	9223.57
500.298	9299.5
500.667	9465.15
501.036	9523
501.405	9663.56
501.774	9662.2
502.143	9838.92
502.512	9865.14
502.88	9949.43
503.249	10079.59
503.618	10156.88
503.987	10203.66
504.356	10278.91
504.724	10384.9
505.093	10500.15
505.462	10500.83
505.83	10706.7
506.199	10725.45
506.567	10846.81
506.936	10800.25
507.304	11019.68
507.672	11069.4
508.041	11153.92
508.409	11233.01
508.777	11339.67
509.145	11446.56
509.514	11435.26
509.882	11469.84
510.25	11504.19
510.618	11533.11
510.986	11553.23
511.354	11742.15
511.722	11820.34
512.09	11912.09
512.458	11874.8
512.826	12008.81
513.193	12062.37
513.561	12048.81
513.929	12160.89
514.297	12201.8
514.664	12296.71
515.032	12277.05
515.4	12346.2
515.767	12392.08
516.135	12483.82
516.502	12314.56
516.869	12545.97
517.237	12568.34
517.604	12549.81
517.972	12573.54
518.339	12725.17
518.706	12653.31
519.073	12745.51
519.44	12765.4
519.808	12882.91
520.175	12794.1
520.542	12926.3
520.909	13014.66
521.276	12967.43
521.643	13039.52
522.009	13023.02
522.376	13100.31
522.743	13173.07
523.11	13216.69
523.477	13256.69
523.843	13254.2
524.21	13473.18
524.577	13473.4
524.943	13359.73
525.31	13464.82
525.676	13508.88
526.043	13567.41
526.409	13603.12
526.776	13636.56
527.142	13739.84
527.508	13640.18
527.874	13719.72
528.241	13724.02
528.607	13726.5
528.973	13689.67
529.339	13699.61
529.705	13709.1
530.071	13811.25
530.437	13773.96
530.803	13694.64
531.169	13912.49
531.535	13835.43
531.901	13764.24
532.267	13799.04
532.632	13871.36
532.998	13793.62
533.364	13813.96
533.73	13738.48
534.095	13865.93
534.461	13799.27
534.826	13785.48
535.192	13716.79
535.557	13806.95
535.923	13773.06
536.288	13717.92
536.653	13769.89
537.019	13668.88
537.384	13721.53
537.749	13681.98
538.114	13576
538.479	13659.39
538.845	13595.43
539.21	13567.86
539.575	13493.74
539.94	13493.74
540.305	13560.63
540.67	13459.62
541.034	13504.59
541.399	13498.71
541.764	13442.22
542.129	13441.31
542.494	13319.96
542.858	13405.61
543.223	13273.63
543.587	13317.47
543.952	13217.82
544.316	13276.12
544.681	13162
545.045	13185.73
545.41	13161.55
545.774	13127.88
546.138	13158.16
546.503	13110.25
546.867	13016.24
547.231	13051.72
547.595	12993.19
547.959	12973.98
548.324	12963.13
548.688	12904.6
549.052	12865.06
549.416	12918.84
549.779	12806.53
550.143	12850.14
550.507	12806.53
550.871	12825.28
551.235	12639.98
551.599	12754.55
551.962	12655.12
552.326	12665.51
552.689	12648.57
553.053	12620.54
553.417	12519.08
553.78	12704.84
554.143	12494.45
554.507	12556.14
554.87	12559.08
555.234	12600.88
555.597	12466.42
555.96	12523.15
556.323	12482.24
556.686	12480.89
557.05	12484.5
557.413	12426.65
557.776	12440.66
558.139	12475.01
558.502	12456.25
558.865	12409.25
559.228	12449.7
559.59	12437.95
559.953	12414.67
560.316	12507.78
560.679	12402.92
561.041	12524.95
561.404	12531.51
561.767	12523.6
562.129	12416.71
562.492	12562.69
562.854	12443.15
563.217	12480.21
563.579	12501.9
563.941	12449.47
564.304	12533.54
564.666	12559.08
565.028	12578.29
565.39	12597.04
565.753	12622.8
566.115	12572.64
566.477	12616.7
566.839	12654.67
567.201	12605.18
567.563	12624.39
567.925	12742.57
568.287	12648.34
568.648	12669.13
569.01	12790.48
569.372	12826.87
569.734	12690.6
570.095	12732.86
570.457	12766.08
570.819	12738.96
571.18	12816.02
571.542	12784.38
571.903	12835.68
572.265	12897.6
572.626	12812.86
572.987	12826.64
573.349	12792.97
573.71	12890.37
574.071	12864.38
574.432	12875.68
574.794	12949.35
575.155	12978.5
575.516	12857.37
575.877	12906.41
576.238	12901.44
576.599	13000.65
576.96	12933.76
577.32	12942.8
577.681	12949.35
578.042	12976.47
578.403	12938.5
578.763	12904.83
579.124	12968.56
579.485	12956.13
579.845	12995.68
580.206	12951.16
580.566	12940.54
580.927	12865.96
581.287	12999.97
581.648	12995.45
582.008	12968.33
582.368	12914.32
582.728	12996.35
583.089	12968.33
583.449	12938.95
583.809	12917.03
584.169	12909.58
584.529	12902.57
584.889	13000.42
585.249	12855.79
585.609	12839.52
585.969	12957.03
586.329	12833.19
586.688	12929.91
587.048	12832.74
587.408	12791.84
587.768	12765.17
588.127	12862.12
588.487	12723.37
588.846	12829.35
589.206	12719.98
589.565	12758.17
589.925	12832.74
590.284	12720.2
590.643	12714.55
591.003	12783.25
591.362	12850.82
591.721	12830.48
592.08	12849.69
592.44	12801.56
592.799	12776.25
593.158	12709.13
593.517	12776.7
593.876	12693.31
594.235	12762.46
594.593	12758.39
594.952	12763.82
595.311	12674.55
595.67	12689.02
596.029	12801.33
596.387	12692.18
596.746	12820.76
597.104	12725.63
597.463	12649.47
597.822	12763.59
598.18	12660.54
598.538	12642.46
598.897	12739.64
599.255	12648.57
599.613	12849.92
599.972	12708.68
600.33	12638.17
600.688	12651.28
601.046	12733.54
601.404	12750.71
601.762	12712.52
602.12	12754.78
602.478	12762.69
602.836	12805.4
603.194	12638.85
603.552	12706.19
603.91	12626.42
604.268	12666.64
604.625	12627.55
604.983	12703.03
605.341	12619.41
605.698	12741.44
606.056	12729.02
606.413	12651.5
606.771	12684.27
607.128	12790.71
607.485	12605.18
607.843	12648.79
608.2	12799.52
608.557	12807.88
608.914	12812.18
609.272	12819.41
609.629	12806.53
609.986	12815.79
610.343	12757.26
610.7	12927.65
611.057	12843.59
611.414	12899.41
611.771	12774.21
612.127	12892.85
612.484	12917.03
612.841	12895.11
613.198	12921.78
613.554	12938.73
613.911	12903.25
614.267	12943.7
614.624	12917.26
614.98	13010.36
615.337	12947.54
615.693	13004.04
616.05	12952.06
616.406	12977.82
616.762	13039.74
617.118	12959.07
617.475	12973.08
617.831	13010.14
618.187	13021.21
618.543	13019.63
618.899	13058.72
619.255	13090.36
619.611	13086.29
619.967	13161.55
620.323	13148.44
620.678	13046.07
621.034	13025.5
621.39	13004.26
621.746	13000.65
622.101	13150.93
622.457	13053.3
622.812	13170.59
623.168	13097.59
623.523	13125.39
623.879	13144.82
624.234	13037.26
624.589	13103.24
624.945	13106.63
625.3	13072.74
625.655	13130.59
626.01	13109.8
626.365	13091.49
626.72	13070.48
627.075	13065.28
627.43	13060.08
627.785	13055.11
628.14	13105.28
628.495	13105.05
628.85	13058.05
629.205	13077.03
629.559	13072.74
629.914	13054.2
630.269	13011.27
630.623	12989.35
630.978	13028.22
631.332	12988.22
631.687	12999.74
632.041	12973.75
632.396	13024.15
632.75	12982.34
633.104	12983.7
633.459	12901.44
633.813	12869.12
634.167	12953.87
634.521	12850.59
634.875	12929.46
635.229	12802.46
635.583	12722.69
635.937	12814.66
636.291	12806.08
636.645	12727.89
636.999	12654.22
637.352	12803.36
637.706	12667.77
638.06	12684.5
638.413	12682.24
638.767	12681.33
639.121	12700.54
639.474	12600.21
639.828	12731.95
640.181	12667.32
640.534	12636.59
640.888	12605.18
641.241	12545.74
641.594	12638.85
641.947	12635.46
642.301	12578.74
642.654	12622.13
643.007	12617.38
643.36	12558.17
643.713	12525.63
644.066	12586.65
644.419	12403.37
644.771	12344.39
645.124	12336.26
645.477	12300.1
645.83	12189.37
646.182	12203.83
646.535	12131.97
646.888	12115.92
647.24	12038.19
647.593	12182.14
647.945	12124.96
648.298	12104.17
648.65	12099.65
649.002	12074.57
649.355	12127
649.707	12127.45
650.059	12162.25
650.411	12256.71
650.763	12310.5
651.115	12450.38
651.467	12358.18
651.819	12423.94
652.171	12411.06
652.523	12374.22
652.875	12293.77
653.227	12308.01
653.578	12437.05
653.93	12322.7
654.282	12340.78
654.633	12352.3
654.985	12329.7
655.337	12271.17
655.688	12402.24
656.039	12435.69
656.391	12313.89
656.742	12383.04
657.094	12298.52
657.445	12468.01
657.796	12345.3
658.147	12352.98
658.498	12373.77
658.849	12384.84
659.2	12333.77
659.551	12381
659.902	12408.12
660.253	12431.85
660.604	12475.91
660.955	12395.92
661.306	12462.81
661.656	12346.65
662.007	12432.3
662.358	12463.49
662.708	12435.92
663.059	12439.31
663.409	12323.38
663.76	12507.33
664.11	12410.15
664.461	12440.89
664.811	12397.05
665.161	12526.99
665.511	12351.4
665.862	12436.37
666.212	12473.88
666.562	12453.09
666.912	12406.54
667.262	12382.81
667.612	12431.4
667.962	12476.82
668.312	12418.06
668.662	12523.82
669.011	12452.19
669.361	12400.44
669.711	12359.53
670.06	12435.46
670.41	12403.83
670.76	12316.6
671.109	12341.23
671.459	12376.93
671.808	12365.41
672.157	12403.15
672.507	12291.06
672.856	12289.48
673.205	12289.71
673.554	12352.53
673.904	12260.55
674.253	12338.52
674.602	12290.61
674.951	12142.59
675.3	12051.52
675.649	12230.72
675.998	12204.28
676.346	12319.76
676.695	12285.86
677.044	12191.63
677.393	12146.66
677.741	12217.39
678.09	12168.8
678.438	12140.1
678.787	12209.93
679.135	12214
679.484	12053.78
679.832	12137.39
680.181	11987.34
680.529	12123.83
680.877	12021.69
681.225	11959.32
681.573	12047.45
681.922	11959.77
682.27	11953.44
682.618	11917.29
682.966	11881.58
683.314	11919.32
683.661	11841.13
684.009	11762.04
684.357	11795.25
684.705	11717.52
685.053	11866.67
685.4	11778.76
685.748	11624.64
686.095	11654.92
686.443	11636.84
686.79	11635.71
687.138	11625.77
687.485	11681.13
687.832	11624.64
688.18	11633
688.527	11536.28
688.874	11522.72
689.221	11534.02
689.568	11459.9
689.915	11356.85
690.262	11374.47
690.609	11398.88
690.956	11315.49
691.303	11327.24
691.65	11307.81
691.997	11190.75
692.344	11121.15
692.69	11187.14
693.037	11170.41
693.383	10925.9
693.73	11045.22
694.077	11024.65
694.423	10970.64
694.769	10947.59
695.116	10924.77
695.462	10909.18
695.808	10856.07
696.155	10868.5
696.501	10803.42
696.847	10713.7
697.193	10622.86
697.539	10690.2
697.885	10671.22
698.231	10550.54
698.577	10565.23
698.923	10558.9
699.269	10503.31
699.614	10468.74
699.96	10352.58
700.306	10388.29
700.651	10332.69
700.997	10362.52
701.342	10257.22
701.688	10294.5
702.033	10261.28
702.379	10132.47
702.724	10216.09
703.069	10159.59
703.415	10055.41
703.76	10057.67
704.105	10049.76
704.45	9983.33
704.795	9981.74
705.14	9894.51
705.485	9906.04
705.83	9853.61
706.175	9805.48
706.52	9849.32
706.865	9742.65
707.209	9772.48
707.554	9689.32
707.899	9714.18
708.243	9585.14
708.588	9593.28
708.932	9560.29
709.277	9501.3
709.621	9563.45
709.966	9463.11
710.31	9499.04
710.654	9437.35
710.998	9428.54
711.342	9377.01
711.687	9299.05
712.031	9381.53
712.375	9313.96
712.719	9343.12
713.063	9321.2
713.407	9265.83
713.75	9277.81
714.094	9320.97
714.438	9159.62
714.782	9243.91
715.125	9198.26
715.469	9178.83
715.812	9093.18
716.156	9048.89
716.499	9045.72
716.843	9102.67
717.186	9066.29
717.53	9124.14
717.873	9134.53
718.216	9098.83
718.559	9076.46
718.902	9013.41
719.246	8996.68
719.589	9014.76
719.932	8941.32
720.275	8957.59
720.617	9008.21
720.96	8906.52
721.303	8980.19
721.646	8957.14
721.989	8875.56
722.331	8934.31
722.674	8899.29
723.016	8966.18
723.359	8910.58
723.701	8919.62
724.044	8870.36
724.386	8772.51
724.729	8884.82
725.071	8840.98
725.413	8836.01
725.755	8740.42
726.097	8764.6
726.439	8743.58
726.782	8713.75
727.124	8756.92
727.465	8670.14
727.807	8691.83
728.149	8749.23
728.491	8712.85
728.833	8736.35
729.175	8727.31
729.516	8793.53
729.858	8655.22
730.199	8686.64
730.541	8627.65
730.882	8698.61
731.224	8735
731.565	8651.83
731.906	8708.1
732.248	8695.68
732.589	8704.71
732.93	8604.15
733.271	8636.24
733.612	8664.94
733.953	8663.36
734.294	8719.18
734.635	8706.07
734.976	8617.71
735.317	8623.59
735.658	8687.09
735.999	8687.31
736.339	8676.92
736.68	8628.56
737.021	8649.8
737.361	8635.34
737.702	8735.9
738.042	8664.04
738.383	8661.33
738.723	8730.93
739.063	8696.81
739.404	8706.07
739.744	8695.68
740.084	8754.88
740.424	8708.78
740.764	8774.09
741.104	8758.05
741.444	8699.29
741.784	8753.3
742.124	8744.94
742.464	8712.4
742.804	8759.63
743.143	8796.92
743.483	8828.1
743.823	8825.84
744.162	8863.13
744.502	8960.08
744.841	8921.21
745.181	8983.8
745.52	8986.52
745.86	9041.65
746.199	9079.85
746.538	9113.97
746.877	9190.13
747.216	9166.17
747.556	9262.67
747.895	9272.84
748.234	9288.43
748.573	9314.87
748.911	9370.01
749.25	9496.11
749.589	9528.65
749.928	9549.89
750.267	9694.97
750.605	9715.76
750.944	9831.92
751.283	9895.87
751.621	9925.25
751.96	9981.52
752.298	10075.07
752.636	10230.1
752.975	10260.61
753.313	10345.12
753.651	10587.38
753.989	10531.11
754.327	10638.9
754.666	10723.64
755.004	10866.92
755.342	11029.63
755.679	11162.28
756.017	11272.56
756.355	11425.55
756.693	11482.27
757.031	11599.1
757.368	11736.5
757.706	11902.82
758.044	11945.76
758.381	12113.89
758.719	12302.59
759.056	12586.42
759.394	12712.29
759.731	12774.44
760.068	12900.54
760.405	13057.82
760.743	13177.14
761.08	13385.5
761.417	13458.71
761.754	13598.15
762.091	13832.04
762.428	13964.69
762.765	14102.31
763.102	14328.3
763.438	14324.23
763.775	14472.25
764.112	14835.17
764.449	14923.08
764.785	15104.55
765.122	15095.73
765.458	15345.44
765.795	15439
766.131	15638.09
766.467	15657.98
766.804	15907.69
767.14	15920.34
767.476	16099.77
767.812	16182.71
768.148	16318.07
768.485	16421.12
768.821	16545.41
769.157	16718.74
769.492	16768.68
769.828	16885.52
770.164	16873.77
770.5	17003.71
770.836	17072.18
771.171	17177.94
771.507	17225.85
771.842	17274.88
772.178	17494.54
772.513	17478.04
772.849	17679.62
773.184	17635.55
773.519	17788.77
773.855	17719.84
774.19	17829.9
774.525	17929.56
774.86	18062.43
775.195	18090
775.53	18160.29
775.865	18024.7
776.2	17976.56
776.535	18006.39
776.87	18217.68
777.205	18175.43
777.539	18197.8
777.874	18287.74
778.209	18177.91
778.543	18262.88
778.878	18154.64
779.212	18274.41
779.547	18260.85
779.881	18379.94
780.215	18292.03
780.55	18453.61
780.884	18287.97
781.218	18391.24
781.552	18457.23
781.886	18345.37
782.22	18229.44
782.554	18314.63
782.888	18255.88
783.222	18221.98
783.556	18192.83
783.889	18163.22
784.223	18167.06
784.557	18132.72
784.89	18269.89
785.224	18149.44
785.557	18141.98
785.891	18102.43
786.224	18106.73
786.558	18100.4
786.891	18014.07
787.224	18038.48
787.557	17947.41
787.891	18010.91
788.224	17994.64
788.557	17906.05
788.89	17893.63
789.223	18001.65
789.556	17839.84
789.888	17841.42
790.221	17805.04
790.554	17760.07
790.887	17688.66
791.219	17673.97
791.552	17637.14
791.884	17675.33
792.217	17574.54
792.549	17597.59
792.882	17488.44
793.214	17478.5
793.546	17464.94
793.879	17364.83
794.211	17360.08
794.543	17443.92
794.875	17298.16
795.207	17405.05
795.539	17240.08
795.871	17241.67
796.203	17208.22
796.535	17033.76
796.867	17035.12
797.198	16979.53
797.53	16973.88
797.862	16899.98
798.193	17044.38
798.525	16861.34
798.856	16825.18
799.188	16672.19
799.519	16701.34
799.85	16547.9
800.182	16685.3
800.513	16647.33
800.844	16517.16
801.175	16631.06
801.506	16615.92
801.837	16472.87
802.168	16412.76
802.499	16398.75
802.83	16265.65
803.161	16270.17
803.491	16315.14
803.822	16265.87
804.153	16342.03
804.483	16039.21
804.814	16071.98
805.145	16012.09
805.475	16075.59
805.805	15951.53
806.136	15923.73
806.466	15980.68
806.796	15983.62
807.126	15875.83
807.457	15813.68
807.787	15737.52
808.117	15793.79
808.447	15712.44
808.777	15782.72
809.107	15656.4
809.436	15629.73
809.766	15596.51
810.096	15498.43
810.426	15554.48
810.755	15537.98
811.085	15426.57
811.414	15509.06
811.744	15405.78
812.073	15371.66
812.403	15301.15
812.732	15271.1
813.061	15262.51
813.39	15217.76
813.719	15111.78
814.049	15219.35
814.378	15147.94
814.707	15083.98
815.036	15139.12
815.365	15080.82
815.693	14948.62
816.022	15033.14
816.351	14874.95
816.68	14856.87
817.008	14909.75
817.337	14747.27
817.665	14733.71
817.994	14834.04
818.322	14760.6
818.651	14677.21
818.979	14632.92
819.307	14721.51
819.636	14661.62
819.964	14606.93
820.292	14614.84
820.62	14702.97
820.948	14522.64
821.276	14632.02
821.604	14500.95
821.932	14606.71
822.259	14519.93
822.587	14674.05
822.915	14481.06
823.243	14525.35
823.57	14515.86
823.898	14559.48
824.225	14468.18
824.553	14423.66
824.88	14512.25
825.207	14460.27
825.535	14512.7
825.862	14600.15
826.189	14506.14
826.516	14597.22
826.843	14584.56
827.17	14528.06
827.497	14519.7
827.824	14459.82
828.151	14555.63
828.478	14529.65
828.805	14596.54
829.131	14523.32
829.458	14479.93
829.785	14446.03
830.111	14466.82
830.438	14548.18
830.764	14555.86
831.09	14656.42
831.417	14446.26
831.743	14594.73
832.069	14548.85
832.395	14489.2
832.722	14494.39
833.048	14524.45
833.374	14481.06
833.7	14429.31
834.026	14439.93
834.351	14485.13
834.677	14417.78
835.003	14428.86
835.329	14407.62
835.654	14423.89
835.98	14269.09
836.306	14425.92
836.631	14294.62
836.956	14323.55
837.282	14308.64
837.607	14313.61
837.932	14309.54
838.258	14260.95
838.583	14275.42
838.908	14172.14
839.233	14175.76
839.558	14164.91
839.883	14134.18
840.208	14007.17
840.533	14046.5
840.858	14113.39
841.182	14021.19
841.507	14039.72
841.832	13945.03
842.156	13963.56
842.481	13910.23
842.805	13964.01
843.13	13860.51
843.454	13868.19
843.778	13772.15
844.103	13789.55
844.427	13772.38
844.751	13804.69
845.075	13681.76
845.399	13591.59
845.723	13548.2
846.047	13541.65
846.371	13490.35
846.695	13465.04
847.019	13307.98
847.343	13272.73
847.666	13188.21
847.99	13131.72
848.313	13182.79
848.637	13135.78
848.96	13064.6
849.284	13138.27
849.607	12936.69
849.931	12928.33
850.254	12819.86
850.577	12852.85
850.9	12763.59
851.223	12744.38
851.546	12585.74
851.869	12603.82
852.192	12597.27
852.515	12458.74
852.838	12467.55
853.161	12438.85
853.483	12380.1
853.806	12289.25
854.129	12313.66
854.451	12279.08
854.774	12181.46
855.096	12136.94
855.419	12141.46
855.741	12148.24
856.063	12098.3
856.385	12000.67
856.708	11983.95
857.03	11924.74
857.352	11845.65
857.674	11846.1
857.996	11790.96
858.318	11719.78
858.64	11874.8
858.961	11725.43
859.283	11710.06
859.605	11638.87
859.926	11715.93
860.248	11621.47
860.57	11496.05
860.891	11583.06
861.212	11522.72
861.534	11480.01
861.855	11400.91
862.176	11463.06
862.498	11438.43
862.819	11425.32
863.14	11421.25
863.461	11447.02
863.782	11320.47
864.103	11323.85
864.424	11303.06
864.745	11308.49
865.065	11221.71
865.386	11196.17
865.707	11117.53
866.027	11253.8
866.348	11199.34
866.668	11217.64
866.989	11164.76
867.309	11099.68
867.63	11064.88
867.95	11113.24
868.27	11019
868.59	10999.12
868.91	11040.92
869.23	10974.49
869.55	11012.45
869.87	10986.69
870.19	10948.95
870.51	11012.45
870.83	10983.07
871.15	10951.66
871.469	10883.41
871.789	10952.57
872.109	10899.01
872.428	10835.05
872.748	10816.98
873.067	10818.11
873.386	10797.77
873.706	10785.34
874.025	10714.61
874.344	10739.69
874.663	10733.14
874.982	10767.49
875.301	10713.93
875.62	10642.52
875.939	10647.26
876.258	10616.75
876.577	10554.84
876.896	10585.8
877.214	10498.79
877.533	10510.32
877.852	10580.82
878.17	10502.18
878.489	10500.6
878.807	10502.86
879.125	10489.3
879.444	10485.01
879.762	10442.52
880.08	10403.65
880.398	10354.16
880.716	10405.01
881.034	10324.56
881.352	10342.41
881.67	10347.84
881.988	10285.24
882.306	10279.36
882.624	10254.73
882.941	10178.12
883.259	10181.29
883.577	10155.07
883.894	10155.07
884.212	10092.7
884.529	10134.51
884.846	10056.09
885.164	10092.02
885.481	9900.39
885.798	10111.91
886.115	9949.2
886.432	10025.13
886.75	9903.1
887.067	9950.11
887.383	9842.54
887.7	9882.99
888.017	9823.78
888.334	9901.07
888.651	9746.72
888.967	9758.25
889.284	9706.95
889.6	9703.56
889.917	9632.15
890.233	9648.87
890.55	9591.24
890.866	9577.91
891.182	9596.89
891.498	9485.49
891.815	9521.87
892.131	9417.69
892.447	9439.16
892.763	9359.84
893.079	9364.13
893.395	9359.61
893.71	9327.52
894.026	9324.81
894.342	9275.55
894.657	9253.63
894.973	9225.15
895.289	9192.16
895.604	9206.17
895.92	9103.35
896.235	9057.93
896.55	9062.45
896.865	9041.88
897.181	9007.31
897.496	9015.44
897.811	8984.48
898.126	8899.51
898.441	8885.05
898.756	8847.54
899.071	8814.77
899.386	8803.02
899.7	8698.16
900.015	8656.13
900.33	8623.36
900.644	8586.53
900.959	8609.35
901.273	8639.63
901.588	8604.15
901.902	8544.04
902.216	8479.41
902.531	8511.73
902.845	8406.64
903.159	8419.52
903.473	8338.17
903.787	8364.84
904.101	8311.5
904.415	8288.45
904.729	8195.8
905.042	8193.32
905.356	8216.37
905.67	8145.18
905.984	8143.6
906.297	8122.36
906.611	8089.82
906.924	8060.66
907.237	7997.16
907.551	8009.14
907.864	7920.33
908.177	7871.29
908.491	7875.81
908.804	7863.38
909.117	7745.87
909.43	7748.13
909.743	7679.66
910.056	7683.05
910.368	7700
910.681	7639.66
910.994	7694.12
911.307	7628.58
911.619	7522.37
911.932	7508.14
912.244	7483.28
912.557	7491.64
912.869	7483.05
913.181	7384.07
913.494	7296.16
913.806	7324.19
914.118	7341.59
914.43	7269.95
914.742	7190.4
915.054	7187.24
915.366	7177.07
915.678	7224.08
915.99	7109.95
916.302	7104.98
916.613	7067.92
916.925	7040.13
917.236	7010.52
917.548	6998.32
917.859	6985.66
918.171	6872.45
918.482	6860.47
918.794	6868.15
919.105	6840.13
919.416	6797.87
919.727	6795.39
920.038	6820.7
920.349	6732.56
920.66	6690.98
920.971	6701.15
921.282	6679.46
921.593	6629.74
921.903	6595.17
922.214	6526.92
922.525	6576.63
922.835	6532.12
923.146	6482.17
923.456	6496.19
923.767	6417.09
924.077	6452.57
924.387	6439.01
924.697	6376.41
925.008	6313.14
925.318	6302.52
925.628	6308.39
925.938	6274.72
926.248	6189.3
926.558	6209.86
926.867	6189.98
927.177	6145.46
927.487	6128.06
927.796	6062.3
928.106	6081.73
928.416	6093.03
928.725	6067.27
929.034	6004.45
929.344	6000.38
929.653	5956.99
929.962	5897.1
930.271	5960.38
930.581	5872.47
930.89	5830.89
931.199	5855.3
931.508	5869.99
931.817	5767.62
932.125	5756.09
932.434	5829.99
932.743	5700.95
933.051	5685.81
933.36	5655.76
933.669	5643.33
933.977	5625.47
934.286	5621.86
934.594	5607.62
934.902	5562.2
935.21	5516.32
935.519	5513.84
935.827	5474.97
936.135	5488.53
936.443	5411.24
936.751	5361.75
937.059	5386.61
937.367	5329.44
937.674	5391.58
937.982	5348.19
938.29	5311.58
938.597	5299.15
938.905	5227.52
939.213	5176.9
939.52	5175.54
939.827	5260.96
940.135	5186.39
940.442	5120.85
940.749	5199.5
941.056	5109.33
941.363	5098.48
941.67	5043.34
941.977	5028.65
942.284	4974.42
942.591	4985.94
942.898	4985.72
943.205	5004.02
943.511	4926.96
943.818	4875.89
944.125	4837.25
944.431	4905.94
944.738	4856.68
945.044	4804.03
945.35	4783.24
945.657	4785.27
945.963	4761.32
946.269	4689.68
946.575	4735.55
946.881	4704.37
947.187	4655.56
947.493	4670.02
947.799	4671.15
948.105	4615.56
948.41	4590.25
948.716	4602.45
949.022	4577.59
949.327	4570.59
949.633	4489.23
949.938	4527.42
950.244	4509.34
950.549	4411.95
950.854	4465.28
951.16	4431.61
951.465	4418.95
951.77	4418.95
952.075	4341.67
952.38	4359.07
952.685	4306.41
952.99	4275.9
953.294	4307.09
953.599	4271.38
953.904	4237.71
954.209	4217.15
954.513	4237.26
954.818	4240.88
955.122	4191.61
955.426	4170.14
955.731	4151.61
956.035	4108.45
956.339	4140.09
956.643	4113.65
956.948	4077.72
957.252	4053.09
957.556	4081.33
957.86	4075.68
958.163	4037.49
958.467	3993.65
958.771	3996.14
959.075	3962.92
959.378	3912.52
959.682	3942.13
959.985	3950.49
960.289	3901
960.592	3843.15
960.896	3881.79
961.199	3855.35
961.502	3818.06
961.805	3798.85
962.108	3785.75
962.411	3774.9
962.714	3752.08
963.017	3770.83
963.32	3685.64
963.623	3759.76
963.926	3738.74
964.228	3671.85
964.531	3675.92
964.833	3674.56
965.136	3586.21
965.438	3578.97
965.741	3555.92
966.043	3573.32
966.345	3601.35
966.648	3558.41
966.95	3542.59
967.252	3497.62
967.554	3494.46
967.856	3467.34
968.158	3471.18
968.46	3445.87
968.761	3488.58
969.063	3447.68
969.365	3370.39
969.666	3406.77
969.968	3385.31
970.269	3390.5
970.571	3336.72
970.872	3374.46
971.174	3329.26
971.475	3319.55
971.776	3304.4
972.077	3267.34
972.378	3301.24
972.679	3267.34
972.98	3299.43
973.281	3231.19
973.582	3218.31
973.883	3180.57
974.183	3167.46
974.484	3184.63
974.785	3159.32
975.085	3165.65
975.386	3150.06
975.686	3113.45
975.986	3111.19
976.287	3119.78
976.587	3063.73
976.887	3070.74
977.187	3060.12
977.487	3038.42
977.787	3032.32
978.087	3024.86
978.387	3009.05
978.687	2992.32
978.987	2961.81
979.286	2947.58
979.586	2990.06
979.885	2924.53
980.185	2930.18
980.484	2919.56
980.784	2890.63
981.083	2892.21
981.382	2896.05
981.682	2838.2
981.981	2847.92
982.28	2869.16
982.579	2814.93
982.878	2799.79
983.177	2788.03
983.475	2816.28
983.774	2767.24
984.073	2755.04
984.372	2774.48
984.67	2746.91
984.969	2687.25
985.267	2686.12
985.566	2677.98
985.864	2704.87
986.162	2713.46
986.461	2648.6
986.759	2669.85
987.057	2584.65
987.355	2628.49
987.653	2643.41
987.951	2599.11
988.249	2573.8
988.547	2598.66
988.844	2562.73
989.142	2582.62
989.44	2532.9
989.737	2508.04
990.035	2506.01
990.332	2513.69
990.63	2476.18
990.927	2480.47
991.224	2482.96
991.521	2451.32
991.819	2444.31
992.116	2441.6
992.413	2435.95
992.71	2406.8
993.006	2394.82
993.303	2416.29
993.6	2397.99
993.897	2362.51
994.193	2344.88
994.49	2321.61
994.787	2318.44
995.083	2324.32
995.379	2329.52
995.676	2326.8
995.972	2310.08
996.268	2290.87
996.565	2248.61
996.861	2258.1
997.157	2246.35
997.453	2253.58
997.749	2220.37
998.044	2186.92
998.34	2209.52
998.636	2209.29
998.932	2193.25
999.227	2155.73
999.523	2125.68
999.818	2136.53
1000.114	2132.46
1000.409	2097.2
1000.704	2114.61
1001	2083.87
1001.295	2079.13
1001.59	2098.56
1001.885	2068.28
1002.18	2045.23
1002.475	2038
1002.77	2026.25
1003.065	2045.45
1003.359	2033.7
1003.654	1997.32
1003.949	2007.94
1004.243	1960.71
1004.538	1959.36
1004.832	1958
1005.127	1971.56
1005.421	1938.34
1005.715	1941.5
1006.009	1900.37
1006.304	1880.26
1006.598	1904.22
1006.892	1895.4
1007.186	1849.98
1007.48	1873.93
1007.773	1848.4
1008.067	1816.99
1008.361	1833.26
1008.655	1805.46
1008.948	1811.34
1009.242	1788.29
1009.535	1817.44
1009.829	1760.49
1010.122	1776.54
1010.415	1744.45
1010.708	1737.89
1011.001	1755.74
1011.295	1708.97
1011.588	1709.19
1011.881	1694.05
1012.173	1691.34
1012.466	1683.66
1012.759	1677.78
1013.052	1683.66
1013.344	1687.05
1013.637	1672.58
1013.93	1638.23
1014.222	1629.65
1014.514	1617.9
1014.807	1615.18
1015.099	1619.7
1015.391	1589.2
1015.683	1582.42
1015.976	1586.94
1016.268	1553.04
1016.56	1540.16
1016.851	1516.88
1017.143	1508.52
1017.435	1556.88
1017.727	1505.13
1018.018	1506.03
1018.31	1466.71
1018.602	1490.44
1018.893	1466.71
1019.185	1453.83
1019.476	1466.49
1019.767	1440.95
1020.058	1433.27
1020.35	1415.64
1020.641	1396.88
1020.932	1413.15
1021.223	1422.65
1021.514	1394.17
1021.804	1362.31
1022.095	1365.92
1022.386	1361.86
1022.677	1344
1022.967	1332.03
1023.258	1353.04
1023.548	1356.89
1023.839	1317.79
1024.129	1319.6
1024.419	1295.87
1024.709	1303.1
1025	1302.2
1025.29	1259.49
1025.58	1277.34
1025.87	1265.36
1026.16	1255.42
1026.449	1267.4
1026.739	1230.79
1027.029	1245.7
1027.319	1233.95
1027.608	1253.39
1027.898	1222.43
1028.187	1183.78
1028.477	1191.47
1028.766	1172.03
1029.055	1202.31
1029.344	1160.05
1029.634	1171.58
1029.923	1154.4
1030.212	1144.91
1030.501	1127.96
1030.79	1138.36
1031.078	1114.18
1031.367	1129.09
1031.656	1115.08
1031.945	1087.74
1032.233	1103.78
1032.522	1090.45
1032.81	1099.04
1033.099	1086.16
1033.387	1084.35
1033.675	1083.22
1033.963	1051.58
1034.251	1047.29
1034.54	1057.91
1034.828	981.98
1035.116	1021.07
1035.403	1000.96
1035.691	1039.15
1035.979	1015.43
1036.267	994.63
1036.554	1011.13
1036.842	990.79
1037.129	992.6
1037.417	974.75
1037.704	978.59
1037.992	963.22
1038.279	958.7
1038.566	958.48
1038.853	958.48
1039.14	958.48
