Data from hue_32_FLMS001491_00038.txt Node
Date: Tue Feb 07 17:23:18 GMT 2017
User: dcchb
Spectrometer: FLMS00149
Trigger mode: 0
Integration Time (sec): 2.000000E-2
Scans to average: 10
Electric dark correction enabled: true
Nonlinearity correction enabled: false
Boxcar width: 0
XAxis mode: Wavelengths
Number of Pixels in Spectrum: 2048
>>>>>Begin Spectral Data<<<<<
341.393	-2.09
341.776	-2.09
342.16	-2.09
342.543	-101.3
342.927	-68.98
343.31	-65.82
343.693	-58.13
344.077	-74.63
344.46	-75.99
344.843	-55.87
345.226	-46.61
345.61	-21.52
345.993	-16.1
346.376	21.86
346.759	-13.16
347.142	18.02
347.525	43.11
347.908	74.97
348.291	61.64
348.674	84.24
349.057	124.01
349.44	122.88
349.823	142.09
350.206	177.11
350.588	195.42
350.971	219.15
351.354	243.33
351.737	237.23
352.119	254.4
352.502	259.37
352.884	273.83
353.267	275.42
353.65	281.74
354.032	316.32
354.414	296.66
354.797	314.51
355.179	331.23
355.562	333.49
355.944	341.86
356.326	344.12
356.709	338.92
357.091	340.95
357.473	338.47
357.855	340.27
358.238	336.43
358.62	344.34
359.002	352.93
359.384	339.82
359.766	329.88
360.148	329.88
360.53	341.4
360.912	337.56
361.294	316.09
361.676	332.59
362.057	332.59
362.439	351.35
362.821	345.47
363.203	342.53
363.584	339.6
363.966	347.05
364.348	343.44
364.729	349.76
365.111	329.65
365.493	330.56
365.874	332.59
366.256	333.27
366.637	299.37
367.019	306.6
367.4	323.78
367.781	306.83
368.163	323.32
368.544	336.43
368.925	317.22
369.306	315.19
369.688	315.42
370.069	327.17
370.45	322.87
370.831	321.97
371.212	304.57
371.593	298.92
371.974	307.96
372.355	317.22
372.736	326.04
373.117	310.44
373.498	320.84
373.879	335.3
374.26	333.72
374.641	321.07
375.021	321.07
375.402	311.8
375.783	322.42
376.163	323.1
376.544	322.87
376.925	325.13
377.305	327.84
377.686	326.04
378.066	331.23
378.447	340.95
378.827	337.34
379.208	316.32
379.588	323.78
379.968	362.65
380.349	349.99
380.729	345.47
381.109	337.79
381.489	332.14
381.87	343.21
382.25	329.88
382.63	356.09
383.01	331.69
383.39	328.97
383.77	366.94
384.15	341.4
384.53	324.45
384.91	354.28
385.29	354.06
385.67	332.14
386.049	342.76
386.429	355.19
386.809	344.57
387.189	349.99
387.568	355.41
387.948	368.52
388.328	354.06
388.707	351.12
389.087	352.25
389.466	362.65
389.846	377.33
390.225	367.17
390.605	361.06
390.984	350.89
391.363	366.04
391.743	353.61
392.122	358.13
392.501	374.62
392.881	353.61
393.26	343.21
393.639	369.88
394.018	368.52
394.397	393.61
394.776	385.02
395.155	382.76
395.534	377.56
395.913	374.17
396.292	395.19
396.671	401.06
397.05	385.02
397.429	396.54
397.808	399.71
398.186	393.83
398.565	377.11
398.944	359.26
399.323	404.45
399.701	370.56
400.08	385.47
400.458	390.67
400.837	405.13
401.215	384.34
401.594	397
401.972	413.04
402.351	393.38
402.729	410.33
403.107	418.92
403.486	414.4
403.864	420.27
404.242	412.36
404.62	396.32
404.999	421.4
405.377	415.07
405.755	416.43
406.133	420.5
406.511	436.54
406.889	439.48
407.267	410.33
407.645	425.24
408.023	434.28
408.401	431.34
408.779	435.64
409.156	448.75
409.534	459.14
409.912	456.65
410.29	453.72
410.667	421.85
411.045	446.94
411.422	457.11
411.8	460.04
412.178	464.79
412.555	453.26
412.933	464.34
413.31	474.06
413.687	461.63
414.065	485.35
414.442	477.9
414.819	459.14
415.197	472.47
415.574	481.74
415.951	486.48
416.328	482.64
416.705	502.53
417.082	498.69
417.46	478.35
417.837	488.52
418.214	507.5
418.591	493.72
418.967	505.69
419.344	516.99
419.721	518.8
420.098	532.81
420.475	521.51
420.852	527.39
421.228	530.1
421.605	525.13
421.982	540.04
422.358	536.43
422.735	554.05
423.111	542.75
423.488	540.04
423.864	551.79
424.241	557.22
424.617	556.77
424.994	563.32
425.37	566.93
425.746	581.62
426.123	583.21
426.499	563.54
426.875	556.54
427.251	585.01
427.627	586.37
428.003	592.92
428.379	590.89
428.756	598.57
429.132	583.66
429.507	588.63
429.883	583.66
430.259	600.38
430.635	627.5
431.011	611.68
431.387	613.94
431.763	627.5
432.138	657.33
432.514	629.76
432.89	658.68
433.265	652.58
433.641	663.43
434.016	644.22
434.392	664.56
434.767	677.89
435.143	679.25
435.518	669.98
435.894	663.88
436.269	691
436.644	683.09
437.02	684.9
437.395	706.82
437.77	721.05
438.145	693.94
438.52	724.67
438.895	729.19
439.271	720.6
439.646	731
440.021	725.12
440.395	749.08
440.77	740.49
441.145	752.69
441.52	769.19
441.895	746.14
442.27	766.7
442.645	771
443.019	765.35
443.394	745.69
443.769	782.97
444.143	762.18
444.518	782.97
444.892	760.83
445.267	804.89
445.641	811
446.016	806.48
446.39	797.44
446.764	815.29
447.139	830.43
447.513	796.98
447.887	818.23
448.262	810.54
448.636	812.35
449.01	816.42
449.384	844.89
449.758	864.1
450.132	828.4
450.506	828.62
450.88	878.34
451.254	859.58
451.628	846.47
452.002	864.55
452.376	887.83
452.75	889.41
453.123	887.83
453.497	896.19
453.871	890.54
454.244	914.04
454.618	912.01
454.992	957.66
455.365	948.39
455.739	948.85
456.112	971.67
456.486	972.8
456.859	1008.96
457.232	999.47
457.606	987.26
457.979	993.36
458.352	1016.87
458.725	1032.01
459.099	1022.74
459.472	1035.17
459.845	1029.52
460.218	1043.98
460.591	1067.03
460.964	1079.46
461.337	1108.16
461.71	1125.34
462.083	1131.67
462.456	1135.05
462.829	1120.59
463.201	1143.42
463.574	1163.53
463.947	1154.26
464.32	1224.09
464.692	1225.45
465.065	1196.97
465.438	1251.44
465.81	1254.37
466.183	1277.2
466.555	1297.99
466.928	1322.62
467.3	1299.57
467.672	1334.15
468.045	1351.32
468.417	1371.88
468.789	1368.5
469.161	1417.76
469.534	1427.93
469.906	1431.09
470.278	1462.5
470.65	1484.65
471.022	1513.12
471.394	1532.33
471.766	1521.49
472.138	1572.78
472.51	1615.27
472.882	1616.4
473.253	1647.36
473.625	1685.77
473.997	1713.57
474.369	1733.68
474.74	1769.61
475.112	1819.33
475.484	1845.77
475.855	1886.22
476.227	1940.68
476.598	1956.28
476.97	1979.33
477.341	2052.54
477.713	2062.94
478.084	2084.86
478.455	2162.37
478.827	2228.13
479.198	2279.21
479.569	2283.27
479.94	2340.67
480.311	2423.16
480.682	2450.05
481.053	2519.43
481.424	2592.19
481.795	2622.02
482.166	2714.67
482.537	2753.54
482.908	2834.67
483.279	2853.43
483.65	2945.63
484.021	3008.9
484.391	3076.47
484.762	3165.96
485.133	3155.34
485.503	3257.26
485.874	3341.1
486.244	3407.76
486.615	3485.28
486.985	3555.1
487.356	3620.41
487.726	3705.16
488.097	3831.93
488.467	3861.99
488.837	3956.68
489.207	4024.24
489.578	4125.26
489.948	4176.1
490.318	4267.63
490.688	4311.92
491.058	4409.77
491.428	4543.78
491.798	4574.06
492.168	4721.18
492.538	4777.22
492.908	4840.04
493.278	4985.8
493.648	4987.16
494.017	5064.22
494.387	5135.18
494.757	5221.5
495.126	5309.18
495.496	5329.52
495.866	5423.53
496.235	5494.94
496.605	5525.67
496.974	5607.48
497.344	5668.95
497.713	5754.37
498.082	5783.29
498.452	5944.65
498.821	6023.06
499.19	6006.79
499.559	6075.94
499.928	6129.73
500.298	6202.49
500.667	6256.95
501.036	6297.18
501.405	6457.63
501.774	6475.71
502.143	6521.58
502.512	6545.76
502.88	6609.49
503.249	6692.42
503.618	6730.39
503.987	6792.31
504.356	6869.59
504.724	6905.3
505.093	6958.18
505.462	6959.08
505.83	7050.38
506.199	7102.81
506.567	7194.56
506.936	7220.09
507.304	7267.1
507.672	7303.25
508.041	7374.89
508.409	7478.39
508.777	7503.02
509.145	7599.74
509.514	7540.08
509.882	7630.7
510.25	7571.72
510.618	7756.35
510.986	7783.92
511.354	7787.54
511.722	7871.37
512.09	8033.18
512.458	8036.12
512.826	8055.1
513.193	8037.92
513.561	8098.04
513.929	8134.19
514.297	8225.04
514.664	8310.46
515.032	8339.16
515.4	8427.29
515.767	8445.82
516.135	8479.72
516.502	8472.49
516.869	8555.88
517.237	8619.83
517.604	8588.64
517.972	8692.6
518.339	8727.17
518.706	8685.82
519.073	8745.25
519.44	8796.55
519.808	8897.79
520.175	8932.59
520.542	9031.8
520.909	8997.22
521.276	9079.03
521.643	9108.63
522.009	9180.04
522.376	9184.56
522.743	9322.86
523.11	9358.79
523.477	9385.01
523.843	9408.51
524.21	9536.19
524.577	9642.4
524.943	9643.53
525.31	9716.98
525.676	9753.13
526.043	9838.78
526.409	9848.72
526.776	9973.24
527.142	10009.62
527.508	10007.82
527.874	10030.64
528.241	10113.12
528.607	10159.68
528.973	10256.62
529.339	10301.82
529.705	10396.28
530.071	10363.96
530.437	10471.53
530.803	10505.2
531.169	10645.54
531.535	10574.13
531.901	10698.87
532.267	10655.03
532.632	10800.56
532.998	10819.77
533.364	10891.18
533.73	10937.28
534.095	11010.05
534.461	10980.9
534.826	11074.23
535.192	11097.28
535.557	11180.44
535.923	11179.99
536.288	11239.2
536.653	11222.47
537.019	11235.13
537.384	11321.23
537.749	11389.93
538.114	11444.16
538.479	11444.61
538.845	11500.43
539.21	11447.55
539.575	11526.65
539.94	11691.84
540.305	11747.21
540.67	11666.76
541.034	11766.41
541.399	11864.04
541.764	11843.7
542.129	11954.66
542.494	12014.99
542.858	11971.83
543.223	12038.72
543.587	12156.01
543.952	12087.54
544.316	12144.03
544.681	12183.35
545.045	12241.66
545.41	12333.18
545.774	12342.22
546.138	12377.92
546.503	12463.12
546.867	12491.37
547.231	12612.95
547.595	12571.36
547.959	12636.9
548.324	12766.84
548.688	12773.62
549.052	12785.37
549.416	12882.77
549.779	12860.62
550.143	12836.22
550.507	13015.42
550.871	13069.43
551.235	12986.04
551.599	13050.67
551.962	13111.24
552.326	13126.15
552.689	13233.49
553.053	13180.84
553.417	13193.27
553.78	13419.25
554.143	13374.06
554.507	13425.58
554.87	13558.23
555.234	13568.63
555.597	13505.13
555.96	13565.46
556.323	13632.13
556.686	13643.43
557.05	13741.05
557.413	13752.8
557.776	13844.1
558.139	13840.48
558.502	13883.87
558.865	13986.69
559.228	13948.96
559.59	14083.42
559.953	14056.98
560.316	14176.52
560.679	14146.92
561.041	14261.94
561.404	14405.44
561.767	14413.8
562.129	14393.24
562.492	14545.78
562.854	14493.12
563.217	14513.91
563.579	14579.67
563.941	14651.54
564.304	14759.33
564.666	14731.99
565.028	14825.77
565.39	14851.3
565.753	14865.77
566.115	15012.66
566.477	15022.6
566.839	15106.44
567.201	15179.88
567.563	15173.33
567.925	15323.83
568.287	15336.49
568.648	15373.1
569.01	15378.97
569.372	15492.87
569.734	15559.31
570.095	15651.06
570.457	15656.03
570.819	15770.38
571.18	15785.07
571.542	15927.43
571.903	15915.46
572.265	16065.28
572.626	16067.09
572.987	16172.63
573.349	16262.57
573.71	16270.02
574.071	16394.54
574.432	16392.51
574.794	16536.91
575.155	16508.66
575.516	16667.98
575.877	16759.05
576.238	16855.09
576.599	16978.25
576.96	17108.87
577.32	17222.32
577.681	17404.46
578.042	17498.92
578.403	17524.23
578.763	17637.67
579.124	17750.89
579.485	17931.22
579.845	18122.18
580.206	18281.27
580.566	18312.91
580.927	18445.79
581.287	18693.69
581.648	18865.21
582.008	19038.31
582.368	19245.99
582.728	19402.37
583.089	19568.69
583.449	19637.39
583.809	19867.44
584.169	20107.44
584.529	20376.81
584.889	20599.85
585.249	20621.77
585.609	20899.51
585.969	21242.55
586.329	21406.61
586.688	21641.18
587.048	21859.26
587.408	22068.52
587.768	22195.29
588.127	22453.14
588.487	22688.61
588.846	23044.08
589.206	23121.6
589.565	23468.93
589.925	23738.3
590.284	23994.57
590.643	24331.06
591.003	24598.62
591.362	24821.21
591.721	25142.56
592.08	25363.12
592.44	25691.7
592.799	25965.81
593.158	26249.42
593.517	26471.11
593.876	26814.38
594.235	26910.42
594.593	27222.96
594.952	27663.85
595.311	27820.23
595.67	28023.84
596.029	28558.06
596.387	28691.39
596.746	29060.2
597.104	29367.98
597.463	29451.37
597.822	29877.35
598.18	29905.6
598.538	30109.89
598.897	30640.95
599.255	30624
599.613	31338.33
599.972	31279.12
600.33	31608.83
600.688	31823.29
601.046	32080.68
601.404	32338.98
601.762	32489.03
602.12	32931.51
602.478	33099.19
602.836	33255.57
603.194	33353.87
603.552	33546.41
603.91	33680.87
604.268	34122.89
604.625	34255.54
604.983	34674.96
605.341	34585.25
605.698	34995.41
606.056	35222.52
606.413	35198.34
606.771	35482.85
607.128	35757.2
607.485	35746.12
607.843	35977.53
608.2	36457.52
608.557	36594.91
608.914	36609.15
609.272	37029.03
609.629	37046.43
609.986	37555.57
610.343	37514.66
610.7	37862.68
611.057	37901.32
611.414	37977.25
611.771	38138.83
612.127	38457.24
612.484	38539.72
612.841	38815.65
613.198	38798.7
613.554	38863.33
613.911	39179.93
614.267	39349.42
614.624	39381.96
614.98	39454.5
615.337	39821.04
615.693	39799.57
616.05	39955.5
616.406	40418.09
616.762	40188.72
617.118	40208.15
617.475	40376.96
617.831	40510.74
618.187	40680.91
618.543	40855.14
618.899	41056.72
619.255	41144.62
619.611	41036.83
619.967	41319.76
620.323	41370.61
620.678	41427.1
621.034	41497.16
621.39	41617.61
621.746	41517.27
622.101	42196.8
622.457	41851.95
622.812	42023.25
623.168	42141.66
623.523	42248.55
623.879	42344.59
624.234	42035.22
624.589	42309.11
624.945	42383.69
625.3	42441.09
625.655	42417.36
626.01	42472.73
626.365	42676.11
626.72	42573.51
627.075	42646.73
627.43	42704.58
627.785	42573.06
628.14	42767.86
628.495	42865.26
628.85	42799.72
629.205	42685.37
629.559	42877.46
629.914	42851.92
630.269	42925.37
630.623	42941.19
630.978	42853.28
631.332	43082.2
631.687	43155.19
632.041	42966.95
632.396	43086.95
632.75	42911.81
633.104	43052.6
633.459	42751.36
633.813	42884.01
634.167	43034.07
634.521	42980.51
634.875	42956.78
635.229	42931.92
635.583	42850.57
635.937	42854.64
636.291	42888.76
636.645	42787.07
636.999	42865.26
637.352	42889.44
637.706	42831.81
638.06	42950.45
638.413	43001.52
638.767	42775.99
639.121	42884.47
639.474	42612.16
639.828	42717.01
640.181	42706.17
640.534	42782.1
640.888	42592.72
641.241	42517.7
641.594	42628.43
641.947	42810.34
642.301	42629.56
642.654	42700.52
643.007	42696.9
643.36	42577.36
643.713	42599.73
644.066	42825.03
644.419	42510.92
644.771	42232.96
645.124	41780.99
645.477	41858.05
645.83	41553.65
646.182	41369.48
646.535	41449.7
646.888	41374.45
647.24	41190.72
647.593	41516.59
647.945	41416.26
648.298	41123.61
648.65	41184.17
649.002	41066.66
649.355	41286.77
649.707	41147.79
650.059	41300.55
650.411	41857.83
650.763	41868.45
651.115	42344.14
651.467	42152.28
651.819	42023.25
652.171	42041.55
652.523	41873.19
652.875	41980.99
653.227	41723.14
653.578	42151.38
653.93	42044.04
654.282	41710.49
654.633	41780.09
654.985	41915.68
655.337	41892.4
655.688	41828.45
656.039	42018.27
656.391	41550.49
656.742	41722.24
657.094	41840.88
657.445	41938.28
657.796	41888.11
658.147	41626.42
658.498	41680.2
658.849	41882.91
659.2	41749.81
659.551	41664.38
659.902	41842.91
660.253	41540.09
660.604	41660.77
660.955	41534.22
661.306	41653.09
661.656	41630.04
662.007	41784.38
662.358	41629.13
662.708	41650.6
663.059	41570.38
663.409	41449.02
663.76	41590.49
664.11	41639.53
664.461	41695.34
664.811	41533.77
665.161	41536.25
665.511	41467.55
665.862	41537.83
666.212	41618.96
666.562	41523.82
666.912	41535.8
667.262	41417.39
667.612	41315.47
667.962	41524.5
668.312	41430.94
668.662	41693.99
669.011	41441.79
669.361	41418.29
669.711	41365.64
670.06	41297.61
670.41	41332.19
670.76	41281.12
671.109	41354.34
671.459	41328.35
671.808	41349.14
672.157	41444.05
672.507	41056.94
672.856	41136.49
673.205	41239.31
673.554	41390.72
673.904	41189.14
674.253	41314.11
674.602	41347.56
674.951	40642.26
675.3	40498.09
675.649	41097.85
675.998	41128.58
676.346	41040.22
676.695	41372.64
677.044	40943.73
677.393	40849.94
677.741	41039.99
678.09	40884.29
678.438	40955.48
678.787	41005.87
679.135	40808.81
679.484	40583.28
679.832	40848.59
680.181	40699.89
680.529	40661.02
680.877	40645.88
681.225	40623.06
681.573	40880.22
681.922	40550.29
682.27	40355.04
682.618	40425.32
682.966	40280.47
683.314	40435.94
683.661	40244.08
684.009	40125.89
684.357	40145.1
684.705	40140.58
685.053	39935.84
685.4	39997.31
685.748	39797.32
686.095	39756.64
686.443	39584.89
686.79	39631.67
687.138	39657.21
687.485	39623.08
687.832	39560.26
688.18	39610.43
688.527	39367.04
688.874	39373.15
689.221	39140.38
689.568	39159.14
689.915	38993.04
690.262	38984.68
690.609	38963.66
690.956	38684.35
691.303	38870.56
691.65	38705.59
691.997	38664.24
692.344	38342.66
692.69	38374.98
693.037	38411.36
693.383	38045.5
693.73	38369.56
694.077	37994.88
694.423	37988.55
694.769	37908.33
695.116	37807.31
695.462	37809.34
695.808	37691.16
696.155	37678.5
696.501	37345.63
696.847	37416.59
697.193	37182.47
697.539	37312.63
697.885	37079.65
698.231	37001.91
698.577	37008.91
698.923	36929.59
699.269	36660
699.614	36470.4
699.96	36403.73
700.306	36534.58
700.651	36422.04
700.997	36290.06
701.342	36173.23
701.688	36089.84
702.033	35998.77
702.379	36036.96
702.724	35862.28
703.069	35997.19
703.415	35446.24
703.76	35513.36
704.105	35505.22
704.45	35449.86
704.795	35336.87
705.14	35195.63
705.485	35161.05
705.83	35016.88
706.175	35056.42
706.52	34988.18
706.865	34863.21
707.209	34742.08
707.554	34616.43
707.899	34677.45
708.243	34513.61
708.588	34539.6
708.932	34180.74
709.277	34345.93
709.621	34323.11
709.966	34072.72
710.31	34146.84
710.654	33950.24
710.998	33860.52
711.342	33873.18
711.687	33788.43
712.031	33630.47
712.375	33571.49
712.719	33574.43
713.063	33451.95
713.407	33679.74
713.75	33390.93
714.094	33481.1
714.438	33202.01
714.782	33237.94
715.125	33175.57
715.469	33261.67
715.812	33035.46
716.156	32895.58
716.499	32852.19
716.843	32977.38
717.186	32736.94
717.53	32774.45
717.873	32874.56
718.216	32723.83
718.559	32649.48
718.902	32321.35
719.246	32491.97
719.589	32247.01
719.932	32308.25
720.275	32254.46
720.617	32275.03
720.96	32161.36
721.303	32039.1
721.646	32126.56
721.989	31912.1
722.331	32027.12
722.674	31822.61
723.016	31934.25
723.359	31705.55
723.701	31820.58
724.044	31731.76
724.386	31518.66
724.729	31659
725.071	31576.74
725.413	31496.52
725.755	31451.55
726.097	31368.16
726.439	31325.45
726.782	31185.34
727.124	31368.16
727.465	31104.89
727.807	31283.64
728.149	31171.78
728.491	31137.43
728.833	31172.46
729.175	30990.77
729.516	30903.09
729.858	30907.61
730.199	30912.13
730.541	30789.87
730.882	30807.72
731.224	30822.18
731.565	30678.68
731.906	30610.21
732.248	30771.11
732.589	30393.95
732.93	30312.14
733.271	30408.86
733.612	30424
733.953	30386.04
734.294	30395.3
734.635	30228.08
734.976	30338.81
735.317	30031.24
735.658	30129.77
735.999	29964.13
736.339	30049.55
736.68	30138.36
737.021	29910.12
737.361	29803.23
737.702	30080.73
738.042	29967.07
738.383	29905.37
738.723	29838.03
739.063	29793.74
739.404	29859.27
739.744	29732.72
740.084	29662.67
740.424	29614.53
740.764	29577.92
741.104	29723.46
741.444	29622.22
741.784	29453.41
742.124	29409.79
742.464	29370.47
742.804	29330.25
743.143	29261.1
743.483	29204.83
743.823	29111.49
744.162	29129.8
744.502	29173.41
744.841	29061.55
745.181	29073.53
745.52	28940.43
745.86	29063.81
746.199	29022.68
746.538	28838.51
746.877	28962.57
747.216	28876.7
747.556	28756.02
747.895	28880.09
748.234	28684.84
748.573	28682.13
748.911	28589.25
749.25	28652.3
749.589	28499.76
749.928	28606.42
750.267	28501.34
750.605	28552.19
750.944	28292.98
751.283	28279.2
751.621	28410.04
751.96	28203.95
752.298	28236.04
752.636	28182.71
752.975	27949.94
753.313	27927.57
753.651	28086.89
753.989	27978.42
754.327	27864.3
754.666	27744.98
755.004	27789.5
755.342	27843.73
755.679	27736.16
756.017	27507.92
756.355	27679.22
756.693	27477.87
757.031	27606.9
757.368	27379.79
757.706	27360.35
758.044	27373.46
758.381	27222.28
758.719	27229.06
759.056	27144.54
759.394	27074.26
759.731	26922.17
760.068	26913.36
760.405	26893.93
760.743	26805.11
761.08	26794.04
761.417	26728.05
761.754	26620.94
762.091	26636.53
762.428	26501.17
762.765	26344.11
763.102	26354.05
763.438	26285.58
763.775	26155.41
764.112	26097.34
764.449	26144.57
764.785	26016.43
765.122	25791.13
765.458	25630.91
765.795	25657.57
766.131	25611.93
766.467	25571.25
766.804	25430.24
767.14	25332.84
767.476	25419.84
767.812	25268.66
768.148	25166.51
768.485	24984.82
768.821	24893.53
769.157	24912.28
769.492	24896.46
769.828	24798.61
770.164	24623.48
770.5	24725.85
770.836	24659.41
771.171	24476.59
771.507	24331.73
771.842	24136.94
772.178	24270.94
772.513	24116.82
772.849	24057.62
773.184	23866.66
773.519	23903.5
773.855	23812.42
774.19	23806.1
774.525	23637.29
774.86	23609.94
775.195	23524.75
775.53	23472.09
775.865	23342.15
776.2	23146.23
776.535	23109.84
776.87	23028.94
777.205	23007.93
777.539	22942.39
777.874	22887.48
778.209	22673.02
778.543	22651.33
778.878	22494.04
779.212	22464.66
779.547	22430.31
779.881	22479.8
780.215	22287.72
780.55	22341.05
780.884	22085.46
781.218	22071.23
781.552	21998.24
781.886	21945.81
782.22	21725.7
782.554	21689.77
782.888	21548.76
783.222	21490.45
783.556	21367.07
783.889	21353.05
784.223	21144.02
784.557	21226.28
784.89	21165.04
785.224	20954.65
785.557	20934.76
785.891	20867.87
786.224	20811.6
786.558	20866.06
786.891	20566.41
787.224	20545.39
787.557	20534.54
787.891	20487.09
788.224	20399.41
788.557	20355.79
788.89	20303.59
789.223	20194.89
789.556	20261.11
789.888	19983.15
790.221	20023.37
790.554	19784.28
790.887	19878.97
791.219	19735.7
791.552	19738.18
791.884	19647.34
792.217	19621.8
792.549	19512.88
792.882	19330.73
793.214	19279.44
793.546	19372.99
793.879	19188.82
794.211	19039.22
794.543	19165.32
794.875	19153.34
795.207	19164.19
795.539	18959.67
795.871	19036.73
796.203	18801.03
796.535	18632.67
796.867	18623.63
797.198	18626.12
797.53	18675.16
797.862	18538.89
798.193	18492.11
798.525	18325.34
798.856	18385.22
799.188	18182.52
799.519	18154.27
799.85	18088.51
800.182	18055.97
800.513	18055.06
800.844	17891.9
801.175	18030.43
801.506	17910.88
801.837	17918.12
802.168	17825.92
802.499	17713.38
802.83	17646.71
803.161	17587.96
803.491	17608.52
803.822	17527.17
804.153	17445.13
804.483	17403.55
804.814	17258.92
805.145	17249.21
805.475	17305.25
805.805	17107.52
806.136	17225.93
806.466	17127.4
806.796	17115.88
807.126	17024.58
807.457	16891.02
807.787	16911.14
808.117	16801.99
808.447	16766.06
808.777	16804.25
809.107	16744.59
809.436	16559.06
809.766	16638.38
810.096	16488.1
810.426	16457.82
810.755	16565.16
811.085	16478.15
811.414	16404.71
811.744	16334.88
812.073	16224.15
812.403	16280.65
812.732	16165.39
813.061	16213.08
813.39	16106.19
813.719	16206.07
814.049	16143.7
814.378	16084.04
814.707	15955.91
815.036	15967.66
815.365	15806.99
815.693	15695.8
816.022	15807.89
816.351	15701.9
816.68	15643.15
817.008	15721.34
817.337	15536.71
817.665	15537.84
817.994	15524.73
818.322	15507.56
818.651	15459.42
818.979	15465.75
819.307	15385.08
819.636	15347.79
819.964	15325.87
820.292	15377.62
820.62	15348.01
820.948	15310.5
821.276	15316.15
821.604	15294.68
821.932	15239.32
822.259	15271.86
822.587	15167.23
822.915	15231.63
823.243	15297.17
823.57	15147.12
823.898	15097.4
824.225	15168.36
824.553	15115.48
824.88	15183.5
825.207	15167.23
825.535	15034.12
825.862	15175.14
826.189	15099.21
826.516	15215.59
826.843	15140.11
827.17	15229.37
827.497	15180.56
827.824	15078.42
828.151	15156.83
828.478	15172.2
828.805	15180.79
829.131	15079.77
829.458	15096.72
829.785	15093.56
830.111	15108.02
830.438	15111.18
830.764	15131.3
831.09	15129.72
831.417	15060.56
831.743	15130.17
832.069	15023.28
832.395	14955.93
832.722	15144.18
833.048	15074.35
833.374	15022.83
833.7	14945.99
834.026	14942.38
834.351	14992.32
834.677	14910.29
835.003	14937.4
835.329	14927.91
835.654	14916.61
835.98	14828.03
836.306	14956.39
836.631	14914.13
836.956	14893.34
837.282	14847.01
837.607	14807.01
837.932	14690.18
838.258	14801.14
838.583	14680.91
838.908	14607.47
839.233	14638.2
839.558	14605.21
839.883	14609.05
840.208	14522.73
840.533	14444.08
840.858	14398.21
841.182	14488.83
841.507	14422.62
841.832	14365.44
842.156	14344.65
842.481	14318.21
842.805	14353.24
843.13	14249.29
843.454	14288.61
843.778	14217.42
844.103	14128.39
844.427	14148.95
844.751	14090.19
845.075	14066.01
845.399	14015.39
845.723	13973.14
846.047	14036.86
846.371	13830.99
846.695	13845
847.019	13708.06
847.343	13731.11
847.666	13597.33
847.99	13583.32
848.313	13597.55
848.637	13471.23
848.96	13424.22
849.284	13458.8
849.607	13339.48
849.931	13350.33
850.254	13194.85
850.577	13216.32
850.9	13110.11
851.223	13012.48
851.546	13040.73
851.869	12955.08
852.192	13041.63
852.515	12863.79
852.838	12814.75
853.161	12832.6
853.483	12766.39
853.806	12658.59
854.129	12747.18
854.451	12614.98
854.774	12563.45
855.096	12548.99
855.419	12419.96
855.741	12480.75
856.063	12423.35
856.385	12361.43
856.708	12297.02
857.03	12277.59
857.352	12314.42
857.674	12267.64
857.996	12136.12
858.318	12169.12
858.64	12080.98
858.961	12108.33
859.283	12089.12
859.605	12037.59
859.926	11975.22
860.248	11981.55
860.57	11931.38
860.891	11930.48
861.212	11826.3
861.534	11797.83
861.855	11749.69
862.176	11728.45
862.498	11815.23
862.819	11760.76
863.14	11727.77
863.461	11714.89
863.782	11603.71
864.103	11658.39
864.424	11621.56
864.745	11604.38
865.065	11536.59
865.386	11507.44
865.707	11449.81
866.027	11532.3
866.348	11489.13
866.668	11441.22
866.989	11469.92
867.309	11420.89
867.63	11426.76
867.95	11377.95
868.27	11334.33
868.59	11301.79
868.91	11236.48
869.23	11280.55
869.55	11228.57
869.87	11284.17
870.19	11183.83
870.51	11195.81
870.83	11288.23
871.15	11237.16
871.469	11070.39
871.789	11202.81
872.109	11133.66
872.428	11038.75
872.748	11141.12
873.067	11005.3
873.386	11049.14
873.706	11040.33
874.025	10970.73
874.344	10979.77
874.663	10974.34
874.982	10909.94
875.301	10955.59
875.62	10876.95
875.939	10857.29
876.258	10983.38
876.577	10904.74
876.896	10839.43
877.214	10787.68
877.533	10802.37
877.852	10785.87
878.17	10858.64
878.489	10804.18
878.807	10773.22
879.125	10784.97
879.444	10755.14
879.762	10682.15
880.08	10672.88
880.398	10575.26
880.716	10638.99
881.034	10562.83
881.352	10606.67
881.67	10546.33
881.988	10546.11
882.306	10467.01
882.624	10466.56
882.941	10387.92
883.259	10398.77
883.577	10371.65
883.894	10377.07
884.212	10324.87
884.529	10337.75
884.846	10296.62
885.164	10241.71
885.481	10244.42
885.798	10168.49
886.115	10116.97
886.432	10182.27
886.75	10180.47
887.067	10178.88
887.383	10064.09
887.7	10160.58
888.017	10063.41
888.334	10056.63
888.651	10102.5
888.967	9951.55
889.284	10018.44
889.6	9958.1
889.917	9884.2
890.233	9814.6
890.55	9906.8
890.866	9867.03
891.182	9742.96
891.498	9787.48
891.815	9689.41
892.131	9675.4
892.447	9765.11
892.763	9613.7
893.079	9638.79
893.395	9582.52
893.71	9585.68
894.026	9572.8
894.342	9524.66
894.657	9499.13
894.973	9464.55
895.289	9489.86
895.604	9431.56
895.92	9376.42
896.235	9373.26
896.55	9411.22
896.865	9280.83
897.181	9249.64
897.496	9223.2
897.811	9230.66
898.126	9183.88
898.441	9107.27
898.756	9018.69
899.071	9050.1
899.386	9040.61
899.7	9043.32
900.015	8958.13
900.33	8891.24
900.644	8836.55
900.959	8881.29
901.273	8827.96
901.588	8857.11
901.902	8742.76
902.216	8718.13
902.531	8710.67
902.845	8662.54
903.159	8666.61
903.473	8602.43
903.787	8569.66
904.101	8520.4
904.415	8524.69
904.729	8494.41
905.042	8386.16
905.356	8449.89
905.67	8438.82
905.984	8402.66
906.297	8325.6
906.611	8264.58
906.924	8315.21
907.237	8168.32
907.551	8248.31
907.864	8176.68
908.177	8113.85
908.491	8086.06
908.804	8054.42
909.117	8025.72
909.43	8007.19
909.743	7977.13
910.056	8007.64
910.368	7909.79
910.681	7929.68
910.994	7910.7
911.307	7847.19
911.619	7768.33
911.932	7810.13
912.244	7684.71
912.557	7669.12
912.869	7644.49
913.181	7547.09
913.494	7553.64
913.806	7547.32
914.118	7506.41
914.43	7449.01
914.742	7470.48
915.054	7447.43
915.366	7424.16
915.678	7395
915.99	7358.62
916.302	7323.59
916.613	7233.43
916.925	7258.74
917.236	7229.13
917.548	7183.71
917.859	7215.57
918.171	7125.18
918.482	7104.62
918.794	7076.37
919.105	7078.63
919.416	6959.31
919.727	7042.92
920.038	6915.02
920.349	6905.98
920.66	6912.53
920.971	6872.31
921.282	6863.94
921.593	6776.04
921.903	6781.69
922.214	6729.94
922.525	6713.67
922.835	6714.8
923.146	6630.73
923.456	6730.61
923.767	6599.32
924.077	6623.27
924.387	6570.39
924.697	6556.16
925.008	6506.21
925.318	6427.12
925.628	6478.19
925.938	6433.45
926.248	6397.52
926.558	6330.4
926.867	6338.08
927.177	6276.16
927.487	6260.57
927.796	6258.31
928.106	6184.87
928.416	6162.72
928.725	6176.5
929.034	6167.46
929.344	6157.75
929.653	6084.53
929.962	6052.67
930.271	6058.09
930.581	6066.22
930.89	6021.48
931.199	5920.69
931.508	5955.49
931.817	5913.69
932.125	5897.42
932.434	5893.57
932.743	5806.12
933.051	5805.44
933.36	5775.84
933.669	5745.1
933.977	5713.69
934.286	5720.92
934.594	5741.71
934.902	5669.62
935.21	5576.29
935.519	5669.62
935.827	5605.22
936.135	5591.43
936.443	5537.88
936.751	5494.26
937.059	5496.3
937.367	5508.5
937.674	5458.11
937.982	5459.91
938.29	5451.78
938.597	5412.23
938.905	5390.99
939.213	5331.1
939.52	5311.67
939.827	5312.35
940.135	5194.84
940.442	5215.85
940.749	5177.43
941.056	5220.15
941.363	5133.82
941.67	5142.86
941.977	5141.28
942.284	5062.86
942.591	5101.73
942.898	5007.72
943.205	5046.14
943.511	5053.37
943.818	5014.95
944.125	5007.04
944.431	4967.72
944.738	4930.89
945.044	4898.8
945.35	4915.52
945.657	4874.84
945.963	4808.18
946.269	4804.79
946.575	4793.26
946.881	4818.8
947.187	4774.28
947.493	4733.38
947.799	4719.14
948.105	4737.45
948.41	4676.43
948.716	4659.71
949.022	4647.28
949.327	4617.9
949.633	4634.4
949.938	4629.2
950.244	4584.46
950.549	4564.12
950.854	4551.69
951.16	4527.28
951.465	4490.9
951.77	4440.05
952.075	4494.74
952.38	4448.41
952.685	4417
952.99	4417.68
953.294	4402.99
953.599	4374.52
953.904	4324.8
954.209	4294.97
954.513	4289.55
954.818	4253.39
955.122	4268.53
955.426	4266.5
955.731	4190.57
956.035	4205.48
956.339	4186.73
956.643	4195.31
956.948	4149.21
957.252	4129.1
957.556	4107.86
957.86	4058.14
958.163	4034.87
958.467	4040.74
958.771	4074.64
959.075	4010.46
959.378	3988.77
959.682	3992.61
959.985	3956
960.289	4013.17
960.592	3956.9
960.896	3926.85
961.199	3909.67
961.502	3912.83
961.805	3856.11
962.108	3845.94
962.411	3844.59
962.714	3800.97
963.017	3832.61
963.32	3768.43
963.623	3761.65
963.926	3744.93
964.228	3728.21
964.531	3744.48
964.833	3716.91
965.136	3655.89
965.438	3662.22
965.741	3672.84
966.043	3648.44
966.345	3646.85
966.648	3625.16
966.95	3602.33
967.252	3573.41
967.554	3559.62
967.856	3561.66
968.158	3515.78
968.46	3527.99
968.761	3513.75
969.063	3516.01
969.365	3452.73
969.666	3431.72
969.968	3419.51
970.269	3424.26
970.571	3432.4
970.872	3406.63
971.174	3334.77
971.475	3390.36
971.776	3307.2
972.077	3322.12
972.378	3316.92
972.679	3311.04
972.98	3337.93
973.281	3263.13
973.582	3274.66
973.883	3269.01
974.183	3277.37
974.484	3257.94
974.785	3192.63
975.085	3180.65
975.386	3196.92
975.686	3154.66
975.986	3165.51
976.287	3140.2
976.587	3109.92
976.887	3137.26
977.187	3107.66
977.487	3126.19
977.787	3035.57
978.087	3040.54
978.387	3049.13
978.687	3050.94
978.987	2993.76
979.286	3027.66
979.586	2998.06
979.885	2962.8
980.185	2982.92
980.484	2985.18
980.784	2928.68
981.083	2924.39
981.382	2932.07
981.682	2911.73
981.981	2897.72
982.28	2876.03
982.579	2838.74
982.878	2892.97
983.177	2859.3
983.475	2836.03
983.774	2805.52
984.073	2757.61
984.372	2803.71
984.67	2796.25
984.969	2780.44
985.267	2756.71
985.566	2734.79
985.864	2734.79
986.162	2689.82
986.461	2721.23
986.759	2687.1
987.057	2614.11
987.355	2657.95
987.653	2628.57
987.951	2651.17
988.249	2593.32
988.547	2622.47
988.844	2602.13
989.142	2606.88
989.44	2563.49
989.737	2561.01
990.035	2536.6
990.332	2578.86
990.63	2520.78
990.927	2518.3
991.224	2521.91
991.521	2493.44
991.819	2446.66
992.116	2487.34
992.413	2495.02
992.71	2425.87
993.006	2438.52
993.303	2422.03
993.6	2430.16
993.897	2393.78
994.193	2387.23
994.49	2381.58
994.787	2356.27
995.083	2320.79
995.379	2350.16
995.676	2328.7
995.972	2353.33
996.268	2333.67
996.565	2277.4
996.861	2322.37
997.157	2315.14
997.453	2276.04
997.749	2269.94
998.044	2288.7
998.34	2253.9
998.636	2225.42
998.932	2205.99
999.227	2222.94
999.523	2236.49
999.818	2144.97
1000.114	2187.46
1000.409	2173.22
1000.704	2155.14
1001	2144.07
1001.295	2111.3
1001.59	2120.79
1001.885	2100.23
1002.18	2074.69
1002.475	2095.48
1002.77	2067.23
1003.065	2041.02
1003.359	2026.56
1003.654	2043.51
1003.949	1998.76
1004.243	2013.22
1004.538	1959.21
1004.832	1966.22
1005.127	2007.12
1005.421	1964.86
1005.715	1936.62
1006.009	1951.08
1006.304	1968.93
1006.598	1929.38
1006.892	1920.57
1007.186	1938.88
1007.48	1868.14
1007.773	1890.74
1008.067	1878.09
1008.361	1860.46
1008.655	1861.82
1008.948	1836.51
1009.242	1831.99
1009.535	1838.99
1009.829	1810.07
1010.122	1775.72
1010.415	1808.71
1010.708	1794.25
1011.001	1770.29
1011.295	1765.09
1011.588	1767.58
1011.881	1746.34
1012.173	1758.99
1012.466	1704.53
1012.759	1729.39
1013.052	1696.4
1013.344	1693.01
1013.637	1680.35
1013.93	1651.88
1014.222	1649.84
1014.514	1659.11
1014.807	1630.86
1015.099	1620.01
1015.391	1615.95
1015.683	1627.7
1015.976	1630.64
1016.268	1585.89
1016.56	1590.41
1016.851	1594.25
1017.143	1556.74
1017.435	1565.33
1017.727	1567.36
1018.018	1548.6
1018.31	1521.49
1018.602	1497.76
1018.893	1546.57
1019.185	1510.41
1019.476	1495.05
1019.767	1464.76
1020.058	1464.31
1020.35	1469.28
1020.641	1464.31
1020.932	1433.35
1021.223	1414.6
1021.514	1431.54
1021.804	1426.35
1022.095	1387.7
1022.386	1394.26
1022.677	1359
1022.967	1387.48
1023.258	1346.8
1023.548	1330.98
1023.839	1343.64
1024.129	1314.71
1024.419	1325.78
1024.709	1315.84
1025	1316.29
1025.29	1294.37
1025.58	1294.37
1025.87	1276.52
1026.16	1268.84
1026.449	1257.09
1026.739	1241.72
1027.029	1276.97
1027.319	1270.42
1027.608	1226.35
1027.898	1243.75
1028.187	1229.29
1028.477	1255.05
1028.766	1210.76
1029.055	1196.07
1029.344	1210.31
1029.634	1187.93
1029.923	1171.21
1030.212	1185.68
1030.501	1151.78
1030.79	1152.91
1031.078	1125.79
1031.367	1138.44
1031.656	1130.31
1031.945	1133.02
1032.233	1130.99
1032.522	1121.72
1032.81	1099.58
1033.099	1090.31
1033.387	1091.67
1033.675	1072.01
1033.963	1080.37
1034.251	1065.23
1034.54	1075.4
1034.828	1080.14
1035.116	1056.86
1035.403	1015.96
1035.691	1037.43
1035.979	1029.52
1036.267	1019.8
1036.554	996.53
1036.842	1013.93
1037.129	997.88
1037.417	976.19
1037.704	977.54
1037.992	975.96
1038.279	987.26
1038.566	980.71
1038.853	980.71
1039.14	980.71
