Data from hue_140_FLMS001491_00031.txt Node
Date: Tue Feb 07 16:55:49 GMT 2017
User: dcchb
Spectrometer: FLMS00149
Trigger mode: 0
Integration Time (sec): 2.000000E-2
Scans to average: 10
Electric dark correction enabled: true
Nonlinearity correction enabled: false
Boxcar width: 0
XAxis mode: Wavelengths
Number of Pixels in Spectrum: 2048
>>>>>Begin Spectral Data<<<<<
341.393	-20.65
341.776	-20.65
342.16	-20.65
342.543	-45.96
342.927	-49.8
343.31	-74.43
343.693	-52.74
344.077	-61.55
344.46	-63.81
344.843	-72.63
345.226	-48.22
345.61	-19.29
345.993	-25.39
346.376	-4.6
346.759	-0.31
347.142	12.57
347.525	46.47
347.908	75.17
348.291	80.37
348.674	91.66
349.057	116.75
349.44	131.44
349.823	145.45
350.206	177.54
350.588	197.42
350.971	207.59
351.354	212.11
351.737	243.07
352.119	260.47
352.502	265.9
352.884	288.27
353.267	265.9
353.65	288.27
354.032	310.87
354.414	321.26
354.797	309.51
355.179	329.62
355.562	329.17
355.944	337.31
356.326	319.23
356.709	360.81
357.091	316.52
357.473	348.15
357.855	348.15
358.238	351.32
358.62	330.3
359.002	338.21
359.384	343.41
359.766	344.31
360.148	319.68
360.53	355.84
360.912	346.8
361.294	339.12
361.676	344.99
362.057	323.07
362.439	341.38
362.821	338.89
363.203	340.02
363.584	335.27
363.966	336.18
364.348	330.75
364.729	337.31
365.111	326.46
365.493	339.57
365.874	323.3
366.256	316.97
366.637	324.65
367.019	330.3
367.4	321.49
367.781	319.45
368.163	312.45
368.544	328.72
368.925	305.9
369.306	312.22
369.688	317.42
370.069	299.34
370.45	305.44
370.831	318.78
371.212	310.87
371.593	321.26
371.974	323.52
372.355	296.63
372.736	333.92
373.117	310.87
373.498	318.1
373.879	331.21
374.26	323.75
374.641	329.17
375.021	317.87
375.402	294.14
375.783	339.57
376.163	338.89
376.544	314.03
376.925	348.61
377.305	330.53
377.686	337.53
378.066	320.13
378.447	352.45
378.827	328.72
379.208	344.54
379.588	340.25
379.968	362.17
380.349	337.99
380.729	329.85
381.109	349.51
381.489	341.38
381.87	341.15
382.25	341.83
382.63	342.05
383.01	332.56
383.39	352.9
383.77	364.65
384.15	349.06
384.53	366.91
384.91	355.84
385.29	364.43
385.67	349.74
386.049	362.62
386.429	369.85
386.809	357.42
387.189	361.94
387.568	353.58
387.948	360.81
388.328	358.1
388.707	375.05
389.087	363.52
389.466	360.81
389.846	379.57
390.225	330.08
390.605	369.4
390.984	367.36
391.363	388.83
391.743	380.92
392.122	367.14
392.501	385.44
392.881	389.28
393.26	391.77
393.639	379.34
394.018	375.27
394.397	391.54
394.776	374.37
395.155	378.89
395.534	403.07
395.913	384.76
396.292	413.92
396.671	394.48
397.05	387.7
397.429	405.55
397.808	397.42
398.186	392.9
398.565	391.09
398.944	392.9
399.323	398.32
399.701	431.77
400.08	389.51
400.458	401.26
400.837	400.81
401.215	422.95
401.594	430.19
401.972	427.47
402.351	401.94
402.729	411.2
403.107	434.48
403.486	420.02
403.864	445.55
404.242	436.74
404.62	451.88
404.999	423.63
405.377	437.87
405.755	439.23
406.133	430.19
406.511	426.57
406.889	415.5
407.267	427.7
407.645	446.68
408.023	457.08
408.401	457.76
408.779	454.59
409.156	463.18
409.534	471.54
409.912	448.49
410.29	470.19
410.667	473.12
411.045	465.21
411.422	476.29
411.8	479.22
412.178	485.1
412.555	496.4
412.933	506.12
413.31	509.28
413.687	505.21
414.065	482.84
414.442	504.31
414.819	501.82
415.197	502.5
415.574	526.46
415.951	511.54
416.328	526.68
416.705	509.73
417.082	517.42
417.46	534.14
417.837	538.66
418.214	552.22
418.591	549.05
418.967	531.43
419.344	557.41
419.721	559
420.098	563.52
420.475	561.48
420.852	556.74
421.228	549.51
421.605	568.04
421.982	575.72
422.358	546.34
422.735	580.92
423.111	601.48
423.488	611.42
423.864	599.9
424.241	616.85
424.617	606.45
424.994	587.24
425.37	598.09
425.746	616.85
426.123	611.2
426.499	632.44
426.875	625.21
427.251	653.68
427.627	643.97
428.003	627.02
428.379	631.09
428.756	649.16
429.132	658.65
429.507	672.21
429.883	678.77
430.259	664.08
430.635	687.13
431.011	685.55
431.387	678.99
431.763	695.26
432.138	694.36
432.514	714.7
432.89	736.85
433.265	738.2
433.641	726.68
434.016	735.49
434.392	761.7
434.767	745.43
435.143	743.4
435.518	757.64
435.894	787.69
436.269	768.48
436.644	783.4
437.02	776.39
437.395	793.34
437.77	820.01
438.145	810.74
438.52	824.07
438.895	800.57
439.271	801.48
439.646	823.17
440.021	830.4
440.395	857.29
440.77	843.96
441.145	836.28
441.52	860.68
441.895	867.24
442.27	876.05
442.645	886.9
443.019	870.4
443.394	905.65
443.769	894.13
444.143	888.48
444.518	909.27
444.892	902.72
445.267	893.68
445.641	909.95
446.016	919.89
446.39	935.26
446.764	946.11
447.139	938.87
447.513	903.85
447.887	943.85
448.262	939.78
448.636	916.5
449.01	973.22
449.384	958.76
449.758	992.43
450.132	971.64
450.506	989.04
450.88	994.92
451.254	997.63
451.628	1020.45
452.002	1030.17
452.376	1020.23
452.75	1038.76
453.123	1045.99
453.497	1067.46
453.871	1061.13
454.244	1075.37
454.618	1090.73
454.992	1092.09
455.365	1135.48
455.739	1104.07
456.112	1137.29
456.486	1143.16
456.859	1155.82
457.232	1160.34
457.606	1154.01
457.979	1181.13
458.352	1240.56
458.725	1245.31
459.099	1233.33
459.472	1259.54
459.845	1243.72
460.218	1262.93
460.591	1297.73
460.964	1297.96
461.337	1347.45
461.71	1349.94
462.083	1335.47
462.456	1379.99
462.829	1388.81
463.201	1428.58
463.574	1373.21
463.947	1447.56
464.32	1464.51
464.692	1450.05
465.065	1499.08
465.438	1516.49
465.81	1560.33
466.183	1567.11
466.555	1578.63
466.928	1590.16
467.3	1616.14
467.672	1639.87
468.045	1691.62
468.417	1714.67
468.789	1721
469.161	1741.56
469.534	1749.7
469.906	1815.46
470.278	1845.52
470.65	1859.98
471.022	1918.28
471.394	1920.09
471.766	1960.77
472.138	2009.13
472.51	2051.39
472.882	2113.98
473.253	2099.07
473.625	2156.47
473.997	2213.87
474.369	2196.92
474.74	2300.87
475.112	2353.53
475.484	2423.81
475.855	2462.68
476.227	2489.34
476.598	2578.15
476.97	2658.38
477.341	2734.31
477.713	2765.94
478.084	2810.46
478.455	2929.78
478.827	2956.9
479.198	3078.7
479.569	3152.15
479.94	3222.2
480.311	3298.13
480.682	3408.64
481.053	3545.36
481.424	3609.09
481.795	3659.48
482.166	3773.15
482.537	3883.2
482.908	3982.18
483.279	4063.76
483.65	4184.89
484.021	4361.16
484.391	4408.84
484.762	4518.21
485.133	4652.22
485.503	4734.93
485.874	4888.83
486.244	4998.2
486.615	5177.63
486.985	5275.71
487.356	5435.7
487.726	5526.78
488.097	5714.34
488.467	5770.16
488.837	5980.77
489.207	6156.82
489.578	6224.61
489.948	6333.08
490.318	6512.96
490.688	6634.77
491.058	6822.11
491.428	6981.65
491.798	7106.17
492.168	7343
492.538	7410.79
492.908	7621.41
493.278	7743.21
493.648	7779.15
494.017	7980.95
494.387	8139.36
494.757	8299.81
495.126	8399.02
495.496	8420.26
495.866	8628.39
496.235	8842.17
496.605	8916.97
496.974	9093.01
497.344	9177.3
497.713	9300.01
498.082	9460.46
498.452	9611.19
498.821	9674.69
499.19	9729.6
499.559	9940.67
499.928	9953.33
500.298	10160.1
500.667	10247.33
501.036	10332.07
501.405	10475.12
501.774	10570.26
502.143	10671.73
502.512	10791.5
502.88	10902
503.249	10882.57
503.618	11003.02
503.987	11157.81
504.356	11234.87
504.724	11285.27
505.093	11388.77
505.462	11506.05
505.83	11603.68
506.199	11692.94
506.567	11870.11
506.936	11871.92
507.304	11975.65
507.672	12078.92
508.041	12107.17
508.409	12226.49
508.777	12284.79
509.145	12323.43
509.514	12381.28
509.882	12436.65
510.25	12472.81
510.618	12616.31
510.986	12638.45
511.354	12728.62
511.722	12749.64
512.09	12954.83
512.458	12932.91
512.826	12964.55
513.193	13023.53
513.561	13063.3
513.929	13190.53
514.297	13253.13
514.664	13321.15
515.032	13294.03
515.4	13378.09
515.767	13437.08
516.135	13449.96
516.502	13356.63
516.869	13595.49
517.237	13672.32
517.604	13625.32
517.972	13735.37
518.339	13703.06
518.706	13697.41
519.073	13708.48
519.44	13804.52
519.808	13874.58
520.175	13788.71
520.542	13997.06
520.909	13991.41
521.276	13950.51
521.643	14047
522.009	14138.98
522.376	14175.59
522.743	14197.51
523.11	14294.45
523.477	14313.66
523.843	14368.8
524.21	14457.61
524.577	14482.7
524.943	14484.51
525.31	14509.14
525.676	14554.11
526.043	14530.15
526.409	14658.29
526.776	14782.35
527.142	14613.32
527.508	14724.95
527.874	14775.8
528.241	14766.53
528.607	14693.99
528.973	14793.65
529.339	14780.32
529.705	14817.15
530.071	14895.34
530.437	14898.28
530.803	14847.21
531.169	14849.92
531.535	14772.41
531.901	14852.63
532.267	14799.75
532.632	14833.65
532.998	14871.16
533.364	14896.02
533.73	14812.41
534.095	14882.46
534.461	14780.32
534.826	14809.7
535.192	14812.41
535.557	14844.72
535.923	14854.21
536.288	14775.35
536.653	14742.58
537.019	14635.01
537.384	14745.74
537.749	14713.2
538.114	14645.63
538.479	14593.2
538.845	14639.53
539.21	14570.38
539.575	14533.77
539.94	14475.69
540.305	14485.64
540.67	14402.7
541.034	14373.1
541.399	14424.17
541.764	14386.2
542.129	14331.52
542.494	14277.28
542.858	14253.78
543.223	14225.76
543.587	14316.37
543.952	14182.14
544.316	14167
544.681	14113.67
545.045	14144.85
545.41	14068.25
545.774	14071.64
546.138	14013.11
546.503	13952.99
546.867	13943.28
547.231	13938.08
547.595	13883.39
547.959	13913.22
548.324	13812.43
548.688	13856.5
549.052	13837.52
549.416	13748.93
549.779	13720.68
550.143	13703.28
550.507	13648.6
550.871	13748.48
551.235	13616.51
551.599	13722.49
551.962	13608.15
552.326	13601.14
552.689	13503.74
553.053	13514.59
553.417	13433.69
553.78	13611.08
554.143	13476.17
554.507	13476.85
554.87	13449.28
555.234	13480.01
555.597	13384.65
555.96	13376.74
556.323	13369.73
556.686	13378.55
557.05	13382.61
557.413	13392.11
557.776	13316.63
558.139	13352.56
558.502	13280.7
558.865	13214.03
559.228	13329.51
559.59	13327.02
559.953	13305.33
560.316	13438.88
560.679	13353.46
561.041	13400.92
561.404	13345.1
561.767	13364.08
562.129	13319.11
562.492	13500.58
562.854	13385.55
563.217	13370.86
563.579	13464.19
563.941	13449.51
564.304	13472.78
564.666	13497.87
565.028	13499.45
565.39	13466.68
565.753	13507.58
566.115	13526.34
566.477	13511.88
566.839	13501.71
567.201	13608.82
567.563	13598.65
567.925	13656.73
568.287	13613.34
568.648	13640.23
569.01	13639.33
569.372	13688.14
569.734	13664.64
570.095	13676.62
570.457	13802.26
570.819	13793.9
571.18	13719.78
571.542	13741.93
571.903	13777.63
572.265	13686.34
572.626	13746.9
572.987	13834.13
573.349	13812.89
573.71	13824.18
574.071	13811.53
574.432	13878.65
574.794	14026.44
575.155	13943.96
575.516	13870.06
575.877	13907.57
576.238	13958.19
576.599	14011.52
576.96	13949.83
577.32	14017.17
577.681	13946.44
578.042	13966.55
578.403	14009.04
578.763	14064.4
579.124	13970.17
579.485	13951.64
579.845	14082.03
580.206	14031.41
580.566	13934.69
580.927	13988.47
581.287	14023.28
581.648	14016.04
582.008	14030.51
582.368	13933.56
582.728	13951.64
583.089	13977.17
583.449	14005.2
583.809	13920.68
584.169	14021.69
584.529	13903.5
584.889	13939.44
585.249	13960.68
585.609	13840.23
585.969	13859.21
586.329	13829.83
586.688	13895.37
587.048	13881.36
587.408	13917.52
587.768	13855.6
588.127	13849.04
588.487	13819.66
588.846	13872.77
589.206	13811.3
589.565	13813.11
589.925	13922.49
590.284	13784.41
590.643	13830.06
591.003	13815.82
591.362	13928.59
591.721	13719.33
592.08	13741.93
592.44	13859.66
592.799	13796.16
593.158	13756.16
593.517	13839.33
593.876	13778.54
594.235	13774.02
594.593	13709.61
594.952	13743.96
595.311	13644.98
595.67	13776.05
596.029	13888.82
596.387	13817.86
596.746	13831.64
597.104	13701.7
597.463	13754.58
597.822	13771.98
598.18	13746.9
598.538	13706.67
598.897	13699.67
599.255	13608.37
599.613	13766.56
599.972	13769.95
600.33	13752.77
600.688	13585.32
601.046	13788.48
601.404	13667.58
601.762	13677.52
602.12	13736.05
602.478	13702.83
602.836	13736.5
603.194	13708.48
603.552	13750.74
603.91	13657.41
604.268	13786.67
604.625	13729.95
604.983	13776.95
605.341	13682.04
605.698	13861.02
606.056	13734.92
606.413	13759.33
606.771	13762.94
607.128	13747.8
607.485	13740.12
607.843	13686.79
608.2	13749.61
608.557	13803.62
608.914	13795.48
609.272	13915.48
609.629	13828.93
609.986	13876.39
610.343	13824.41
610.7	13927.68
611.057	13877.29
611.414	13805.88
611.771	13904.86
612.127	14012.88
612.484	14005.2
612.841	13927.23
613.198	13938.08
613.554	13876.84
613.911	13969.49
614.267	13943.73
614.624	13962.26
614.98	13882.94
615.337	14061.01
615.693	13963.84
616.05	14041.35
616.406	14077.74
616.762	13924.97
617.118	13991.19
617.475	13945.09
617.831	14082.03
618.187	14026.67
618.543	14116.15
618.899	14072.54
619.255	14091.07
619.611	14078.64
619.967	14168.81
620.323	14256.49
620.678	14115.25
621.034	14065.99
621.39	14111.86
621.746	14161.35
622.101	14228.24
622.457	14150.73
622.812	14172.65
623.168	14258.98
623.523	14211.07
623.879	14201.58
624.234	14049.94
624.589	14141.69
624.945	14114.57
625.3	14170.84
625.655	14071.41
626.01	14186.66
626.365	14135.59
626.72	14165.64
627.075	14112.09
627.43	14125.87
627.785	14123.61
628.14	14145.76
628.495	14185.53
628.85	14088.58
629.205	14077.06
629.559	14051.3
629.914	14108.7
630.269	14136.72
630.623	14038.19
630.978	13981.24
631.332	14135.59
631.687	14119.09
632.041	14034.8
632.396	14067.79
632.75	14000
633.104	14005.87
633.459	13928.59
633.813	13981.92
634.167	13921.58
634.521	13969.27
634.875	13905.76
635.229	13946.22
635.583	13822.6
635.937	13798.87
636.291	13773.79
636.645	13825.54
636.999	13774.69
637.352	13814.02
637.706	13702.61
638.06	13709.61
638.413	13791.42
638.767	13710.52
639.121	13754.58
639.474	13713.68
639.828	13605.43
640.181	13761.14
640.534	13752.77
640.888	13609.73
641.241	13535.6
641.594	13631.42
641.947	13653.34
642.301	13558.2
642.654	13605.43
643.007	13657.41
643.36	13580.58
643.713	13512.33
644.066	13586.45
644.419	13470.3
644.771	13431.43
645.124	13309.62
645.477	13300.13
645.83	13185.33
646.182	13138.78
646.535	13109.63
646.888	13201.83
647.24	13048.39
647.593	13149.85
647.945	13071.21
648.298	13020.59
648.65	13069.85
649.002	13002.74
649.355	13125.9
649.707	13065.33
650.059	13063.3
650.411	13194.14
650.763	13227.82
651.115	13310.75
651.467	13389.17
651.819	13320.02
652.171	13286.12
652.523	13292.9
652.875	13350.07
653.227	13301.71
653.578	13354.14
653.93	13363.86
654.282	13281.83
654.633	13376.74
654.985	13359.79
655.337	13342.62
655.688	13311.88
656.039	13393.01
656.391	13272.11
656.742	13317.08
657.094	13261.71
657.445	13281.15
657.796	13371.09
658.147	13322.28
658.498	13376.74
658.849	13392.56
659.2	13415.16
659.551	13240.92
659.902	13342.39
660.253	13287.48
660.604	13390.3
660.955	13348.72
661.306	13306.68
661.656	13361.37
662.007	13402.73
662.358	13325.89
662.708	13304.2
663.059	13366.34
663.409	13298.1
663.76	13404.76
664.11	13409.96
664.461	13306.68
664.811	13300.81
665.161	13390.98
665.511	13325.67
665.862	13331.77
666.212	13358.66
666.562	13411.99
666.912	13348.72
667.262	13350.07
667.612	13370.19
667.962	13405.66
668.312	13360.92
668.662	13435.27
669.011	13334.71
669.361	13350.3
669.711	13327.02
670.06	13275.5
670.41	13301.71
670.76	13341.49
671.109	13294.93
671.459	13297.64
671.808	13295.38
672.157	13317.31
672.507	13173.58
672.856	13169.51
673.205	13171.32
673.554	13299.9
673.904	13229.85
674.253	13323.63
674.602	13300.36
674.951	13134.71
675.3	12946.47
675.649	13278.44
675.998	13132
676.346	13136.97
676.695	13180.81
677.044	13124.54
677.393	13209.96
677.741	13210.64
678.09	13124.99
678.438	13034.83
678.787	13097.2
679.135	13062.85
679.484	12960.7
679.832	12942.4
680.181	12946.47
680.529	13076.63
680.877	12862.18
681.225	12881.38
681.573	12953.25
681.922	12960.7
682.27	12910.54
682.618	12887.26
682.966	12861.95
683.314	12866.47
683.661	12805.23
684.009	12729.07
684.357	12760.03
684.705	12703.31
685.053	12691.56
685.4	12670.09
685.748	12637.55
686.095	12612.92
686.443	12579.7
686.79	12591.67
687.138	12549.42
687.485	12595.29
687.832	12475.07
688.18	12444.79
688.527	12409.08
688.874	12353.71
689.221	12404.33
689.568	12341.51
689.915	12348.07
690.262	12271.91
690.609	12212.93
690.956	12221.97
691.303	12169.99
691.65	12096.09
691.997	12028.98
692.344	11993.27
692.69	12040.5
693.037	11958.7
693.383	11900.17
693.73	11850.68
694.077	11845.25
694.423	11834.18
694.769	11851.81
695.116	11728.42
695.462	11691.59
695.808	11657.01
696.155	11698.36
696.501	11611.36
696.847	11569.78
697.193	11534.53
697.539	11490.23
697.885	11411.82
698.231	11362.33
698.577	11401.88
698.923	11329.33
699.269	11212.73
699.614	11221.09
699.96	11177.25
700.306	11193.07
700.651	11147.64
700.997	11128.89
701.342	11045.27
701.688	11082.79
702.033	11004.6
702.379	11026.07
702.724	10959.18
703.069	11012.51
703.415	10849.57
703.76	10825.85
704.105	10849.35
704.45	10793.53
704.795	10726.86
705.14	10656.58
705.485	10642.35
705.83	10585.17
706.175	10624.27
706.52	10575
706.865	10546.76
707.209	10519.64
707.554	10444.84
707.899	10453.43
708.243	10410.94
708.588	10361.45
708.932	10347.89
709.277	10298.85
709.621	10328.46
709.966	10250.95
710.31	10257.72
710.654	10119.88
710.998	10188.57
711.342	10170.27
711.687	10124.62
712.031	10113.32
712.375	10058.63
712.719	10109.48
713.063	10024.51
713.407	10124.39
713.75	10057.05
714.094	10005.3
714.438	9981.8
714.782	9982.93
715.125	9936.15
715.469	9897.06
715.812	9889.37
716.156	9843.27
716.499	9832.88
716.843	9852.54
717.186	9808.7
717.53	9868.58
717.873	9882.37
718.216	9799.43
718.559	9809.15
718.902	9662.49
719.246	9720.34
719.589	9692.77
719.932	9664.52
720.275	9671.53
720.617	9656.16
720.96	9678.3
721.303	9623.39
721.646	9713.56
721.989	9601.02
722.331	9695.71
722.674	9598.98
723.016	9663.84
723.359	9601.7
723.701	9595.6
724.044	9567.8
724.386	9531.87
724.729	9562.15
725.071	9556.5
725.413	9503.17
725.755	9532.77
726.097	9458.2
726.439	9478.99
726.782	9462.04
727.124	9522.38
727.465	9502.49
727.807	9478.31
728.149	9459.78
728.491	9438.31
728.833	9539.55
729.175	9462.94
729.516	9454.81
729.858	9421.36
730.199	9462.72
730.541	9437.63
730.882	9384.3
731.224	9345.66
731.565	9388.14
731.906	9381.82
732.248	9335.94
732.589	9390.18
732.93	9360.57
733.271	9349.05
733.612	9385.88
733.953	9457.75
734.294	9317.18
734.635	9358.54
734.976	9420.46
735.317	9392.89
735.658	9339.33
735.999	9321.03
736.339	9337.07
736.68	9436.28
737.021	9407.58
737.361	9273.8
737.702	9394.02
738.042	9385.66
738.383	9347.24
738.723	9430.85
739.063	9422.04
739.404	9437.86
739.744	9423.4
740.084	9339.33
740.424	9441.7
740.764	9462.94
741.104	9485.77
741.444	9443.06
741.784	9455.03
742.124	9515.6
742.464	9543.17
742.804	9493.45
743.143	9489.38
743.483	9488.71
743.823	9561.7
744.162	9590.62
744.502	9605.99
744.841	9603.05
745.181	9657.97
745.52	9673.33
745.86	9749.72
746.199	9752.43
746.538	9749.26
746.877	9866.32
747.216	9820.67
747.556	9840.33
747.895	9995.58
748.234	9990.61
748.573	10055.47
748.911	10043.27
749.25	10104.51
749.589	10189.25
749.928	10245.97
750.267	10358.74
750.605	10384.95
750.944	10452.52
751.283	10591.5
751.621	10677.37
751.96	10707.88
752.298	10739.97
752.636	10913.75
752.975	10966.18
753.313	11070.81
753.651	11311.93
753.989	11292.95
754.327	11416.34
754.666	11541.08
755.004	11617.24
755.342	11853.84
755.679	11895.87
756.017	12077.11
756.355	12240.95
756.693	12258.35
757.031	12497.44
757.368	12563.2
757.706	12755.74
758.044	12972
758.381	13001.38
758.719	13206.12
759.056	13470.07
759.394	13582.61
759.731	13686.34
760.068	13837.07
760.405	13967.01
760.743	14113.22
761.08	14413.77
761.417	14452.64
761.754	14622.81
762.091	14800.2
762.428	15058.5
762.765	15085.85
763.102	15357.03
763.438	15475.21
763.775	15641.09
764.112	15885.37
764.449	16055.76
764.785	16201.75
765.122	16302.76
765.458	16436.32
765.795	16526.94
766.131	16700.49
766.467	16873.82
766.804	16978.68
767.14	17146.13
767.476	17414.82
767.812	17304.77
768.148	17660.47
768.485	17705.44
768.821	17747.7
769.157	17950.63
769.492	18114.92
769.828	18217.29
770.164	18255.25
770.5	18315.59
770.836	18535.7
771.171	18591.97
771.507	18614.34
771.842	18624.96
772.178	18776.37
772.513	18933.2
772.849	19028.79
773.184	19031.28
773.519	19212.74
773.855	19286.87
774.19	19250.93
774.525	19375.45
774.86	19407.09
775.195	19582.68
775.53	19524.6
775.865	19541.77
776.2	19553.53
776.535	19575.22
776.87	19642.56
777.205	19658.83
777.539	19680.98
777.874	19730.24
778.209	19667.65
778.543	19751.49
778.878	19858.6
779.212	19826.29
779.547	19855.44
779.881	19869.22
780.215	19932.5
780.55	19894.76
780.884	19803.69
781.218	19965.27
781.552	20002.33
781.886	19986.51
782.22	19954.42
782.554	19972.05
782.888	19801.65
783.222	19822.9
783.556	19810.02
783.889	19715.33
784.223	19741.09
784.557	19637.14
784.89	19787.19
785.224	19692.73
785.557	19657.7
785.891	19653.86
786.224	19612.73
786.558	19631.26
786.891	19438.73
787.224	19480.53
787.557	19545.84
787.891	19478.5
788.224	19553.53
788.557	19584.49
788.89	19493.41
789.223	19485.96
789.556	19399.41
789.888	19382.68
790.221	19276.47
790.554	19178.39
790.887	19247.77
791.219	19185.63
791.552	19221.33
791.884	19096.36
792.217	19018.85
792.549	19047.32
792.882	18930.04
793.214	18908.57
793.546	18910.38
793.879	18877.16
794.211	18848.46
794.543	18937.72
794.875	18821.79
795.207	18976.37
795.539	18816.6
795.871	18778.18
796.203	18626.09
796.535	18643.49
796.867	18528.24
797.198	18467
797.53	18411.63
797.862	18395.14
798.193	18436.49
798.525	18301.13
798.856	18355.82
799.188	18182.71
799.519	18222.03
799.85	18071.98
800.182	18164.64
800.513	18125.31
800.844	17875.38
801.175	18005.54
801.506	17971.65
801.837	17842.61
802.168	17975.94
802.499	17908.82
802.83	17785.89
803.161	17864.3
803.491	17873.12
803.822	17747.92
804.153	17636.74
804.483	17515.16
804.814	17479.91
805.145	17414.15
805.475	17480.59
805.805	17365.33
806.136	17383.64
806.466	17478.78
806.796	17344.77
807.126	17243.53
807.457	17238.56
807.787	17248.95
808.117	17183.42
808.447	17153.14
808.777	17082.18
809.107	17053.93
809.436	16954.95
809.766	17025.68
810.096	16960.37
810.426	16948.85
810.755	16987.27
811.085	16919.02
811.414	16815.29
811.744	16671.79
812.073	16781.17
812.403	16737.1
812.732	16624.11
813.061	16672.92
813.39	16530.1
813.719	16506.83
814.049	16642.64
814.378	16607.61
814.707	16500.27
815.036	16466.6
815.365	16316.1
815.693	16190
816.022	16373.95
816.351	16272.03
816.68	16164.46
817.008	16249.66
817.337	16125.37
817.665	16060.96
817.994	16161.98
818.322	16093.96
818.651	15905.94
818.979	16001.98
819.307	16091.47
819.636	16032.71
819.964	15893.28
820.292	15925.82
820.62	15936.45
820.948	15870.23
821.276	15875.88
821.604	15881.98
821.932	15919.95
822.259	15911.36
822.587	15884.47
822.915	15756.79
823.243	15896.67
823.57	15830.01
823.898	15784.36
824.225	15718.6
824.553	15766.73
824.88	15765.15
825.207	15916.11
825.535	15825.04
825.862	15865.49
826.189	15766.51
826.516	15878.82
826.843	15963.79
827.17	15867.52
827.497	15847.63
827.824	15829.78
828.151	15876.79
828.478	15797.47
828.805	16065.03
829.131	15954.98
829.458	15839.5
829.785	15810.12
830.111	15824.36
830.438	15976.44
830.764	15854.41
831.09	15944.58
831.417	15743.91
831.743	15802.66
832.069	15864.81
832.395	15837.92
832.722	15856
833.048	15702.33
833.374	15744.81
833.7	15723.12
834.026	15760.4
834.351	15698.49
834.677	15746.17
835.003	15802.89
835.329	15742.78
835.654	15672.05
835.98	15612.16
836.306	15708.65
836.631	15624.59
836.956	15594.76
837.282	15617.81
837.607	15567.64
837.932	15569.9
838.258	15532.84
838.583	15594.08
838.908	15487.87
839.233	15418.72
839.558	15451.03
839.883	15322.22
840.208	15345.95
840.533	15414.43
840.858	15303.69
841.182	15296.24
841.507	15274.99
841.832	15247.2
842.156	15173.98
842.481	15155.9
842.805	15168.1
843.13	15089.01
843.454	15072.06
843.778	14966.08
844.103	14988.9
844.427	14902.35
844.751	14868.45
845.075	14957.49
845.399	14862.58
845.723	14766.98
846.047	14793.2
846.371	14616.93
846.695	14622.81
847.019	14547.78
847.343	14493.32
847.666	14427.78
847.99	14339.2
848.313	14318.86
848.637	14220.56
848.96	14185.53
849.284	14226.43
849.607	14087.68
849.931	14110.96
850.254	14025.99
850.577	13909.61
850.9	13847.01
851.223	13885.2
851.546	13807.91
851.869	13616.51
852.192	13797.52
852.515	13585.77
852.838	13545.32
853.161	13540.35
853.483	13510.52
853.806	13421.26
854.129	13437.08
854.451	13273.69
854.774	13232.11
855.096	13187.37
855.419	13219.23
855.741	13211.32
856.063	13091.32
856.385	13064.43
856.708	13013.58
857.03	12980.59
857.352	13053.13
857.674	12963.87
857.996	12893.81
858.318	12815.4
858.64	12901.04
858.961	12753.25
859.283	12826.92
859.605	12723.2
859.926	12734.95
860.248	12663.31
860.57	12625.57
860.891	12680.71
861.212	12575.86
861.534	12531.34
861.855	12499.93
862.176	12529.3
862.498	12438.46
862.819	12563.43
863.14	12409.98
863.461	12334.51
863.782	12369.76
864.103	12327.05
864.424	12355.52
864.745	12321.17
865.065	12250.67
865.386	12165.7
865.707	12238.01
866.027	12277.33
866.348	12159.6
866.668	12131.57
866.989	12147.39
867.309	12150.33
867.63	12134.06
867.95	12106.94
868.27	11995.53
868.59	12027.17
868.91	12028.75
869.23	11981.3
869.55	11853.16
869.87	11919.15
870.19	11922.54
870.51	11938.81
870.83	11922.77
871.15	11848.19
871.469	11865.82
871.789	11845.48
872.109	11885.03
872.428	11766.61
872.748	11880.96
873.067	11769.32
873.386	11718.93
873.706	11704.92
874.025	11624.92
874.344	11595.99
874.663	11650.68
874.982	11671.92
875.301	11646.16
875.62	11660.63
875.939	11642.77
876.258	11653.39
876.577	11550.57
876.896	11498.82
877.214	11431.71
877.533	11471.7
877.852	11527.52
878.17	11487.97
878.489	11480.74
878.807	11438.94
879.125	11424.7
879.444	11374.08
879.762	11343.35
880.08	11365.72
880.398	11329.79
880.716	11349.22
881.034	11238.49
881.352	11288.88
881.67	11281.65
881.988	11207.08
882.306	11136.57
882.624	11142
882.941	11064.94
883.259	11112.17
883.577	11022.45
883.894	11054.54
884.212	11073.52
884.529	11025.61
884.846	10980.42
885.164	10971.38
885.481	10991.49
885.798	10854.09
886.115	10813.42
886.432	10861.78
886.75	10816.81
887.067	10821.78
887.383	10724.83
887.7	10797.15
888.017	10711.05
888.334	10743.59
888.651	10572.74
888.967	10701.55
889.284	10572.52
889.6	10526.42
889.917	10515.34
890.233	10559.41
890.55	10449.36
890.866	10513.76
891.182	10433.09
891.498	10371.85
891.815	10356.48
892.131	10308.57
892.447	10314.22
892.763	10283.94
893.079	10260.89
893.395	10196.48
893.71	10177.73
894.026	10111.74
894.342	10163.04
894.657	10017.28
894.973	10025.19
895.289	10003.72
895.604	10040.78
895.92	9928.92
896.235	9907.45
896.55	9817.96
896.865	9845.76
897.181	9798.75
897.496	9813.44
897.811	9775.48
898.126	9733.9
898.441	9689.15
898.756	9698.42
899.071	9557.63
899.386	9559.44
899.7	9507.01
900.015	9508.37
900.33	9415.71
900.644	9423.62
900.959	9420.01
901.273	9417.29
901.588	9359.9
901.902	9236.73
902.216	9254.81
902.531	9238.77
902.845	9152.44
903.159	9129.84
903.473	9098.21
903.787	9041.26
904.101	8987.7
904.415	8997.87
904.729	8959.23
905.042	8919.45
905.356	8926.46
905.67	8913.13
905.984	8871.77
906.297	8864.09
906.611	8767.59
906.924	8706.8
907.237	8740.7
907.551	8727.37
907.864	8625.68
908.177	8670.87
908.491	8646.24
908.804	8552.01
909.117	8502.74
909.43	8417.55
909.743	8398.34
910.056	8418.22
910.368	8362.41
910.681	8279.7
910.994	8323.31
911.307	8301.84
911.619	8217.1
911.932	8233.6
912.244	8097.56
912.557	8118.8
912.869	8091.45
913.181	8081.28
913.494	8004.9
913.806	8027.95
914.118	7962.87
914.43	7921.74
914.742	7982.98
915.054	7878.58
915.366	7835.64
915.678	7848.52
915.99	7811.46
916.302	7735.53
916.613	7677.23
916.925	7639.71
917.236	7673.16
917.548	7580.28
917.859	7617.57
918.171	7554.29
918.482	7477.68
918.794	7518.81
919.105	7461.64
919.416	7372.38
919.727	7401.3
920.038	7362.21
920.349	7328.76
920.66	7319.95
920.971	7286.73
921.282	7252.38
921.593	7213.74
921.903	7184.81
922.214	7188.88
922.525	7179.39
922.835	7110.24
923.146	7069.56
923.456	7090.58
923.767	7013.29
924.077	7016
924.387	6995.44
924.697	6937.81
925.008	6916.57
925.318	6843.35
925.628	6886.51
925.938	6814.43
926.248	6811.71
926.558	6743.47
926.867	6697.82
927.177	6716.57
927.487	6698.27
927.796	6620.53
928.106	6585.73
928.416	6594.32
928.725	6582.79
929.034	6464.38
929.344	6534.66
929.653	6506.18
929.962	6435.23
930.271	6425.96
930.581	6337.38
930.89	6317.04
931.199	6308
931.508	6345.29
931.817	6312.29
932.125	6317.49
932.434	6237.94
932.743	6199.3
933.051	6142.8
933.36	6137.16
933.669	6108.91
933.977	6097.83
934.286	6066.87
934.594	6064.16
934.902	6008.8
935.21	5994.11
935.519	5975.35
935.827	6007.44
936.135	5864.85
936.443	5907.56
936.751	5880.89
937.059	5842.47
937.367	5856.48
937.674	5780.55
937.982	5745.53
938.29	5714.57
938.597	5763.38
938.905	5684.96
939.213	5629.15
939.52	5637.96
939.827	5615.59
940.135	5561.58
940.442	5604.51
940.749	5562.25
941.056	5536.49
941.363	5475.7
941.67	5484.74
941.977	5457.17
942.284	5406.33
942.591	5422.82
942.898	5389.83
943.205	5374.92
943.511	5391.64
943.818	5356.16
944.125	5304.41
944.431	5337.4
944.738	5277.97
945.044	5236.61
945.35	5239.33
945.657	5203.62
945.963	5145.32
946.269	5115.71
946.575	5123.4
946.881	5092.21
947.187	5103.74
947.493	5082.49
947.799	5063.28
948.105	5028.71
948.41	4998.65
948.716	4968.37
949.022	4964.3
949.327	4906.68
949.633	4862.39
949.938	4914.59
950.244	4839.79
950.549	4850.41
950.854	4851.99
951.16	4811.31
951.465	4784.2
951.77	4786.46
952.075	4776.51
952.38	4730.64
952.685	4730.86
952.99	4627.14
953.294	4672.79
953.599	4640.7
953.904	4588.72
954.209	4584.2
954.513	4590.75
954.818	4595.27
955.122	4567.48
955.426	4446.58
955.731	4514.15
956.035	4459.01
956.339	4446.8
956.643	4476.86
956.948	4452.45
957.252	4435.05
957.556	4367.71
957.86	4357.09
958.163	4334.26
958.467	4315.06
958.771	4321.84
959.075	4275.06
959.378	4287.49
959.682	4270.09
959.985	4270.76
960.289	4224.44
960.592	4190.77
960.896	4220.14
961.199	4212.69
961.502	4177.43
961.805	4116.64
962.108	4119.81
962.411	4125.91
962.714	4055.18
963.017	4067.6
963.32	4038.68
963.623	4020.6
963.926	4025.8
964.228	4017.89
964.531	3990.09
964.833	3967.49
965.136	3935.63
965.438	3928.17
965.741	3902.41
966.043	3847.27
966.345	3834.39
966.648	3845.69
966.95	3861.96
967.252	3794.62
967.554	3796.2
967.856	3749.65
968.158	3763.43
968.46	3749.2
968.761	3719.59
969.063	3734.73
969.365	3669.2
969.666	3680.72
969.968	3663.77
970.269	3659.93
970.571	3628.75
970.872	3661.06
971.174	3575.87
971.475	3543.55
971.776	3574.28
972.077	3553.04
972.378	3542.65
972.679	3521.18
972.98	3487.28
973.281	3534.74
973.582	3508.52
973.883	3489.32
974.183	3469.2
974.484	3455.64
974.785	3417.45
975.085	3416.55
975.386	3423.1
975.686	3384.23
975.986	3383.56
976.287	3382.2
976.587	3331.13
976.887	3331.35
977.187	3300.85
977.487	3293.16
977.787	3254.74
978.087	3238.25
978.387	3271.02
978.687	3227.4
978.987	3239.38
979.286	3226.05
979.586	3188.53
979.885	3155.99
980.185	3138.59
980.484	3172.26
980.784	3154.41
981.083	3138.59
981.382	3142.21
981.682	3079.61
981.981	3109.66
982.28	3038.93
982.579	3013.85
982.878	3035.77
983.177	3034.86
983.475	2973.85
983.774	2941.53
984.073	2959.16
984.372	2962.1
984.67	2972.49
984.969	2934.75
985.267	2932.27
985.566	2922.32
985.864	2893.4
986.162	2913.06
986.461	2849.56
986.759	2872.61
987.057	2839.39
987.355	2821.54
987.653	2856.11
987.951	2797.58
988.249	2827.86
988.547	2789.22
988.844	2780.86
989.142	2724.36
989.44	2756.9
989.737	2773.4
990.035	2714.87
990.332	2700.41
990.63	2717.13
990.927	2688.88
991.224	2663.35
991.521	2645.04
991.819	2657.25
992.116	2626.51
992.413	2613.18
992.71	2620.41
993.006	2584.48
993.303	2584.03
993.6	2579.96
993.897	2555.1
994.193	2541.32
994.49	2530.02
994.787	2514.43
995.083	2480.08
995.379	2485.95
995.676	2480.98
995.972	2451.83
996.268	2437.82
996.565	2471.49
996.861	2411.38
997.157	2407.54
997.453	2410.25
997.749	2411.83
998.044	2368.67
998.34	2407.76
998.636	2345.16
998.932	2375.9
999.227	2351.04
999.523	2332.28
999.818	2346.52
1000.114	2295
1000.409	2322.79
1000.704	2276.47
1001	2258.39
1001.295	2279.4
1001.59	2239.86
1001.885	2238.5
1002.18	2217.94
1002.475	2229.46
1002.77	2234.88
1003.065	2178.62
1003.359	2190.14
1003.654	2163.7
1003.949	2134.1
1004.243	2147.43
1004.538	2106.3
1004.832	2117.83
1005.127	2058.62
1005.421	2046.64
1005.715	2071.27
1006.009	2055.91
1006.304	2042.12
1006.598	2021.33
1006.892	2036.7
1007.186	2000.54
1007.48	2033.99
1007.773	1987.89
1008.067	1987.89
1008.361	1989.69
1008.655	1931.39
1008.948	1930.49
1009.242	1941.79
1009.535	1936.36
1009.829	1910.15
1010.122	1896.36
1010.415	1873.76
1010.708	1884.61
1011.001	1869.47
1011.295	1859.98
1011.588	1813.2
1011.881	1817.95
1012.173	1824.73
1012.466	1835.57
1012.759	1836.03
1013.052	1771.62
1013.344	1791.96
1013.637	1767.33
1013.93	1752.86
1014.222	1779.53
1014.514	1734.33
1014.807	1718.06
1015.099	1729.81
1015.391	1704.5
1015.683	1718.06
1015.976	1697.72
1016.268	1696.82
1016.56	1670.38
1016.851	1656.82
1017.143	1655.46
1017.435	1632.87
1017.727	1636.93
1018.018	1607.33
1018.31	1600.55
1018.602	1602.81
1018.893	1595.35
1019.185	1583.83
1019.476	1564.17
1019.767	1534.79
1020.058	1516.03
1020.35	1538.41
1020.641	1515.81
1020.932	1513.77
1021.223	1521.01
1021.514	1492.08
1021.804	1502.02
1022.095	1453.21
1022.386	1447.33
1022.677	1458.63
1022.967	1447.11
1023.258	1428.13
1023.548	1419.09
1023.839	1404.85
1024.129	1425.19
1024.419	1387.9
1024.709	1385.19
1025	1363.95
1025.29	1372.53
1025.58	1380.9
1025.87	1351.74
1026.16	1365.98
1026.449	1347.45
1026.739	1347.9
1027.029	1294.57
1027.319	1308.13
1027.608	1279.88
1027.898	1290.73
1028.187	1273.78
1028.477	1279.2
1028.766	1254.35
1029.055	1264.74
1029.344	1245.08
1029.634	1263.61
1029.923	1242.82
1030.212	1211.63
1030.501	1222.03
1030.79	1212.76
1031.078	1200.34
1031.367	1205.76
1031.656	1194.69
1031.945	1194.91
1032.233	1181.13
1032.522	1148.81
1032.81	1145.87
1033.099	1144.74
1033.387	1134.12
1033.675	1171.18
1033.963	1118.53
1034.251	1131.64
1034.54	1107.91
1034.828	1109.49
1035.116	1078.76
1035.403	1098.42
1035.691	1073.79
1035.979	1071.07
1036.267	1072.88
1036.554	1095.25
1036.842	1045.99
1037.129	1031.75
1037.417	1029.72
1037.704	1037.4
1037.992	1011.64
1038.279	1026.55
1038.566	987.46
1038.853	987.46
1039.14	987.46
