Data from hue_22_FLMS001491_00081.txt Node
Date: Tue Feb 07 17:10:45 GMT 2017
User: dcchb
Spectrometer: FLMS00149
Trigger mode: 0
Integration Time (sec): 2.000000E-2
Scans to average: 10
Electric dark correction enabled: true
Nonlinearity correction enabled: false
Boxcar width: 0
XAxis mode: Wavelengths
Number of Pixels in Spectrum: 2048
>>>>>Begin Spectral Data<<<<<
341.393	-30.47
341.776	-30.47
342.16	-30.47
342.543	-66.85
342.927	-66.17
343.31	-81.99
343.693	-72.05
344.077	-65.49
344.46	-66.62
344.843	-51.26
345.226	-40.86
345.61	-29.34
345.993	-26.4
346.376	-7.64
346.759	22.41
347.142	36.43
347.525	37.56
347.908	57.89
348.291	81.85
348.674	94.96
349.057	110.55
349.44	118.68
349.823	136.76
350.206	185.8
350.588	195.29
350.971	220.38
351.354	224.67
351.737	259.47
352.119	265.12
352.502	234.39
352.884	289.75
353.267	284.78
353.65	280.94
354.032	279.13
354.414	313.71
354.797	317.1
355.179	314.84
355.562	314.16
355.944	327.27
356.326	343.76
356.709	336.53
357.091	333.59
357.473	353.25
357.855	350.99
358.238	346.02
358.62	346.02
359.002	342.41
359.384	362.07
359.766	346.7
360.148	352.58
360.53	361.61
360.912	352.8
361.294	337.66
361.676	339.24
362.057	346.25
362.439	327.94
362.821	331.33
363.203	342.63
363.584	326.36
363.966	325.46
364.348	325.68
364.729	311.45
365.111	334.27
365.493	325.91
365.874	334.5
366.256	336.3
366.637	304.89
367.019	330.43
367.4	328.17
367.781	332.46
368.163	321.16
368.544	306.25
368.925	328.62
369.306	333.37
369.688	324.1
370.069	321.62
370.45	319.81
370.831	310.32
371.212	321.62
371.593	316.87
371.974	316.19
372.355	299.24
372.736	318.45
373.117	333.59
373.498	329.75
373.879	313.03
374.26	329.07
374.641	308.06
375.021	314.84
375.402	330.43
375.783	321.39
376.163	344.44
376.544	354.16
376.925	335.17
377.305	336.98
377.686	351.67
378.066	343.31
378.447	336.53
378.827	323.65
379.208	338.79
379.588	345.34
379.968	328.4
380.349	327.72
380.729	342.41
381.109	340.6
381.489	355.06
381.87	370.88
382.25	370.65
382.63	327.27
383.01	361.16
383.39	356.19
383.77	360.71
384.15	356.87
384.53	357.77
384.91	355.97
385.29	366.36
385.67	348.28
386.049	380.82
386.429	369.75
386.809	373.82
387.189	369.75
387.568	361.16
387.948	351.9
388.328	360.03
388.707	358.68
389.087	359.58
389.466	393.25
389.846	365.91
390.225	373.37
390.605	374.95
390.984	370.43
391.363	371.78
391.743	374.72
392.122	368.39
392.501	372.24
392.881	397.55
393.26	369.07
393.639	398.68
394.018	388.73
394.397	395.06
394.776	402.52
395.155	398
395.534	377.66
395.913	375.17
396.292	401.16
396.671	406.13
397.05	403.42
397.429	410.88
397.808	402.07
398.186	396.42
398.565	391.22
398.944	405.23
399.323	407.72
399.701	413.36
400.08	424.66
400.458	387.6
400.837	415.4
401.215	425.57
401.594	421.95
401.972	412.91
402.351	410.65
402.729	437.32
403.107	427.83
403.486	418.34
403.864	451.33
404.242	417.43
404.62	431.67
404.999	435.74
405.377	461.73
405.755	429.64
406.133	455.17
406.511	456.3
406.889	451.78
407.267	437.09
407.645	440.71
408.023	453.82
408.401	448.39
408.779	439.58
409.156	466.7
409.534	458.34
409.912	465.57
410.29	462.18
410.667	488.62
411.045	476.87
411.422	492.68
411.8	473.7
412.178	481.39
412.555	511.67
412.933	509.63
413.31	514.61
413.687	504.89
414.065	508.28
414.442	522.97
414.819	502.18
415.197	525.23
415.574	519.35
415.951	519.58
416.328	525.9
416.705	551.89
417.082	547.15
417.46	529.52
417.837	560.48
418.214	535.85
418.591	534.27
418.967	550.08
419.344	560.03
419.721	557.09
420.098	579.91
420.475	552.8
420.852	535.62
421.228	586.02
421.605	568.84
421.982	574.94
422.358	588.5
422.735	580.14
423.111	570.42
423.488	572.91
423.864	604.32
424.241	601.83
424.617	605.45
424.994	618.33
425.37	584.43
425.746	616.52
426.123	625.56
426.499	624.21
426.875	628.95
427.251	636.86
427.627	634.83
428.003	619.46
428.379	648.61
428.756	651.32
429.132	654.71
429.507	654.71
429.883	661.95
430.259	677.99
430.635	680.93
431.011	684.77
431.387	707.82
431.763	703.98
432.138	689.06
432.514	712.11
432.89	705.56
433.265	730.42
433.641	746.92
434.016	736.52
434.392	742.17
434.767	740.81
435.143	737.42
435.518	736.75
435.894	748.72
436.269	759.8
436.644	763.41
437.02	769.97
437.395	777.88
437.77	787.59
438.145	809.29
438.52	798.44
438.895	819.91
439.271	810.64
439.646	827.59
440.021	859.68
440.395	802.96
440.77	856.74
441.145	823.75
441.52	844.99
441.895	821.26
442.27	861.71
442.645	858.32
443.019	860.36
443.394	873.24
443.769	867.82
444.143	873.47
444.518	887.02
444.892	909.85
445.267	893.58
445.641	881.38
446.016	913.69
446.39	889.96
446.764	925.89
447.139	899.23
447.513	931.09
447.887	939.9
448.262	945.1
448.636	939.23
449.01	920.92
449.384	959.34
449.758	944.2
450.132	976.06
450.506	972.67
450.88	966.57
451.254	972.9
451.628	984.65
452.002	971.77
452.376	985.33
452.75	1043.4
453.123	993.91
453.497	1028.94
453.871	1033.01
454.244	1043.86
454.618	1045.89
454.992	1068.71
455.365	1082.5
455.739	1088.83
456.112	1124.08
456.486	1119.79
456.859	1127.24
457.232	1118.66
457.606	1118.43
457.979	1153.91
458.352	1184.64
458.725	1179.9
459.099	1174.93
459.472	1206.79
459.845	1205.66
460.218	1226.45
460.591	1234.13
460.964	1209.5
461.337	1292.66
461.71	1284.3
462.083	1297.64
462.456	1296.96
462.829	1335.37
463.201	1312.1
463.574	1332.66
463.947	1335.6
464.32	1379.67
464.692	1369.72
465.065	1421.47
465.438	1385.32
465.81	1436.84
466.183	1449.5
466.555	1498.76
466.928	1496.5
467.3	1495.82
467.672	1501.92
468.045	1557.06
468.417	1575.14
468.789	1571.75
469.161	1586.67
469.534	1597.06
469.906	1643.39
470.278	1643.84
470.65	1688.36
471.022	1703.95
471.394	1743.73
471.766	1748.24
472.138	1778.75
472.51	1813.1
472.882	1832.31
473.253	1867.11
473.625	1866.43
473.997	1924.29
474.369	1955.25
474.74	1956.6
475.112	2007.22
475.484	2044.06
475.855	2069.59
476.227	2112.53
476.598	2141.68
476.97	2168.35
477.341	2209.48
477.713	2284.95
478.084	2261.45
478.455	2296.25
478.827	2347.55
479.198	2445.63
479.569	2457.83
479.94	2519.07
480.311	2532.18
480.682	2587.77
481.053	2674.32
481.424	2697.6
481.795	2746.64
482.166	2804.26
482.537	2844.26
482.908	2903.69
483.279	2891.94
483.65	2969.68
484.021	3034.09
484.391	3080.19
484.762	3105.5
485.133	3160.86
485.503	3232.73
485.874	3245.61
486.244	3335.1
486.615	3397.92
486.985	3437.01
487.356	3504.36
487.726	3522.89
488.097	3634.07
488.467	3638.14
488.837	3721.3
489.207	3790.9
489.578	3848.98
489.948	3859.6
490.318	3913.39
490.688	3966.72
491.058	4055.3
491.428	4069.99
491.798	4157
492.168	4248.29
492.538	4236.54
492.908	4331.91
493.278	4307.5
493.648	4360.38
494.017	4423.88
494.387	4495.52
494.757	4542.07
495.126	4552.47
495.496	4613.48
495.866	4650.99
496.235	4684.21
496.605	4744.32
496.974	4769.63
497.344	4780.93
497.713	4870.2
498.082	4884.43
498.452	4973.92
498.821	4965.11
499.19	5001.94
499.559	5010.31
499.928	5085.11
500.298	5082.85
500.667	5185.67
501.036	5197.19
501.405	5194.48
501.774	5268.15
502.143	5270.19
502.512	5344.08
502.88	5376.62
503.249	5343.4
503.618	5424.98
503.987	5403.74
504.356	5505.21
504.724	5504.3
505.093	5464.53
505.462	5534.36
505.83	5584.75
506.199	5626.56
506.567	5709.27
506.936	5702.49
507.304	5746.78
507.672	5786.78
508.041	5798.08
508.409	5847.57
508.777	5855.26
509.145	5932.54
509.514	5962.82
509.882	5987.91
510.25	5924.18
510.618	6017.06
510.986	6063.61
511.354	6076.72
511.722	6121.92
512.09	6226.77
512.458	6145.42
512.826	6177.73
513.193	6304.28
513.561	6215.25
513.929	6232.65
514.297	6359.42
514.664	6335.69
515.032	6396.48
515.4	6441
515.767	6478.29
516.135	6485.97
516.502	6451.85
516.869	6565.07
517.237	6578.63
517.604	6506.54
517.972	6583.6
518.339	6650.04
518.706	6637.61
519.073	6722.35
519.44	6730.03
519.808	6805.74
520.175	6745.18
520.542	6840.09
520.909	6851.61
521.276	6855.23
521.643	6933.42
522.009	6993.53
522.376	7012.74
522.743	7039.18
523.11	7079.86
523.477	7132.28
523.843	7192.4
524.21	7277.14
524.577	7316.91
524.943	7339.96
525.31	7358.94
525.676	7396.01
526.043	7455.21
526.409	7491.82
526.776	7584.48
527.142	7598.94
527.508	7598.49
527.874	7708.31
528.241	7676
528.607	7727.07
528.973	7784.92
529.339	7762.32
529.705	7852.72
530.071	7868.76
530.437	7930.46
530.803	7970
531.169	8090.23
531.535	8022.2
531.901	8100.62
532.267	8143.78
532.632	8186.72
532.998	8271.69
533.364	8271.92
533.73	8246.15
534.095	8318.02
534.461	8332.48
534.826	8432.36
535.192	8388.07
535.557	8482.98
535.923	8469.88
536.288	8494.51
536.653	8612.92
537.019	8636.43
537.384	8617.22
537.749	8698.57
538.114	8664.9
538.479	8741.96
538.845	8850.21
539.21	8725.24
539.575	8911.45
539.94	8857.21
540.305	8920.71
540.67	8931.78
541.034	8944.67
541.399	8962.74
541.764	8993.93
542.129	9007.04
542.494	9001.84
542.858	9118.45
543.223	9150.08
543.587	9188.5
543.952	9193.47
544.316	9244.77
544.681	9308.5
545.045	9352.34
545.41	9417.42
545.774	9407.48
546.138	9474.14
546.503	9470.53
546.867	9533.13
547.231	9558.89
547.595	9550.98
547.959	9637.08
548.324	9695.38
548.688	9669.39
549.052	9663.74
549.416	9762.05
549.779	9771.76
550.143	9741.26
550.507	9829.16
550.871	9858.99
551.235	9880.69
551.599	9898.09
551.962	9993.9
552.326	9920.46
552.689	9996.84
553.053	10020.34
553.417	10088.36
553.78	10191.86
554.143	10183.5
554.507	10211.07
554.87	10202.26
555.234	10354.35
555.597	10312.09
555.96	10373.1
556.323	10333.78
556.686	10339.21
557.05	10388.02
557.413	10518.41
557.776	10445.64
558.139	10491.74
558.502	10590.27
558.865	10534.91
559.228	10533.78
559.59	10717.27
559.953	10686.54
560.316	10793.43
560.679	10790.49
561.041	10863.26
561.404	10862.36
561.767	10934.67
562.129	10909.13
562.492	11013.31
562.854	11010.83
563.217	11051.5
563.579	11117.26
563.941	11129.24
564.304	11232.06
564.666	11220.99
565.028	11347.54
565.39	11233.87
565.753	11378.5
566.115	11444.94
566.477	11418.95
566.839	11508.21
567.201	11606.06
567.563	11517.93
567.925	11682.67
568.287	11660.07
568.648	11674.76
569.01	11761.09
569.372	11814.65
569.734	11776.91
570.095	11878.37
570.457	11931.48
570.819	11983.23
571.18	11954.53
571.542	12088.31
571.903	12172.38
572.265	12121.53
572.626	12272.04
572.987	12327.4
573.349	12361.3
573.71	12421.64
574.071	12375.08
574.432	12502.54
574.794	12615.3
575.155	12676.55
575.516	12654.62
575.877	12749.99
576.238	12857.33
576.599	13013.94
576.96	13016.88
577.32	13059.13
577.681	13201.05
578.042	13303.42
578.403	13305.23
578.763	13452.12
579.124	13469.29
579.485	13479.46
579.845	13840.81
580.206	13807.36
580.566	13992.67
580.927	14076.96
581.287	14235.37
581.648	14286.67
582.008	14575.25
582.368	14514.69
582.728	14810.27
583.089	14930.72
583.449	15104.05
583.809	15290.94
584.169	15440.54
584.529	15683.7
584.889	15880.53
585.249	15909
585.609	16050.69
585.969	16383.34
586.329	16541.3
586.688	16873.5
587.048	17012.02
587.408	17263.09
587.768	17402.97
588.127	17631.67
588.487	17837.09
588.846	18175.61
589.206	18374.7
589.565	18562.04
589.925	19035.7
590.284	19119.09
590.643	19527.44
591.003	19823.48
591.362	20099.85
591.721	20300.75
592.08	20654.41
592.44	20919.04
592.799	21290.1
593.158	21472.25
593.517	21785.68
593.876	22089.18
594.235	22428.83
594.593	22721.03
594.952	23016.39
595.311	23320.56
595.67	23732.53
596.029	24125.96
596.387	24409.34
596.746	24810.01
597.104	25004.58
597.463	25305.59
597.822	25682.08
598.18	25921.17
598.538	26197.32
598.897	26724.76
599.255	26750.53
599.613	27449.72
599.972	27523.16
600.33	27931.74
600.688	28145.29
601.046	28400.88
601.404	28952.73
601.762	29179.39
602.12	29642.43
602.478	29777.56
602.836	30086.26
603.194	30402.41
603.552	30652.34
603.91	30827.25
604.268	31254.81
604.625	31516.05
604.983	31835.59
605.341	32057.5
605.698	32645.29
606.056	32730.48
606.413	33082.11
606.771	33397.13
607.128	33540.86
607.485	33714.86
607.843	34027.4
608.2	34379.03
608.557	34806.81
608.914	34781.95
609.272	35319.34
609.629	35355.95
609.986	35873.45
610.343	35952.54
610.7	36363.15
611.057	36521.34
611.414	36641.11
611.771	36912.74
612.127	37220.31
612.484	37325.61
612.841	37621.65
613.198	37670.01
613.554	38024.13
613.911	38305.93
614.267	38366.94
614.624	38445.81
614.98	38860.94
615.337	39136.19
615.693	39225
616.05	39322.62
616.406	39773.46
616.762	39747.92
617.118	40024.07
617.475	40117.86
617.831	40338.87
618.187	40510.16
618.543	40636.49
618.899	40931.62
619.255	41053.65
619.611	41092.75
619.967	41322.12
620.323	41522.79
620.678	41567.09
621.034	41598.04
621.39	41700.41
621.746	41866.06
622.101	42480.73
622.457	42062.21
622.812	42241.64
623.168	42422.43
623.523	42595.53
623.879	42734.96
624.234	42479.38
624.589	42802.98
624.945	42976.09
625.3	43045.69
625.655	43114.16
626.01	43095.63
626.365	43261.5
626.72	43248.85
627.075	43373.14
627.43	43403.87
627.785	43415.85
628.14	43714.15
628.495	43710.31
628.85	43706.24
629.205	43705.56
629.559	44009.51
629.914	43784.2
630.269	43902.39
630.623	43809.96
630.978	43842.51
631.332	44053.57
631.687	44155.94
632.041	43909.4
632.396	44260.57
632.75	44014.03
633.104	44132.22
633.459	43949.4
633.813	43999.11
634.167	44028.49
634.521	44169.73
634.875	44257.41
635.229	44214.47
635.583	44099.9
635.937	44094.48
636.291	43967.25
636.645	44152.78
636.999	44113.68
637.352	44228.48
637.706	43992.78
638.06	44192.55
638.413	44150.52
638.767	44003.41
639.121	44194.81
639.474	43854.48
639.828	43954.59
640.181	44051.31
640.534	44112.78
640.888	44002.5
641.241	43907.36
641.594	44100.13
641.947	44186.68
642.301	43992.78
642.654	44008.6
643.007	43995.04
643.36	44005.44
643.713	43918.21
644.066	44171.54
644.419	43928.38
644.771	43714.37
645.124	43316.42
645.477	43247.27
645.83	43057.67
646.182	42873.27
646.535	42838.01
646.888	42975.64
647.24	42648.41
647.593	42856.32
647.945	42915.75
648.298	42684.34
648.65	42671.46
649.002	42619.26
649.355	42695.87
649.707	42729.99
650.059	42840.5
650.411	43324.78
650.763	43395.06
651.115	43779.23
651.467	43708.72
651.819	43563.87
652.171	43539.91
652.523	43555.06
652.875	43508.95
653.227	43334.95
653.578	43626.47
653.93	43421.5
654.282	43287.27
654.633	43242.52
654.985	43322.52
655.337	43406.13
655.688	43505.11
656.039	43522.74
656.391	43207.95
656.742	43297.43
657.094	43322.97
657.445	43474.38
657.796	43264.67
658.147	43259.7
658.498	43312.58
658.849	43423.08
659.2	43279.13
659.551	43193.26
659.902	43311.67
660.253	43206.59
660.604	43241.17
660.955	42975.86
661.306	43254.5
661.656	43178.34
662.007	43163.43
662.358	43257.89
662.708	43258.57
663.059	43174.5
663.409	42866.71
663.76	43150.55
664.11	43294.05
664.461	43305.34
664.811	43276.19
665.161	43185.12
665.511	43150.77
665.862	43013.6
666.212	43161.85
666.562	43229.41
666.912	43026.71
667.262	42957.56
667.612	42946.48
667.962	43056.76
668.312	43043.43
668.662	43242.3
669.011	43132.47
669.361	43023.54
669.711	42901.51
670.06	42889.08
670.41	42909.42
670.76	42835.3
671.109	42927.5
671.459	42911.91
671.808	42927.05
672.157	42995.3
672.507	42802.08
672.856	42783.55
673.205	42858.12
673.554	42963.43
673.904	42692.48
674.253	42939.48
674.602	42831.01
674.951	42201.87
675.3	41949.67
675.649	42774.74
675.998	42605.02
676.346	42555.08
676.695	42688.41
677.044	42452.71
677.393	42655.19
677.741	42664.91
678.09	42697.45
678.438	42490.9
678.787	42611.8
679.135	42582.65
679.484	42148.99
679.832	42427.4
680.181	42203.23
680.529	42303.34
680.877	42113.96
681.225	42050.01
681.573	42356.22
681.922	42065.83
682.27	42037.36
682.618	42090.01
682.966	41920.75
683.314	41954.42
683.661	41915.78
684.009	41626.74
684.357	41544.71
684.705	41657.7
685.053	41645.28
685.4	41655.44
685.748	41219.52
686.095	41411.61
686.443	41226.75
686.79	41239.18
687.138	41382.23
687.485	41275.34
687.832	41161.67
688.18	41239.41
688.527	40824.51
688.874	40967.55
689.221	40820.21
689.568	40753.55
689.915	40745.64
690.262	40621.8
690.609	40592.87
690.956	40368.47
691.303	40415.93
691.65	40222.49
691.997	40211.64
692.344	39956.51
692.69	39867.47
693.037	39980.91
693.383	39634.48
693.73	39686.68
694.077	39432.45
694.423	39521.94
694.769	39445.33
695.116	39363.75
695.462	39378.67
695.808	39150.65
696.155	39352.45
696.501	39022.07
696.847	38967.83
697.193	38616.88
697.539	38828.85
697.885	38517.9
698.231	38501.4
698.577	38395.19
698.923	38374.85
699.269	38272.26
699.614	38072.71
699.96	37940.06
700.306	37948.65
700.651	37766.06
700.997	37909.33
701.342	37805.6
701.688	37735.77
702.033	37554.31
702.379	37498.27
702.724	37420.98
703.069	37537.13
703.415	37138.95
703.76	37171.95
704.105	37165.17
704.45	36999.97
704.795	36875.23
705.14	36706.65
705.485	36646.99
705.83	36692.18
706.175	36718.4
706.52	36579.65
706.865	36348.01
707.209	36306.66
707.554	36218.75
707.899	36182.14
708.243	36012.88
708.588	35948.02
708.932	35700.12
709.277	35801.59
709.621	35818.08
709.966	35538.54
710.31	35568.15
710.654	35272.34
710.998	35434.59
711.342	35349.17
711.687	35279.11
712.031	35038.9
712.375	35057.88
712.719	35174.94
713.063	34986.69
713.407	35095.16
713.75	34861.05
714.094	34771.56
714.438	34779.92
714.782	34754.83
715.125	34492.02
715.469	34730.43
715.812	34482.3
716.156	34315.07
716.499	34352.36
716.843	34422.87
717.186	34163.44
717.53	34370.89
717.873	34285.92
718.216	34137.22
718.559	34006.38
718.902	33800.06
719.246	34064.23
719.589	33801.87
719.932	33596.22
720.275	33744.92
720.617	33495.88
720.96	33606.16
721.303	33669.44
721.646	33573.4
721.989	33303.8
722.331	33463.12
722.674	33321.88
723.016	33381.54
723.359	33246.63
723.701	33224.71
724.044	33103.13
724.386	32824.72
724.729	33162.33
725.071	32818.16
725.413	32965.05
725.755	33006.18
726.097	32859.97
726.439	32605.29
726.782	32676.47
727.124	32744.72
727.465	32598.51
727.807	32592.86
728.149	32460.21
728.491	32405.52
728.833	32363.49
729.175	32274.67
729.516	32384.73
729.858	32245.75
730.199	32275.58
730.541	32198.97
730.882	32035.81
731.224	32206.65
731.565	31962.14
731.906	31998.98
732.248	31947.68
732.589	31691.19
732.93	31758.53
733.271	31758.53
733.612	31822.71
733.953	31751.52
734.294	31623.39
734.635	31520.57
734.976	31761.47
735.317	31462.72
735.658	31438.09
735.999	31420.23
736.339	31329.61
736.68	31454.81
737.021	31478.08
737.361	31244.19
737.702	31331.65
738.042	31224.53
738.383	31192.67
738.723	31207.13
739.063	30993.13
739.404	31055.27
739.744	31074.93
740.084	30986.12
740.424	31100.69
740.764	30860.47
741.104	31077.19
741.444	30706.81
741.784	30805.56
742.124	30684.66
742.464	30612.12
742.804	30719.91
743.143	30583.87
743.483	30468.85
743.823	30388.17
744.162	30322.86
744.502	30536.19
744.841	30338.23
745.181	30443.31
745.52	30218
745.86	30278.12
746.199	30164.45
746.538	30307.49
746.877	30307.95
747.216	30338.91
747.556	30206.93
747.895	30135.97
748.234	30038.8
748.573	29985.47
748.911	29881.97
749.25	29963.32
749.589	29886.49
749.928	29920.84
750.267	29763.1
750.605	29730.33
750.944	29646.72
751.283	29553.16
751.621	29679.94
751.96	29482.21
752.298	29454.86
752.636	29512.71
752.975	29352.04
753.313	29208.77
753.651	29327.18
753.989	29163.12
754.327	29104.81
754.666	28891.94
755.004	29051.71
755.342	28936.46
755.679	28871.15
756.017	28793.86
756.355	28955.21
756.693	28687.2
757.031	28763.13
757.368	28547.09
757.706	28519.07
758.044	28473.64
758.381	28427.09
758.719	28255.34
759.056	28363.36
759.394	28330.14
759.731	28041.11
760.068	28227.1
760.405	27971.74
760.743	27796.15
761.08	27899.65
761.417	27706.88
761.754	27753.44
762.091	27810.84
762.428	27507.34
762.765	27356.39
763.102	27426.67
763.438	27454.01
763.775	27296.27
764.112	27248.59
764.449	27236.84
764.785	27184.86
765.122	26994.59
765.458	26884.53
765.795	26902.16
766.131	26789.62
766.467	26843.18
766.804	26586.24
767.14	26570.19
767.476	26403.64
767.812	26344.66
768.148	26280.93
768.485	26174.5
768.821	26139.02
769.157	26084.55
769.492	25999.13
769.828	25981.51
770.164	25749.65
770.5	25555.98
770.836	25477.34
771.171	25471.91
771.507	25457.45
771.842	25230.34
772.178	25193.28
772.513	25075.99
772.849	25097.01
773.184	24948.31
773.519	24978.14
773.855	24803.68
774.19	24760.52
774.525	24650.47
774.86	24657.7
775.195	24590.36
775.53	24513.75
775.865	24329.8
776.2	24114.66
776.535	24082.35
776.87	24047.32
777.205	23864.05
777.539	23834.44
777.874	23958.06
778.209	23596.94
778.543	23638.97
778.878	23528.46
779.212	23439.65
779.547	23345.64
779.881	23266.78
780.215	23225.19
780.55	23304.74
780.884	22977.29
781.218	23056.61
781.552	22936.61
781.886	22872.66
782.22	22772.78
782.554	22699.78
782.888	22520.35
783.222	22376.63
783.556	22274.94
783.889	22311.09
784.223	22128.27
784.557	22104.55
784.89	22162.4
785.224	22059.8
785.557	21872.01
785.891	21861.84
786.224	21725.35
786.558	21773.48
786.891	21639.25
787.224	21541.17
787.557	21441.96
787.891	21377.79
788.224	21406.71
788.557	21371.68
788.89	21265.7
789.223	21172.14
789.556	21069.32
789.888	21029.55
790.221	20922.66
790.554	20689.89
790.887	20743.9
791.219	20739.84
791.552	20605.38
791.884	20606.96
792.217	20457.81
792.549	20378.04
792.882	20249.68
793.214	20215.56
793.546	20264.37
793.879	19964.72
794.211	19912.97
794.543	19957.71
794.875	19935.11
795.207	19993.87
795.539	19881.33
795.871	19722.69
796.203	19682.69
796.535	19550.71
796.867	19571.05
797.198	19541.45
797.53	19448.12
797.862	19281.12
798.193	19319.76
798.525	19182.59
798.856	19210.38
799.188	18978.53
799.519	18968.58
799.85	18887.68
800.182	18850.85
800.513	18844.74
800.844	18612.21
801.175	18812.88
801.506	18682.71
801.837	18659.21
802.168	18557.97
802.499	18501.7
802.83	18393.23
803.161	18337.64
803.491	18366.34
803.822	18395.72
804.153	18296.28
804.483	18162.95
804.814	18084.99
805.145	18047.25
805.475	18000.7
805.805	17880.93
806.136	17918.89
806.466	17934.03
806.796	17897.2
807.126	17752.8
807.457	17708.73
807.787	17675.51
808.117	17586.25
808.447	17496.98
808.777	17537.43
809.107	17452.24
809.436	17379.47
809.766	17408.62
810.096	17300.15
810.426	17308.74
810.755	17260.38
811.085	17212.92
811.414	17171.79
811.744	16982.19
812.073	16992.36
812.403	17013.83
812.732	16979.03
813.061	16926.83
813.39	16831.69
813.719	16821.52
814.049	16852.48
814.378	16761.86
814.707	16603.22
815.036	16568.87
815.365	16602.77
815.693	16416.11
816.022	16445.49
816.351	16365.04
816.68	16253.17
817.008	16372.04
817.337	16229.9
817.665	16200.97
817.994	16209.79
818.322	16154.19
818.651	16119.39
818.979	16036.91
819.307	16096.34
819.636	16078.49
819.964	16035.78
820.292	16043.46
820.62	16050.69
820.948	15924.82
821.276	16050.47
821.604	15940.64
821.932	16039.85
822.259	15941.54
822.587	15908.32
822.915	15908.78
823.243	15872.62
823.57	15913.3
823.898	15832.62
824.225	15850.7
824.553	15911.04
824.88	15847.99
825.207	15937.7
825.535	15839.4
825.862	15904.93
826.189	15753.98
826.516	15918.72
826.843	15902.22
827.17	15854.31
827.497	15840.08
827.824	15752.17
828.151	15855.22
828.478	15828.1
828.805	15868.33
829.131	15780.64
829.458	15885.73
829.785	15674.88
830.111	15797.14
830.438	15833.52
830.764	15865.39
831.09	15788.33
831.417	15728.67
831.743	15786.29
832.069	15852.28
832.395	15691.16
832.722	15705.62
833.048	15604.6
833.374	15665.85
833.7	15615.23
834.026	15718.95
834.351	15670.14
834.677	15579.75
835.003	15693.19
835.329	15658.84
835.654	15549.24
835.98	15417.49
836.306	15571.16
836.631	15438.05
836.956	15527.32
837.282	15541.55
837.607	15495.45
837.932	15490.03
838.258	15430.37
838.583	15352.41
838.908	15310.37
839.233	15323.71
839.558	15207.33
839.883	15200.77
840.208	15137.72
840.533	15161.23
840.858	15155.8
841.182	15178.4
841.507	15154.67
841.832	15019.08
842.156	15038.74
842.481	15090.27
842.805	15003.26
843.13	15007.56
843.454	14889.59
843.778	14888.69
844.103	14813.21
844.427	14765.08
844.751	14764.4
845.075	14775.02
845.399	14719.66
845.723	14676.49
846.047	14630.84
846.371	14515.37
846.695	14519.89
847.019	14307.69
847.343	14344.3
847.666	14302.49
847.99	14224.08
848.313	14252.77
848.637	14177.07
848.96	14116.51
849.284	14076.06
849.607	13999.9
849.931	13852.79
850.254	13849.17
850.577	13778.66
850.9	13727.82
851.223	13681.04
851.546	13600.36
851.869	13511.55
852.192	13552.91
852.515	13451.67
852.838	13376.19
853.161	13415.28
853.483	13294.61
853.806	13195.85
854.129	13168.96
854.451	13201.73
854.774	13120.6
855.096	12996.31
855.419	13003.77
855.741	13011.9
856.063	12935.75
856.385	12851.23
856.708	12873.83
857.03	12859.14
857.352	12817.78
857.674	12747.96
857.996	12755.19
858.318	12680.39
858.64	12700.5
858.961	12593.84
859.283	12616.43
859.605	12510
859.926	12540.5
860.248	12493.5
860.57	12428.87
860.891	12452.14
861.212	12369.89
861.534	12278.82
861.855	12300.51
862.176	12331.02
862.498	12318.81
862.819	12296.44
863.14	12247.86
863.461	12237.69
863.782	12183.45
864.103	12145.94
864.424	12103.68
864.745	12160.4
865.065	12027.75
865.386	12020.07
865.707	12046.73
866.027	11992.95
866.348	11943.91
866.668	11997.24
866.989	11916.11
867.309	11889.45
867.63	11913.18
867.95	11860.75
868.27	11820.97
868.59	11807.19
868.91	11814.2
869.23	11799.51
869.55	11804.25
869.87	11809.45
870.19	11821.2
870.51	11740.52
870.83	11783.24
871.15	11644.71
871.469	11662.79
871.789	11720.86
872.109	11609.91
872.428	11550.02
872.748	11598.16
873.067	11559.96
873.386	11564.26
873.706	11511.38
874.025	11429.35
874.344	11467.54
874.663	11484.94
874.982	11489.68
875.301	11406.07
875.62	11373.08
875.939	11425.28
876.258	11334.21
876.577	11315.68
876.896	11363.13
877.214	11299.63
877.533	11278.84
877.852	11278.39
878.17	11296.24
878.489	11276.58
878.807	11196.13
879.125	11208.79
879.444	11260.54
879.762	11157.49
880.08	11166.53
880.398	11133.53
880.716	11121.56
881.034	11114.33
881.352	11106.64
881.67	11049.02
881.988	11072.97
882.306	10968.79
882.624	11019.19
882.941	10950.04
883.259	10871.62
883.577	10909.59
883.894	10845.18
884.212	10772.41
884.529	10804.5
884.846	10744.39
885.164	10766.54
885.481	10789.36
885.798	10749.59
886.115	10646.77
886.432	10668.01
886.75	10588.92
887.067	10598.41
887.383	10561.12
887.7	10677.5
888.017	10496.72
888.334	10564.96
888.651	10512.08
888.967	10482.7
889.284	10403.38
889.6	10457.17
889.917	10454.46
890.233	10308.92
890.55	10390.5
890.866	10348.7
891.182	10304.18
891.498	10226.44
891.815	10162.49
892.131	10170.62
892.447	10158.19
892.763	10045.2
893.079	10105.99
893.395	10002.72
893.71	10033
894.026	9963.62
894.342	9960.68
894.657	9877.3
894.973	9848.82
895.289	9883.85
895.604	9840.24
895.92	9826.68
896.235	9790.29
896.55	9718.88
896.865	9722.05
897.181	9700.13
897.496	9675.04
897.811	9546.01
898.126	9592.33
898.441	9534.25
898.756	9550.07
899.071	9430.53
899.386	9493.13
899.7	9332
900.015	9310.08
900.33	9231.44
900.644	9312.34
900.959	9325.9
901.273	9284.32
901.588	9200.93
901.902	9182.63
902.216	9123.87
902.531	9132.01
902.845	9127.94
903.159	9042.97
903.473	9009.3
903.787	8970.43
904.101	8894.5
904.415	8891.11
904.729	8837.55
905.042	8804.56
905.356	8840.71
905.67	8801.62
905.984	8863.99
906.297	8763.2
906.611	8692.47
906.924	8678.91
907.237	8685.01
907.551	8628.29
907.864	8581.96
908.177	8563.43
908.491	8490.44
908.804	8398.47
909.117	8418.8
909.43	8347.17
909.743	8363.21
910.056	8242.09
910.368	8268.53
910.681	8238.24
910.994	8309.2
911.307	8237.79
911.619	8149.43
911.932	8200.5
912.244	8042.99
912.557	8112.15
912.869	8013.17
913.181	7967.97
913.494	7967.97
913.806	7973.84
914.118	7856.56
914.43	7854.3
914.742	7819.72
915.054	7757.13
915.366	7741.76
915.678	7721.87
915.99	7637.36
916.302	7620.63
916.613	7568.66
916.925	7598.03
917.236	7536.12
917.548	7494.31
917.859	7544.48
918.171	7491.37
918.482	7401.66
918.794	7355.1
919.105	7382
919.416	7303.13
919.727	7338.83
920.038	7330.92
920.349	7261.32
920.66	7222
920.971	7194.66
921.282	7171.15
921.593	7184.49
921.903	7088.67
922.214	7076.92
922.525	7039.18
922.835	7009.58
923.146	6982.91
923.456	6887.09
923.767	6948.56
924.077	6907.43
924.387	6821.78
924.697	6823.14
925.008	6791.73
925.318	6748.34
925.628	6797.6
925.938	6729.36
926.248	6681.45
926.558	6643.03
926.867	6605.52
927.177	6572.75
927.487	6556.93
927.796	6491.4
928.106	6521.68
928.416	6464.05
928.725	6486.88
929.034	6428.12
929.344	6381.12
929.653	6416.14
929.962	6306.77
930.271	6319.2
930.581	6299.99
930.89	6264.74
931.199	6234.68
931.508	6184.51
931.817	6159.88
932.125	6175.93
932.434	6147.9
932.743	6088.92
933.051	6079.88
933.36	6036.95
933.669	5990.39
933.977	5966.21
934.286	6009.6
934.594	5985.65
934.902	5923.5
935.21	5849.15
935.519	5909.49
935.827	5847.57
936.135	5800.34
936.443	5748.37
936.751	5743.39
937.059	5757.18
937.367	5706.56
937.674	5707.01
937.982	5679.44
938.29	5681.47
938.597	5679.89
938.905	5594.47
939.213	5556.96
939.52	5505.89
939.827	5545.89
940.135	5541.82
940.442	5471.99
940.749	5493.46
941.056	5448.26
941.363	5385.89
941.67	5386.34
941.977	5392.44
942.284	5345.66
942.591	5356.29
942.898	5295.27
943.205	5269.28
943.511	5225.44
943.818	5248.04
944.125	5186.12
944.431	5149.96
944.738	5186.8
945.044	5117.87
945.35	5110.42
945.657	5111.32
945.963	5088.95
946.269	4986.58
946.575	5016.63
946.881	4985
947.187	4965.34
947.493	4971.21
947.799	4953.13
948.105	4937.54
948.41	4869.52
948.716	4853.47
949.022	4848.28
949.327	4800.59
949.633	4801.27
949.938	4825.23
950.244	4804.66
950.549	4773.48
950.854	4711.33
951.16	4701.39
951.465	4729.18
951.77	4667.49
952.075	4601.73
952.38	4654.38
952.685	4658.9
952.99	4589.3
953.294	4558.34
953.599	4549.53
953.904	4550.88
954.209	4486.93
954.513	4508.17
954.818	4513.6
955.122	4458.23
955.426	4409.19
955.731	4400.15
956.035	4391.11
956.339	4384.79
956.643	4352.47
956.948	4350.66
957.252	4334.17
957.556	4337.1
957.86	4273.6
958.163	4306.82
958.467	4256.65
958.771	4287.61
959.075	4250.55
959.378	4218.24
959.682	4175.98
959.985	4157.45
960.289	4117
960.592	4104.34
960.896	4068.18
961.199	4085.13
961.502	4037.22
961.805	4055.3
962.108	4010.78
962.411	4010.78
962.714	3990.67
963.017	3984.57
963.32	3954.51
963.623	3898.92
963.926	3887.4
964.228	3905.48
964.531	3870
964.833	3878.58
965.136	3843.11
965.438	3829.55
965.741	3814.41
966.043	3791.58
966.345	3746.38
966.648	3794.74
966.95	3768.53
967.252	3745.25
967.554	3722.66
967.856	3683.34
968.158	3667.06
968.46	3674.75
968.761	3626.84
969.063	3625.03
969.365	3601.76
969.666	3618.48
969.968	3559.04
970.269	3549.33
970.571	3498.71
970.872	3557.24
971.174	3504.13
971.475	3493.96
971.776	3500.97
972.077	3500.74
972.378	3470.23
972.679	3423.68
972.98	3426.39
973.281	3451.48
973.582	3436.34
973.883	3378.71
974.183	3383.23
974.484	3358.37
974.785	3335.1
975.085	3370.35
975.386	3342.78
975.686	3289.9
975.986	3297.36
976.287	3261.65
976.587	3244.25
976.887	3249.67
977.187	3206.29
977.487	3194.53
977.787	3187.3
978.087	3181.65
978.387	3153.18
978.687	3155.44
978.987	3201.09
979.286	3127.19
979.586	3084.48
979.885	3086.74
980.185	3094.65
980.484	3091.26
980.784	3087.87
981.083	3051.94
981.382	3014.43
981.682	3057.82
981.981	3023.47
982.28	2996.57
982.579	2975.11
982.878	2932.17
983.177	2949.57
983.475	2985.95
983.774	2918.16
984.073	2945.95
984.372	2897.59
984.67	2922.23
984.969	2886.07
985.267	2871.61
985.566	2865.05
985.864	2841.78
986.162	2838.39
986.461	2827.54
986.759	2790.48
987.057	2738.95
987.355	2787.99
987.653	2807.43
987.951	2719.97
988.249	2765.85
988.547	2708.67
988.844	2734.66
989.142	2694.21
989.44	2677.03
989.737	2667.99
990.035	2681.55
990.332	2687.88
990.63	2667.54
990.927	2635.68
991.224	2652.18
991.521	2612.18
991.819	2574.66
992.116	2562.46
992.413	2579.41
992.71	2533.99
993.006	2521.11
993.303	2512.29
993.6	2537.83
993.897	2508.68
994.193	2517.72
994.49	2448.79
994.787	2462.35
995.083	2481.11
995.379	2441.33
995.676	2425.97
995.972	2423.03
996.268	2415.12
996.565	2398.62
996.861	2351.62
997.157	2372.41
997.453	2353.2
997.749	2329.47
998.044	2294.9
998.34	2337.61
998.636	2314.78
998.932	2281.34
999.227	2280.21
999.523	2269.59
999.818	2297.16
1000.114	2279.08
1000.409	2258.74
1000.704	2222.81
1001	2192.98
1001.295	2197.72
1001.59	2188.91
1001.885	2197.27
1002.18	2190.04
1002.475	2167.44
1002.77	2113.43
1003.065	2143.04
1003.359	2149.59
1003.654	2148.91
1003.949	2105.07
1004.243	2091.29
1004.538	2100.1
1004.832	2058.07
1005.127	2045.41
1005.421	2056.03
1005.715	2046.09
1006.009	2004.51
1006.304	2030.27
1006.598	2001.12
1006.892	1987.79
1007.186	1959.54
1007.48	1977.17
1007.773	1915.47
1008.067	1942.59
1008.361	1911.63
1008.655	1915.47
1008.948	1906.66
1009.242	1910.73
1009.535	1880.67
1009.829	1861.46
1010.122	1870.5
1010.415	1905.98
1010.708	1823.27
1011.001	1856.26
1011.295	1849.94
1011.588	1810.84
1011.881	1807.23
1012.173	1790.96
1012.466	1809.94
1012.759	1770.84
1013.052	1759.32
1013.344	1751.86
1013.637	1742.14
1013.93	1718.42
1014.222	1719.32
1014.514	1720
1014.807	1722.93
1015.099	1693.11
1015.391	1696.49
1015.683	1643.84
1015.976	1641.58
1016.268	1666.44
1016.56	1652.88
1016.851	1603.16
1017.143	1606.55
1017.435	1608.81
1017.727	1625.31
1018.018	1596.61
1018.31	1589.38
1018.602	1522.49
1018.893	1553.45
1019.185	1573.11
1019.476	1536.27
1019.767	1534.69
1020.058	1558.19
1020.35	1520.23
1020.641	1514.13
1020.932	1479.78
1021.223	1501.92
1021.514	1465.31
1021.804	1485.65
1022.095	1426.45
1022.386	1464.41
1022.677	1436.61
1022.967	1447.69
1023.258	1426.45
1023.548	1419.44
1023.839	1403.17
1024.129	1374.02
1024.419	1390.74
1024.709	1367.24
1025	1339.89
1025.29	1339.89
1025.58	1348.71
1025.87	1348.93
1026.16	1318.65
1026.449	1316.17
1026.739	1312.78
1027.029	1306.45
1027.319	1319.56
1027.608	1298.31
1027.898	1289.95
1028.187	1261.93
1028.477	1268.71
1028.766	1237.52
1029.055	1255.83
1029.344	1245.21
1029.634	1239.33
1029.923	1232.1
1030.212	1211.08
1030.501	1204.98
1030.79	1172.67
1031.078	1187.58
1031.367	1185.32
1031.656	1178.09
1031.945	1164.31
1032.233	1155.27
1032.522	1175.15
1032.81	1119.56
1033.099	1107.36
1033.387	1114.59
1033.675	1115.72
1033.963	1127.7
1034.251	1111.65
1034.54	1107.58
1034.828	1080.47
1035.116	1071.2
1035.403	1073.23
1035.691	1068.04
1035.979	1068.49
1036.267	1048.83
1036.554	1038.89
1036.842	1028.72
1037.129	1048.38
1037.417	1027.81
1037.704	1022.16
1037.992	1011.99
1038.279	1032.56
1038.566	1001.82
1038.853	1001.82
1039.14	1001.82
