Data from hue_10_FLMS001491_33.txt Node
Date: Mon Feb 06 15:31:48 GMT 2017
User: dcchb
Spectrometer: FLMS00149
Trigger mode: 0
Integration Time (sec): 2.000000E-2
Scans to average: 10
Electric dark correction enabled: true
Nonlinearity correction enabled: false
Boxcar width: 0
XAxis mode: Wavelengths
Number of Pixels in Spectrum: 2048
>>>>>Begin Spectral Data<<<<<
341.393	-10.35
341.776	-10.35
342.16	-10.35
342.543	-54.19
342.927	-63.91
343.31	-53.29
343.693	-69.79
344.077	-48.09
344.46	-68.66
344.843	-49.9
345.226	-39.5
345.61	-33.63
345.993	-27.98
346.376	-6.74
346.759	-6.51
347.142	25.35
347.525	47.72
347.908	57.67
348.291	60.38
348.674	78.01
349.057	134.95
349.44	129.3
349.823	134.95
350.206	158.23
350.588	221.51
350.971	214.05
351.354	217.66
351.737	223.09
352.119	248.17
352.502	271.45
352.884	276.87
353.267	287.72
353.65	291.33
354.032	288.85
354.414	293.37
354.797	313.25
355.179	313.93
355.562	311.22
355.944	313.25
356.326	330.66
356.709	358
357.091	315.74
357.473	332.91
357.855	338.56
358.238	355.06
358.62	325.91
359.002	341.95
359.384	321.16
359.766	329.98
360.148	353.93
360.53	337.21
360.912	329.75
361.294	332.91
361.676	324.1
362.057	327.94
362.439	340.37
362.821	318.23
363.203	320.03
363.584	319.58
363.966	314.61
364.348	328.4
364.729	313.93
365.111	314.16
365.493	319.58
365.874	317.55
366.256	312.12
366.637	291.33
367.019	305.12
367.4	313.71
367.781	310.77
368.163	308.06
368.544	309.19
368.925	310.99
369.306	305.12
369.688	302.86
370.069	308.96
370.45	308.51
370.831	323.2
371.212	312.12
371.593	306.47
371.974	287.72
372.355	307.15
372.736	302.41
373.117	301.05
373.498	318.9
373.879	329.07
374.26	313.03
374.641	315.51
375.021	305.57
375.402	334.5
375.783	341.73
376.163	315.29
376.544	313.25
376.925	339.24
377.305	331.79
377.686	333.59
378.066	326.14
378.447	328.62
378.827	348.06
379.208	317.1
379.588	334.72
379.968	315.97
380.349	333.59
380.729	323.88
381.109	332.91
381.489	326.36
381.87	332.91
382.25	323.88
382.63	317.77
383.01	312.8
383.39	354.61
383.77	322.29
384.15	330.2
384.53	337.21
384.91	354.61
385.29	338.11
385.67	328.62
386.049	338.34
386.429	344.67
386.809	339.69
387.189	340.6
387.568	340.15
387.948	338.56
388.328	338.79
388.707	350.32
389.087	343.76
389.466	337.21
389.846	327.49
390.225	351.9
390.605	351.45
390.984	352.35
391.363	340.37
391.743	345.57
392.122	349.64
392.501	365.23
392.881	371.56
393.26	352.12
393.639	367.04
394.018	369.98
394.397	365
394.776	359.81
395.155	366.59
395.534	354.16
395.913	368.62
396.292	368.85
396.671	356.87
397.05	390.54
397.429	381.95
397.808	368.85
398.186	377.89
398.565	364.55
398.944	376.53
399.323	362.29
399.701	374.72
400.08	378.11
400.458	369.52
400.837	371.33
401.215	391.44
401.594	406.36
401.972	368.17
402.351	397.77
402.729	399.13
403.107	398
403.486	399.58
403.864	393.48
404.242	401.39
404.62	401.16
404.999	392.12
405.377	402.29
405.755	398.45
406.133	417.66
406.511	410.2
406.889	401.84
407.267	409.75
407.645	414.95
408.023	412.69
408.401	408.62
408.779	396.19
409.156	420.37
409.534	422.18
409.912	419.01
410.29	433.7
410.667	449.52
411.045	425.12
411.422	459.92
411.8	406.13
412.178	442.52
412.555	422.63
412.933	439.8
413.31	446.36
413.687	436.87
414.065	430.09
414.442	466.02
414.819	461.5
415.197	454.27
415.574	474.61
415.951	458.34
416.328	449.97
416.705	469.18
417.082	467.83
417.46	474.38
417.837	488.84
418.214	454.72
418.591	477.77
418.967	481.39
419.344	475.51
419.721	479.35
420.098	498.79
420.475	465.11
420.852	486.81
421.228	470.99
421.605	497.66
421.982	493.59
422.358	493.59
422.735	504.89
423.111	493.59
423.488	515.28
423.864	512.35
424.241	485.68
424.617	505.34
424.994	497.88
425.37	493.81
425.746	529.07
426.123	527.03
426.499	520.48
426.875	520.25
427.251	537.88
427.627	546.24
428.003	560.03
428.379	537.88
428.756	533.59
429.132	555.51
429.507	550.08
429.883	567.03
430.259	581.95
430.635	554.38
431.011	570.2
431.387	567.49
431.763	575.62
432.138	574.49
432.514	592.57
432.89	604.55
433.265	582.85
433.641	600.93
434.016	619.69
434.392	612.46
434.767	637.54
435.143	619.69
435.518	625.79
435.894	621.72
436.269	632.12
436.644	628.95
437.02	621.72
437.395	651.1
437.77	664.21
438.145	665.56
438.52	666.69
438.895	676.18
439.271	687.71
439.646	690.42
440.021	667.82
440.395	677.54
440.77	687.48
441.145	662.85
441.52	696.07
441.895	677.54
442.27	685.22
442.645	690.19
443.019	684.09
443.394	688.16
443.769	687.93
444.143	693.13
444.518	713.7
444.892	724.77
445.267	716.63
445.641	713.92
446.016	710.76
446.39	732.9
446.764	725.45
447.139	726.8
447.513	730.19
447.887	722.74
448.262	735.39
448.636	750.31
449.01	747.14
449.384	755.05
449.758	756.86
450.132	768.16
450.506	772.45
450.88	793.47
451.254	748.5
451.628	762.96
452.002	785.78
452.376	798.44
452.75	778.33
453.123	785.11
453.497	830.98
453.871	821.72
454.244	822.85
454.618	820.13
454.992	808.61
455.365	851.55
455.739	865.33
456.112	840.92
456.486	873.92
456.859	862.84
457.232	899.68
457.606	884.09
457.979	861.49
458.352	907.14
458.725	892.67
459.099	906.46
459.472	938.32
459.845	931.32
460.218	918.21
460.591	943.29
460.964	965.67
461.337	946.01
461.71	960.24
462.083	978.77
462.456	1004.76
462.829	992.78
463.201	985.1
463.574	1007.93
463.947	991.43
464.32	1020.58
464.692	1030.07
465.065	1044.08
465.438	1065.1
465.81	1078.43
466.183	1065.55
466.555	1102.84
466.928	1087.25
467.3	1096.06
467.672	1135.61
468.045	1143.52
468.417	1161.37
468.789	1155.49
469.161	1165.44
469.534	1194.14
469.906	1214.02
470.278	1193.91
470.65	1249.05
471.022	1251.76
471.394	1260.8
471.766	1305.54
472.138	1288.37
472.51	1325.66
472.882	1336.73
473.253	1383.51
473.625	1341.02
473.997	1383.73
474.369	1445.43
474.74	1414.69
475.112	1455.82
475.484	1444.98
475.855	1501.02
476.227	1490.62
476.598	1536.27
476.97	1556.84
477.341	1585.99
477.713	1599.55
478.084	1624.86
478.455	1676.16
478.827	1701.69
479.198	1727.91
479.569	1739.43
479.94	1795.02
480.311	1801.8
480.682	1865.3
481.053	1880.9
481.424	1892.42
481.795	1918.41
482.166	1976.71
482.537	1992.53
482.908	2046.32
483.279	2056.49
483.65	2109.14
484.021	2172.41
484.391	2199.98
484.762	2217.16
485.133	2244.5
485.503	2268.68
485.874	2320.66
486.244	2371.05
486.615	2418.96
486.985	2414.22
487.356	2511.84
487.726	2501.9
488.097	2573.53
488.467	2564.49
488.837	2628.22
489.207	2651.95
489.578	2682.01
489.948	2720.42
490.318	2762.68
490.688	2823.02
491.058	2803.81
491.428	2875.45
491.798	2906.41
492.168	2955.22
492.538	3002.45
492.908	2986.86
493.278	3062.56
493.648	3083.13
494.017	3164.48
494.387	3158.6
494.757	3166.96
495.126	3201.09
495.496	3258.26
495.866	3260.97
496.235	3300.29
496.605	3339.16
496.974	3364.47
497.344	3399.28
497.713	3422.55
498.082	3419.39
498.452	3515.2
498.821	3520.63
499.19	3528.99
499.559	3521.76
499.928	3562.43
500.298	3606.05
500.667	3618.25
501.036	3601.08
501.405	3690.34
501.774	3686.73
502.143	3691.47
502.512	3720.62
502.88	3751.36
503.249	3769.66
503.618	3758.14
503.987	3802.2
504.356	3801.07
504.724	3838.36
505.093	3851.01
505.462	3910.22
505.83	3932.14
506.199	3942.09
506.567	3995.87
506.936	3991.12
507.304	4032.93
507.672	4022.99
508.041	3998.13
508.409	4073.16
508.777	4103.89
509.145	4136.43
509.514	4115.19
509.882	4177.11
510.25	4164.68
510.618	4207.16
510.986	4155.19
511.354	4199.03
511.722	4210.78
512.09	4245.81
512.458	4239.48
512.826	4330.78
513.193	4302.08
513.561	4360.15
513.929	4356.09
514.297	4352.92
514.664	4386.37
515.032	4389.98
515.4	4460.72
515.767	4463.88
516.135	4446.93
516.502	4444.9
516.869	4488.29
517.237	4527.61
517.604	4497.33
517.972	4558.79
518.339	4571.22
518.706	4596.08
519.073	4600.6
519.44	4641.05
519.808	4645.12
520.175	4668.39
520.542	4706.81
520.909	4687.83
521.276	4705
521.643	4732.35
522.009	4748.17
522.376	4775.06
522.743	4810.54
523.11	4856.64
523.477	4902.96
523.843	4889.86
524.21	4929.4
524.577	4983.64
524.943	4944.77
525.31	4961.72
525.676	4993.13
526.043	5008.95
526.409	5028.61
526.776	5100.47
527.142	5110.42
527.508	5163.75
527.874	5243.29
528.241	5194.71
528.607	5261.37
528.973	5293.01
529.339	5287.81
529.705	5297.53
530.071	5377.08
530.437	5336.17
530.803	5378.21
531.169	5383.63
531.535	5428.37
531.901	5424.98
532.267	5441.48
532.632	5504.53
532.998	5490.97
533.364	5527.13
533.73	5552.66
534.095	5618.65
534.461	5603.74
534.826	5624.75
535.192	5669.95
535.557	5752.89
535.923	5725.77
536.288	5758.08
536.653	5762.38
537.019	5759.21
537.384	5771.42
537.749	5807.12
538.114	5821.13
538.479	5824.3
538.845	5879.66
539.21	5863.84
539.575	5871.3
539.94	5947.91
540.305	5949.49
540.67	5969.15
541.034	6013.22
541.399	6031.97
541.764	6066.78
542.129	6048.24
542.494	6084.4
542.858	6135.93
543.223	6150.84
543.587	6194.46
543.952	6231.29
544.316	6204.85
544.681	6179.54
545.045	6228.35
545.41	6311.74
545.774	6340.89
546.138	6334.57
546.503	6358.07
546.867	6342.02
547.231	6423.38
547.595	6464.73
547.959	6492.3
548.324	6475.8
548.688	6473.54
549.052	6481.68
549.416	6538.18
549.779	6505.41
550.143	6591.06
550.507	6594.9
550.871	6652.75
551.235	6673.99
551.599	6693.2
551.962	6647.78
552.326	6709.92
552.689	6761.22
553.053	6716.7
553.417	6722.13
553.78	6782.01
554.143	6773.88
554.507	6819.75
554.87	6857.26
555.234	6932.74
555.597	6891.39
555.96	6849.13
556.323	6933.87
556.686	6966.64
557.05	6974.77
557.413	7052.29
557.776	7030.82
558.139	7092.96
558.502	7059.74
558.865	7109.69
559.228	7179.51
559.59	7139.29
559.953	7178.38
560.316	7250.02
560.679	7212.51
561.041	7279.4
561.404	7243.92
561.767	7302.68
562.129	7340.87
562.492	7348.32
562.854	7363.01
563.217	7410.47
563.579	7433.97
563.941	7415.21
564.304	7549.22
564.666	7507.64
565.028	7520.07
565.39	7501.99
565.753	7624.02
566.115	7625.15
566.477	7707.86
566.839	7652.27
567.201	7781.98
567.563	7726.62
567.925	7774.53
568.287	7847.75
568.648	7826.96
569.01	7838.93
569.372	7963.22
569.734	7951.02
570.095	7980.17
570.457	7985.14
570.819	8037.35
571.18	8120.28
571.542	8112.82
571.903	8096.55
572.265	8187.62
572.626	8188.08
572.987	8189.88
573.349	8294.06
573.71	8321.18
574.071	8370.44
574.432	8421.52
574.794	8482.98
575.155	8549.65
575.516	8574.28
575.877	8631.68
576.238	8655.63
576.599	8732.24
576.96	8791.22
577.32	8870.32
577.681	8919.58
578.042	8980.6
578.403	9008.17
578.763	9160.71
579.124	9279.12
579.485	9284.32
579.845	9450.87
580.206	9457.65
580.566	9610.64
580.927	9666.23
581.287	9834.36
581.648	9876.39
582.008	10100.12
582.368	10166.33
582.728	10371.07
583.089	10359.54
583.449	10512.08
583.809	10704.62
584.169	10909.59
584.529	10950.26
584.889	11205.85
585.249	11314.77
585.609	11394.09
585.969	11687.64
586.329	11807.87
586.688	12048.54
587.048	12209.44
587.408	12438.81
587.768	12648.52
588.127	12910.21
588.487	13015.07
588.846	13320.37
589.206	13456.41
589.565	13701.6
589.925	14021.14
590.284	14182.27
590.643	14426.78
591.003	14758.3
591.362	14939.54
591.721	15178.17
592.08	15437.15
592.44	15795.33
592.799	15993.07
593.158	16231.48
593.517	16450.01
593.876	16793.95
594.235	17043.44
594.593	17263.09
594.952	17593.25
595.311	17844.77
595.67	18225.1
596.029	18617.86
596.387	18836.38
596.746	19046.77
597.104	19381.23
597.463	19574.89
597.822	19964.72
598.18	20181.88
598.538	20496.68
598.897	20897.35
599.255	20974.41
599.613	21513.15
599.972	21681.96
600.33	21999.01
600.688	22154.26
601.046	22576.62
601.404	22846.45
601.762	23144.97
602.12	23383.38
602.478	23737.05
602.836	23990.82
603.194	24146.07
603.552	24409.34
603.91	24691.6
604.268	25002.55
604.625	25202.32
604.983	25591.46
605.341	25583.78
605.698	26142.86
606.056	26214.04
606.413	26468.95
606.771	26858.09
607.128	27092.66
607.485	27304.86
607.843	27431.41
608.2	27701.23
608.557	28058.06
608.914	28109.13
609.272	28434.77
609.629	28791.83
609.986	29041.76
610.343	29082.22
610.7	29549.1
611.057	29583.45
611.414	29813.95
611.771	30045.81
612.127	30275.63
612.484	30404.67
612.841	30676.98
613.198	30766.92
613.554	30979.79
613.911	31223.63
614.267	31401.7
614.624	31586.1
614.98	31670.85
615.337	31954.91
615.693	32132.08
616.05	32221.12
616.406	32513.09
616.762	32516.7
617.118	32672.86
617.475	32899.97
617.831	33112.39
618.187	33232.61
618.543	33481.65
618.899	33704.01
619.255	33670.34
619.611	33794.18
619.967	34068.75
620.323	34094.29
620.678	34186.26
621.034	34254.28
621.39	34306.48
621.746	34451.11
622.101	34880.48
622.457	34448.85
622.812	34927.94
623.168	34998.67
623.523	35089.97
623.879	35246.12
624.234	35116.18
624.589	35393.69
624.945	35404.31
625.3	35512.55
625.655	35513.91
626.01	35599.56
626.365	35695.6
626.72	35761.14
627.075	35822.83
627.43	36027.57
627.785	35895.82
628.14	36014.24
628.495	36085.87
628.85	36249.03
629.205	36001.36
629.559	36306.21
629.914	36185.31
630.269	36368.58
630.623	36226.66
630.978	36205.19
631.332	36601.11
631.687	36558.4
632.041	36439.08
632.396	36614.45
632.75	36549.82
633.104	36585.52
633.459	36304.4
633.813	36511.4
634.167	36492.87
634.521	36535.35
634.875	36539.42
635.229	36633.2
635.583	36442.7
635.937	36554.11
636.291	36500.55
636.645	36678.85
636.999	36509.36
637.352	36652.19
637.706	36397.96
638.06	36554.56
638.413	36647.44
638.767	36585.07
639.121	36692.41
639.474	36357.73
639.828	36435.69
640.181	36634.56
640.534	36599.08
640.888	36368.13
641.241	36322.03
641.594	36496.48
641.947	36556.14
642.301	36461.68
642.654	36362.7
643.007	36347.11
643.36	36376.26
643.713	36398.18
644.066	36556.37
644.419	36336.71
644.771	36068.47
645.124	35752.32
645.477	35739.67
645.83	35619.67
646.182	35484.76
646.535	35317.31
646.888	35420.35
647.24	35219.68
647.593	35554.81
647.945	35543.74
648.298	35226.91
648.65	35121.38
649.002	35181.94
649.355	35205.22
649.707	35238.21
650.059	35415.83
650.411	35822.15
650.763	35857.18
651.115	36095.14
651.467	35923.17
651.819	36080.68
652.171	35981.92
652.523	35950.28
652.875	36060.79
653.227	35875.94
653.578	36015.14
653.93	36044.07
654.282	35890.62
654.633	35808.59
654.985	35952.54
655.337	35890.62
655.688	35837.52
656.039	35996.61
656.391	35648.6
656.742	35748.25
657.094	35678.88
657.445	35865.77
657.796	35600.91
658.147	35881.81
658.498	35818.31
658.849	35825.32
659.2	35741.48
659.551	35600.46
659.902	35743.74
660.253	35720.46
660.604	35768.82
660.955	35647.92
661.306	35778.54
661.656	35734.02
662.007	35666.9
662.358	35544.64
662.708	35609.5
663.059	35744.87
663.409	35462.39
663.76	35618.54
664.11	35646.11
664.461	35679.56
664.811	35621.03
665.161	35733.79
665.511	35653.12
665.862	35589.39
666.212	35637.75
666.562	35635.72
666.912	35526.34
667.262	35466
667.612	35515.94
667.962	35560.24
668.312	35557.53
668.662	35734.02
669.011	35491.99
669.361	35557.3
669.711	35459.67
670.06	35416.06
670.41	35300.81
670.76	35449.96
671.109	35498.09
671.459	35536.96
671.808	35407.92
672.157	35461.71
672.507	35194.15
672.856	35216.97
673.205	35221.72
673.554	35464.65
673.904	35142.17
674.253	35459
674.602	35281.83
674.951	34877.54
675.3	34689.07
675.649	35021.72
675.998	35132.68
676.346	35167.03
676.695	35184.43
677.044	34997.09
677.393	35074.6
677.741	35207.48
678.09	34983.53
678.438	34959.58
678.787	35087.48
679.135	35084.32
679.484	34865.79
679.832	34882.74
680.181	34671.22
680.529	34969.52
680.877	34795.74
681.225	34638.23
681.573	35022.4
681.922	34623.99
682.27	34588.51
682.618	34496.31
682.966	34489.53
683.314	34531.11
683.661	34438.91
684.009	34363.43
684.357	34241.63
684.705	34316.2
685.053	34369.31
685.4	34185.13
685.748	33963.22
686.095	34025.81
686.443	33889.77
686.79	33943.78
687.138	33901.52
687.485	33933.39
687.832	33800.96
688.18	33742.43
688.527	33715.31
688.874	33647.29
689.221	33658.59
689.568	33397.81
689.915	33324.14
690.262	33379.28
690.609	33301.77
690.956	33162.79
691.303	33126.63
691.65	32949.46
691.997	32997.14
692.344	32750.37
692.69	32906.07
693.037	32937.71
693.383	32607.77
693.73	32619.07
694.077	32463.37
694.423	32406.2
694.769	32276.93
695.116	32339.08
695.462	32211.85
695.808	32215.47
696.155	32265.86
696.501	31981.35
696.847	31973.44
697.193	31737.96
697.539	31822.26
697.885	31725.99
698.231	31531.87
698.577	31543.85
698.923	31445.77
699.269	31276.51
699.614	31271.54
699.96	31108.38
700.306	31133.01
700.651	31001.71
700.997	30817.76
701.342	30853.24
701.688	30747.71
702.033	30794.03
702.379	30653.02
702.724	30623.19
703.069	30610.54
703.415	30461.39
703.76	30382.75
704.105	30323.09
704.45	30238.34
704.795	30059.59
705.14	30080.83
705.485	29980.27
705.83	29884.23
706.175	29924.91
706.52	29800.16
706.865	29657.34
707.209	29758.81
707.554	29583.45
707.899	29726.27
708.243	29346.39
708.588	29438.59
708.932	29297.58
709.277	29234.3
709.621	29233.17
709.966	29103.23
710.31	28996.79
710.654	28871.37
710.998	28948.21
711.342	28994.31
711.687	28818.49
712.031	28646.52
712.375	28657.14
712.719	28635.45
713.063	28771.04
713.407	28610.59
713.75	28456.92
714.094	28548.44
714.438	28398.17
714.782	28312.52
715.125	28214.89
715.469	28277.72
715.812	28126.76
716.156	27947.78
716.499	28044.5
716.843	27947.56
717.186	27879.99
717.53	27999.08
717.873	27986.2
718.216	27921.57
718.559	27749.14
718.902	27550.96
719.246	27522.71
719.589	27558.64
719.932	27411.98
720.275	27473.44
720.617	27498.98
720.96	27398.42
721.303	27268.7
721.646	27449.26
721.989	27273.68
722.331	27333.56
722.674	27246.56
723.016	27276.61
723.359	27218.54
723.701	27185.54
724.044	26914.36
724.386	26937.64
724.729	27055.83
725.071	26886.57
725.413	26901.93
725.755	26775.16
726.097	26692.9
726.439	26648.16
726.782	26592.34
727.124	26646.12
727.465	26509.18
727.807	26534.71
728.149	26423.98
728.491	26419.01
728.833	26389.63
729.175	26369.74
729.516	26329.07
729.858	26232.12
730.199	26238
730.541	26252.46
730.882	26097.44
731.224	26216.53
731.565	26023.31
731.906	26142.18
732.248	26047.95
732.589	26057.21
732.93	25896.99
733.271	25764.11
733.612	25850.21
733.953	25909.42
734.294	25876.42
734.635	25793.26
734.976	25874.62
735.317	25600.27
735.658	25672.59
735.999	25592.59
736.339	25596.43
736.68	25653.38
737.021	25596.43
737.361	25447.06
737.702	25592.14
738.042	25458.81
738.383	25478.47
738.723	25421.29
739.063	25229.89
739.404	25403.89
739.744	25234.41
740.084	25284.12
740.424	25225.59
740.764	25154.86
741.104	25218.59
741.444	25039.38
741.784	25069.21
742.124	25137.23
742.464	24946.96
742.804	24975.43
743.143	24944.7
743.483	24956.45
743.823	24842.33
744.162	24718.94
744.502	24841.88
744.841	24688.66
745.181	24890.24
745.52	24684.59
745.86	24695.44
746.199	24661.31
746.538	24650.69
746.877	24698.83
747.216	24727.08
747.556	24500.42
747.895	24572.96
748.234	24463.81
748.573	24357.59
748.911	24408.67
749.25	24371.38
749.589	24416.8
749.928	24265.62
750.267	24386.75
750.605	24095
750.944	24138.39
751.283	24066.75
751.621	24139.52
751.96	23997.15
752.298	23943.14
752.636	23926.87
752.975	23912.86
753.313	23725.75
753.651	23984.5
753.989	23702.24
754.327	23758.06
754.666	23635.13
755.004	23700.66
755.342	23666.31
755.679	23591.74
756.017	23407.11
756.355	23491.85
756.693	23487.79
757.031	23499.31
757.368	23349.94
757.706	23431.06
758.044	23166.21
758.381	23221.13
758.719	23097.51
759.056	23157.85
759.394	23105.42
759.731	22931.42
760.068	22885.32
760.405	22918.31
760.743	22735.94
761.08	22840.57
761.417	22711.08
761.754	22668.37
762.091	22622.95
762.428	22530.52
762.765	22458.89
763.102	22517.19
763.438	22328.95
763.775	22209.4
764.112	22331.88
764.449	22335.05
764.785	22119.91
765.122	22063.19
765.458	21998.79
765.795	21947.26
766.131	21828.39
766.467	21782.97
766.804	21691.9
767.14	21595.86
767.476	21599.25
767.812	21555.86
768.148	21542.53
768.485	21414.85
768.821	21393.83
769.157	21227.51
769.492	21150.67
769.828	21115.87
770.164	21073.39
770.5	20974.63
770.836	20926.27
771.171	20806.05
771.507	20802.89
771.842	20526.96
772.178	20642.89
772.513	20521.99
772.849	20492.38
773.184	20339.17
773.519	20356.57
773.855	20242.67
774.19	20209.91
774.525	20223.24
774.86	20135.56
775.195	20030.93
775.53	20049.01
775.865	19836.13
776.2	19755.91
776.535	19661.22
776.87	19629.36
777.205	19602.92
777.539	19380.55
777.874	19530.83
778.209	19350.95
778.543	19239.76
778.878	19236.82
779.212	19112.31
779.547	19147.79
779.881	19115.92
780.215	18957.28
780.55	18957.06
780.884	18873.44
781.218	18836.16
781.552	18711.64
781.886	18675.48
782.22	18569.27
782.554	18428.71
782.888	18334.48
783.222	18305.55
783.556	18182.62
783.889	18174.71
784.223	18078.66
784.557	17931.32
784.89	18067.59
785.224	17921.15
785.557	17852.68
785.891	17781.27
786.224	17757.77
786.558	17692.46
786.891	17602.74
787.224	17487.04
787.557	17511.67
787.891	17487.27
788.224	17337.44
788.557	17372.01
788.89	17297.89
789.223	17273.49
789.556	17112.81
789.888	17011.8
790.221	17057.22
790.554	16941.07
790.887	16992.14
791.219	16837.11
791.552	16788.98
791.884	16794.4
792.217	16773.61
792.549	16684.35
792.882	16468.08
793.214	16451.14
793.546	16495.43
793.879	16358.93
794.211	16271.03
794.543	16388.09
794.875	16234.87
795.207	16227.86
795.539	16219.05
795.871	16181.09
796.203	16065.38
796.535	15811.6
796.867	15884.82
797.198	15886.86
797.53	15823.36
797.862	15771.15
798.193	15738.84
798.525	15664.04
798.856	15688.67
799.188	15392.18
799.519	15483.03
799.85	15387.66
800.182	15403.25
800.513	15360.54
800.844	15260.43
801.175	15254.78
801.506	15218.17
801.837	15082.13
802.168	15081.23
802.499	15143.6
802.83	14984.73
803.161	14939.08
803.491	14991.74
803.822	14933.44
804.153	14860.67
804.483	14714.01
804.814	14762.82
805.145	14756.72
805.475	14768.92
805.805	14583.61
806.136	14682.59
806.466	14629.94
806.796	14671.3
807.126	14394.92
807.457	14410.06
807.787	14364.18
808.117	14337.74
808.447	14335.48
808.777	14355.6
809.107	14263.17
809.436	14249.84
809.766	14178.88
810.096	14153.34
810.426	14111.76
810.755	14093.91
811.085	14071.08
811.414	14014.14
811.744	13864.54
812.073	13889.39
812.403	13860.24
812.732	13867.7
813.061	13771.88
813.39	13713.81
813.719	13637.65
814.049	13662.73
814.378	13665.22
814.707	13557.2
815.036	13591.1
815.365	13564.43
815.693	13392.01
816.022	13400.59
816.351	13377.54
816.68	13362.85
817.008	13333.25
817.337	13157.44
817.665	13238.11
817.994	13212.58
818.322	13178.68
818.651	13123.99
818.979	13078.12
819.307	13150.66
819.636	13137.78
819.964	12960.38
820.292	13051.68
820.62	13061.17
820.948	12958.12
821.276	12984.56
821.604	12988.63
821.932	13008.74
822.259	13002.64
822.587	12900.72
822.915	12916.31
823.243	12977.78
823.57	12914.96
823.898	12953.83
824.225	12934.62
824.553	12927.84
824.88	12952.24
825.207	12997.44
825.535	12908.86
825.862	12971.45
826.189	12827.28
826.516	12943.66
826.843	12944.79
827.17	12987.72
827.497	12992.92
827.824	12880.61
828.151	12985.69
828.478	12935.3
828.805	12951.57
829.131	12878.57
829.458	12801.29
829.785	12755.87
830.111	12940.27
830.438	12981.62
830.764	12873.83
831.09	12924.67
831.417	12768.52
831.743	12883.77
832.069	12825.47
832.395	12810.78
832.722	12842.42
833.048	12792.47
833.374	12808.29
833.7	12645.81
834.026	12752.48
834.351	12819.37
834.677	12715.41
835.003	12798.58
835.329	12731.91
835.654	12660.5
835.98	12611.01
836.306	12671.12
836.631	12585.93
836.956	12571.69
837.282	12690.33
837.607	12617.79
837.932	12516.1
838.258	12572.37
838.583	12559.26
838.908	12507.06
839.233	12539.37
839.558	12455.31
839.883	12458.02
840.208	12452.37
840.533	12364.01
840.858	12289.21
841.182	12274.52
841.507	12289.44
841.832	12237.69
842.156	12255.31
842.481	12250.57
842.805	12213.96
843.13	12222.32
843.454	12171.93
843.778	12077.24
844.103	12061.87
844.427	12077.92
844.751	12087.86
845.075	12055.09
845.399	11975.09
845.723	11878.15
846.047	11914.08
846.371	11831.82
846.695	11865.27
847.019	11724.03
847.343	11691.03
847.666	11591.83
847.99	11591.15
848.313	11639.96
848.637	11471.61
848.96	11496.92
849.284	11399.52
849.607	11400.65
849.931	11312.74
850.254	11270.03
850.577	11161.56
850.9	11186.64
851.223	11121.78
851.546	11115
851.869	10964.73
852.192	11093.76
852.515	10995.46
852.838	10927.44
853.161	10870.94
853.483	10826.65
853.806	10778.06
854.129	10793.88
854.451	10777.16
854.774	10695.13
855.096	10546.43
855.419	10634.11
855.741	10626.88
856.063	10587.33
856.385	10590.27
856.708	10539.2
857.03	10497.39
857.352	10510.5
857.674	10442.93
857.996	10399.99
858.318	10320
858.64	10379.66
858.961	10324.52
859.283	10252.2
859.605	10187.8
859.926	10305.76
860.248	10155.93
860.57	10113.22
860.891	10174.69
861.212	10122.71
861.534	10125.88
861.855	10023.28
862.176	10113.22
862.498	10091.08
862.819	10118.42
863.14	9946
863.461	9965.2
863.782	9871.65
864.103	10008.14
864.424	9857.86
864.745	9900.12
865.065	9898.99
865.386	9792.33
865.707	9791.2
866.027	9812.89
866.348	9781.25
866.668	9849.73
866.989	9784.64
867.309	9697.64
867.63	9712.1
867.95	9716.62
868.27	9607.47
868.59	9725.21
868.91	9607.25
869.23	9636.63
869.55	9606.8
869.87	9561.82
870.19	9588.72
870.51	9616.51
870.83	9530.41
871.15	9525.67
871.469	9492.22
871.789	9494.71
872.109	9555.05
872.428	9503.75
872.748	9509.17
873.067	9501.26
873.386	9453.81
873.706	9449.29
874.025	9432.11
874.344	9363.64
874.663	9403.64
874.982	9363.86
875.301	9343.53
875.62	9343.75
875.939	9299.91
876.258	9317.76
876.577	9298.55
876.896	9274.83
877.214	9173.36
877.533	9250.42
877.852	9222.4
878.17	9256.75
878.489	9209.07
878.807	9214.94
879.125	9220.82
879.444	9156.86
879.762	9115.51
880.08	9064.89
880.398	8997.77
880.716	9035.29
881.034	9073.02
881.352	9060.14
881.67	8964.55
881.988	8997.09
882.306	8935.4
882.624	8990.99
882.941	8896.98
883.259	8866.93
883.577	8835.74
883.894	8849.53
884.212	8788.96
884.529	8801.62
884.846	8817.21
885.164	8754.61
885.481	8789.42
885.798	8805.69
886.115	8722.52
886.432	8715.29
886.75	8699.7
887.067	8677.1
887.383	8666.71
887.7	8671.9
888.017	8562.76
888.334	8560.5
888.651	8578.8
888.967	8524.79
889.284	8471.91
889.6	8491.12
889.917	8464
890.233	8440.95
890.55	8384.45
890.866	8446.6
891.182	8398.01
891.498	8373.16
891.815	8366.38
892.131	8243.22
892.447	8308.75
892.763	8259.26
893.079	8226.94
893.395	8202.99
893.71	8196.44
894.026	8148.08
894.342	8121.41
894.657	8056.33
894.973	8055.65
895.289	8064.24
895.604	8071.92
895.92	7998.25
896.235	7949.89
896.55	7965.71
896.865	7891.36
897.181	7911.7
897.496	7915.99
897.811	7869.21
898.126	7826.05
898.441	7822.89
898.756	7751.25
899.071	7796.9
899.386	7753.06
899.7	7710.8
900.015	7680.07
900.33	7542.67
900.644	7565.27
900.959	7631.03
901.273	7515.78
901.588	7470.81
901.902	7555.1
902.216	7474.65
902.531	7444.37
902.845	7372.73
903.159	7359.62
903.473	7362.79
903.787	7366.63
904.101	7266.74
904.415	7306.74
904.729	7295.9
905.042	7238.72
905.356	7205.95
905.67	7183.36
905.984	7179.51
906.297	7188.55
906.611	7134.77
906.924	7063.81
907.237	7036.24
907.551	7026.52
907.864	6990.59
908.177	7016.36
908.491	6965.96
908.804	6941.55
909.117	6898.17
909.43	6893.42
909.743	6845.51
910.056	6813.87
910.368	6777.72
910.681	6751.5
910.994	6691.84
911.307	6762.58
911.619	6657.04
911.932	6660.88
912.244	6580.89
912.557	6580.89
912.869	6545.63
913.181	6497.05
913.494	6538.63
913.806	6516.26
914.118	6452.08
914.43	6460.44
914.742	6440.78
915.054	6401.91
915.366	6378.41
915.678	6297.28
915.99	6316.71
916.302	6268.35
916.613	6215.92
916.925	6171.18
917.236	6224.29
917.548	6147.45
917.859	6170.95
918.171	6121.01
918.482	6086.89
918.794	6081.69
919.105	6090.5
919.416	6020.68
919.727	6020.45
920.038	5952.43
920.349	5926.21
920.66	5913.33
920.971	5905.88
921.282	5860.45
921.593	5840.11
921.903	5780.91
922.214	5727.35
922.525	5731.42
922.835	5727.8
923.146	5718.31
923.456	5645.77
923.767	5686.9
924.077	5683.51
924.387	5629.27
924.697	5637.86
925.008	5567.81
925.318	5567.13
925.628	5526.68
925.938	5540.24
926.248	5494.14
926.558	5438.09
926.867	5489.62
927.177	5436.96
927.487	5360.58
927.796	5351.54
928.106	5340.92
928.416	5281.03
928.725	5357.19
929.034	5273.12
929.344	5268.15
929.653	5213.01
929.962	5208.72
930.271	5200.36
930.581	5156.52
930.89	5099.34
931.199	5098.67
931.508	5107.7
931.817	5103.86
932.125	5037.2
932.434	5062.73
932.743	5033.81
933.051	4989.74
933.36	4957.43
933.669	4942.06
933.977	4911.55
934.286	4923.75
934.594	4907.03
934.902	4840.14
935.21	4864.32
935.519	4847.37
935.827	4878.78
936.135	4752.01
936.443	4770.31
936.751	4762.85
937.059	4756.3
937.367	4672.69
937.674	4696.19
937.982	4693.93
938.29	4632.46
938.597	4627.94
938.905	4591.33
939.213	4579.81
939.52	4561.96
939.827	4590.88
940.135	4546.14
940.442	4514.05
940.749	4491.9
941.056	4518.34
941.363	4479.02
941.67	4472.02
941.977	4427.5
942.284	4399.7
942.591	4357.89
942.898	4347.95
943.205	4346.14
943.511	4341.62
943.818	4308.63
944.125	4292.58
944.431	4271.57
944.738	4220.27
945.044	4240.16
945.35	4192.25
945.657	4141.63
945.963	4227.73
946.269	4177.79
946.575	4186.82
946.881	4133.27
947.187	4128.52
947.493	4035.87
947.799	4079.94
948.105	4054.17
948.41	4007.85
948.716	4046.72
949.022	4017.11
949.327	4008.07
949.633	3972.14
949.938	3942.54
950.244	3963.55
950.549	3929.2
950.854	3933.5
951.16	3912.48
951.465	3875.19
951.77	3905.7
952.075	3861.18
952.38	3789.55
952.685	3844.46
952.99	3777.34
953.294	3767.4
953.599	3766.5
953.904	3732.15
954.209	3721.75
954.513	3771.92
954.818	3735.99
955.122	3705.48
955.426	3638.36
955.731	3676.1
956.035	3669.1
956.339	3631.81
956.643	3631.81
956.948	3593.17
957.252	3563.56
957.556	3579.38
957.86	3529.67
958.163	3512.27
958.467	3491.02
958.771	3522.21
959.075	3485.15
959.378	3472.95
959.682	3436.34
959.985	3461.42
960.289	3402.89
960.592	3418.94
960.896	3404.02
961.199	3378.26
961.502	3383.46
961.805	3349.33
962.108	3314.31
962.411	3314.76
962.714	3253.29
963.017	3296.68
963.32	3274.31
963.623	3258.49
963.926	3256.68
964.228	3237.25
964.531	3227.08
964.833	3190.47
965.136	3184.14
965.438	3171.48
965.741	3198.38
966.043	3158.6
966.345	3139.62
966.648	3140.75
966.95	3114.76
967.252	3114.54
967.554	3092.62
967.856	3073.41
968.158	3022.79
968.46	3073.18
968.761	3011.94
969.063	3009.45
969.365	3007.87
969.666	2983.69
969.968	2944.6
970.269	2997.93
970.571	2937.37
970.872	2949.8
971.174	2928.33
971.475	2922.9
971.776	2912.51
972.077	2900.53
972.378	2914.77
972.679	2891.27
972.98	2823.92
973.281	2882.68
973.582	2839.97
973.883	2808.56
974.183	2815.34
974.484	2784.15
974.785	2788.9
975.085	2753.64
975.386	2787.09
975.686	2741.67
975.986	2735.34
976.287	2734.43
976.587	2697.82
976.887	2706.64
977.187	2688.33
977.487	2680.65
977.787	2679.07
978.087	2691.72
978.387	2635.45
978.687	2621.44
978.987	2618.96
979.286	2649.24
979.586	2597.04
979.885	2619.86
980.185	2541.44
980.484	2579.64
980.784	2557.04
981.083	2560.43
981.382	2529.69
981.682	2503.48
981.981	2503.93
982.28	2497.15
982.579	2492.18
982.878	2464.16
983.177	2453.54
983.475	2444.72
983.774	2448.11
984.073	2431.39
984.372	2416.02
984.67	2452.86
984.969	2420.09
985.267	2378.28
985.566	2377.61
985.864	2406.31
986.162	2385.74
986.461	2374.44
986.759	2315.46
987.057	2327.66
987.355	2336.48
987.653	2332.86
987.951	2297.84
988.249	2286.99
988.547	2270.04
988.844	2270.94
989.142	2252.41
989.44	2263.71
989.737	2211.96
990.035	2233.88
990.332	2249.93
990.63	2209.48
990.927	2192.98
991.224	2181.68
991.521	2197.72
991.819	2180.78
992.116	2161.34
992.413	2168.57
992.71	2136.48
993.006	2123.15
993.303	2114.56
993.6	2134.68
993.897	2076.15
994.193	2083.6
994.49	2073.43
994.787	2079.08
995.083	2044.96
995.379	2061.91
995.676	2064.62
995.972	2041.34
996.268	2024.85
996.565	2005.19
996.861	2009.48
997.157	2018.97
997.453	1954.34
997.749	1954.57
998.044	1961.8
998.34	1947.79
998.636	1956.83
998.932	1941.69
999.227	1902.59
999.523	1884.74
999.818	1914.12
1000.114	1894.91
1000.409	1925.64
1000.704	1853.55
1001	1869.37
1001.295	1855.36
1001.59	1863.95
1001.885	1823.72
1002.18	1818.98
1002.475	1840.67
1002.77	1804.51
1003.065	1793.89
1003.359	1810.62
1003.654	1805.42
1003.949	1769.94
1004.243	1818.3
1004.538	1756.83
1004.832	1754.57
1005.127	1743.95
1005.421	1723.84
1005.715	1707.34
1006.009	1716.16
1006.304	1691.52
1006.598	1675.25
1006.892	1675.93
1007.186	1702.82
1007.48	1691.75
1007.773	1664.63
1008.067	1665.76
1008.361	1626.44
1008.655	1622.15
1008.948	1611.3
1009.242	1608.59
1009.535	1615.37
1009.829	1576.95
1010.122	1574.01
1010.415	1561.36
1010.708	1553.67
1011.001	1554.35
1011.295	1554.13
1011.588	1534.01
1011.881	1550.51
1012.173	1557.52
1012.466	1523.17
1012.759	1488.36
1013.052	1526.56
1013.344	1492.66
1013.637	1494.01
1013.93	1473.9
1014.222	1480.46
1014.514	1451.08
1014.807	1470.74
1015.099	1440.68
1015.391	1450.85
1015.683	1444.52
1015.976	1398.2
1016.268	1400.01
1016.56	1379.89
1016.851	1407.91
1017.143	1377.18
1017.435	1369.95
1017.727	1381.47
1018.018	1359.1
1018.31	1355.94
1018.602	1327.47
1018.893	1351.19
1019.185	1341.02
1019.476	1311.65
1019.767	1294.02
1020.058	1302.16
1020.35	1295.38
1020.641	1296.05
1020.932	1274.36
1021.223	1268.94
1021.514	1251.76
1021.804	1257.41
1022.095	1239.56
1022.386	1238.2
1022.677	1227.13
1022.967	1222.84
1023.258	1233
1023.548	1240.69
1023.839	1199.33
1024.129	1205.89
1024.419	1197.07
1024.709	1186.23
1025	1145.77
1025.29	1181.93
1025.58	1173.12
1025.87	1153.23
1026.16	1117.75
1026.449	1128.37
1026.739	1131.99
1027.029	1121.82
1027.319	1159.33
1027.608	1111.88
1027.898	1121.14
1028.187	1089.73
1028.477	1094.02
1028.766	1091.31
1029.055	1047.47
1029.344	1080.92
1029.634	1040.02
1029.923	1062.84
1030.212	1065.1
1030.501	1030.75
1030.79	1023.29
1031.078	1053.8
1031.367	998.21
1031.656	1039.56
1031.945	1019
1032.233	993.91
1032.522	1004.54
1032.81	988.26
1033.099	1015.83
1033.387	973.35
1033.675	958.66
1033.963	946.01
1034.251	957.76
1034.54	980.13
1034.828	940.58
1035.116	940.81
1035.403	931.09
1035.691	940.81
1035.979	904.88
1036.267	924.99
1036.554	906.46
1036.842	870.08
1037.129	917.08
1037.417	889.74
1037.704	877.53
1037.992	892
1038.279	874.37
1038.566	872.79
1038.853	872.79
1039.14	872.79
