Data from hue_140_FLMS001491_00083.txt Node
Date: Tue Feb 07 16:56:31 GMT 2017
User: dcchb
Spectrometer: FLMS00149
Trigger mode: 0
Integration Time (sec): 2.000000E-2
Scans to average: 10
Electric dark correction enabled: true
Nonlinearity correction enabled: false
Boxcar width: 0
XAxis mode: Wavelengths
Number of Pixels in Spectrum: 2048
>>>>>Begin Spectral Data<<<<<
341.393	-21.12
341.776	-21.12
342.16	-21.12
342.543	-70.38
342.927	-75.8
343.31	-65.63
343.693	-97.5
344.077	-50.04
344.46	-59.53
344.843	-47.1
345.226	-57.05
345.61	-22.25
345.993	-29.7
346.376	-16.37
346.759	8.94
347.142	18.66
347.525	50.75
347.908	67.92
348.291	74.25
348.674	114.25
349.057	110.41
349.44	108.82
349.823	157.86
350.206	158.09
350.588	172.78
350.971	209.39
351.354	221.59
351.737	237.41
352.119	255.04
352.502	273.57
352.884	257.97
353.267	279.67
353.65	282.38
354.032	300.91
354.414	297.29
354.797	313.34
355.179	324.64
355.562	293.45
355.944	306.33
356.326	347.46
356.709	329.61
357.091	327.12
357.473	334.13
357.855	325.77
358.238	337.07
358.62	340.68
359.002	341.14
359.384	329.61
359.766	359.67
360.148	343.17
360.53	325.99
360.912	330.97
361.294	344.3
361.676	338.42
362.057	334.81
362.439	349.5
362.821	330.06
363.203	321.7
363.584	323.51
363.966	342.04
364.348	309.95
364.729	303.17
365.111	311.08
365.493	304.3
365.874	315.83
366.256	315.83
366.637	300.68
367.019	311.31
367.4	296.62
367.781	311.31
368.163	308.82
368.544	315.83
368.925	302.04
369.306	317.18
369.688	282.38
370.069	310.4
370.45	299.55
370.831	309.95
371.212	320.34
371.593	321.93
371.974	300.91
372.355	304.98
372.736	311.98
373.117	302.94
373.498	331.64
373.879	318.54
374.26	318.31
374.641	298.65
375.021	281.7
375.402	322.38
375.783	318.08
376.163	309.5
376.544	313.11
376.925	315.83
377.305	329.84
377.686	313.57
378.066	293.45
378.447	336.16
378.827	329.16
379.208	298.88
379.588	309.27
379.968	319.89
380.349	342.72
380.729	332.77
381.109	327.8
381.489	323.06
381.87	322.38
382.25	317.18
382.63	316.05
383.01	338.65
383.39	339.78
383.77	334.13
384.15	351.76
384.53	331.19
384.91	342.94
385.29	344.98
385.67	320.57
386.049	326.9
386.429	326.67
386.809	344.98
387.189	328.03
387.568	334.13
387.948	374.58
388.328	346.56
388.707	366.67
389.087	368.03
389.466	354.24
389.846	371.42
390.225	363.51
390.605	345.65
390.984	356.5
391.363	342.27
391.743	362.15
392.122	383.39
392.501	355.37
392.881	388.82
393.26	358.76
393.639	371.19
394.018	379.55
394.397	360.57
394.776	374.58
395.155	384.75
395.534	366.45
395.913	363.28
396.292	389.5
396.671	378.87
397.05	375.71
397.429	380.91
397.808	373.9
398.186	381.81
398.565	376.61
398.944	397.4
399.323	376.61
399.701	385.65
400.08	406.22
400.458	403.05
400.837	395.14
401.215	395.14
401.594	391.3
401.972	405.09
402.351	398.53
402.729	399.66
403.107	400.34
403.486	403.51
403.864	412.77
404.242	400.57
404.62	405.31
404.999	405.77
405.377	395.82
405.755	425.88
406.133	413.22
406.511	421.58
406.889	421.58
407.267	434.92
407.645	432.88
408.023	421.36
408.401	417.07
408.779	434.24
409.156	441.25
409.534	442.38
409.912	423.62
410.29	449.38
410.667	436.05
411.045	468.14
411.422	439.66
411.8	455.71
412.178	466.56
412.555	466.33
412.933	469.27
413.31	464.07
413.687	464.52
414.065	458.19
414.442	458.65
414.819	448.48
415.197	471.75
415.574	497.29
415.951	480.57
416.328	506.55
416.705	503.39
417.082	469.27
417.46	478.76
417.837	523.96
418.214	496.61
418.591	492.32
418.967	493.67
419.344	514.69
419.721	494.35
420.098	522.37
420.475	516.95
420.852	518.08
421.228	495.48
421.605	504.29
421.982	520.34
422.358	512.88
422.735	528.02
423.111	532.32
423.488	542.94
423.864	520.11
424.241	534.8
424.617	546.55
424.994	531.86
425.37	556.04
425.746	554.01
426.123	572.99
426.499	559.43
426.875	575.03
427.251	582.26
427.627	573.22
428.003	572.09
428.379	580.68
428.756	568.7
429.132	603.28
429.507	595.14
429.883	602.15
430.259	616.16
430.635	619.55
431.011	613.67
431.387	614.12
431.763	634.01
432.138	628.59
432.514	656.61
432.89	643.27
433.265	653.22
433.641	644.18
434.016	660.22
434.392	646.44
434.767	710.39
435.143	677.85
435.518	676.49
435.894	688.7
436.269	670.17
436.644	689.6
437.02	691.63
437.395	715.14
437.77	703.39
438.145	737.28
438.52	712.65
438.895	708.81
439.271	733.44
439.646	734.8
440.021	747.23
440.395	739.54
440.77	767.56
441.145	749.71
441.52	766.43
441.895	756.04
442.27	774.57
442.645	763.5
443.019	788.13
443.394	798.75
443.769	787.23
444.143	801.01
444.518	827.68
444.892	796.04
445.267	811.18
445.641	812.99
446.016	815.7
446.39	837.17
446.764	836.49
447.139	824.51
447.513	834.68
447.887	849.82
448.262	845.75
448.636	870.84
449.01	871.74
449.384	847.79
449.758	859.54
450.132	904.74
450.506	868.8
450.88	889.37
451.254	928.46
451.628	916.49
452.002	893.44
452.376	907
452.75	940.22
453.123	926.88
453.497	950.38
453.871	951.29
454.244	968.01
454.618	988.8
454.992	995.81
455.365	998.29
455.739	995.13
456.112	1019.08
456.486	1005.3
456.859	1046.88
457.232	1064.28
457.606	1048.01
457.979	1079.42
458.352	1108.8
458.725	1091.4
459.099	1074.45
459.472	1111.74
459.845	1142.92
460.218	1136.37
460.591	1163.71
460.964	1148.35
461.337	1201.9
461.71	1216.37
462.083	1203.03
462.456	1229.02
462.829	1228.57
463.201	1239.64
463.574	1250.72
463.947	1276.93
464.32	1298.85
464.692	1344.95
465.065	1342.24
465.438	1346.08
465.81	1413.65
466.183	1424.72
466.555	1399.64
466.928	1431.05
467.3	1448.68
467.672	1469.69
468.045	1506.53
468.417	1512.86
468.789	1515.12
469.161	1560.31
469.534	1574.77
469.906	1611.16
470.278	1616.81
470.65	1687.77
471.022	1704.04
471.394	1738.84
471.766	1743.81
472.138	1817.93
472.51	1819.74
472.882	1893.18
473.253	1899.51
473.625	1964.14
473.997	1999.17
474.369	2045.05
474.74	2040.53
475.112	2086.17
475.484	2162.33
475.855	2194.87
476.227	2266.28
476.598	2332.72
476.97	2371.82
477.341	2435.77
477.713	2481.42
478.084	2533.62
478.455	2637.8
478.827	2718.7
479.198	2756.89
479.569	2787.85
479.94	2922.54
480.311	2942.87
480.682	3054.51
481.053	3155.52
481.424	3264
481.795	3295.63
482.166	3408.17
482.537	3441.84
482.908	3614.95
483.279	3651.33
483.65	3763.87
484.021	3886.35
484.391	3994.37
484.762	4067.36
485.133	4106.46
485.503	4264.42
485.874	4396.4
486.244	4494.47
486.615	4597.07
486.985	4754.35
487.356	4909.38
487.726	5002.48
488.097	5124.06
488.467	5154.12
488.837	5320.67
489.207	5502.13
489.578	5580.32
489.948	5708.68
490.318	5848.56
490.688	5940.99
491.058	6067.09
491.428	6263.01
491.798	6369
492.168	6551.59
492.538	6600.63
492.908	6756.33
493.278	6891.7
493.648	6985.93
494.017	7145.7
494.387	7252.14
494.757	7348.63
495.126	7562.87
495.496	7554.73
495.866	7763.54
496.235	7860.71
496.605	8006.02
496.974	8050.08
497.344	8182.28
497.713	8267.48
498.082	8391.54
498.452	8534.82
498.821	8616.85
499.19	8657.53
499.559	8826.56
499.928	8905.66
500.298	9038.08
500.667	9170.96
501.036	9216.61
501.405	9343.38
501.774	9376.83
502.143	9520.55
502.512	9538.18
502.88	9718.06
503.249	9729.59
503.618	9779.08
503.987	9862.92
504.356	9961.45
504.724	10011.39
505.093	10095.23
505.462	10159.18
505.83	10237.82
506.199	10305.17
506.567	10525.95
506.936	10455.45
507.304	10589.45
507.672	10600.75
508.041	10701.77
508.409	10730.69
508.777	10841.88
509.145	10988.31
509.514	10938.82
509.882	11001.65
510.25	11017.01
510.618	11115.32
510.986	11222.43
511.354	11236.22
511.722	11380.17
512.09	11412.48
512.458	11310.11
512.826	11359.83
513.193	11473.27
513.561	11512.37
513.929	11558.24
514.297	11652.93
514.664	11680.95
515.032	11778.57
515.4	11724.56
515.767	11778.12
516.135	11839.36
516.502	11806.14
516.869	11955.29
517.237	12005.69
517.604	11860.38
517.972	12017.66
518.339	11936.76
518.706	12060.6
519.073	12092.69
519.44	12088.85
519.808	12127.72
520.175	12172.69
520.542	12321.39
520.909	12293.14
521.276	12316.41
521.643	12371.1
522.009	12395.28
522.376	12425.34
522.743	12459.01
523.11	12501.72
523.477	12551.44
523.843	12634.82
524.21	12683.86
524.577	12690.19
524.943	12653.81
525.31	12653.81
525.676	12763.63
526.043	12770.86
526.409	12780.58
526.776	12863.97
527.142	12865.33
527.508	12800.02
527.874	12931.99
528.241	12906.45
528.607	12835.72
528.973	12973.8
529.339	12918.21
529.705	12964.76
530.071	12948.49
530.437	12962.95
530.803	13044.08
531.169	13018.77
531.535	12874.82
531.901	12914.59
532.267	12940.8
532.632	13023.97
532.998	12931.76
533.364	13006.11
533.73	12895.83
534.095	12994.59
534.461	12925.21
534.826	12917.3
535.192	12917.75
535.557	12993.68
535.923	12840.24
536.288	12822.84
536.653	12869.39
537.019	12767.93
537.384	12760.02
537.749	12766.57
538.114	12724.31
538.479	12631.21
538.845	12696.52
539.21	12687.93
539.575	12629.4
539.94	12632.34
540.305	12614.71
540.67	12576.07
541.034	12638.44
541.399	12536.97
541.764	12540.59
542.129	12479.8
542.494	12397.54
542.858	12392.8
543.223	12355.51
543.587	12369.75
543.952	12347.15
544.316	12307.15
544.681	12231.67
545.045	12284.55
545.41	12237.09
545.774	12153.25
546.138	12182.18
546.503	12112.8
546.867	12106.48
547.231	12105.35
547.595	12092.46
547.959	12135.85
548.324	11964.56
548.688	11942.86
549.052	11948.06
549.416	11904.9
549.779	11957.55
550.143	11838.91
550.507	11881.62
550.871	11850.66
551.235	11779.7
551.599	11811.12
551.962	11744.9
552.326	11707.84
552.689	11757.78
553.053	11682.76
553.417	11635.53
553.78	11719.37
554.143	11633.95
554.507	11587.17
554.87	11689.99
555.234	11635.98
555.597	11452.93
555.96	11508.07
556.323	11504.68
556.686	11553.72
557.05	11652.02
557.413	11547.85
557.776	11495.64
558.139	11616.77
558.502	11491.12
558.865	11434.18
559.228	11512.59
559.59	11512.59
559.953	11483.22
560.316	11601.18
560.679	11521.18
561.041	11492.93
561.404	11510.78
561.767	11557.34
562.129	11456.55
562.492	11554.17
562.854	11631.01
563.217	11518.24
563.579	11501.29
563.941	11629.88
564.304	11567.05
564.666	11645.92
565.028	11542.65
565.39	11600.05
565.753	11649.31
566.115	11645.02
566.477	11628.07
566.839	11607.96
567.201	11683.21
567.563	11612.25
567.925	11701.29
568.287	11622.87
568.648	11588.97
569.01	11690.89
569.372	11639.14
569.734	11663.55
570.095	11715.3
570.457	11745.36
570.819	11724.11
571.18	11750.1
571.542	11812.25
571.903	11837.78
572.265	11839.82
572.626	11873.26
572.987	11797.33
573.349	11870.55
573.71	11853.6
574.071	11817.44
574.432	11837.56
574.794	11969.3
575.155	11860.83
575.516	11848.4
575.877	11886.14
576.238	11935.86
576.599	11875.75
576.96	11894.5
577.32	11889.08
577.681	11904.45
578.042	11900.83
578.403	11869.19
578.763	11931.56
579.124	11900.38
579.485	11922.53
579.845	11948.97
580.206	12052.01
580.566	11870.1
580.927	11898.35
581.287	11950.1
581.648	11865.8
582.008	12028.96
582.368	11972.24
582.728	11988.96
583.089	11947.38
583.449	11997.1
583.809	11936.99
584.169	11885.01
584.529	11909.19
584.889	11880.72
585.249	11813.83
585.609	11862.64
585.969	11913.49
586.329	11835.3
586.688	11846.6
587.048	11800.95
587.408	11763.89
587.768	11843.21
588.127	11833.26
588.487	11809.53
588.846	11800.04
589.206	11726.6
589.565	11783.09
589.925	11767.95
590.284	11774.73
590.643	11812.02
591.003	11707.16
591.362	11845.69
591.721	11725.92
592.08	11766.6
592.44	11731.12
592.799	11752.81
593.158	11773.6
593.517	11759.37
593.876	11779.93
594.235	11732.47
594.593	11650.22
594.952	11682.53
595.311	11658.13
595.67	11694.06
596.029	11760.5
596.387	11745.81
596.746	11797.56
597.104	11648.63
597.463	11631.69
597.822	11696.54
598.18	11600.05
598.538	11647.28
598.897	11668.75
599.255	11576.77
599.613	11744.68
599.972	11704.9
600.33	11683.66
600.688	11553.04
601.046	11705.36
601.404	11741.51
601.762	11749.42
602.12	11784.22
602.478	11644.34
602.836	11716.66
603.194	11641.18
603.552	11699.71
603.91	11632.59
604.268	11694.28
604.625	11640.05
604.983	11681.85
605.341	11629.88
605.698	11721.17
606.056	11676.43
606.413	11681.4
606.771	11739.25
607.128	11755.98
607.485	11670.55
607.843	11659.93
608.2	11686.83
608.557	11795.52
608.914	11706.49
609.272	11791
609.629	11770.44
609.986	11820.61
610.343	11762.08
610.7	11795.3
611.057	11774.96
611.414	11754.62
611.771	11786.03
612.127	11835.07
612.484	11825.8
612.841	11878.23
613.198	11781.29
613.554	11797.56
613.911	11830.78
614.267	11850.21
614.624	11873.71
614.98	11831.68
615.337	11870.55
615.693	11835.07
616.05	11813.6
616.406	11935.41
616.762	11869.65
617.118	11938.57
617.475	11896.99
617.831	11934.05
618.187	11912.13
618.543	11977.21
618.899	12000.26
619.255	11847.73
619.611	11964.78
619.967	12014.73
620.323	11928.18
620.678	11956.87
621.034	11966.82
621.39	11975.18
621.746	11952.36
622.101	12038.91
622.457	11941.28
622.812	12046.82
623.168	12052.69
623.523	12049.3
623.879	12049.53
624.234	12037.1
624.589	12023.54
624.945	11986.93
625.3	12047.27
625.655	11961.17
626.01	12019.47
626.365	12061.05
626.72	12037.55
627.075	11977.44
627.43	12014.05
627.785	11956.42
628.14	12054.05
628.495	11987.83
628.85	11936.99
629.205	12006.14
629.559	12011.56
629.914	11955.74
630.269	11971.79
630.623	11916.65
630.978	11955.74
631.332	11991.22
631.687	11960.94
632.041	11886.14
632.396	11922.07
632.75	11850.44
633.104	11906.93
633.459	11854.28
633.813	11836.2
634.167	11774.96
634.521	11772.02
634.875	11811.34
635.229	11741.74
635.583	11825.13
635.937	11755.98
636.291	11746.71
636.645	11772.47
636.999	11675.75
637.352	11738.35
637.706	11656.54
638.06	11680.72
638.413	11748.97
638.767	11602.08
639.121	11635.08
639.474	11650.44
639.828	11592.59
640.181	11505.81
640.534	11617.22
640.888	11501.75
641.241	11527.96
641.594	11487.51
641.947	11527.96
642.301	11546.04
642.654	11574.96
643.007	11520.5
643.36	11529.99
643.713	11491.12
644.066	11589.88
644.419	11397.12
644.771	11423.33
645.124	11305.37
645.477	11254.75
645.83	11167.29
646.182	11204.13
646.535	11127.29
646.888	11134.75
647.24	11070.12
647.593	11109.89
647.945	11092.72
648.298	11056.79
648.65	11016.33
649.002	11029.89
649.355	11141.98
649.707	11135.65
650.059	11165.94
650.411	11259.72
650.763	11321.19
651.115	11407.06
651.467	11383.1
651.819	11402.54
652.171	11434.4
652.523	11339.04
652.875	11323.9
653.227	11305.14
653.578	11392.14
653.93	11300.62
654.282	11334.97
654.633	11382.88
654.985	11322.99
655.337	11322.09
655.688	11251.36
656.039	11331.58
656.391	11257.23
656.742	11384.69
657.094	11332.94
657.445	11377
657.796	11339.49
658.147	11342.88
658.498	11328.87
658.849	11336.1
659.2	11366.16
659.551	11393.73
659.902	11420.17
660.253	11322.09
660.604	11342.65
660.955	11312.37
661.306	11308.08
661.656	11413.84
662.007	11338.13
662.358	11348.76
662.708	11347.4
663.059	11286.38
663.409	11368.87
663.76	11426.72
664.11	11427.85
664.461	11351.69
664.811	11437.57
665.161	11317.8
665.511	11410
665.862	11436.66
666.212	11395.31
666.562	11335.2
666.912	11444.12
667.262	11403.9
667.612	11374.74
667.962	11454.97
668.312	11387.85
668.662	11479.37
669.011	11450.67
669.361	11450.45
669.711	11344.91
670.06	11383.78
670.41	11348.98
670.76	11358.25
671.109	11372.71
671.459	11295.88
671.808	11381.97
672.157	11302.43
672.507	11212.94
672.856	11249.32
673.205	11220.17
673.554	11355.76
673.904	11305.82
674.253	11345.59
674.602	11288.19
674.951	11152.83
675.3	11033.28
675.649	11218.36
675.998	11252.94
676.346	11185.6
676.695	11205.93
677.044	11092.04
677.393	11121.42
677.741	11168.65
678.09	11139.04
678.438	11085.71
678.787	11157.57
679.135	11129.1
679.484	11074.41
679.832	11135.43
680.181	11065.37
680.529	11106.95
680.877	11028.09
681.225	11011.81
681.573	11060.63
681.922	10988.54
682.27	11001.19
682.618	10936.56
682.966	10893.85
683.314	10917.58
683.661	10914.87
684.009	10852.72
684.357	10866.51
684.705	10817.02
685.053	10765.95
685.4	10788.32
685.748	10806.17
686.095	10797.13
686.443	10671.26
686.79	10653.86
687.138	10702.67
687.485	10726.62
687.832	10695.89
688.18	10675.55
688.527	10577.25
688.874	10565.95
689.221	10590.36
689.568	10410.02
689.915	10426.75
690.262	10498.61
690.609	10404.6
690.956	10372.28
691.303	10365.5
691.65	10308.1
691.997	10210.03
692.344	10248.67
692.69	10218.62
693.037	10180.2
693.383	10028.34
693.73	10191.5
694.077	10065.4
694.423	10032.86
694.769	10021.56
695.116	9952.63
695.462	9999.86
695.808	9847.55
696.155	9961.22
696.501	9802.58
696.847	9871.28
697.193	9802.81
697.539	9843.48
697.885	9723.26
698.231	9716.03
698.577	9615.47
698.923	9671.51
699.269	9661.12
699.614	9550.16
699.96	9490.27
700.306	9485.53
700.651	9408.24
700.997	9449.6
701.342	9399.65
701.688	9412.76
702.033	9285.31
702.379	9317.4
702.724	9277.85
703.069	9333.67
703.415	9220.22
703.76	9171.86
704.105	9126.89
704.45	9137.74
704.795	9086.22
705.14	9042.38
705.485	9073.11
705.83	9013.68
706.175	9046.44
706.52	8931.19
706.865	8940.68
707.209	8933.9
707.554	8902.49
707.899	8912.66
708.243	8825.21
708.588	8855.04
708.932	8738.43
709.277	8742.95
709.621	8707.47
709.966	8724.87
710.31	8686.68
710.654	8620.01
710.998	8686
711.342	8589.96
711.687	8601.26
712.031	8624.76
712.375	8533.01
712.719	8568.49
713.063	8515.16
713.407	8601.71
713.75	8497.53
714.094	8562.61
714.438	8483.29
714.782	8491.66
715.125	8416.85
715.469	8414.82
715.812	8433.58
716.156	8331.21
716.499	8350.87
716.843	8407.14
717.186	8265.45
717.53	8388.16
717.873	8345.9
718.216	8309.29
718.559	8228.61
718.902	8257.09
719.246	8270.87
719.589	8248.72
719.932	8229.97
720.275	8198.56
720.617	8125.34
720.96	8156.3
721.303	8135.51
721.646	8154.04
721.989	8136.41
722.331	8178.9
722.674	8173.25
723.016	8100.93
723.359	8178.67
723.701	8125.34
724.044	8064.77
724.386	8102.74
724.729	8152.91
725.071	8126.69
725.413	8105.45
725.755	8095.28
726.097	8110.65
726.439	8006.02
726.782	8097.09
727.124	8078.33
727.465	8088.95
727.807	8071.33
728.149	8038.33
728.491	7998.11
728.833	8062.06
729.175	8057.99
729.516	7987.71
729.858	7976.87
730.199	8047.6
730.541	8003.31
730.882	7956.75
731.224	8035.62
731.565	7998.56
731.906	8019.8
732.248	8012.57
732.589	7952.46
732.93	7949.3
733.271	8043.08
733.612	7942.29
733.953	7973.25
734.294	7947.94
734.635	7961.73
734.976	7987.49
735.317	7964.66
735.658	7898
735.999	7890.99
736.339	7943.65
736.68	7984.32
737.021	7979.13
737.361	7952.23
737.702	8051.44
738.042	8049.86
738.383	7945.91
738.723	7985.23
739.063	7981.61
739.404	8050.31
739.744	8005.34
740.084	7984.55
740.424	8150.87
740.764	7991.1
741.104	8094.6
741.444	8031.1
741.784	8024.1
742.124	8100.25
742.464	8059.35
742.804	8076.75
743.143	8130.08
743.483	8142.06
743.823	8173.7
744.162	8122.85
744.502	8168.05
744.841	8204.21
745.181	8317.87
745.52	8321.94
745.86	8301.38
746.199	8411.43
746.538	8426.57
746.877	8509.28
747.216	8475.16
747.556	8512.67
747.895	8535.27
748.234	8576.4
748.573	8639.22
748.911	8671.54
749.25	8742.95
749.589	8757.64
749.928	8844.87
750.267	8993.56
750.605	9021.36
750.944	9030.4
751.283	9081.7
751.621	9229.26
751.96	9287.79
752.298	9415.7
752.636	9445.08
752.975	9481.23
753.313	9657.73
753.651	9708.8
753.989	9847.33
754.327	9885.06
754.666	9934.33
755.004	10136.58
755.342	10199.86
755.679	10338.39
756.017	10491.15
756.355	10580.41
756.693	10781.09
757.031	10878.03
757.368	10988.09
757.706	11048.65
758.044	11195.99
758.381	11332.03
758.719	11508.53
759.056	11715.98
759.394	11861.74
759.731	11901.28
760.068	12033.03
760.405	12146.7
760.743	12333.59
761.08	12543.75
761.417	12725.22
761.754	12852.67
762.091	12950.75
762.428	13221.47
762.765	13253.79
763.102	13559.09
763.438	13614.91
763.775	13751.63
764.112	13921.79
764.449	14084.28
764.785	14327.43
765.122	14373.99
765.458	14459.18
765.795	14642.91
766.131	14797.25
766.467	14878.61
766.804	15117.02
767.14	15154.08
767.476	15259.61
767.812	15381.64
768.148	15579.6
768.485	15638.13
768.821	15703.22
769.157	15851.24
769.492	16014.85
769.828	16136.2
770.164	16085.35
770.5	16234.28
770.836	16492.12
771.171	16471.78
771.507	16576.64
771.842	16499.81
772.178	16739.12
772.513	16888.04
772.849	16826.58
773.184	16886.46
773.519	17015.95
773.855	17151.77
774.19	17130.07
774.525	17196.74
774.86	17305.43
775.195	17485.09
775.53	17438.54
775.865	17452.1
776.2	17385.21
776.535	17445.09
776.87	17523.06
777.205	17665.65
777.539	17605.99
777.874	17684.86
778.209	17614.35
778.543	17719.89
778.878	17671.75
779.212	17802.14
779.547	17683.05
779.881	17782.26
780.215	17783.16
780.55	17822.48
780.884	17766.89
781.218	17788.36
781.552	17904.29
781.886	17853.22
782.22	17810.28
782.554	17750.39
782.888	17704.97
783.222	17656.84
783.556	17631.75
783.889	17728.7
784.223	17655.71
784.557	17635.14
784.89	17778.19
785.224	17695.93
785.557	17546.56
785.891	17624.07
786.224	17600.57
786.558	17641.92
786.891	17580
787.224	17478.31
787.557	17452.32
787.891	17483.28
788.224	17397.18
788.557	17567.35
788.89	17508.82
789.223	17521.93
789.556	17469.27
789.888	17428.6
790.221	17374.13
790.554	17287.13
790.887	17296.62
791.219	17266.79
791.552	17234.25
791.884	17209.84
792.217	17131.65
792.549	17194.25
792.882	17017.98
793.214	17071.32
793.546	17025.22
793.879	16956.52
794.211	16914.26
794.543	17047.59
794.875	16975.27
795.207	16954.71
795.539	16803.98
795.871	16916.97
796.203	16814.83
796.535	16625.68
796.867	16680.37
797.198	16657.54
797.53	16703.87
797.862	16496.87
798.193	16612.12
798.525	16439.69
798.856	16488.73
799.188	16340.49
799.519	16360.83
799.85	16163.09
800.182	16274.28
800.513	16279.7
800.844	16156.54
801.175	16274.05
801.506	16257.55
801.837	16111.12
802.168	16180.27
802.499	16112.92
802.83	15992.47
803.161	15969.42
803.491	15985.47
803.822	15931.23
804.153	15958.8
804.483	15818.47
804.814	15810.33
805.145	15719.04
805.475	15755.87
805.805	15703.89
806.136	15656.66
806.466	15652.6
806.796	15622.54
807.126	15550.23
807.457	15508.19
807.787	15517.69
808.117	15441.75
808.447	15393.39
808.777	15457.8
809.107	15343.68
809.436	15319.72
809.766	15279.73
810.096	15256
810.426	15175.55
810.755	15281.99
811.085	15170.58
811.414	15073.86
811.744	15081.09
812.073	15027.3
812.403	14984.37
812.732	14985.72
813.061	14929.68
813.39	14947.08
813.719	14801.77
814.049	14917.25
814.378	14827.53
814.707	14798.61
815.036	14760.42
815.365	14709.34
815.693	14649.23
816.022	14624.6
816.351	14562.46
816.68	14570.59
817.008	14534.43
817.337	14418.28
817.665	14451.27
817.994	14471.61
818.322	14447.2
818.651	14331.5
818.979	14303.25
819.307	14456.7
819.636	14351.39
819.964	14325.63
820.292	14418.28
820.62	14333.54
820.948	14334.21
821.276	14305.97
821.604	14275.23
821.932	14274.55
822.259	14311.16
822.587	14215.57
822.915	14247.66
823.243	14267.1
823.57	14271.39
823.898	14282.24
824.225	14189.36
824.553	14185.06
824.88	14242.92
825.207	14281.79
825.535	14255.57
825.862	14245.63
826.189	14295.57
826.516	14284.05
826.843	14344.16
827.17	14329.92
827.497	14292.63
827.824	14343.03
828.151	14374.44
828.478	14246.31
828.805	14378.96
829.131	14307.1
829.458	14246.31
829.785	14261
830.111	14265.74
830.438	14301.9
830.764	14204.73
831.09	14311.84
831.417	14203.14
831.743	14336.02
832.069	14272.29
832.395	14282.92
832.722	14226.19
833.048	14195.01
833.374	14191.17
833.7	14197.72
834.026	14191.39
834.351	14191.84
834.677	14108.23
835.003	14201.11
835.329	14163.6
835.654	14143.71
835.98	14105.74
836.306	14110.04
836.631	14100.1
836.956	14107.78
837.282	14100.77
837.607	14134.44
837.932	14028.91
838.258	14026.42
838.583	14056.03
838.908	13846.32
839.233	13892.87
839.558	13868.46
839.883	13858.29
840.208	13757.51
840.533	13889.48
840.858	13875.92
841.182	13832.53
841.507	13812.42
841.832	13738.07
842.156	13716.15
842.481	13652.88
842.805	13703.04
843.13	13643.61
843.454	13590.5
843.778	13509.15
844.103	13527.68
844.427	13507.79
844.751	13484.52
845.075	13381.7
845.399	13327.91
845.723	13315.26
846.047	13237.29
846.371	13265.99
846.695	13220.57
847.019	13061.7
847.343	13055.38
847.666	13012.89
847.99	12947.13
848.313	12974.7
848.637	12890.86
848.96	12857.19
849.284	12776.51
849.607	12720.7
849.931	12710.08
850.254	12668.49
850.577	12498.78
850.9	12446.81
851.223	12388.28
851.546	12411.55
851.869	12338.56
852.192	12361.38
852.515	12233.93
852.838	12188.06
853.161	12187.15
853.483	12101.96
853.806	12101.28
854.129	12122.07
854.451	11996.65
854.774	11988.29
855.096	12001.85
855.419	11906.93
855.741	11844.34
856.063	11852.02
856.385	11765.92
856.708	11825.58
857.03	11692.7
857.352	11779.7
857.674	11705.13
857.996	11603.21
858.318	11589.88
858.64	11547.85
858.961	11497.9
859.283	11507.85
859.605	11423.1
859.926	11481.86
860.248	11389.43
860.57	11362.09
860.891	11377
861.212	11323.67
861.534	11306.95
861.855	11306.95
862.176	11190.79
862.498	11264.69
862.819	11224.46
863.14	11188.76
863.461	11127.97
863.782	11163
864.103	11172.04
864.424	11134.98
864.745	11154.41
865.065	11067.86
865.386	10924.59
865.707	11008.2
866.027	11010.01
866.348	10938.37
866.668	11004.58
866.989	10974.98
867.309	10870.8
867.63	10899.28
867.95	10916.45
868.27	10793.29
868.59	10802.1
868.91	10854.98
869.23	10732.05
869.55	10734.99
869.87	10863.34
870.19	10675.33
870.51	10788.32
870.83	10724.36
871.15	10764.59
871.469	10646.85
871.789	10674.2
872.109	10676.68
872.428	10634.2
872.748	10650.92
873.067	10627.19
873.386	10654.08
873.706	10527.31
874.025	10480.08
874.344	10473.3
874.663	10489.34
874.982	10488.21
875.301	10443.02
875.62	10417.48
875.939	10393.98
876.258	10378.39
876.577	10399.63
876.896	10307.88
877.214	10322.79
877.533	10407.09
877.852	10343.58
878.17	10249.58
878.489	10314.88
878.807	10294.09
879.125	10377.93
879.444	10297.26
879.762	10252.29
880.08	10291.16
880.398	10162.57
880.716	10147.88
881.034	10208.9
881.352	10181.1
881.67	10100.2
881.988	10141.78
882.306	10098.39
882.624	10017.94
882.941	10054.33
883.259	10025.17
883.577	9969.36
883.894	9950.37
884.212	9997.15
884.529	9977.94
884.846	9948.34
885.164	9886.42
885.481	9856.14
885.798	9889.36
886.115	9822.69
886.432	9744.05
886.75	9697.27
887.067	9790.6
887.383	9725.52
887.7	9661.34
888.017	9636.48
888.334	9693.43
888.651	9602.81
888.967	9602.81
889.284	9525.3
889.6	9532.53
889.917	9495.7
890.233	9458.41
890.55	9463.61
890.866	9457.96
891.182	9401.46
891.498	9357.17
891.815	9333.44
892.131	9304.74
892.447	9197.4
892.763	9229.49
893.079	9196.27
893.395	9184.07
893.71	9197.63
894.026	9102.26
894.342	9122.6
894.657	9059.1
894.973	9087.35
895.289	9001.92
895.604	9011.19
895.92	8947.46
896.235	8975.71
896.55	8867.01
896.865	8851.87
897.181	8784.98
897.496	8883.28
897.811	8792.44
898.126	8758.77
898.441	8700.24
898.756	8692.1
899.071	8686.9
899.386	8635.61
899.7	8534.14
900.015	8621.37
900.33	8483.75
900.644	8492.79
900.959	8514.71
901.273	8439.23
901.588	8425.44
901.902	8390.41
902.216	8298.67
902.531	8280.59
902.845	8261.38
903.159	8228.61
903.473	8224.54
903.787	8187.71
904.101	8132.34
904.415	8125.11
904.729	8116.75
905.042	8027.94
905.356	8030.2
905.67	8000.82
905.984	7994.95
906.297	7978.67
906.611	7903.87
906.924	7878.79
907.237	7897.77
907.551	7817.55
907.864	7786.14
908.177	7727.61
908.491	7729.19
908.804	7731
909.117	7636.54
909.43	7602.41
909.743	7653.03
910.056	7587.72
910.368	7509.53
910.681	7500.95
910.994	7453.49
911.307	7471.12
911.619	7411.46
911.932	7393.83
912.244	7381.63
912.557	7341.63
912.869	7276.32
913.181	7255.08
913.494	7280.16
913.806	7200.84
914.118	7157.91
914.43	7112.26
914.742	7104.57
915.054	7087.17
915.366	7078.59
915.678	7038.13
915.99	7013.95
916.302	6987.29
916.613	6916.78
916.925	6910.23
917.236	6878.82
917.548	6856.67
917.859	6851.92
918.171	6770.57
918.482	6788.65
918.794	6728.09
919.105	6736.67
919.416	6720.63
919.727	6663.91
920.038	6634.08
920.349	6634.08
920.66	6607.86
920.971	6587.07
921.282	6546.62
921.593	6503.01
921.903	6428.21
922.214	6460.75
922.525	6452.39
922.835	6409.9
923.146	6373.74
923.456	6361.32
923.767	6286.29
924.077	6347.98
924.387	6307.76
924.697	6261.21
925.008	6236.57
925.318	6145.73
925.628	6189.79
925.938	6168.1
926.248	6116.35
926.558	6078.16
926.867	6014.43
927.177	6004.71
927.487	6030.25
927.796	5952.96
928.106	6005.17
928.416	5974.66
928.725	5889.46
929.034	5886.53
929.344	5907.32
929.653	5868.22
929.962	5811.73
930.271	5811.27
930.581	5748
930.89	5704.38
931.199	5674.78
931.508	5669.36
931.817	5692.41
932.125	5707.77
932.434	5683.14
932.743	5613.76
933.051	5591.39
933.36	5562.47
933.669	5530.83
933.977	5526.76
934.286	5546.65
934.594	5530.38
934.902	5428.68
935.21	5458.97
935.519	5467.78
935.827	5404.5
936.135	5383.49
936.443	5339.65
936.751	5356.6
937.059	5313.21
937.367	5304.39
937.674	5309.14
937.982	5248.8
938.29	5215.36
938.597	5248.12
938.905	5174.23
939.213	5101.69
939.52	5116.38
939.827	5118.86
940.135	5050.39
940.442	5072.31
940.749	5003.84
941.056	5054.46
941.363	4991.18
941.67	4978.98
941.977	4940.11
942.284	4939.43
942.591	4882.94
942.898	4895.82
943.205	4900.56
943.511	4869.6
943.818	4801.13
944.125	4785.09
944.431	4753
944.738	4792.09
945.044	4760.68
945.35	4742.15
945.657	4716.84
945.963	4664.19
946.269	4653.34
946.575	4683.17
946.881	4638.42
947.187	4568.37
947.493	4530.4
947.799	4558.2
948.105	4521.82
948.41	4502.61
948.716	4509.84
949.022	4472.1
949.327	4474.81
949.633	4411.76
949.938	4472.78
950.244	4413.8
950.549	4346.45
950.854	4335.61
951.16	4337.64
951.465	4319.11
951.77	4303.74
952.075	4282.95
952.38	4261.94
952.685	4299
952.99	4263.74
953.294	4195.95
953.599	4234.59
953.904	4172.67
954.209	4150.98
954.513	4173.8
954.818	4130.64
955.122	4157.53
955.426	4109.85
955.731	4061.49
956.035	4073.01
956.339	4080.92
956.643	4040.02
956.948	4020.81
957.252	3996.63
957.556	4024.2
957.86	3968.16
958.163	3961.83
958.467	3942.85
958.771	3908.27
959.075	3903.98
959.378	3866.92
959.682	3849.29
959.985	3860.82
960.289	3835.28
960.592	3844.77
960.896	3822.17
961.199	3813.59
961.502	3784.43
961.805	3751.21
962.108	3753.93
962.411	3753.25
962.714	3714.38
963.017	3707.15
963.32	3663.08
963.623	3673.48
963.926	3644.55
964.228	3609.52
964.531	3616.08
964.833	3625.34
965.136	3576.53
965.438	3561.84
965.741	3536.31
966.043	3539.02
966.345	3522.52
966.648	3539.24
966.95	3467.15
967.252	3477.1
967.554	3452.92
967.856	3424.22
968.158	3429.87
968.46	3402.98
968.761	3411.56
969.063	3370.43
969.365	3374.28
969.666	3376.99
969.968	3315.52
970.269	3315.07
970.571	3290.21
970.872	3288.4
971.174	3313.03
971.475	3281.62
971.776	3226.26
972.077	3217.22
972.378	3243.43
972.679	3186.94
972.98	3167.05
973.281	3203.43
973.582	3189.2
973.883	3151.46
974.183	3104.23
974.484	3120.95
974.785	3094.51
975.085	3089.99
975.386	3057.67
975.686	3101.29
975.986	3024
976.287	3041.18
976.587	3019.93
976.887	3058.58
977.187	2989.88
977.487	3017.45
977.787	3019.93
978.087	2991.23
978.387	2968.41
978.687	2953.27
978.987	2951.24
979.286	2903.1
979.586	2886.83
979.885	2877.11
980.185	2845.25
980.484	2861.75
980.784	2856.78
981.083	2838.02
981.382	2845.25
981.682	2808.87
981.981	2809.54
982.28	2806.83
982.579	2747.17
982.878	2756.44
983.177	2747.17
983.475	2774.07
983.774	2730.22
984.073	2723.9
984.372	2687.74
984.67	2712.37
984.969	2707.17
985.267	2697.68
985.566	2652.94
985.864	2641.19
986.162	2650.9
986.461	2596.22
986.759	2561.87
987.057	2571.58
987.355	2574.97
987.653	2544.69
987.951	2558.48
988.249	2560.96
988.547	2545.6
988.844	2526.61
989.142	2496.11
989.44	2495.65
989.737	2496.78
990.035	2469.44
990.332	2482.32
990.63	2472.6
990.927	2432.15
991.224	2452.72
991.521	2418.59
991.819	2418.14
992.116	2401.65
992.413	2361.65
992.71	2393.51
993.006	2362.32
993.303	2331.14
993.6	2338.37
993.897	2363
994.193	2349.9
994.49	2286.17
994.787	2292.95
995.083	2305.6
995.379	2265.15
995.676	2254.76
995.972	2275.1
996.268	2210.69
996.565	2200.3
996.861	2201.88
997.157	2221.76
997.453	2194.19
997.749	2226.74
998.044	2167.98
998.34	2187.19
998.636	2160.97
998.932	2156.91
999.227	2119.62
999.523	2114.42
999.818	2121.43
1000.114	2072.84
1000.409	2071.26
1000.704	2077.13
1001	2061.32
1001.295	2025.38
1001.59	2009.57
1001.885	2039.17
1002.18	2011.6
1002.475	2007.98
1002.77	1987.19
1003.065	1993.07
1003.359	1972.96
1003.654	1974.54
1003.949	1938.83
1004.243	1956.23
1004.538	1920.98
1004.832	1914.88
1005.127	1952.39
1005.421	1935.22
1005.715	1886.86
1006.009	1891.6
1006.304	1871.49
1006.598	1860.19
1006.892	1837.14
1007.186	1831.04
1007.48	1843.02
1007.773	1833.53
1008.067	1790.59
1008.361	1809.35
1008.655	1810.93
1008.948	1792.85
1009.242	1791.27
1009.535	1766.86
1009.829	1742.68
1010.122	1717.6
1010.415	1748.78
1010.708	1719.86
1011.001	1735
1011.295	1675.56
1011.588	1698.39
1011.881	1680.76
1012.173	1696.35
1012.466	1686.18
1012.759	1652.06
1013.052	1657.03
1013.344	1655.9
1013.637	1644.15
1013.93	1611.84
1014.222	1608.67
1014.514	1619.75
1014.807	1571.84
1015.099	1593.76
1015.391	1574.32
1015.683	1556.24
1015.976	1562.8
1016.268	1550.37
1016.56	1538.62
1016.851	1509.69
1017.143	1507.66
1017.435	1492.74
1017.727	1507.88
1018.018	1485.06
1018.31	1489.81
1018.602	1473.53
1018.893	1433.76
1019.185	1464.72
1019.476	1459.07
1019.767	1419.3
1020.058	1401.45
1020.35	1408.45
1020.641	1403.25
1020.932	1386.76
1021.223	1395.12
1021.514	1344.27
1021.804	1341.33
1022.095	1355.35
1022.386	1359.87
1022.677	1349.7
1022.967	1340.2
1023.258	1331.39
1023.548	1310.6
1023.839	1308.34
1024.129	1288.23
1024.419	1294.1
1024.709	1255.46
1025	1252.98
1025.29	1278.06
1025.58	1282.13
1025.87	1250.26
1026.16	1237.16
1026.449	1251.17
1026.739	1215.91
1027.029	1226.54
1027.319	1223.37
1027.608	1203.49
1027.898	1216.59
1028.187	1198.06
1028.477	1177.05
1028.766	1180.89
1029.055	1212.07
1029.344	1145.18
1029.634	1139.53
1029.923	1124.39
1030.212	1129.36
1030.501	1144.28
1030.79	1101.34
1031.078	1090.72
1031.367	1116.48
1031.656	1093.66
1031.945	1066.77
1032.233	1112.41
1032.522	1049.37
1032.81	1050.27
1033.099	1074.9
1033.387	1071.51
1033.675	1054.34
1033.963	1072.42
1034.251	1043.26
1034.54	1017.5
1034.828	1021.34
1035.116	1010.72
1035.403	1031.96
1035.691	998.29
1035.979	995.58
1036.267	996.26
1036.554	991.29
1036.842	976.6
1037.129	974.56
1037.417	966.66
1037.704	957.62
1037.992	945.19
1038.279	926.2
1038.566	937.96
1038.853	937.96
1039.14	937.96
