Data from hue_34_FLMS001491_00066.txt Node
Date: Tue Feb 07 17:25:58 GMT 2017
User: dcchb
Spectrometer: FLMS00149
Trigger mode: 0
Integration Time (sec): 2.000000E-2
Scans to average: 10
Electric dark correction enabled: true
Nonlinearity correction enabled: false
Boxcar width: 0
XAxis mode: Wavelengths
Number of Pixels in Spectrum: 2048
>>>>>Begin Spectral Data<<<<<
341.393	0.86
341.776	0.86
342.16	0.86
342.543	-44.79
342.927	-48.4
343.31	-64.67
343.693	-86.14
344.077	-70.1
344.46	-59.93
344.843	-45.01
345.226	-38.46
345.61	-10.89
345.993	-5.69
346.376	5.16
346.759	8.54
347.142	20.07
347.525	21.43
347.908	67.07
348.291	58.49
348.674	87.41
349.057	112.72
349.44	134.42
349.823	132.38
350.206	177.81
350.588	189.78
350.971	221.42
351.354	229.78
351.737	229.78
352.119	233.85
352.502	279.27
352.884	293.51
353.267	284.24
353.65	288.76
354.032	299.38
354.414	316.79
354.797	317.92
355.179	345.71
355.562	329.89
355.944	322.21
356.326	331.47
356.709	353.85
357.091	342.1
357.473	347.97
357.855	345.26
358.238	346.84
358.62	344.81
359.002	359.04
359.384	355.2
359.766	364.24
360.148	355.43
360.53	352.72
360.912	343.23
361.294	339.84
361.676	331.93
362.057	343.45
362.439	333.06
362.821	338.03
363.203	331.93
363.584	324.69
363.966	343.9
364.348	326.05
364.729	330.12
365.111	320.85
365.493	323.11
365.874	323.79
366.256	327.18
366.637	317.01
367.019	307.75
367.4	335.99
367.781	334.19
368.163	320.4
368.544	305.03
368.925	300.74
369.306	325.15
369.688	326.5
370.069	327.18
370.45	317.92
370.831	313.17
371.212	333.73
371.593	326.5
371.974	316.11
372.355	321.31
372.736	313.62
373.117	351.13
373.498	320.85
373.879	332.38
374.26	324.47
374.641	310.46
375.021	329.67
375.402	320.63
375.783	305.71
376.163	340.74
376.544	347.52
376.925	331.47
377.305	324.47
377.686	347.29
378.066	342.77
378.447	343.68
378.827	361.08
379.208	345.03
379.588	342.77
379.968	364.24
380.349	351.36
380.729	356.33
381.109	348.65
381.489	345.49
381.87	345.26
382.25	334.19
382.63	350.68
383.01	340.29
383.39	363.79
383.77	350.46
384.15	369.89
384.53	355.43
384.91	337.8
385.29	379.61
385.67	360.17
386.049	341.87
386.429	356.56
386.809	354.07
387.189	354.52
387.568	352.94
387.948	361.08
388.328	356.11
388.707	366.5
389.087	358.82
389.466	361.76
389.846	379.16
390.225	350.91
390.605	383.22
390.984	374.41
391.363	376.44
391.743	358.59
392.122	366.73
392.501	368.08
392.881	383.9
393.26	408.99
393.639	376.22
394.018	385.26
394.397	403.56
394.776	382.77
395.155	383.45
395.534	379.16
395.913	370.57
396.292	382.09
396.671	376.22
397.05	382.77
397.429	398.59
397.808	388.42
398.186	404.47
398.565	396.11
398.944	411.92
399.323	377.12
399.701	410.57
400.08	392.49
400.458	404.01
400.837	405.14
401.215	423.45
401.594	411.02
401.972	422.55
402.351	392.72
402.729	424.35
403.107	429.55
403.486	407.63
403.864	423
404.242	433.39
404.62	420.74
404.999	430.45
405.377	429.78
405.755	431.81
406.133	418.48
406.511	418.03
406.889	428.19
407.267	453.28
407.645	443.56
408.023	437.91
408.401	443.79
408.779	422.77
409.156	439.72
409.534	455.76
409.912	469.78
410.29	468.42
410.667	455.99
411.045	465.26
411.422	463.45
411.8	446.95
412.178	456.44
412.555	467.06
412.933	482.66
413.31	509.1
413.687	488.08
414.065	476.56
414.442	476.56
414.819	491.7
415.197	493.96
415.574	504.8
415.951	524.92
416.328	505.93
416.705	504.35
417.082	506.61
417.46	504.8
417.837	508.64
418.214	525.59
418.591	526.72
418.967	530.34
419.344	520.17
419.721	530.57
420.098	525.59
420.475	511.36
420.852	530.11
421.228	522.43
421.605	528.53
421.982	549.77
422.358	546.16
422.735	546.38
423.111	564.01
423.488	563.78
423.864	566.04
424.241	598.13
424.617	557.46
424.994	582.99
425.37	584.58
425.746	581.86
426.123	584.58
426.499	604.24
426.875	594.52
427.251	582.99
427.627	587.06
428.003	599.94
428.379	626.16
428.756	599.49
429.132	612.82
429.507	616.44
429.883	633.61
430.259	632.94
430.635	623.44
431.011	629.32
431.387	648.3
431.763	657.12
432.138	656.44
432.514	665.02
432.89	673.39
433.265	655.53
433.641	662.99
434.016	653.5
434.392	668.64
434.767	676.78
435.143	685.59
435.518	668.64
435.894	729.43
436.269	705.02
436.644	721.52
437.02	741.86
437.395	718.36
437.77	721.97
438.145	734.63
438.52	764.01
438.895	760.39
439.271	735.08
439.646	752.03
440.021	749.99
440.395	757
440.77	775.53
441.145	771.91
441.52	786.83
441.895	782.08
442.27	800.39
442.645	763.78
443.019	798.81
443.394	793.16
443.769	814.85
444.143	808.3
444.518	825.25
444.892	814.85
445.267	823.21
445.641	810.11
446.016	844.68
446.39	822.53
446.764	841.52
447.139	838.35
447.513	848.75
447.887	862.99
448.262	848.3
448.636	859.37
449.01	857.79
449.384	874.74
449.758	872.25
450.132	871.12
450.506	906.6
450.88	894.85
451.254	895.3
451.628	900.72
452.002	924.23
452.376	938.69
452.75	931.91
453.123	946.83
453.497	944.57
453.871	942.08
454.244	946.83
454.618	970.55
454.992	989.99
455.365	997.45
455.739	1022.76
456.112	1015.75
456.486	1025.92
456.859	1019.37
457.232	1060.49
457.606	1029.76
457.979	1056.43
458.352	1081.29
458.725	1077.67
459.099	1080.61
459.472	1083.09
459.845	1102.3
460.218	1138.46
460.591	1128.06
460.964	1121.28
461.337	1187.27
461.71	1175.52
462.083	1164.45
462.456	1204.45
462.829	1191.56
463.201	1227.95
463.574	1221.17
463.947	1220.04
464.32	1235.63
464.692	1255.07
465.065	1272.01
465.438	1316.99
465.81	1307.72
466.183	1326.48
466.555	1349.98
466.928	1369.87
467.3	1371.45
467.672	1406.93
468.045	1425.23
468.417	1452.57
468.789	1457.77
469.161	1450.77
469.534	1469.3
469.906	1528.51
470.278	1540.93
470.65	1573.25
471.022	1604.21
471.394	1629.97
471.766	1612.12
472.138	1654.6
472.51	1704.32
472.882	1738.22
473.253	1734.6
473.625	1735.05
473.997	1834.71
474.369	1855.95
474.74	1873.35
475.112	1877.65
475.484	1952.22
475.855	1957.42
476.227	2003.29
476.598	2075.16
476.97	2074.71
477.341	2170.52
477.713	2191.54
478.084	2196.74
478.455	2285.77
478.827	2305.89
479.198	2397.86
479.569	2404.41
479.94	2501.59
480.311	2505.43
480.682	2599.89
481.053	2681.92
481.424	2759.66
481.795	2780.9
482.166	2869.26
482.537	2913.55
482.908	2979.31
483.279	3059.31
483.65	3121.23
484.021	3228.8
484.391	3274
484.762	3386.08
485.133	3420.21
485.503	3486.42
485.874	3561.22
486.244	3626.98
486.615	3735
486.985	3786.52
487.356	3937.93
487.726	3950.36
488.097	4040.98
488.467	4077.59
488.837	4232.84
489.207	4285.49
489.578	4405.49
489.948	4475.09
490.318	4574.53
490.688	4650
491.058	4781.75
491.428	4787.85
491.798	4970.45
492.168	5024.46
492.538	5092.25
492.908	5175.87
493.278	5302.64
493.648	5336.77
494.017	5452.24
494.387	5551.22
494.757	5586.7
495.126	5693.14
495.496	5746.25
495.866	5799.81
496.235	5942.4
496.605	6011.1
496.974	6054.94
497.344	6150.76
497.713	6230.08
498.082	6288.61
498.452	6353.46
498.821	6444.99
499.19	6505.32
499.559	6654.25
499.928	6700.8
500.298	6781.25
500.667	6761.14
501.036	6870.06
501.405	6908.02
501.774	6950.28
502.143	7096.95
502.512	7089.94
502.88	7180.33
503.249	7200.22
503.618	7201.35
503.987	7341.91
504.356	7406.99
504.724	7477.73
505.093	7562.02
505.462	7568.12
505.83	7697.16
506.199	7717.27
506.567	7847.66
506.936	7857.6
507.304	7942.57
507.672	8061.89
508.041	8092.4
508.409	8126.98
508.777	8146.86
509.145	8212.85
509.514	8258.95
509.882	8312.28
510.25	8339.17
510.618	8394.09
510.986	8463.01
511.354	8584.36
511.722	8587.53
512.09	8652.61
512.458	8681.09
512.826	8719.95
513.193	8807.86
513.561	8831.14
513.929	8874.07
514.297	8968.99
514.664	9012.38
515.032	9071.36
515.4	9189.55
515.767	9248.98
516.135	9233.84
516.502	9252.6
516.869	9377.79
517.237	9390.67
517.604	9332.14
517.972	9430.67
518.339	9501.4
518.706	9557.22
519.073	9564.68
519.44	9684.45
519.808	9695.52
520.175	9754.05
520.542	9865.46
520.909	9832.92
521.276	9863.88
521.643	10018.68
522.009	10085.12
522.376	10163.08
522.743	10194.49
523.11	10233.13
523.477	10409.63
523.843	10415.28
524.21	10516.07
524.577	10538.66
524.943	10521.71
525.31	10571.43
525.676	10761.71
526.043	10713.35
526.409	10802.84
526.776	10930.29
527.142	10982.95
527.508	11038.31
527.874	11084.41
528.241	11177.97
528.607	11221.58
528.973	11263.39
529.339	11272.88
529.705	11382.71
530.071	11476.72
530.437	11619.54
530.803	11631.74
531.169	11697.05
531.535	11650.5
531.901	11768.46
532.267	11831.06
532.632	11865.18
532.998	11840.78
533.364	11903.6
533.73	11987.21
534.095	12072.41
534.461	12048.45
534.826	12177.72
535.192	12232.63
535.557	12267.21
535.923	12279.86
536.288	12297.26
536.653	12374.1
537.019	12371.16
537.384	12525.28
537.749	12554.88
538.114	12703.35
538.479	12627.87
538.845	12755.33
539.21	12662.45
539.575	12839.17
539.94	12859.51
540.305	12941.76
540.67	12939.28
541.034	12969.56
541.399	13064.25
541.764	13108.77
542.129	13086.39
542.494	13201.19
542.858	13210.68
543.223	13250
543.587	13318.03
543.952	13311.25
544.316	13329.32
544.681	13351.7
545.045	13472.15
545.41	13586.72
545.774	13577.91
546.138	13607.28
546.503	13701.29
546.867	13710.56
547.231	13865.58
547.595	13932.02
547.959	13858.35
548.324	13924.56
548.688	13932.47
549.052	14079.36
549.416	14094.5
549.779	14066.03
550.143	14167.49
550.507	14235.97
550.871	14264.22
551.235	14372.91
551.599	14418.34
551.962	14437.32
552.326	14475.28
552.689	14501.95
553.053	14484.55
553.417	14438.22
553.78	14752.34
554.143	14579.91
554.507	14776.29
554.87	14800.7
555.234	14874.37
555.597	14845.89
555.96	14922.96
556.323	14964.76
556.686	15076.17
557.05	15096.06
557.413	15129.96
557.776	15215.6
558.139	15285.43
558.502	15299.89
558.865	15360.23
559.228	15406.33
559.59	15516.16
559.953	15474.8
560.316	15626.44
560.679	15680.45
561.041	15761.13
561.404	15775.81
561.767	15913.66
562.129	15853.55
562.492	16077.28
562.854	15991.4
563.217	15964.96
563.579	16107.1
563.941	16176.48
564.304	16282.02
564.666	16397.04
565.028	16323.14
565.39	16413.76
565.753	16451.28
566.115	16537.38
566.477	16588.45
566.839	16613.31
567.201	16797.48
567.563	16739.63
567.925	16904.15
568.287	16851.94
568.648	16903.69
569.01	17049.23
569.372	17298.71
569.734	17157.92
570.095	17254.42
570.457	17343.23
570.819	17370.35
571.18	17403.57
571.542	17562.89
571.903	17606.5
572.265	17680.17
572.626	17666.61
572.987	17719.94
573.349	17944.57
573.71	18004.46
574.071	18028.86
574.432	18062.08
574.794	18296.2
575.155	18325.58
575.516	18318.35
575.877	18409.19
576.238	18488.74
576.599	18648.05
576.96	18756.07
577.32	18889.18
577.681	19025.67
578.042	19188.61
578.403	19233.12
578.763	19313.35
579.124	19523.96
579.485	19670.85
579.845	19948.13
580.206	19929.83
580.566	19992.88
580.927	20137.73
581.287	20397.61
581.648	20495.01
582.008	20688.91
582.368	20906.07
582.728	21009.35
583.089	21157.14
583.449	21385.16
583.809	21580.86
584.169	21734.53
584.529	21868.99
584.889	22236.44
585.249	22359.6
585.609	22432.59
585.969	22751
586.329	22920.94
586.688	23204.55
587.048	23348.04
587.408	23467.59
587.768	23812.89
588.127	23947.8
588.487	24126.1
588.846	24551.4
589.206	24722.02
589.565	24882.92
589.925	25152.52
590.284	25235.45
590.643	25620.07
591.003	25886.73
591.362	26170.57
591.721	26347.06
592.08	26635.87
592.44	26958.12
592.799	27186.81
593.158	27265.23
593.517	27701.38
593.876	27960.58
594.235	28038.99
594.593	28181.82
594.952	28557.85
595.311	28742.03
595.67	29021.12
596.029	29380.43
596.387	29646.18
596.746	29856.8
597.104	30088.21
597.463	30131.82
597.822	30720.51
598.18	30696.55
598.538	30891.35
598.897	31267.16
599.255	31220.38
599.613	32017.87
599.972	31871.89
600.33	32209.96
600.688	32214.25
601.046	32655.14
601.404	32862.14
601.762	32962.71
602.12	33369.02
602.478	33473.43
602.836	33616.47
603.194	33710.03
603.552	33979.18
603.91	34034.77
604.268	34401.99
604.625	34514.76
604.983	34664.81
605.341	34888.31
605.698	35208.52
606.056	35306.15
606.413	35551.34
606.771	35744.33
607.128	35941.16
607.485	35861.84
607.843	36066.35
608.2	36414.14
608.557	36663.63
608.914	36736.62
609.272	36912.43
609.629	37154.69
609.986	37276.49
610.343	37310.39
610.7	37731.17
611.057	37694.11
611.414	37960.99
611.771	38001.9
612.127	38332.51
612.484	38383.13
612.841	38586.51
613.198	38640.75
613.554	38719.84
613.911	38922.32
614.267	39045.26
614.624	39132.26
614.98	39314.63
615.337	39596.2
615.693	39485.25
616.05	39409.77
616.406	39839.36
616.762	39867.38
617.118	39830.1
617.475	40218.34
617.831	40174.04
618.187	40204.32
618.543	40414.49
618.899	40637.99
619.255	40663.97
619.611	40725.21
619.967	40856.06
620.323	41155.03
620.678	41003.85
621.034	40880.24
621.39	41076.39
621.746	41153.68
622.101	41553.22
622.457	41406.1
622.812	41443.39
623.168	41730.39
623.523	41610.16
623.879	41743.27
624.234	41606.1
624.589	41795.24
624.945	41907.56
625.3	41956.14
625.655	42011.73
626.01	41988.91
626.365	42099.64
626.72	42050.15
627.075	42244.27
627.43	42094.44
627.785	42182.13
628.14	42241.33
628.495	42241.78
628.85	42157.72
629.205	42104.16
629.559	42465.06
629.914	42247.43
630.269	42172.18
630.623	42200.88
630.978	42223.48
631.332	42355.68
631.687	42556.8
632.041	42184.16
632.396	42364.27
632.75	42293.31
633.104	42439.75
633.459	42307.09
633.813	42274.1
634.167	42246.76
634.521	42370.37
634.875	42350.03
635.229	42300.54
635.583	42088.79
635.937	42229.13
636.291	42255.57
636.645	42276.36
636.999	42252.18
637.352	42259.19
637.706	42121.11
638.06	42355.68
638.413	42190.26
638.767	42068.91
639.121	42144.39
639.474	42023.03
639.828	42114.1
640.181	42122.69
640.534	42049.47
640.888	41985.97
641.241	41836.37
641.594	41986.88
641.947	42118.17
642.301	41766.09
642.654	41993.43
643.007	42012.86
643.36	42021.9
643.713	41864.39
644.066	41999.98
644.419	41823.04
644.771	41567.23
645.124	41262.6
645.477	41120.01
645.83	40879.79
646.182	40849.73
646.535	40630.98
646.888	40715.5
647.24	40420.59
647.593	40774.48
647.945	40603.18
648.298	40505.79
648.65	40358.44
649.002	40237.32
649.355	40494.94
649.707	40555.95
650.059	40716.4
650.411	41053.12
650.763	40979.67
651.115	41520.22
651.467	41311.19
651.819	41431.41
652.171	41232.32
652.523	41219.89
652.875	41209.95
653.227	41156.62
653.578	41402.71
653.93	41331.07
654.282	41219.66
654.633	41000.69
654.985	41016.05
655.337	41199.1
655.688	41105.54
656.039	41176.05
656.391	40920.24
656.742	41037.3
657.094	41059.22
657.445	41172.21
657.796	41252.66
658.147	41030.29
658.498	41062.15
658.849	41089.27
659.2	40957.98
659.551	40807.25
659.902	41083.62
660.253	41052.44
660.604	40891.09
660.955	40835.27
661.306	41065.77
661.656	40884.76
662.007	40900.35
662.358	40813.57
662.708	40813.35
663.059	40813.57
663.409	40623.97
663.76	40869.39
664.11	40915.49
664.461	40827.36
664.811	40946.45
665.161	40746.23
665.511	40725.44
665.862	40748.72
666.212	40870.52
666.562	40809.51
666.912	40690.87
667.262	40791.2
667.612	40741.71
667.962	40828.26
668.312	40734.93
668.662	40851.99
669.011	40687.02
669.361	40717.53
669.711	40564.31
670.06	40586.91
670.41	40670.53
670.76	40528.61
671.109	40707.81
671.459	40543.52
671.808	40575.84
672.157	40603.64
672.507	40416.3
672.856	40436.18
673.205	40584.88
673.554	40455.17
673.904	40440.93
674.253	40609.96
674.602	40443.19
674.951	39906.48
675.3	39737.67
675.649	40263.76
675.998	40273.93
676.346	40179.24
676.695	40440.25
677.044	40091.78
677.393	40258.11
677.741	40196.64
678.09	40252.91
678.438	40167.94
678.787	40295.62
679.135	40245.23
679.484	39831.45
679.832	40123.42
680.181	39947.61
680.529	39985.8
680.877	39871.23
681.225	39748.07
681.573	40060.6
681.922	39708.07
682.27	39508.3
682.618	39675.52
682.966	39541.97
683.314	39630.1
683.661	39515.75
684.009	39399.6
684.357	39265.14
684.705	39239.15
685.053	39279.15
685.4	39234.63
685.748	39038.25
686.095	39066.28
686.443	39013.62
686.79	38962.55
687.138	38953.74
687.485	38891.59
687.832	38695.66
688.18	38749
688.527	38523.24
688.874	38593.52
689.221	38346.29
689.568	38323.92
689.915	38394.2
690.262	38263.36
690.609	38240.99
690.956	37996.02
691.303	38040.77
691.65	37856.59
691.997	37971.61
692.344	37598.97
692.69	37643.04
693.037	37738.4
693.383	37394
693.73	37575.01
694.077	37329.6
694.423	37388.58
694.769	37034.92
695.116	37130.73
695.462	36979.55
695.808	36987.91
696.155	37005.99
696.501	36756.96
696.847	36754.25
697.193	36544.08
697.539	36663.4
697.885	36356.29
698.231	36245.56
698.577	36253.02
698.923	36179.12
699.269	36130.76
699.614	35907.26
699.96	35888.05
700.306	36000.14
700.651	35679.02
700.997	35546.37
701.342	35512.02
701.688	35506.59
702.033	35393.38
702.379	35377.11
702.724	35202.2
703.069	35247.39
703.415	34803.11
703.76	34826.16
704.105	34934.86
704.45	34912.94
704.795	34568.09
705.14	34532.83
705.485	34498.71
705.83	34265.5
706.175	34390.92
706.52	34343.91
706.865	34145.05
707.209	34326.74
707.554	34034.32
707.899	34194.31
708.243	33858.95
708.588	33814.21
708.932	33697.6
709.277	33629.58
709.621	33665.74
709.966	33590.26
710.31	33597.94
710.654	33129.03
710.998	33416.03
711.342	33243.83
711.687	33242.25
712.031	32995.7
712.375	33016.49
712.719	33027.11
713.063	32908.7
713.407	32920
713.75	32750.73
714.094	32842.26
714.438	32753.22
714.782	32726.33
715.125	32551.87
715.469	32650.4
715.812	32442.95
716.156	32287.02
716.499	32233.69
716.843	32275.49
717.186	32120.02
717.53	32162.95
717.873	32292.44
718.216	32152.11
718.559	31937.42
718.902	31776.52
719.246	31862.85
719.589	31720.25
719.932	31679.12
720.275	31653.36
720.617	31649.07
720.96	31518.9
721.303	31539.69
721.646	31612.69
721.989	31383.99
722.331	31367.27
722.674	31257.67
723.016	31374.73
723.359	31407.04
723.701	31177.89
724.044	31140.83
724.386	30944
724.729	31090.44
725.071	30941.74
725.413	31035.75
725.755	31063.55
726.097	30780.17
726.439	30558.02
726.782	30769.32
727.124	30872.59
727.465	30722.54
727.807	30691.81
728.149	30587.4
728.491	30561.64
728.833	30625.82
729.175	30428.31
729.516	30333.85
729.858	30284.13
730.199	30307.64
730.541	30206.85
730.882	30247.3
731.224	30296.34
731.565	30058.6
731.906	30102.89
732.248	30048.66
732.589	30005.27
732.93	29751.49
733.271	29856.57
733.612	29870.58
733.953	29940.41
734.294	29777.71
734.635	29770.25
734.976	29762.79
735.317	29652.74
735.658	29508.33
735.999	29585.62
736.339	29403.03
736.68	29542.68
737.021	29426.53
737.361	29294.55
737.702	29427.43
738.042	29296.36
738.383	29324.16
738.723	29235.8
739.063	29208.68
739.404	29219.75
739.744	29045.52
740.084	29052.75
740.424	29091.85
740.764	29006.65
741.104	29189.25
741.444	28967.78
741.784	28789.03
742.124	28967.33
742.464	28806.43
742.804	28927.78
743.143	28878.97
743.483	28695.25
743.823	28617.74
744.162	28672.65
744.502	28677.62
744.841	28533.44
745.181	28608.92
745.52	28433.56
745.86	28509.72
746.199	28432.2
746.538	28386.1
746.877	28467.01
747.216	28410.06
747.556	28387.91
747.895	28316.05
748.234	28104.08
748.573	28110.86
748.911	28145.43
749.25	28054.14
749.589	28005.55
749.928	28032.67
750.267	27955.83
750.605	27910.41
750.944	27738.89
751.283	27848.26
751.621	27796.06
751.96	27728.95
752.298	27624.77
752.636	27726.69
752.975	27535.96
753.313	27444.89
753.651	27587.93
753.989	27408.05
754.327	27288.96
754.666	27174.38
755.004	27262.07
755.342	27294.16
755.679	27120.15
756.017	27060.04
756.355	27098.68
756.693	26985.24
757.031	27018.46
757.368	26878.12
757.706	26717.67
758.044	26660.27
758.381	26743.66
758.719	26510
759.056	26616.66
759.394	26486.94
759.731	26310
760.068	26279.72
760.405	26255.09
760.743	26223
761.08	26272.26
761.417	26041.76
761.754	26009.67
762.091	25990.23
762.428	25906.17
762.765	25745.04
763.102	25704.59
763.438	25696.46
763.775	25600.87
764.112	25673.18
764.449	25583.92
764.785	25355.22
765.122	25211.05
765.458	25232.97
765.795	25115.46
766.131	25068
766.467	24964.05
766.804	24869.81
767.14	24752.98
767.476	24791.85
767.812	24654.22
768.148	24612.87
768.485	24475.92
768.821	24260.11
769.157	24397.96
769.492	24281.35
769.828	24231.18
770.164	23924.98
770.5	23963.62
770.836	24070.74
771.171	23803.17
771.507	23720.69
771.842	23595.72
772.178	23713.01
772.513	23549.39
772.849	23482.5
773.184	23377.65
773.519	23346.46
773.855	23283.87
774.19	23276.41
774.525	23128.84
774.86	22956.64
775.195	22896.98
775.53	22738.34
775.865	22725.24
776.2	22595.52
776.535	22488.18
776.87	22518.46
777.205	22426.94
777.539	22308.75
777.874	22282.76
778.209	22034.18
778.543	22091.35
778.878	21971.13
779.212	21906.27
779.547	21825.6
779.881	21798.25
780.215	21720.74
780.55	21674.87
780.884	21557.36
781.218	21540.41
781.552	21466.96
781.886	21322.56
782.22	21323.69
782.554	21165.28
782.888	20946.3
783.222	21010.03
783.556	20841.44
783.889	20851.61
784.223	20721.45
784.557	20648
784.89	20722.58
785.224	20526.65
785.557	20372.76
785.891	20458.63
786.224	20325.52
786.558	20250.72
786.891	20109.26
787.224	20114.46
787.557	19966.21
787.891	19927.34
788.224	19917.63
788.557	19861.13
788.89	19809.61
789.223	19874.01
789.556	19717.18
789.888	19679.21
790.221	19579.33
790.554	19442.16
790.887	19396.74
791.219	19338.43
791.552	19306.34
791.884	19153.8
792.217	19182.96
792.549	19054.37
792.882	18906.13
793.214	18871.78
793.546	18882.62
793.879	18739.35
794.211	18597.43
794.543	18726.7
794.875	18608.96
795.207	18715.17
795.539	18562.86
795.871	18535.29
796.203	18394.73
796.535	18259.59
796.867	18300.27
797.198	18270.89
797.53	18234.51
797.862	18096.88
798.193	18176.2
798.525	17908.64
798.856	17975.3
799.188	17795.87
799.519	17771.24
799.85	17657.57
800.182	17730.11
800.513	17715.88
800.844	17448.99
801.175	17527.18
801.506	17528.08
801.837	17437.69
802.168	17389.1
802.499	17340.74
802.83	17233.63
803.161	17206.28
803.491	17239.73
803.822	17193.18
804.153	17158.83
804.483	16894.43
804.814	16939.85
805.145	16853.3
805.475	16816.01
805.805	16729.46
806.136	16757.94
806.466	16742.79
806.796	16715.9
807.126	16498.96
807.457	16543.93
807.787	16592.74
808.117	16458.96
808.447	16441.11
808.777	16471.61
809.107	16298.29
809.436	16247.89
809.766	16227.1
810.096	16099.2
810.426	16156.14
810.755	16106.43
811.085	16098.74
811.414	16008.12
811.744	15968.8
812.073	15832.99
812.403	15914.12
812.732	15785.08
813.061	15819.88
813.39	15758.19
813.719	15653.78
814.049	15775.81
814.378	15630.28
814.707	15646.55
815.036	15598.87
815.365	15497.18
815.693	15357.52
816.022	15450.85
816.351	15349.84
816.68	15278.88
817.008	15279.1
817.337	15142.38
817.665	15078.43
817.994	15138.54
818.322	15122.27
818.651	15160.46
818.979	14999.56
819.307	15172.44
819.636	14992.11
819.964	14938.55
820.292	15016.06
820.62	14928.38
820.948	14874.82
821.276	14913.24
821.604	14884.99
821.932	14934.71
822.259	14822.84
822.587	14904.65
822.915	14857.19
823.243	14880.7
823.57	14780.59
823.898	14856.97
824.225	14811.32
824.553	14781.94
824.88	14751.89
825.207	14827.14
825.535	14808.83
825.862	14871.66
826.189	14787.59
826.516	14860.58
826.843	14862.17
827.17	14883.18
827.497	14817.65
827.824	14763.41
828.151	14784.2
828.478	14812.9
828.805	14870.08
829.131	14812.9
829.458	14735.84
829.785	14765.9
830.111	14675.05
830.438	14769.29
830.764	14710.76
831.09	14738.33
831.417	14656.07
831.743	14669.4
832.069	14729.74
832.395	14688.84
832.722	14680.48
833.048	14697.88
833.374	14661.94
833.7	14652.45
834.026	14532.91
834.351	14678.67
834.677	14623.3
835.003	14614.94
835.329	14549.63
835.654	14641.15
835.98	14504.44
836.306	14571.1
836.631	14476.64
836.956	14444.55
837.282	14484.1
837.607	14343.99
837.932	14430.76
838.258	14400.93
838.583	14268.28
838.908	14282.29
839.233	14332.24
839.558	14277.32
839.883	14174.73
840.208	14136.31
840.533	14180.6
840.858	14240.49
841.182	14219.24
841.507	14175.4
841.832	14031
842.156	14070.77
842.481	14070.77
842.805	14059.47
843.13	14048.18
843.454	13989.42
843.778	13919.14
844.103	13838.01
844.427	13912.13
844.751	13850.21
845.075	13869.65
845.399	13748.3
845.723	13647.28
846.047	13668.98
846.371	13516.44
846.695	13584.23
847.019	13411.13
847.343	13414.52
847.666	13393.96
847.99	13317.35
848.313	13287.07
848.637	13208.88
848.96	13197.12
849.284	13169.1
849.607	13026.73
849.931	13051.82
850.254	12969.56
850.577	12944.7
850.9	12840.52
851.223	12812.73
851.546	12721.88
851.869	12629
852.192	12710.58
852.515	12634.88
852.838	12545.62
853.161	12570.02
853.483	12377.49
853.806	12349.69
854.129	12365.06
854.451	12332.51
854.774	12279.86
855.096	12259.3
855.419	12216.59
855.741	12137.72
856.063	12090.49
856.385	11970.72
856.708	12009.13
857.03	11950.15
857.352	11959.19
857.674	11929.81
857.996	11878.29
858.318	11799.87
858.64	11793.09
858.961	11717.62
859.283	11810.72
859.605	11623.83
859.926	11716.49
860.248	11630.39
860.57	11534.34
860.891	11652.76
861.212	11523.04
861.534	11461.13
861.855	11531.63
862.176	11549.48
862.498	11487.34
862.819	11442.14
863.14	11428.58
863.461	11438.3
863.782	11351.75
864.103	11403.73
864.424	11401.47
864.745	11370.28
865.065	11276.05
865.386	11263.62
865.707	11227.91
866.027	11335.48
866.348	11227.69
866.668	11181.81
866.989	11149.27
867.309	11142.26
867.63	11168.48
867.95	11137.74
868.27	11010.97
868.59	11012.55
868.91	10971.87
869.23	11002.83
869.55	10972.32
869.87	11007.13
870.19	10977.97
870.51	11062.49
870.83	11007.13
871.15	10904.08
871.469	10939.11
871.789	10995.37
872.109	10918.77
872.428	10807.81
872.748	10772.56
873.067	10866.34
873.386	10826.57
873.706	10792.89
874.025	10749.51
874.344	10783.85
874.663	10784.98
874.982	10721.26
875.301	10682.84
875.62	10622.5
875.939	10577.31
876.258	10645.55
876.577	10594.03
876.896	10579.57
877.214	10531.21
877.533	10531.88
877.852	10529.85
878.17	10499.79
878.489	10559.68
878.807	10546.12
879.125	10437.88
879.444	10483.52
879.762	10376.63
880.08	10424.99
880.398	10346.13
880.716	10340.02
881.034	10313.58
881.352	10333.02
881.67	10332.57
881.988	10322.62
882.306	10287.37
882.624	10215.06
882.941	10178
883.259	10162.18
883.577	10194.04
883.894	10154.72
884.212	10113.59
884.529	10146.36
884.846	10084.21
885.164	10085.79
885.481	10004.89
885.798	10060.71
886.115	10007.38
886.432	9976.42
886.75	9961.28
887.067	9982.75
887.383	9971.22
887.7	9913.82
888.017	9879.7
888.334	9869.98
888.651	9792.02
888.967	9848.29
889.284	9794.05
889.6	9784.56
889.917	9649.42
890.233	9655.75
890.55	9635.64
890.866	9683.09
891.182	9543.44
891.498	9568.29
891.815	9535.98
892.131	9489.65
892.447	9491.23
892.763	9458.24
893.079	9463.44
893.395	9373.27
893.71	9438.81
894.026	9333.72
894.342	9310.22
894.657	9296.89
894.973	9285.59
895.289	9274.74
895.604	9174.18
895.92	9162.88
896.235	9160.85
896.55	9085.14
896.865	9102.54
897.181	9066.39
897.496	9035.43
897.811	8936.45
898.126	8946.39
898.441	8877.92
898.756	8903.45
899.071	8834.53
899.386	8855.09
899.7	8752.72
900.015	8708.88
900.33	8666.4
900.644	8680.86
900.959	8669.56
901.273	8641.31
901.588	8612.61
901.902	8583.01
902.216	8509.34
902.531	8561.77
902.845	8453.29
903.159	8427.76
903.473	8414.65
903.787	8367.42
904.101	8316.12
904.415	8313.41
904.729	8300.53
905.042	8296.91
905.356	8244.49
905.67	8181.44
905.984	8239.06
906.297	8155.45
906.611	8084.49
906.924	8096.02
907.237	8078.16
907.551	8024.15
907.864	8024.15
908.177	7972.4
908.491	7974.44
908.804	7878.85
909.117	7865.97
909.43	7832.29
909.743	7844.72
910.056	7834.1
910.368	7733.31
910.681	7708.68
910.994	7739.87
911.307	7678.85
911.619	7609.7
911.932	7596.82
912.244	7513.66
912.557	7560.21
912.869	7525.64
913.181	7434.34
913.494	7416.49
913.806	7412.42
914.118	7415.81
914.43	7326.09
914.742	7330.84
915.054	7352.53
915.366	7210.16
915.678	7229.82
915.99	7157.06
916.302	7183.72
916.613	7109.6
916.925	7113.22
917.236	7081.35
917.548	7023.05
917.859	6988.47
918.171	6969.04
918.482	6952.09
918.794	6891.3
919.105	6915.26
919.416	6860.12
919.727	6837.97
920.038	6802.72
920.349	6815.15
920.66	6695.15
920.971	6698.09
921.282	6717.97
921.593	6644.08
921.903	6634.36
922.214	6623.74
922.525	6628.26
922.835	6590.29
923.146	6524.76
923.456	6491.99
923.767	6452.22
924.077	6442.05
924.387	6411.31
924.697	6423.29
925.008	6426.68
925.318	6340.58
925.628	6287.25
925.938	6224.43
926.248	6224.2
926.558	6184.65
926.867	6183.3
927.177	6149.17
927.487	6113.24
927.796	6106.24
928.106	6111.44
928.416	6059.46
928.725	6021.04
929.034	5997.31
929.344	6037.31
929.653	5973.36
929.962	5942.85
930.271	5922.29
930.581	5849.52
930.89	5871.44
931.199	5843.65
931.508	5826.7
931.817	5748.96
932.125	5779.92
932.434	5729.07
932.743	5716.19
933.051	5665.12
933.36	5659.02
933.669	5595.29
933.977	5637.32
934.286	5561.85
934.594	5560.72
934.902	5518.68
935.21	5503.09
935.519	5554.39
935.827	5475.75
936.135	5436.65
936.443	5433.26
936.751	5407.05
937.059	5421.96
937.367	5362.98
937.674	5371.12
937.982	5341.74
938.29	5305.35
938.597	5295.64
938.905	5252.7
939.213	5221.06
939.52	5173.83
939.827	5221.97
940.135	5162.76
940.442	5136.32
940.749	5090.22
941.056	5146.04
941.363	5078.47
941.67	5061.29
941.977	4965.25
942.284	4999.15
942.591	4987.4
942.898	4987.85
943.205	4945.82
943.511	4941.75
943.818	4890.45
944.125	4875.99
944.431	4833.05
944.738	4833.5
945.044	4820.85
945.35	4817.01
945.657	4753.73
945.963	4765.26
946.269	4745.37
946.575	4760.96
946.881	4653.39
947.187	4640.74
947.493	4678.03
947.799	4641.19
948.105	4650.23
948.41	4555.77
948.716	4571.59
949.022	4569.1
949.327	4491.36
949.633	4498.82
949.938	4487.98
950.244	4474.42
950.549	4484.13
950.854	4471.48
951.16	4403.68
951.465	4374.53
951.77	4381.31
952.075	4350.35
952.38	4357.13
952.685	4365.49
952.99	4317.81
953.294	4281.43
953.599	4254.54
953.904	4276.68
954.209	4188.55
954.513	4213.18
954.818	4211.37
955.122	4165.5
955.426	4148.1
955.731	4188.55
956.035	4094.54
956.339	4106.97
956.643	4039.4
956.948	4089.57
957.252	4037.59
957.556	4069.23
957.86	4017.71
958.163	4049.34
958.467	3983.36
958.771	3946.52
959.075	3906.97
959.378	3919.4
959.682	3935.22
959.985	3862.23
960.289	3926.41
960.592	3881.44
960.896	3853.19
961.199	3791.27
961.502	3815.68
961.805	3797.37
962.108	3796.47
962.411	3747.88
962.714	3723.7
963.017	3752.63
963.32	3720.99
963.623	3682.57
963.926	3732.97
964.228	3682.12
964.531	3632.4
964.833	3632.4
965.136	3655.45
965.438	3615.46
965.741	3609.35
966.043	3560.32
966.345	3522.12
966.648	3584.04
966.95	3539.98
967.252	3519.87
967.554	3488.23
967.856	3458.4
968.158	3432.41
968.46	3473.09
968.761	3428.34
969.063	3428.57
969.365	3376.14
969.666	3381.11
969.968	3359.64
970.269	3351.28
970.571	3342.02
970.872	3365.29
971.174	3315.58
971.475	3313.09
971.776	3335.01
972.077	3252.08
972.378	3283.94
972.679	3275.58
972.98	3247.56
973.281	3205.3
973.582	3213.43
973.883	3216.14
974.183	3180.44
974.484	3195.58
974.785	3182.47
975.085	3139.54
975.386	3129.59
975.686	3130.95
975.986	3124.17
976.287	3091.63
976.587	3054.57
976.887	3041.23
977.187	3057.73
977.487	3029.26
977.787	2971.18
978.087	3014.57
978.387	2978.86
978.687	2998.52
978.987	2941.58
979.286	2945.19
979.586	2944.96
979.885	2884.4
980.185	2907.68
980.484	2885.08
980.784	2888.02
981.083	2854.8
981.382	2871.97
981.682	2873.78
981.981	2813.44
982.28	2810.73
982.579	2784.52
982.878	2796.72
983.177	2756.95
983.475	2752.2
983.774	2746.55
984.073	2734.8
984.372	2707.68
984.67	2721.47
984.969	2722.37
985.267	2689.83
985.566	2696.16
985.864	2659.1
986.162	2629.72
986.461	2623.39
986.759	2639.89
987.057	2635.59
987.355	2612.77
987.653	2605.99
987.951	2593.34
988.249	2564.64
988.547	2597.63
988.844	2558.76
989.142	2521.25
989.44	2527.8
989.737	2514.24
990.035	2490.97
990.332	2474.92
990.63	2465.88
990.927	2481.47
991.224	2476.05
991.521	2451.64
991.819	2417.3
992.116	2439.67
992.413	2438.76
992.71	2415.71
993.006	2385.43
993.303	2385.66
993.6	2361.93
993.897	2358.99
994.193	2358.77
994.49	2346.34
994.787	2350.4
995.083	2313.8
995.379	2269.05
995.676	2263.85
995.972	2277.19
996.268	2312.44
996.565	2270.63
996.861	2239.45
997.157	2215.04
997.453	2224.08
997.749	2227.92
998.044	2205.32
998.34	2203.74
998.636	2173.69
998.932	2157.87
999.227	2153.35
999.523	2156.29
999.818	2123.97
1000.114	2105.21
1000.409	2105.44
1000.704	2085.1
1001	2104.99
1001.295	2078.55
1001.59	2067.47
1001.885	2093.91
1002.18	2067.02
1002.475	2069.51
1002.77	1984.54
1003.065	2011.2
1003.359	1995.16
1003.654	1982.96
1003.949	1956.52
1004.243	1971.21
1004.538	1935.05
1004.832	1947.93
1005.127	1911.77
1005.421	1964.65
1005.715	1917.87
1006.009	1895.73
1006.304	1894.15
1006.598	1905.67
1006.892	1905.22
1007.186	1870.19
1007.48	1866.8
1007.773	1876.74
1008.067	1854.82
1008.361	1826.12
1008.655	1806.69
1008.948	1815.73
1009.242	1820.93
1009.535	1828.38
1009.829	1782.74
1010.122	1789.97
1010.415	1786.58
1010.708	1743.19
1011.001	1739.57
1011.295	1730.99
1011.588	1710.87
1011.881	1684.21
1012.173	1670.65
1012.466	1703.19
1012.759	1680.37
1013.052	1690.76
1013.344	1673.13
1013.637	1666.35
1013.93	1670.87
1014.222	1632.01
1014.514	1631.55
1014.807	1626.58
1015.099	1608.95
1015.391	1577.09
1015.683	1561.72
1015.976	1582.29
1016.268	1580.93
1016.56	1594.27
1016.851	1516.08
1017.143	1549.97
1017.435	1539.13
1017.727	1539.8
1018.018	1516.98
1018.31	1483.99
1018.602	1476.75
1018.893	1460.26
1019.185	1486.25
1019.476	1454.61
1019.767	1467.26
1020.058	1427.72
1020.35	1422.29
1020.641	1409.64
1020.932	1420.49
1021.223	1412.8
1021.514	1406.02
1021.804	1406.7
1022.095	1376.87
1022.386	1384.33
1022.677	1358.34
1022.967	1350.43
1023.258	1348.85
1023.548	1352.01
1023.839	1320.15
1024.129	1319.02
1024.419	1312.47
1024.709	1290.77
1025	1313.14
1025.29	1289.19
1025.58	1282.64
1025.87	1288.06
1026.16	1272.47
1026.449	1281.05
1026.739	1253.03
1027.029	1252.13
1027.319	1243.31
1027.608	1203.99
1027.898	1229.76
1028.187	1228.17
1028.477	1209.19
1028.766	1171.9
1029.055	1195.41
1029.344	1205.58
1029.634	1184.33
1029.923	1161.51
1030.212	1172.36
1030.501	1160.61
1030.79	1111.11
1031.078	1140.72
1031.367	1124
1031.656	1095.75
1031.945	1113.6
1032.233	1098.91
1032.522	1082.87
1032.81	1112.02
1033.099	1079.93
1033.387	1085.58
1033.675	1089.87
1033.963	1044.68
1034.251	1056.88
1034.54	1060.95
1034.828	1092.13
1035.116	1045.81
1035.403	1013.49
1035.691	1025.47
1035.979	1008.07
1036.267	1014.62
1036.554	1010.78
1036.842	985.02
1037.129	993.6
1037.417	979.82
1037.704	977.56
1037.992	1002.87
1038.279	970.33
1038.566	985.02
1038.853	985.02
1039.14	985.02
