Data from hue_70_FLMS001491_36.txt Node
Date: Mon Feb 06 15:20:46 GMT 2017
User: dcchb
Spectrometer: FLMS00149
Trigger mode: 0
Integration Time (sec): 2.000000E-2
Scans to average: 10
Electric dark correction enabled: true
Nonlinearity correction enabled: false
Boxcar width: 0
XAxis mode: Wavelengths
Number of Pixels in Spectrum: 2048
>>>>>Begin Spectral Data<<<<<
341.393	-6.92
341.776	-6.92
342.16	-6.92
342.543	-62.29
342.927	-79.69
343.31	-73.59
343.693	-62.51
344.077	-53.7
344.46	-53.25
344.843	-48.28
345.226	-37.2
345.61	-38.11
345.993	-33.36
346.376	-6.02
346.759	-3.98
347.142	36.92
347.525	31.04
347.908	73.3
348.291	83.02
348.674	80.76
349.057	104.94
349.44	133.41
349.823	137.48
350.206	157.14
350.588	197.37
350.971	204.83
351.354	209.8
351.737	231.27
352.119	240.53
352.502	260.42
352.884	251.15
353.267	292.05
353.65	283.02
354.032	306.97
354.414	307.65
354.797	303.13
355.179	290.7
355.562	320.08
355.944	324.37
356.326	321.21
356.709	321.21
357.091	338.38
357.473	331.15
357.855	349.45
358.238	317.36
358.62	330.02
359.002	351.71
359.384	344.71
359.766	325.05
360.148	337.48
360.53	324.37
360.912	360.08
361.294	356.91
361.676	335.67
362.057	314.88
362.439	328.21
362.821	306.07
363.203	321.43
363.584	328.44
363.966	301.09
364.348	297.25
364.729	312.39
365.111	325.95
365.493	332.51
365.874	301.77
366.256	308.33
366.637	302
367.019	320.98
367.4	314.88
367.781	310.13
368.163	307.2
368.544	293.86
368.925	307.65
369.306	305.16
369.688	298.61
370.069	301.32
370.45	304.94
370.831	328.66
371.212	291.15
371.593	315.56
371.974	295.22
372.355	322.56
372.736	307.42
373.117	308.33
373.498	294.54
373.879	327.99
374.26	304.26
374.641	304.94
375.021	306.07
375.402	287.53
375.783	315.56
376.163	320.75
376.544	313.3
376.925	326.4
377.305	309.23
377.686	315.56
378.066	304.26
378.447	335.22
378.827	317.82
379.208	311.49
379.588	314.65
379.968	316.01
380.349	326.63
380.729	332.73
381.109	327.99
381.489	344.26
381.87	336.57
382.25	330.47
382.63	334.31
383.01	317.59
383.39	325.05
383.77	313.52
384.15	334.09
384.53	354.43
384.91	326.63
385.29	349.23
385.67	337.25
386.049	347.42
386.429	338.83
386.809	345.39
387.189	333.86
387.568	337.48
387.948	333.64
388.328	346.06
388.707	344.93
389.087	347.87
389.466	368.44
389.846	346.97
390.225	337.7
390.605	349.45
390.984	362.79
391.363	351.04
391.743	350.13
392.122	369.11
392.501	345.84
392.881	363.24
393.26	366.85
393.639	349.91
394.018	357.82
394.397	397.59
394.776	355.1
395.155	370.92
395.534	358.27
395.913	387.65
396.292	395.78
396.671	366.85
397.05	374.31
397.429	378.83
397.808	358.04
398.186	360.75
398.565	368.89
398.944	356.01
399.323	370.47
399.701	363.47
400.08	382
400.458	366.4
400.837	388.32
401.215	391.26
401.594	380.41
401.972	385.39
402.351	388.55
402.729	391.71
403.107	369.79
403.486	395.78
403.864	400.75
404.242	399.4
404.62	416.57
404.999	379.96
405.377	429
405.755	402.33
406.133	415.44
406.511	403.92
406.889	393.07
407.267	404.14
407.645	422.67
408.023	403.46
408.401	421.32
408.779	394.88
409.156	404.37
409.534	419.96
409.912	421.99
410.29	439.4
410.667	427.42
411.045	421.99
411.422	424.93
411.8	456.34
412.178	463.58
412.555	437.14
412.933	464.48
413.31	455.44
413.687	452.5
414.065	443.01
414.442	439.85
414.819	441.66
415.197	466.51
415.574	445.04
415.951	455.21
416.328	459.06
416.705	452.73
417.082	462.45
417.46	439.17
417.837	493.86
418.214	483.01
418.591	472.84
418.967	471.94
419.344	490.69
419.721	497.92
420.098	501.09
420.475	482.56
420.852	492.05
421.228	488.43
421.605	478.94
421.982	505.61
422.358	506.74
422.735	499.96
423.111	511.94
423.488	509.68
423.864	512.61
424.241	507.87
424.617	537.47
424.994	510.58
425.37	502.9
425.746	544.93
426.123	533.63
426.499	516.23
426.875	524.82
427.251	537.92
427.627	523.23
428.003	541.09
428.379	565.95
428.756	549.45
429.132	555.32
429.507	556.68
429.883	564.36
430.259	592.84
430.635	564.14
431.011	586.74
431.387	586.96
431.763	596.23
432.138	579.73
432.514	595.1
432.89	574.53
433.265	587.19
433.641	625.38
434.016	606.17
434.392	612.27
434.767	638.71
435.143	606.17
435.518	621.09
435.894	634.64
436.269	639.84
436.644	645.27
437.02	660.63
437.395	641.42
437.77	651.37
438.145	680.97
438.52	669.22
438.895	662.21
439.271	683.46
439.646	679.16
440.021	680.97
440.395	678.03
440.77	685.94
441.145	711.7
441.52	711.48
441.895	689.11
442.27	702.21
442.645	688.43
443.019	680.29
443.394	726.17
443.769	730.01
444.143	712.61
444.518	740.4
444.892	729.56
445.267	725.04
445.641	709.22
446.016	719.61
446.39	736.11
446.764	753.06
447.139	765.94
447.513	763
447.887	780.4
448.262	761.19
448.636	757.8
449.01	752.83
449.384	765.94
449.758	765.04
450.132	800.29
450.506	784.02
450.88	791.25
451.254	817.24
451.628	798.48
452.002	803.91
452.376	814.53
452.75	840.74
453.123	826.5
453.497	835.77
453.871	834.19
454.244	868.08
454.618	871.93
454.992	862.21
455.365	898.59
455.739	877.8
456.112	901.3
456.486	885.49
456.859	907.18
457.232	914.19
457.606	913.51
457.979	932.72
458.352	963.9
458.725	933.17
459.099	960.74
459.472	966.39
459.845	981.53
460.218	1005.48
460.591	1019.49
460.964	1028.31
461.337	1050.23
461.71	1036.22
462.083	1035.09
462.456	1064.24
462.829	1095.42
463.201	1129.32
463.574	1082.54
463.947	1085.03
464.32	1094.29
464.692	1142.88
465.065	1139.72
465.438	1148.98
465.81	1201.64
466.183	1202.31
466.555	1206.15
466.928	1226.27
467.3	1239.6
467.672	1266.94
468.045	1293.38
468.417	1308.75
468.789	1311.24
469.161	1327.96
469.534	1386.49
469.906	1391.01
470.278	1404.57
470.65	1421.29
471.022	1462.87
471.394	1507.84
471.766	1493.38
472.138	1573.15
472.51	1557.11
472.882	1595.97
473.253	1635.07
473.625	1676.65
473.997	1681.62
474.369	1740.15
474.74	1775.86
475.112	1812.92
475.484	1837.32
475.855	1919.13
476.227	1927.27
476.598	2009.3
476.97	2037.77
477.341	2070.54
477.713	2123.64
478.084	2212.91
478.455	2242.74
478.827	2286.8
479.198	2373.13
479.569	2423.07
479.94	2537.87
480.311	2602.28
480.682	2636.17
481.053	2698.54
481.424	2795.27
481.795	2865.55
482.166	2935.6
482.537	3021.02
482.908	3099.21
483.279	3193.22
483.65	3291.98
484.021	3395.48
484.391	3516.15
484.762	3561.57
485.133	3628.01
485.503	3781.45
485.874	3884.95
486.244	3986.87
486.615	4140.77
486.985	4203.59
487.356	4359.29
487.726	4455.79
488.097	4583.92
488.467	4645.16
488.837	4866.4
489.207	4977.58
489.578	5046.05
489.948	5173.73
490.318	5337.8
490.688	5421.86
491.058	5637.68
491.428	5730.78
491.798	5819.14
492.168	6041.51
492.538	6119.7
492.908	6265.68
493.278	6443.76
493.648	6558.33
494.017	6684.65
494.387	6861.6
494.757	6977.75
495.126	7093.91
495.496	7156.28
495.866	7280.12
496.235	7514.01
496.605	7657.28
496.974	7704.74
497.344	7909.71
497.713	8018.63
498.082	8192.19
498.452	8261.79
498.821	8411.61
499.19	8573.42
499.559	8741.1
499.928	8813.19
500.298	8963.46
500.667	9065.61
501.036	9141.77
501.405	9329.78
501.774	9377.01
502.143	9572.49
502.512	9636.44
502.88	9766.83
503.249	9893.16
503.618	10042.53
503.987	10209.76
504.356	10237.1
504.724	10309.87
505.093	10471.22
505.462	10527.27
505.83	10650.65
506.199	10816.52
506.567	11014.71
506.936	11045.67
507.304	11182.16
507.672	11248.15
508.041	11383.29
508.409	11454.92
508.777	11611.76
509.145	11748.25
509.514	11893.11
509.882	11938.98
510.25	12012.65
510.618	12123.16
510.986	12197.73
511.354	12425.07
511.722	12423.71
512.09	12641.33
512.458	12656.25
512.826	12862.12
513.193	12892.4
513.561	12931.95
513.929	13046.3
514.297	13227.99
514.664	13274.76
515.032	13461.2
515.4	13548.43
515.767	13621.87
516.135	13606.73
516.502	13625.04
516.869	13858.25
517.237	13886.73
517.604	13959.49
517.972	14112.93
518.339	14184.8
518.706	14214.63
519.073	14319.26
519.44	14476.54
519.808	14626.37
520.175	14608.97
520.542	14740.49
520.909	14779.58
521.276	14831.33
521.643	15036.75
522.009	15083.53
522.376	15240.36
522.743	15329.4
523.11	15434.93
523.477	15610.75
523.843	15561.94
524.21	15806.45
524.577	15822.04
524.943	15959.21
525.31	16043.05
525.676	16169.83
526.043	16232.43
526.409	16257.28
526.776	16410.95
527.142	16469.71
527.508	16485.53
527.874	16627.22
528.241	16754.22
528.607	16684.17
528.973	16887.1
529.339	16839.64
529.705	17070.37
530.071	17180.65
530.437	17253.64
530.803	17242.12
531.169	17372.28
531.535	17285.51
531.901	17326.18
532.267	17478.72
532.632	17492.51
532.998	17611.6
533.364	17615.44
533.73	17696.34
534.095	17944.02
534.461	17860.18
534.826	17956.67
535.192	17885.94
535.557	18049.1
535.923	18010.46
536.288	18103.56
536.653	18122.55
537.019	17985.37
537.384	18122.77
537.749	18217.46
538.114	18196.22
538.479	18252.49
538.845	18322.09
539.21	18240.28
539.575	18326.38
539.94	18346.95
540.305	18496.77
540.67	18474.85
541.034	18455.19
541.399	18520.73
541.764	18484.34
542.129	18480.5
542.494	18564.12
542.858	18558.92
543.223	18551.01
543.587	18653.38
543.952	18609.09
544.316	18678.01
544.681	18656.32
545.045	18748.97
545.41	18813.6
545.774	18820.15
546.138	18766.6
546.503	18889.76
546.867	18690.21
547.231	18974.5
547.595	18885.92
547.959	18970.66
548.324	18958.68
548.688	18909.42
549.052	18961.39
549.416	18976.53
549.779	19036.19
550.143	18927.27
550.507	19126.14
550.871	19121.62
551.235	19108.51
551.599	19298.11
551.962	19174.04
552.326	19236.42
552.689	19330.65
553.053	19201.39
553.417	19228.28
553.78	19473.92
554.143	19285.68
554.507	19389.41
554.87	19472.12
555.234	19536.07
555.597	19551.21
555.96	19542.17
556.323	19639.12
556.686	19582.17
557.05	19636.63
557.413	19652.9
557.776	19691.77
558.139	19844.08
558.502	19842.5
558.865	19897.64
559.228	19960.46
559.59	20066.45
559.953	19935.15
560.316	20251.98
560.679	20192.77
561.041	20184.86
561.404	20366.33
561.767	20434.12
562.129	20280.68
562.492	20524.74
562.854	20446.78
563.217	20509.6
563.579	20574.23
563.941	20657.39
564.304	20717.51
564.666	20811.29
565.028	20865.75
565.39	20842.02
565.753	20948.69
566.115	21065.07
566.477	21096.48
566.839	21109.59
567.201	21194.56
567.563	21212.18
567.925	21384.61
568.287	21378.28
568.648	21442.68
569.01	21561.1
569.372	21616.92
569.734	21357.94
570.095	21602.91
570.457	21775.78
570.819	21718.61
571.18	21618.95
571.542	21768.1
571.903	21891.71
572.265	21942.33
572.626	22048.77
572.987	22044.93
573.349	21971.48
573.71	22136.23
574.071	22219.39
574.432	22239.27
574.794	22285.83
575.155	22346.62
575.516	22264.13
575.877	22389.1
576.238	22306.84
576.599	22411.02
576.96	22433.39
577.32	22542.09
577.681	22565.82
578.042	22505.26
578.403	22596.55
578.763	22538.02
579.124	22710.9
579.485	22655.53
579.845	22722.88
580.206	22619.15
580.566	22634.74
580.927	22704.35
581.287	22907.51
581.648	22715.42
582.008	22872.48
582.368	22811.24
582.728	22922.65
583.089	22822.99
583.449	22756.32
583.809	22785.93
584.169	22819.15
584.529	22703.44
584.889	22996.32
585.249	22868.18
585.609	22742.54
585.969	22900.5
586.329	22743.89
586.688	22888.07
587.048	22869.31
587.408	22791.35
587.768	22800.16
588.127	22841.29
588.487	22851.69
588.846	22956.09
589.206	22803.33
589.565	22737.11
589.925	22941.18
590.284	22772.14
590.643	22850.56
591.003	22905.25
591.362	22909.31
591.721	22902.99
592.08	22847.85
592.44	22908.18
592.799	22838.35
593.158	22863.21
593.517	22935.53
593.876	22867.96
594.235	22955.64
594.593	22897.79
594.952	22941.18
595.311	22864.79
595.67	22888.07
596.029	23029.31
596.387	23029.54
596.746	22993.6
597.104	23015.3
597.463	22949.09
597.822	23019.37
598.18	22962.42
598.538	22867.05
598.897	22990.67
599.255	22722.2
599.613	23126.93
599.972	22966.49
600.33	23183.66
600.688	23046.94
601.046	23117.44
601.404	23114.96
601.762	23087.39
602.12	23195.41
602.478	23156.09
602.836	23217.78
603.194	23121.51
603.552	23157.89
603.91	23104.34
604.268	23310.21
604.625	23194.5
604.983	23267.95
605.341	23098.46
605.698	23274.73
606.056	23371.9
606.413	23332.35
606.771	23388.4
607.128	23398.79
607.485	23408.96
607.843	23286.25
608.2	23476.3
608.557	23482.63
608.914	23512.46
609.272	23529.18
609.629	23631.55
609.986	23636.53
610.343	23618.22
610.7	23766.69
611.057	23690.31
611.414	23702.29
611.771	23775.5
612.127	23803.3
612.484	23829.29
612.841	23926.01
613.198	23835.39
613.554	23860.25
613.911	23945.44
614.267	23945.67
614.624	23881.04
614.98	24010.75
615.337	24121.48
615.693	23944.09
616.05	24000.81
616.406	24146.57
616.762	24089.39
617.118	24105.44
617.475	24193.8
617.831	24152.67
618.187	24238.32
618.543	24236.06
618.899	24408.26
619.255	24447.13
619.611	24347.47
619.967	24366.68
620.323	24500.46
620.678	24345.43
621.034	24284.87
621.39	24248.94
621.746	24351.31
622.101	24568.7
622.457	24430.4
622.812	24469.5
623.168	24431.31
623.523	24526.9
623.879	24580.46
624.234	24419.33
624.589	24514.69
624.945	24526.45
625.3	24497.97
625.655	24512.21
626.01	24428.14
626.365	24654.35
626.72	24510.63
627.075	24578.2
627.43	24511.98
627.785	24476.5
628.14	24619.32
628.495	24561.25
628.85	24469.27
629.205	24458.2
629.559	24580
629.914	24492.77
630.269	24572.09
630.623	24411.65
630.978	24471.53
631.332	24504.3
631.687	24552.21
632.041	24511.08
632.396	24474.7
632.75	24378.2
633.104	24346.34
633.459	24255.27
633.813	24280.58
634.167	24409.61
634.521	24317.19
634.875	24326.45
635.229	24339.56
635.583	24194.7
635.937	24214.82
636.291	24192.67
636.645	24313.34
636.999	24157.64
637.352	24180.69
637.706	24004.65
638.06	24160.58
638.413	24099.34
638.767	24048.49
639.121	24127.13
639.474	23974.82
639.828	24016.63
640.181	24085.33
640.534	23982.51
640.888	24004.43
641.241	23872.9
641.594	24023.63
641.947	24008.72
642.301	23960.36
642.654	23913.13
643.007	23985.67
643.36	23904.77
643.713	23811.66
644.066	23836.52
644.419	23811.44
644.771	23631.55
645.124	23438.56
645.477	23329.41
645.83	23258.23
646.182	23127.84
646.535	23159.48
646.888	23205.12
647.24	22961.29
647.593	23136.65
647.945	23122.19
648.298	22969.2
648.65	22903.66
649.002	22875.19
649.355	23024.34
649.707	22863.21
650.059	22981.18
650.411	23316.53
650.763	23341.17
651.115	23547.26
651.467	23636.07
651.819	23567.15
652.171	23505.91
652.523	23396.98
652.875	23342.75
653.227	23302.52
653.578	23473.59
653.93	23375.74
654.282	23317.66
654.633	23297.55
654.985	23357.66
655.337	23404.67
655.688	23356.31
656.039	23408.73
656.391	23271.79
656.742	23328.74
657.094	23331.22
657.445	23319.7
657.796	23437.66
658.147	23425.01
658.498	23273.6
658.849	23420.03
659.2	23304.56
659.551	23227.72
659.902	23364.89
660.253	23389.07
660.604	23374.39
660.955	23211
661.306	23205.8
661.656	23300.94
662.007	23345.01
662.358	23356.76
662.708	23426.59
663.059	23273.6
663.409	23105.24
663.76	23389.53
664.11	23196.54
664.461	23333.48
664.811	23323.77
665.161	23301.39
665.511	23219.14
665.862	23249.19
666.212	23363.31
666.562	23381.39
666.912	23239.25
667.262	23263.2
667.612	23375.52
667.962	23303.2
668.312	23260.49
668.662	23403.76
669.011	23330.54
669.361	23147.5
669.711	23220.27
670.06	23167.16
670.41	23258.46
670.76	23240.38
671.109	23211.23
671.459	23200.6
671.808	23161.96
672.157	23181.17
672.507	22992.93
672.856	23047.39
673.205	23145.01
673.554	23154.05
673.904	23080.38
674.253	23187.95
674.602	23057.33
674.951	22710.45
675.3	22584.12
675.649	22989.31
675.998	22906.83
676.346	22985.24
676.695	23020.5
677.044	22960.16
677.393	22842.65
677.741	22991.12
678.09	22910.67
678.438	22826.15
678.787	22910.67
679.135	22900.5
679.484	22824.34
679.832	22818.92
680.181	22654.4
680.529	22776.44
680.877	22712.93
681.225	22635.42
681.573	22789.77
681.922	22607.17
682.27	22528.98
682.618	22587.06
682.966	22545.25
683.314	22645.82
683.661	22476.78
684.009	22282.89
684.357	22297.58
684.705	22316.56
685.053	22293.74
685.4	22262.32
685.748	22047.41
686.095	22205.15
686.443	22056.68
686.79	22015.78
687.138	22073.85
687.485	21974.87
687.832	21878.83
688.18	21842.45
688.527	21831.38
688.874	21742.11
689.221	21764.03
689.568	21680.64
689.915	21549.35
690.262	21601.78
690.609	21479.52
690.956	21371.73
691.303	21412.18
691.65	21318.85
691.997	21280.88
692.344	21113.2
692.69	21150.04
693.037	21108
693.383	20928.35
693.73	21144.16
694.077	20936.26
694.423	20959.76
694.769	20847.45
695.116	20807.45
695.462	20812.87
695.808	20734.68
696.155	20762.93
696.501	20480.9
696.847	20555.48
697.193	20371.98
697.539	20449.26
697.885	20267.35
698.231	20167.46
698.577	20153
698.923	20065.55
699.269	20049.73
699.614	19942.84
699.96	19840.92
700.306	19923.18
700.651	19750.07
700.997	19701.49
701.342	19637.31
701.688	19643.18
702.033	19522.74
702.379	19587.37
702.724	19347.6
703.069	19539.23
703.415	19260.14
703.76	19232.57
704.105	19280.93
704.45	19229.86
704.795	19130.2
705.14	19051.11
705.485	19150.77
705.83	18989.87
706.175	18938.34
706.52	18892.7
706.865	18863.77
707.209	18872.13
707.554	18744.22
707.899	18787.16
708.243	18621.97
708.588	18502.2
708.932	18395.53
709.277	18446.61
709.621	18494.06
709.966	18308.76
710.31	18415.65
710.654	18170
710.998	18308.53
711.342	18247.74
711.687	18157.35
712.031	18090.23
712.375	18005.49
712.719	18138.36
713.063	17984.02
713.407	17985.15
713.75	18017.24
714.094	17884.59
714.438	17826.28
714.782	17818.37
715.125	17838.26
715.469	17783.57
715.812	17710.81
716.156	17604.14
716.499	17544.03
716.843	17678.04
717.186	17593.97
717.53	17643.24
717.873	17638.04
718.216	17580.87
718.559	17481.66
718.902	17339.74
719.246	17406.86
719.589	17310.14
719.932	17328.67
720.275	17269.01
720.617	17357.14
720.96	17239.63
721.303	17171.38
721.646	17275.79
721.989	17146.75
722.331	17168.67
722.674	17071.27
723.016	17133.65
723.359	17104.49
723.701	17122.57
724.044	16925.97
724.386	16923.48
724.729	16980.43
725.071	16892.75
725.413	16918.06
725.755	16902.92
726.097	16822.69
726.439	16727.1
726.782	16849.59
727.124	16919.87
727.465	16775.69
727.807	16798.51
728.149	16733.88
728.491	16737.5
728.833	16746.99
729.175	16742.47
729.516	16700.21
729.858	16613.66
730.199	16676.26
730.541	16613.66
730.882	16539.99
731.224	16667.22
731.565	16513.55
731.906	16530.27
732.248	16652.3
732.589	16514.45
732.93	16441.91
733.271	16445.3
733.612	16505.19
733.953	16544.73
734.294	16473.55
734.635	16430.16
734.976	16501.35
735.317	16412.99
735.658	16424.96
735.999	16456.6
736.339	16452.76
736.68	16545.41
737.021	16422.25
737.361	16283.27
737.702	16504.51
738.042	16354.91
738.383	16387.22
738.723	16349.71
739.063	16308.81
739.404	16323.27
739.744	16322.14
740.084	16268.81
740.424	16317.85
740.764	16352.42
741.104	16395.13
741.444	16271.3
741.784	16274.91
742.124	16265.65
742.464	16277.4
742.804	16275.59
743.143	16286.66
743.483	16342.48
743.823	16295.02
744.162	16287.57
744.502	16342.48
744.841	16286.44
745.181	16373.44
745.52	16322.14
745.86	16436.94
746.199	16405.53
746.538	16413.44
746.877	16458.41
747.216	16543.6
747.556	16433.1
747.895	16524.17
748.234	16526.43
748.573	16522.59
748.911	16563.04
749.25	16593.09
749.589	16558.29
749.928	16689.36
750.267	16620.21
750.605	16752.64
750.944	16878.96
751.283	16766.42
751.621	16868.57
751.96	16772.3
752.298	16932.75
752.636	17012.74
752.975	16994.67
753.313	16984.72
753.651	17226.07
753.989	17203.02
754.327	17186.53
754.666	17131.39
755.004	17339.29
755.342	17333.87
755.679	17386.07
756.017	17438.5
756.355	17576.8
756.693	17649.34
757.031	17686.63
757.368	17673.74
757.706	17774.76
758.044	17772.95
758.381	17850.91
758.719	17939.95
759.056	17994.64
759.394	17998.48
759.731	18007.52
760.068	18123.22
760.405	18115.54
760.743	18154.41
761.08	18233.05
761.417	18385.82
761.754	18328.64
762.091	18382.43
762.428	18307.4
762.765	18416.1
763.102	18466.49
763.438	18456.55
763.775	18482.31
764.112	18524.34
764.449	18558.01
764.785	18636.88
765.122	18658.58
765.458	18576.55
765.795	18621.74
766.131	18765.69
766.467	18672.14
766.804	18715.98
767.14	18711.91
767.476	18770.21
767.812	18644.34
768.148	18712.14
768.485	18648.86
768.821	18645.24
769.157	18700.16
769.492	18691.12
769.828	18697.45
770.164	18624.68
770.5	18685.02
770.836	18599.6
771.171	18548.75
771.507	18600.05
771.842	18505.81
772.178	18566.15
772.513	18580.16
772.849	18499.26
773.184	18517.56
773.519	18548.52
773.855	18455.64
774.19	18459.71
774.525	18377.23
774.86	18423.78
775.195	18386.95
775.53	18329.55
775.865	18246.84
776.2	18227.63
776.535	18033.51
776.87	18053.85
777.205	18065.15
777.539	18061.76
777.874	18021.76
778.209	17919.61
778.543	17891.37
778.878	17872.38
779.212	17793.97
779.547	17659.28
779.881	17793.74
780.215	17704.93
780.55	17734.31
780.884	17612.05
781.218	17572.96
781.552	17668.55
781.886	17497.7
782.22	17489.34
782.554	17292.51
782.888	17243.02
783.222	17210.93
783.556	17126.41
783.889	17189.46
784.223	16985.63
784.557	17009.36
784.89	17083.93
785.224	16794.9
785.557	16859.08
785.891	16879.41
786.224	16753.54
786.558	16740.66
786.891	16545.64
787.224	16538.63
787.557	16552.64
787.891	16487.11
788.224	16521.46
788.557	16578.86
788.89	16462.93
789.223	16450.5
789.556	16272.88
789.888	16221.35
790.221	16170.51
790.554	15994.47
790.887	16057.06
791.219	16075.14
791.552	15912.43
791.884	15896.39
792.217	15909.72
792.549	15831.31
792.882	15778.2
793.214	15676.06
793.546	15623.63
793.879	15586.79
794.211	15523.29
794.543	15551.77
794.875	15485.55
795.207	15523.74
795.539	15485.1
795.871	15459.34
796.203	15352.45
796.535	15194.94
796.867	15252.34
797.198	15212.34
797.53	15239.01
797.862	15012.35
798.193	15037.43
798.525	15028.62
798.856	15029.29
799.188	14855.74
799.519	14802.63
799.85	14778.91
800.182	14792.01
800.513	14774.16
800.844	14669.53
801.175	14635.18
801.506	14624.11
801.837	14606.48
802.168	14583.43
802.499	14582.98
802.83	14377.56
803.161	14352.02
803.491	14351.12
803.822	14373.72
804.153	14303.21
804.483	14245.81
804.814	14174.63
805.145	14130.56
805.475	14102.54
805.805	14081.97
806.136	14060.73
806.466	13999.04
806.796	14007.17
807.126	13974.18
807.457	13861.64
807.787	13930.79
808.117	13891.02
808.447	13735.99
808.777	13797.46
809.107	13677.92
809.436	13685.6
809.766	13638.37
810.096	13606.51
810.426	13569.67
810.755	13554.76
811.085	13547.3
811.414	13471.59
811.744	13391.6
812.073	13346.17
812.403	13369.45
812.732	13238.38
813.061	13326.51
813.39	13206.52
813.719	13197.7
814.049	13237.25
814.378	13117.93
814.707	13116.35
815.036	13138.04
815.365	13076.58
815.693	12968.56
816.022	13008.78
816.351	12930.82
816.68	12843.14
817.008	12867.32
817.337	12867.77
817.665	12725.17
817.994	12808.56
818.322	12777.38
818.651	12709.13
818.979	12612.41
819.307	12645.4
819.636	12633.65
819.964	12526.08
820.292	12550.72
820.62	12635.68
820.948	12597.04
821.276	12657.83
821.604	12527.44
821.932	12639.07
822.259	12618.51
822.587	12557.49
822.915	12544.16
823.243	12526.54
823.57	12517.27
823.898	12514.11
824.225	12486.76
824.553	12560.66
824.88	12475.91
825.207	12555.91
825.535	12526.54
825.862	12515.01
826.189	12545.97
826.516	12516.59
826.843	12576.25
827.17	12582.13
827.497	12585.06
827.824	12554.33
828.151	12583.03
828.478	12529.25
828.805	12512.75
829.131	12408.12
829.458	12440.21
829.785	12481.11
830.111	12483.15
830.438	12468.91
830.764	12470.49
831.09	12488.34
831.417	12409.93
831.743	12474.56
832.069	12442.24
832.395	12391.4
832.722	12422.36
833.048	12312.53
833.374	12447.44
833.7	12302.81
834.026	12426.88
834.351	12410.83
834.677	12426.88
835.003	12405.63
835.329	12372.41
835.654	12291.29
835.98	12289.71
836.306	12358.86
836.631	12169.48
836.956	12246.77
837.282	12262.59
837.607	12124.06
837.932	12220.78
838.258	12114.57
838.583	12195.02
838.908	12016.27
839.233	12150.05
839.558	12085.87
839.883	12017.4
840.208	11958.87
840.533	12063.72
840.858	12059.43
841.182	11974.23
841.507	11982.37
841.832	11880.9
842.156	11863.5
842.481	11882.94
842.805	11909.15
843.13	11823.5
843.454	11816.5
843.778	11682.49
844.103	11793.9
844.427	11738.31
844.751	11748.93
845.075	11676.16
845.399	11654.47
845.723	11622.6
846.047	11566.33
846.371	11504.87
846.695	11517.97
847.019	11387.81
847.343	11287.25
847.666	11323.85
847.99	11259.68
848.313	11257.87
848.637	11178.32
848.96	11150.75
849.284	11164.31
849.607	11003.86
849.931	11093.58
850.254	10953.02
850.577	10889.97
850.9	10769.97
851.223	10883.41
851.546	10755.73
851.869	10698.79
852.192	10797.99
852.515	10665.12
852.838	10663.31
853.161	10588.05
853.483	10539.24
853.806	10470.32
854.129	10517.55
854.451	10473.03
854.774	10405.69
855.096	10402.52
855.419	10346.71
855.741	10326.37
856.063	10268.52
856.385	10196.65
856.708	10168.63
857.03	10195.52
857.352	10172.92
857.674	10056.09
857.996	10089.54
858.318	10064.68
858.64	10020.39
858.961	10045.92
859.283	9844.12
859.605	9903.1
859.926	9956.43
860.248	9945.13
860.57	9840.73
860.891	9859.49
861.212	9764.57
861.534	9805.02
861.855	9813.84
862.176	9811.35
862.498	9829.43
862.819	9720.06
863.14	9603
863.461	9686.84
863.782	9606.84
864.103	9622.88
864.424	9606.16
864.745	9657.46
865.065	9504.02
865.386	9534.3
865.707	9577.46
866.027	9607.52
866.348	9483.45
866.668	9476.45
866.989	9510.12
867.309	9375.21
867.63	9448.65
867.95	9433.06
868.27	9428.09
868.59	9416.11
868.91	9393.96
869.23	9359.84
869.55	9294.53
869.87	9452.94
870.19	9409.33
870.51	9360.74
870.83	9372.04
871.15	9243.46
871.469	9236
871.789	9271.93
872.109	9308.99
872.428	9257.47
872.748	9245.72
873.067	9239.84
873.386	9208.88
873.706	9200.29
874.025	9130.24
874.344	9123.91
874.663	9120.3
874.982	9079.62
875.301	9139.51
875.62	9033.29
875.939	9099.51
876.258	9028.32
876.577	9019.73
876.896	8995.1
877.214	9017.7
877.533	9050.69
877.852	8965.5
878.17	8961.43
878.489	9003.46
878.807	8932.73
879.125	8838.5
879.444	8890.25
879.762	8848.89
880.08	8886.4
880.398	8821.55
880.716	8866.29
881.034	8841.89
881.352	8840.76
881.67	8769.35
881.988	8753.53
882.306	8770.48
882.624	8695
882.941	8648.67
883.259	8621.55
883.577	8628.33
883.894	8604.83
884.212	8566.64
884.529	8588.33
884.846	8580.65
885.164	8536.36
885.481	8513.31
885.798	8472.18
886.115	8472.86
886.432	8452.29
886.75	8375.91
887.067	8399.64
887.383	8406.42
887.7	8414.33
888.017	8336.59
888.334	8361.9
888.651	8302.69
888.967	8305.4
889.284	8304.5
889.6	8245.29
889.917	8163.26
890.233	8210.49
890.55	8147.22
890.866	8197.61
891.182	8160.32
891.498	8112.87
891.815	8086.65
892.131	8066.54
892.447	8049.36
892.763	8007.78
893.079	8014.79
893.395	7972.08
893.71	7988.8
894.026	7916.94
894.342	7897.73
894.657	7858.64
894.973	7833.1
895.289	7834.91
895.604	7841.01
895.92	7755.14
896.235	7741.58
896.55	7760.11
896.865	7670.84
897.181	7661.13
897.496	7703.61
897.811	7615.48
898.126	7620
898.441	7607.34
898.756	7584.07
899.071	7514.01
899.386	7462.49
899.7	7440.34
900.015	7461.58
900.33	7331.64
900.644	7353.79
900.959	7420.45
901.273	7349.04
901.588	7283.28
901.902	7259.55
902.216	7248.48
902.531	7228.6
902.845	7213
903.159	7149.28
903.473	7134.13
903.787	7066.11
904.101	7089.39
904.415	7094.81
904.729	7076.51
905.042	7016.17
905.356	6982.27
905.67	6989.28
905.984	6949.96
906.297	6923.29
906.611	6867.02
906.924	6897.3
907.237	6830.64
907.551	6794.93
907.864	6799.68
908.177	6800.36
908.491	6727.37
908.804	6704.77
909.117	6695.5
909.43	6653.24
909.743	6633.36
910.056	6597.88
910.368	6593.13
910.681	6515.85
910.994	6501.16
911.307	6513.13
911.619	6394.27
911.932	6417.77
912.244	6353.14
912.557	6379.8
912.869	6372.8
913.181	6307.26
913.494	6324.89
913.806	6227.72
914.118	6281.73
914.43	6220.49
914.742	6165.57
915.054	6205.8
915.366	6124.67
915.678	6122.64
915.99	6158.79
916.302	6013.26
916.613	6046.71
916.925	6096.42
917.236	6007.84
917.548	6022.3
917.859	6081.05
918.171	5901.17
918.482	5889.87
918.794	5915.86
919.105	5903.43
919.416	5860.5
919.727	5833.6
920.038	5829.08
920.349	5758.13
920.66	5716.77
920.971	5697.11
921.282	5695.08
921.593	5688.97
921.903	5573.95
922.214	5613.27
922.525	5602.42
922.835	5554.97
923.146	5569.66
923.456	5555.42
923.767	5523.78
924.077	5499.83
924.387	5463.67
924.697	5482.2
925.008	5411.24
925.318	5416.67
925.628	5373.95
925.938	5350.68
926.248	5328.98
926.558	5290.57
926.867	5294.41
927.177	5266.84
927.487	5274.07
927.796	5183.45
928.106	5161.98
928.416	5166.5
928.725	5166.5
929.034	5136.9
929.344	5101.42
929.653	5104.81
929.962	5047.64
930.271	5052.83
930.581	5018.94
930.89	5002.44
931.199	4964.25
931.508	4967.86
931.817	4971.48
932.125	4967.86
932.434	4937.81
932.743	4932.16
933.051	4863.46
933.36	4806.74
933.669	4827.98
933.977	4799.96
934.286	4752.5
934.594	4739.4
934.902	4723.8
935.21	4715.67
935.519	4704.14
935.827	4692.84
936.135	4631.6
936.443	4630.92
936.751	4610.13
937.059	4599.29
937.367	4576.46
937.674	4569.23
937.982	4599.51
938.29	4508.21
938.597	4536.01
938.905	4469.8
939.213	4440.19
939.52	4458.95
939.827	4434.09
940.135	4425.96
940.442	4432.96
940.749	4344.38
941.056	4367.65
941.363	4329.24
941.67	4307.77
941.977	4302.34
942.284	4277.71
942.591	4240.88
942.898	4257.83
943.205	4254.21
943.511	4223.48
943.818	4213.31
944.125	4170.37
944.431	4160.43
944.738	4164.95
945.044	4139.41
945.35	4100.77
945.657	4091.5
945.963	4013.99
946.269	4037.04
946.575	4060.32
946.881	4000.43
947.187	4035.23
947.493	3995.01
947.799	3977.61
948.105	3944.84
948.41	3917.5
948.716	3888.34
949.022	3861.9
949.327	3918.4
949.633	3877.04
949.938	3847.44
950.244	3876.59
950.549	3787.1
950.854	3786.2
951.16	3755.92
951.465	3771.06
951.77	3764.05
952.075	3740.78
952.38	3709.37
952.685	3705.3
952.99	3703.72
953.294	3667.11
953.599	3637.73
953.904	3645.41
954.209	3654.23
954.513	3630.72
954.818	3630.95
955.122	3612.65
955.426	3612.65
955.731	3581.46
956.035	3521.12
956.339	3511.63
956.643	3507.11
956.948	3492.42
957.252	3479.09
957.556	3472.54
957.86	3437.06
958.163	3435.93
958.467	3443.38
958.771	3393.44
959.075	3348.7
959.378	3359.77
959.682	3344.4
959.985	3330.62
960.289	3326.1
960.592	3294.69
960.896	3289.04
961.199	3261.02
961.502	3283.39
961.805	3277.96
962.108	3224.63
962.411	3200.9
962.714	3193.22
963.017	3184.18
963.32	3199.55
963.623	3174.69
963.926	3191.64
964.228	3135.82
964.531	3124.97
964.833	3133.11
965.136	3119.1
965.438	3111.42
965.741	3078.2
966.043	3069.61
966.345	3026.45
966.648	3037.97
966.95	3047.69
967.252	3009.05
967.554	2978.76
967.856	3006.79
968.158	3000.46
968.46	2953.68
968.761	2965.43
969.063	2911.19
969.365	2940.57
969.666	2898.54
969.968	2876.62
970.269	2901.93
970.571	2911.19
970.872	2816.96
971.174	2845.89
971.475	2860.12
971.776	2854.47
972.077	2807.02
972.378	2831.65
972.679	2826.23
972.98	2769.96
973.281	2804.76
973.582	2774.25
973.883	2754.81
974.183	2699.45
974.484	2699.67
974.785	2687.7
975.085	2692.9
975.386	2679.34
975.686	2728.15
975.986	2686.79
976.287	2685.89
976.587	2639.56
976.887	2643.18
977.187	2628.49
977.487	2594.59
977.787	2592.33
978.087	2610.86
978.387	2590.98
978.687	2557.53
978.987	2536.74
979.286	2519.34
979.586	2524.54
979.885	2508.95
980.185	2507.82
980.484	2508.04
980.784	2477.53
981.083	2441.38
981.382	2454.26
981.682	2430.3
981.981	2461.71
982.28	2443.41
982.579	2399.57
982.878	2429.85
983.177	2388.5
983.475	2362.96
983.774	2382.62
984.073	2358.44
984.372	2313.7
984.67	2370.87
984.969	2372.23
985.267	2320.7
985.566	2296.3
985.864	2331.77
986.162	2306.69
986.461	2308.72
986.759	2274.83
987.057	2240.93
987.355	2278.89
987.653	2243.42
987.951	2211.78
988.249	2198.9
988.547	2233.92
988.844	2215.39
989.142	2186.47
989.44	2204.32
989.737	2188.05
990.035	2183.76
990.332	2173.59
990.63	2149.18
990.927	2152.12
991.224	2120.03
991.521	2137.43
991.819	2109.86
992.116	2146.69
992.413	2064.66
992.71	2103.31
993.006	2072.35
993.303	2065.79
993.6	2055.62
993.897	2046.81
994.193	2043.87
994.49	2015.4
994.787	2016.53
995.083	1995.29
995.379	1994.83
995.676	2005.91
995.972	1988.73
996.268	1949.41
996.565	1957.32
996.861	1969.07
997.157	1936.08
997.453	1949.64
997.749	1958.45
998.044	1911.67
998.34	1932.24
998.636	1880.94
998.932	1903.09
999.227	1845.46
999.523	1846.82
999.818	1859.02
1000.114	1860.83
1000.409	1820.15
1000.704	1845.01
1001	1832.13
1001.295	1821.28
1001.59	1801.17
1001.885	1783.99
1002.18	1773.15
1002.475	1774.5
1002.77	1763.2
1003.065	1756.42
1003.359	1782.18
1003.654	1713.03
1003.949	1725.01
1004.243	1767.27
1004.538	1725.46
1004.832	1723.43
1005.127	1684.11
1005.421	1683.43
1005.715	1695.18
1006.009	1665.13
1006.304	1673.26
1006.598	1636.88
1006.892	1644.11
1007.186	1641.85
1007.48	1619.03
1007.773	1619.48
1008.067	1582.19
1008.361	1612.25
1008.655	1580.61
1008.948	1566.82
1009.242	1557.78
1009.535	1562.3
1009.829	1547.39
1010.122	1547.39
1010.415	1554.39
1010.708	1510.78
1011.001	1518.69
1011.295	1501.06
1011.588	1486.83
1011.881	1486.83
1012.173	1485.24
1012.466	1465.58
1012.759	1459.93
1013.052	1462.87
1013.344	1437.79
1013.637	1440.95
1013.93	1435.08
1014.222	1450.44
1014.514	1403.21
1014.807	1396.43
1015.099	1411.35
1015.391	1410.44
1015.683	1373.61
1015.976	1373.16
1016.268	1348.98
1016.56	1360.73
1016.851	1359.15
1017.143	1335.42
1017.435	1342.42
1017.727	1336.77
1018.018	1334.96
1018.31	1309.43
1018.602	1307.85
1018.893	1305.14
1019.185	1301.75
1019.476	1272.82
1019.767	1286.38
1020.058	1249.54
1020.35	1248.87
1020.641	1231.46
1020.932	1259.71
1021.223	1224.91
1021.514	1242.99
1021.804	1220.62
1022.095	1226.27
1022.386	1215.42
1022.677	1202.09
1022.967	1168.87
1023.258	1168.64
1023.548	1188.08
1023.839	1167.06
1024.129	1186.04
1024.419	1185.36
1024.709	1141.52
1025	1145.14
1025.29	1132.48
1025.58	1117.12
1025.87	1115.08
1026.16	1092.49
1026.449	1122.32
1026.739	1099.04
1027.029	1085.25
1027.319	1090.23
1027.608	1076.89
1027.898	1087.97
1028.187	1057.23
1028.477	1049.77
1028.766	1046.61
1029.055	1034.41
1029.344	1052.03
1029.634	1040.06
1029.923	1018.59
1030.212	1047.06
1030.501	1026.5
1030.79	1001.41
1031.078	1018.36
1031.367	985.37
1031.656	1001.87
1031.945	1003.67
1032.233	997.12
1032.522	949.66
1032.81	959.16
1033.099	962.32
1033.387	952.15
1033.675	949.44
1033.963	941.75
1034.251	932.72
1034.54	943.56
1034.828	903.79
1035.116	931.59
1035.403	927.07
1035.691	940.4
1035.979	904.47
1036.267	887.52
1036.554	894.75
1036.842	898.37
1037.129	883
1037.417	869.21
1037.704	886.62
1037.992	868.08
1038.279	872.38
1038.566	843.23
1038.853	843.23
1039.14	843.23
