Data from hue_70_FLMS001491_1.txt Node
Date: Mon Feb 06 15:19:58 GMT 2017
User: dcchb
Spectrometer: FLMS00149
Trigger mode: 0
Integration Time (sec): 2.000000E-2
Scans to average: 10
Electric dark correction enabled: true
Nonlinearity correction enabled: false
Boxcar width: 0
XAxis mode: Wavelengths
Number of Pixels in Spectrum: 2048
>>>>>Begin Spectral Data<<<<<
341.393	-4.93
341.776	-4.93
342.16	-4.93
342.543	-63.46
342.927	-69.56
343.31	-50.8
343.693	-68.88
344.077	-66.62
344.46	-69.56
344.843	-61.2
345.226	-43.8
345.61	-17.58
345.993	-27.3
346.376	-16.68
346.759	6.14
347.142	38.01
347.525	26.93
347.908	46.37
348.291	77.55
348.674	102.86
349.057	124.56
349.44	130.66
349.823	144.9
350.206	161.85
350.588	187.61
350.971	217.44
351.354	219.7
351.737	219.7
352.119	238.91
352.502	254.5
352.884	276.65
353.267	285.01
353.65	306.47
354.032	290.88
354.414	290.43
354.797	323.88
355.179	324.1
355.562	332.69
355.944	315.51
356.326	335.17
356.709	325.91
357.091	356.42
357.473	344.21
357.855	325.91
358.238	341.5
358.62	367.49
359.002	327.49
359.384	353.93
359.766	343.31
360.148	341.05
360.53	338.11
360.912	360.94
361.294	327.04
361.676	352.8
362.057	330.66
362.439	318.68
362.821	330.66
363.203	331.79
363.584	320.49
363.966	332.69
364.348	332.24
364.729	327.72
365.111	294.5
365.493	329.98
365.874	314.38
366.256	307.15
366.637	333.37
367.019	319.13
367.4	310.99
367.781	314.16
368.163	310.09
368.544	302.63
368.925	303.54
369.306	311.67
369.688	303.99
370.069	310.09
370.45	317.55
370.831	320.94
371.212	307.6
371.593	334.5
371.974	319.36
372.355	315.51
372.736	312.12
373.117	297.66
373.498	343.08
373.879	332.01
374.26	303.76
374.641	327.04
375.021	339.47
375.402	323.2
375.783	307.38
376.163	301.96
376.544	328.85
376.925	319.58
377.305	320.03
377.686	344.89
378.066	336.08
378.447	338.56
378.827	329.3
379.208	330.88
379.588	317.32
379.968	332.69
380.349	335.85
380.729	342.18
381.109	354.38
381.489	356.87
381.87	338.79
382.25	347.38
382.63	336.3
383.01	355.29
383.39	334.95
383.77	342.86
384.15	353.48
384.53	346.47
384.91	342.18
385.29	356.42
385.67	344.67
386.049	341.73
386.429	325.01
386.809	330.2
387.189	333.59
387.568	334.5
387.948	345.57
388.328	357.1
388.707	356.42
389.087	365.46
389.466	341.95
389.846	373.37
390.225	368.39
390.605	348.06
390.984	343.99
391.363	361.16
391.743	361.16
392.122	360.71
392.501	366.36
392.881	369.75
393.26	385.57
393.639	379.24
394.018	362.29
394.397	364.55
394.776	383.76
395.155	373.14
395.534	373.14
395.913	387.15
396.292	385.34
396.671	374.95
397.05	383.76
397.429	372.24
397.808	405.91
398.186	388.28
398.565	355.74
398.944	369.3
399.323	374.04
399.701	413.82
400.08	396.19
400.458	398.45
400.837	384.21
401.215	378.11
401.594	368.17
401.972	381.5
402.351	397.32
402.729	395.96
403.107	420.6
403.486	395.29
403.864	407.04
404.242	389.64
404.62	399.81
404.999	400.71
405.377	413.59
405.755	393.93
406.133	392.8
406.511	437.32
406.889	424.44
407.267	422.86
407.645	420.82
408.023	421.27
408.401	436.64
408.779	420.6
409.156	427.15
409.534	430.99
409.912	440.93
410.29	431.9
410.667	442.06
411.045	459.69
411.422	439.35
411.8	432.12
412.178	452.01
412.555	443.87
412.933	468.05
413.31	467.6
413.687	463.08
414.065	469.41
414.442	482.29
414.819	470.99
415.197	466.47
415.574	479.13
415.951	474.61
416.328	487.94
416.705	479.58
417.082	456.53
417.46	503.31
417.837	489.52
418.214	490.2
418.591	481.84
418.967	513.93
419.344	490.88
419.721	509.86
420.098	501.95
420.475	501.5
420.852	507.83
421.228	534.27
421.605	513.93
421.982	525.23
422.358	540.82
422.735	539.69
423.111	533.36
423.488	525.68
423.864	534.49
424.241	542.63
424.617	538.33
424.994	540.82
425.37	536.3
425.746	538.56
426.123	540.82
426.499	550.99
426.875	574.49
427.251	571.55
427.627	544.66
428.003	570.2
428.379	571.78
428.756	581.27
429.132	564.55
429.507	597.54
429.883	602.06
430.259	593.93
430.635	607.94
431.011	604.55
431.387	614.04
431.763	605.22
432.138	626.01
432.514	634.6
432.89	616.3
433.265	638.44
433.641	640.7
434.016	639.57
434.392	634.83
434.767	663.98
435.143	650.42
435.518	666.92
435.894	642.06
436.269	700.59
436.644	673.92
437.02	680.93
437.395	678.89
437.77	682.74
438.145	708.95
438.52	712.57
438.895	717.09
439.271	716.86
439.646	701.94
440.021	720.7
440.395	734.49
440.77	710.08
441.145	757.99
441.52	744.88
441.895	732.68
442.27	737.2
442.645	734.71
443.019	751.66
443.394	769.97
443.769	748.27
444.143	765.67
444.518	762.73
444.892	776.97
445.267	773.13
445.641	779.46
446.016	775.16
446.39	794.37
446.764	799.12
447.139	801.15
447.513	798.67
447.887	815.39
448.262	794.37
448.636	804.77
449.01	838.21
449.384	847.48
449.758	810.64
450.132	820.59
450.506	847.25
450.88	850.64
451.254	830.08
451.628	866.46
452.002	878.89
452.376	886.12
452.75	872.56
453.123	871.43
453.497	903.97
453.871	892
454.244	910.07
454.618	914.14
454.992	922.05
455.365	911.2
455.739	948.27
456.112	940.36
456.486	965.21
456.859	984.42
457.232	993.01
457.606	972.22
457.979	997.76
458.352	1019.45
458.725	1041.37
459.099	1059.9
459.472	1055.61
459.845	1051.31
460.218	1080.24
460.591	1077.3
460.964	1087.92
461.337	1099.22
461.71	1103.74
462.083	1149.16
462.456	1152.1
462.829	1142.61
463.201	1167.47
463.574	1174.7
463.947	1199.11
464.32	1217.19
464.692	1205.43
465.065	1213.34
465.438	1263.74
465.81	1304.41
466.183	1295.38
466.555	1316.62
466.928	1332.21
467.3	1342.38
467.672	1357.52
468.045	1397.75
468.417	1404.53
468.789	1428.93
469.161	1423.96
469.534	1485.43
469.906	1492.43
470.278	1493.79
470.65	1532.88
471.022	1558.19
471.394	1621.69
471.766	1644.07
472.138	1641.81
472.51	1682.03
472.882	1707.79
473.253	1745.53
473.625	1797.74
473.997	1878.19
474.369	1857.62
474.74	1921.12
475.112	1941.23
475.484	2001.57
475.855	2022.14
476.227	2062.14
476.598	2145.52
476.97	2176.03
477.341	2237.5
477.713	2306.65
478.084	2336.7
478.455	2377.38
478.827	2493.31
479.198	2557.72
479.569	2579.18
479.94	2674.1
480.311	2755
480.682	2808.56
481.053	2914.09
481.424	3019.62
481.795	3028.89
482.166	3146.4
482.537	3247.64
482.908	3320.86
483.279	3357.24
483.65	3497.35
484.021	3598.14
484.391	3695.76
484.762	3811.92
485.133	3882.88
485.503	3965.36
485.874	4139.14
486.244	4172.14
486.615	4331.23
486.985	4432.69
487.356	4547.95
487.726	4628.17
488.097	4814.61
488.467	4888.5
488.837	5061.15
489.207	5170.75
489.578	5278.55
489.948	5430.86
490.318	5583.4
490.688	5612.1
491.058	5808.93
491.428	5891.41
491.798	6043.27
492.168	6259.76
492.538	6350.84
492.908	6518.06
493.278	6660.43
493.648	6737.04
494.017	6949.24
494.387	7035.56
494.757	7184.03
495.126	7363.92
495.496	7417.25
495.866	7605.49
496.235	7752.38
496.605	7861.98
496.974	7991.02
497.344	8118.47
497.713	8282.08
498.082	8400.05
498.452	8589.42
498.821	8700.15
499.19	8844.56
499.559	8959.35
499.928	9102.85
500.298	9208.39
500.667	9375.16
501.036	9426.24
501.405	9560.02
501.774	9682.05
502.143	9792.1
502.512	9884.75
502.88	10111.19
503.249	10120.91
503.618	10312.09
503.987	10421.46
504.356	10521.35
504.724	10660.33
505.093	10730.38
505.462	10878.17
505.83	11039.3
506.199	11094.67
506.567	11306.64
506.936	11420.53
507.304	11502.56
507.672	11599.74
508.041	11701.2
508.409	11777.13
508.777	11952.04
509.145	12055.32
509.514	12123.34
509.882	12311.36
510.25	12454.86
510.618	12515.42
510.986	12614.85
511.354	12657.79
511.722	12826.82
512.09	12947.95
512.458	12985.24
512.826	13136.42
513.193	13275.17
513.561	13296.42
513.929	13450.99
514.297	13567.37
514.664	13755.84
515.032	13768.72
515.4	13913.35
515.767	13833.35
516.135	14105.21
516.502	14023.18
516.869	14302.04
517.237	14333.22
517.604	14340.23
517.972	14495.71
518.339	14643.95
518.706	14652.31
519.073	14650.05
519.44	14821.12
519.808	14954
520.175	15048.91
520.542	15215.01
520.909	15295.69
521.276	15287.55
521.643	15396.25
522.009	15514.89
522.376	15683.7
522.743	15690.03
523.11	15922.11
523.477	15984.25
523.843	16043.01
524.21	16270.35
524.577	16222.67
524.943	16389.44
525.31	16446.62
525.676	16676.21
526.043	16692.48
526.409	16759.38
526.776	17049.54
527.142	16986.71
527.508	17021.29
527.874	17175.18
528.241	17191.45
528.607	17230.32
528.973	17487.72
529.339	17390.55
529.705	17637.32
530.071	17671.67
530.437	17703.53
530.803	17798.22
531.169	17828.5
531.535	17917.54
531.901	17832.12
532.267	17919.12
532.632	18069.17
532.998	18109.85
533.364	18186
533.73	18271.2
534.095	18276.17
534.461	18327.47
534.826	18423.74
535.192	18460.35
535.557	18522.95
535.923	18552.55
536.288	18642.49
536.653	18650.85
537.019	18547.8
537.384	18648.14
537.749	18631.87
538.114	18763.16
538.479	18644.52
538.845	18813.78
539.21	18762.71
539.575	18887.68
539.94	18802.94
540.305	18884.52
540.67	18903.5
541.034	18899.43
541.399	19074.8
541.764	19042.93
542.129	19074.57
542.494	19166.77
542.858	19043.61
543.223	19147.11
543.587	19357.73
543.952	19119.31
544.316	19282.47
544.681	19173.55
545.045	19195.02
545.41	19367.22
545.774	19326.77
546.138	19355.01
546.503	19290.16
546.867	19291.74
547.231	19489.93
547.595	19456.48
547.959	19525.18
548.324	19520.89
548.688	19533.77
549.052	19505.97
549.416	19531.05
549.779	19567.44
550.143	19586.42
550.507	19745.51
550.871	19638.4
551.235	19715.23
551.599	19723.37
551.962	19831.84
552.326	19788
552.689	19806.08
553.053	19816.02
553.417	19785.28
553.78	20033.64
554.143	19912.51
554.507	19915.45
554.87	20058.27
555.234	20044.71
555.597	19959.97
555.96	20063.7
556.323	20056.46
556.686	20058.5
557.05	20229.11
557.413	20283.8
557.776	20305.95
558.139	20335.1
558.502	20352.95
558.865	20462.1
559.228	20547.52
559.59	20596.34
559.953	20552.04
560.316	20698.03
560.679	20716.56
561.041	20859.83
561.404	20893.73
561.767	20967.63
562.129	20960.85
562.492	21110.22
562.854	21053.95
563.217	21082.88
563.579	21198.58
563.941	21120.62
564.304	21385.47
564.666	21410.78
565.028	21477.67
565.39	21474.96
565.753	21550.21
566.115	21661.85
566.477	21652.58
566.839	21687.16
567.201	21799.02
567.563	21855.74
567.925	21860.03
568.287	21949.52
568.648	21993.81
569.01	22112.68
569.372	22197.65
569.734	22109.29
570.095	22281.94
570.457	22328.72
570.819	22354.93
571.18	22397.42
571.542	22406.68
571.903	22521.48
572.265	22633.57
572.626	22688.71
572.987	22699.33
573.349	22692.55
573.71	22789.05
574.071	22862.72
574.432	22832.66
574.794	23038.76
575.155	22954.47
575.516	22846.9
575.877	22936.84
576.238	23083.5
576.599	23030.4
576.96	23134.12
577.32	23081.7
577.681	23173.67
578.042	23170.51
578.403	23183.84
578.763	23308.36
579.124	23368.92
579.485	23310.62
579.845	23485.53
580.206	23261.8
580.566	23441.01
580.927	23395.59
581.287	23437.17
581.648	23366.43
582.008	23470.16
582.368	23504.74
582.728	23550.16
583.089	23432.42
583.449	23331.41
583.809	23467.9
584.169	23519.88
584.529	23425.64
584.889	23560.1
585.249	23497.5
585.609	23470.84
585.969	23457.05
586.329	23405.3
586.688	23487.11
587.048	23416.15
587.408	23312.88
587.768	23488.01
588.127	23425.19
588.487	23391.07
588.846	23652.53
589.206	23359.65
589.565	23395.36
589.925	23512.42
590.284	23464.28
590.643	23429.48
591.003	23520.78
591.362	23566.43
591.721	23510.61
592.08	23517.16
592.44	23681.23
592.799	23535.92
593.158	23521.23
593.517	23471.29
593.876	23591.51
594.235	23585.64
594.593	23555.36
594.952	23541.12
595.311	23497.73
595.67	23526.43
596.029	23709.48
596.387	23613.21
596.746	23697.72
597.104	23522.36
597.463	23513.55
597.822	23647.56
598.18	23553.32
598.538	23582.7
598.897	23730.49
599.255	23480.33
599.613	23746.31
599.972	23666.09
600.33	23699.08
600.688	23713.09
601.046	23737.05
601.404	23847.1
601.762	23699.08
602.12	23848
602.478	23875.8
602.836	23865.63
603.194	23754.9
603.552	23832.86
603.91	23621.57
604.268	23855.69
604.625	23809.81
604.983	23858.62
605.341	23810.04
605.698	23855.46
606.056	23973.2
606.413	23928.23
606.771	24012.52
607.128	24036.47
607.485	23926.87
607.843	24008.45
608.2	24196.69
608.557	24251.61
608.914	24069.24
609.272	24169.8
609.629	24379.29
609.986	24349.68
610.343	24260.65
610.7	24427.42
611.057	24386.52
611.414	24358.95
611.771	24461.55
612.127	24555.55
612.484	24402.79
612.841	24596.01
613.198	24446.18
613.554	24574.99
613.911	24739.73
614.267	24659.73
614.624	24680.98
614.98	24659.06
615.337	24802.33
615.693	24698.83
616.05	24732.05
616.406	24773.63
616.762	24768.66
617.118	24784.02
617.475	24780.41
617.831	24892.95
618.187	24947.86
618.543	24894.3
618.899	25124.35
619.255	25025.83
619.611	24910.57
619.967	25148.99
620.323	25098.82
620.678	25114.86
621.034	24946.51
621.39	25111.47
621.746	25091.59
622.101	25311.92
622.457	25067.41
622.812	25092.26
623.168	25296.1
623.523	25252.26
623.879	25304.69
624.234	25127.97
624.589	25261.3
624.945	25224.46
625.3	25268.76
625.655	25303.56
626.01	25259.04
626.365	25333.84
626.72	25205.48
627.075	25233.73
627.43	25304.46
627.785	25240.06
628.14	25202.09
628.495	25283.22
628.85	25310.79
629.205	25261.98
629.559	25420.39
629.914	25245.03
630.269	25316.89
630.623	25235.09
630.978	25079.83
631.332	25308.98
631.687	25309.43
632.041	25099.72
632.396	25161.64
632.75	25156.44
633.104	25160.06
633.459	25052.49
633.813	25078.7
634.167	25123.68
634.521	25023.34
634.875	25114.18
635.229	25111.92
635.583	24882.55
635.937	24979.95
636.291	24990.8
636.645	24900.18
636.999	24757.36
637.352	24940.4
637.706	24848.2
638.06	24956.67
638.413	24848.43
638.767	24816.11
639.121	24935.43
639.474	24699.96
639.828	24697.47
640.181	24722.78
640.534	24727.98
640.888	24688.66
641.241	24566.63
641.594	24617.93
641.947	24713.52
642.301	24633.07
642.654	24658.38
643.007	24622.9
643.36	24528.66
643.713	24574.54
644.066	24546.06
644.419	24422.23
644.771	24237.6
645.124	24206.86
645.477	24137.94
645.83	24027.66
646.182	23929.36
646.535	23823.82
646.888	23855.01
647.24	23609.37
647.593	23880.09
647.945	23753.99
648.298	23661.12
648.65	23684.84
649.002	23617.95
649.355	23742.69
649.707	23652.08
650.059	23718.51
650.411	24019.75
650.763	24097.04
651.115	24397.82
651.467	24168.9
651.819	24179.97
652.171	24213.64
652.523	24130.03
652.875	24120.09
653.227	24046.19
653.578	24149.46
653.93	24183.14
654.282	23985.63
654.633	23988.34
654.985	24152.85
655.337	24018.39
655.688	24110.59
656.039	24206.86
656.391	24019.98
656.742	24005.06
657.094	24016.13
657.445	24022.46
657.796	24169.35
658.147	24068.34
658.498	23967.32
658.849	24032.63
659.2	24020.88
659.551	23913.09
659.902	24105.62
660.253	24062.01
660.604	24121.44
660.955	24036.02
661.306	24028.11
661.656	24037.38
662.007	24080.54
662.358	24121.44
662.708	23984.27
663.059	24002.12
663.409	23902.24
663.76	24106.08
664.11	24107.88
664.461	24076.7
664.811	24072.86
665.161	24055.91
665.511	23955.12
665.862	24064.49
666.212	24163.7
666.562	24083.02
666.912	24060.65
667.262	23964.84
667.612	24078.05
667.962	23991.95
668.312	23961.67
668.662	24175.9
669.011	24013.65
669.361	23921.45
669.711	23977.27
670.06	23987.66
670.41	23980.43
670.76	23878.74
671.109	24059.3
671.459	23990.37
671.808	23917.83
672.157	23922.35
672.507	23714.67
672.856	23831.05
673.205	23865.86
673.554	23880.09
673.904	23762.58
674.253	23969.36
674.602	23772.52
674.951	23626.77
675.3	23399.43
675.649	23823.82
675.998	23765.97
676.346	23732.3
676.695	23764.16
677.044	23533.66
677.393	23715.58
677.741	23598.52
678.09	23655.01
678.438	23506.99
678.787	23573.21
679.135	23589.25
679.484	23367.11
679.832	23511.97
680.181	23369.6
680.529	23394
680.877	23398.07
681.225	23335.7
681.573	23502.7
681.922	23354.68
682.27	23204.18
682.618	23236.04
682.966	23158.08
683.314	23150.17
683.661	23152.65
684.009	23032.21
684.357	23031.98
684.705	22890.06
685.053	23005.77
685.4	22920.57
685.748	22841.48
686.095	22786.34
686.443	22711.08
686.79	22755.6
687.138	22787.69
687.485	22688.71
687.832	22555.61
688.18	22592.44
688.527	22565.55
688.874	22566.45
689.221	22444.65
689.568	22361.71
689.915	22332.79
690.262	22350.42
690.609	22225.67
690.956	22222.28
691.303	22152.23
691.65	22021.61
691.997	22038.78
692.344	21831.11
692.69	21862.52
693.037	21871.56
693.383	21786.59
693.73	21752.24
694.077	21578.68
694.423	21550.89
694.769	21611.45
695.116	21519.48
695.462	21364
695.808	21330.78
696.155	21442.19
696.501	21192.03
696.847	21211.91
697.193	20955.65
697.539	21222.31
697.885	20929.21
698.231	20833.62
698.577	20851.47
698.923	20760.63
699.269	20803.56
699.614	20652.83
699.96	20519.73
700.306	20510.01
700.651	20447.19
700.997	20459.17
701.342	20495.1
701.688	20277.25
702.033	20268.89
702.379	20243.58
702.724	20103.24
703.069	20240.41
703.415	19929.24
703.76	19958.16
704.105	20029.8
704.45	19741.22
704.795	19810.14
705.14	19676.14
705.485	19685.85
705.83	19572.64
706.175	19685.4
706.52	19544.16
706.865	19365.41
707.209	19359.08
707.554	19289.25
707.899	19350.49
708.243	19285.64
708.588	19136.04
708.932	18985.98
709.277	19142.36
709.621	19057.85
709.966	18910.73
710.31	19009.94
710.654	18844.07
710.998	18836.16
711.342	18767.68
711.687	18774.92
712.031	18711.19
712.375	18578.54
712.719	18655.37
713.063	18625.54
713.407	18596.16
713.75	18564.98
714.094	18566.79
714.438	18443.85
714.782	18462.61
715.125	18405.21
715.469	18421.48
715.812	18404.53
716.156	18209.51
716.499	18314.14
716.843	18291.31
717.186	18152.11
717.53	18236.4
717.873	18214.93
718.216	18198.21
718.559	18074.82
718.902	18021.49
719.246	18080.24
719.589	17927.71
719.932	17892.91
720.275	17846.8
720.617	17794.38
720.96	17739.46
721.303	17921.15
721.646	17911.21
721.989	17778.78
722.331	17830.99
722.674	17811.55
723.016	17654.72
723.359	17658.34
723.701	17641.39
724.044	17680.93
724.386	17536.3
724.729	17607.04
725.071	17508.51
725.413	17541.05
725.755	17526.59
726.097	17365.01
726.439	17353.03
726.782	17363.88
727.124	17478.45
727.465	17394.39
727.807	17360.94
728.149	17391
728.491	17320.72
728.833	17281.85
729.175	17212.25
729.516	17192.58
729.858	17211.34
730.199	17300.38
730.541	17209.53
730.882	17240.04
731.224	17274.62
731.565	17157.78
731.906	17107.16
732.248	17203.88
732.589	17024.23
732.93	17058.58
733.271	17036.66
733.612	17096.54
733.953	17061.06
734.294	17033.04
734.635	16966.6
734.976	17041.4
735.317	16909.88
735.658	16957.34
735.999	17080.05
736.339	16971.12
736.68	16988.52
737.021	16922.54
737.361	16949.43
737.702	16985.13
738.042	16915.76
738.383	16942.87
738.723	16975.19
739.063	16976.77
739.404	16930.44
739.744	16888.19
740.084	16801.41
740.424	16896.32
740.764	16902.42
741.104	16922.76
741.444	16800.5
741.784	16861.29
742.124	16967.28
742.464	16842.09
742.804	16894.51
743.143	16842.54
743.483	16897.23
743.823	16778.81
744.162	16773.16
744.502	16913.95
744.841	16802.54
745.181	16957.34
745.52	16883.44
745.86	16958.69
746.199	17022.65
746.538	16896.55
746.877	17064.9
747.216	17133.6
747.556	16976.09
747.895	17045.92
748.234	17097.45
748.573	17188.74
748.911	17163.66
749.25	17153.72
749.589	17162.08
749.928	17231
750.267	17335.18
750.605	17397.33
750.944	17335.41
751.283	17393.71
751.621	17466.7
751.96	17405.46
752.298	17504.67
752.636	17550.77
752.975	17530.88
753.313	17650.65
753.651	17714.38
753.989	17706.47
754.327	17715.06
754.666	17793.92
755.004	17906.24
755.342	17979.46
755.679	18110.07
756.017	18027.59
756.355	18150.98
756.693	18173.58
757.031	18237.53
757.368	18316.62
757.706	18317.75
758.044	18405.43
758.381	18533.57
758.719	18517.97
759.056	18548.71
759.394	18604.07
759.731	18615.6
760.068	18690.85
760.405	18717.29
760.743	18736.95
761.08	18885.65
761.417	18897.62
761.754	18939.66
762.091	19019.43
762.428	19059.65
762.765	19027.11
763.102	19063.04
763.438	19021.46
763.775	19104.17
764.112	19208.12
764.449	19277.28
764.785	19287.67
765.122	19295.13
765.458	19306.65
765.795	19329.93
766.131	19377.84
766.467	19462.36
766.804	19413.09
767.14	19310.04
767.476	19441.34
767.812	19398.4
768.148	19456.25
768.485	19352.98
768.821	19352.08
769.157	19329.7
769.492	19378.29
769.828	19378.52
770.164	19245.19
770.5	19272.76
770.836	19314.79
771.171	19301.68
771.507	19234.56
771.842	19178.07
772.178	19229.59
772.513	19300.33
772.849	19189.82
773.184	19218.97
773.519	19180.78
773.855	19149.82
774.19	19101.24
774.525	19061.91
774.86	19062.59
775.195	19102.36
775.53	19005.19
775.865	18940.56
776.2	18905.31
776.535	18776.27
776.87	18800.23
777.205	18861.92
777.539	18724.75
777.874	18752.54
778.209	18654.69
778.543	18601.36
778.878	18588.48
779.212	18590.29
779.547	18479.56
779.881	18546.45
780.215	18421.03
780.55	18567.69
780.884	18324.08
781.218	18310.52
781.552	18354.36
781.886	18212.67
782.22	18174.71
782.554	18116.63
782.888	18111.2
783.222	17895.39
783.556	17875.5
783.889	17824.21
784.223	17662.4
784.557	17646.36
784.89	17734.49
785.224	17654.27
785.557	17538.56
785.891	17529.75
786.224	17463.76
786.558	17495.63
786.891	17342.86
787.224	17317.33
787.557	17110.1
787.891	17195.3
788.224	17244.56
788.557	17203.21
788.89	17108.97
789.223	17073.04
789.556	17002.99
789.888	16881.18
790.221	16882.76
790.554	16782.65
790.887	16734.52
791.219	16699.49
791.552	16570.45
791.884	16603.67
792.217	16555.99
792.549	16508.76
792.882	16379.27
793.214	16398.48
793.546	16295.66
793.879	16308.99
794.211	16146.96
794.543	16149
794.875	16117.81
795.207	16199.84
795.539	16004.37
795.871	16031.94
796.203	15890.02
796.535	15842.34
796.867	15854.31
797.198	15809.57
797.53	15826.29
797.862	15690.93
798.193	15671.95
798.525	15639.41
798.856	15619.97
799.188	15477.15
799.519	15469.01
799.85	15295.01
800.182	15346.98
800.513	15290.04
800.844	15253.88
801.175	15304.5
801.506	15231.73
801.837	15116.03
802.168	15202.58
802.499	15084.17
802.83	15005.98
803.161	14960.33
803.491	14915.81
803.822	15015.24
804.153	14871.74
804.483	14756.04
804.814	14732.76
805.145	14636.04
805.475	14682.59
805.805	14595.36
806.136	14658.87
806.466	14577.06
806.796	14604.18
807.126	14455.03
807.457	14430.17
807.787	14403.96
808.117	14323.51
808.447	14284.19
808.777	14393.56
809.107	14297.75
809.436	14254.58
809.766	14288.03
810.096	14100.91
810.426	14155.83
810.755	14139.78
811.085	14085.1
811.414	14010.75
811.744	13897.98
812.073	13947.02
812.403	13937.3
812.732	13854.14
813.061	13840.36
813.39	13743.86
813.719	13648.5
814.049	13828.83
814.378	13659.57
814.707	13706.57
815.036	13675.39
815.365	13606.24
815.693	13503.64
816.022	13439.46
816.351	13465.68
816.68	13399.46
817.008	13400.37
817.337	13327.6
817.665	13361.05
817.994	13338.67
818.322	13325.12
818.651	13217.55
818.979	13255.51
819.307	13152.69
819.636	13135.06
819.964	13101.39
820.292	13163.76
820.62	13126.25
820.948	13058
821.276	13027.5
821.604	12997.67
821.932	13044.67
822.259	13009.42
822.587	13135.29
822.915	13116.76
823.243	13078.34
823.57	13000.6
823.898	12971.9
824.225	13000.38
824.553	13007.61
824.88	13011.9
825.207	13069.98
825.535	12947.5
825.862	13036.54
826.189	12964.45
826.516	13010.32
826.843	13020.26
827.17	13072.92
827.497	13055.97
827.824	13008.97
828.151	13067.95
828.478	13022.98
828.805	13061.39
829.131	12977.33
829.458	12987.95
829.785	12929.87
830.111	12913.6
830.438	12983.2
830.764	12974.84
831.09	13008.51
831.417	12890.55
831.743	13051.45
832.069	12974.62
832.395	12904.79
832.722	12892.13
833.048	12847.16
833.374	13010.77
833.7	12813.04
834.026	12872.25
834.351	12896.65
834.677	12846.94
835.003	12870.89
835.329	12833.83
835.654	12854.62
835.98	12743.89
836.306	12797.45
836.631	12715.64
836.956	12835.64
837.282	12762.87
837.607	12661.86
837.932	12680.84
838.258	12648.52
838.583	12677.9
838.908	12540.73
839.233	12622.76
839.558	12622.08
839.883	12474.74
840.208	12468.19
840.533	12508.19
840.858	12477.68
841.182	12497.34
841.507	12493.73
841.832	12473.16
842.156	12443.33
842.481	12312.26
842.805	12364.69
843.13	12304.58
843.454	12303.9
843.778	12249.66
844.103	12227.74
844.427	12216.22
844.751	12228.2
845.075	12125.83
845.399	12131.02
845.723	12091.48
846.047	12081.31
846.371	11925.38
846.695	11935.1
847.019	11885.61
847.343	11787.08
847.666	11657.81
847.99	11586.18
848.313	11673.86
848.637	11661.88
848.96	11562.9
849.284	11591.6
849.607	11460.08
849.931	11470.7
850.254	11328.33
850.577	11276.13
850.9	11235.45
851.223	11276.36
851.546	11194.1
851.869	11078.62
852.192	11128.79
852.515	11115.23
852.838	11211.95
853.161	11018.51
853.483	10958.17
853.806	10842.92
854.129	10921.56
854.451	10812.64
854.774	10792.07
855.096	10812.87
855.419	10698.52
855.741	10713.21
856.063	10611.29
856.385	10631.4
856.708	10561.57
857.03	10526.09
857.352	10559.76
857.674	10530.61
857.996	10488.81
858.318	10438.41
858.64	10428.69
858.961	10345.76
859.283	10316.16
859.605	10397.06
859.926	10332.2
860.248	10324.52
860.57	10260.56
860.891	10232.09
861.212	10186.44
861.534	10171.3
861.855	10279.55
862.176	10109.16
862.498	10132.21
862.819	10174.24
863.14	10146.44
863.461	10021.47
863.782	10009.72
864.103	9953.23
864.424	10056.73
864.745	10016.5
865.065	9973.11
865.386	9939.67
865.707	9898.99
866.027	9949.61
866.348	9853.79
866.668	9878.43
866.989	9831.87
867.309	9836.17
867.63	9841.82
867.95	9825.32
868.27	9792.33
868.59	9800.91
868.91	9753.23
869.23	9716.62
869.55	9636.85
869.87	9690.41
870.19	9709.62
870.51	9684.99
870.83	9742.84
871.15	9669.84
871.469	9703.06
871.789	9649.28
872.109	9655.61
872.428	9542.16
872.748	9525.44
873.067	9531.32
873.386	9522.73
873.706	9523.86
874.025	9537.42
874.344	9444.99
874.663	9496.52
874.982	9467.82
875.301	9443.18
875.62	9416.29
875.939	9372
876.258	9419.91
876.577	9367.71
876.896	9320.25
877.214	9314.15
877.533	9390.53
877.852	9328.38
878.17	9350.08
878.489	9240.7
878.807	9304.43
879.125	9254.04
879.444	9243.42
879.762	9218.11
880.08	9155.73
880.398	9165.68
880.716	9190.31
881.034	9107.15
881.352	9136.75
881.67	9171.78
881.988	9189.18
882.306	9085.68
882.624	9047.94
882.941	8974.04
883.259	8987.38
883.577	8906.47
883.894	8931.33
884.212	8943.31
884.529	8986.47
884.846	8936.53
885.164	8833.26
885.481	8843.2
885.798	8876.87
886.115	8805.23
886.432	8820.83
886.75	8762.07
887.067	8730.66
887.383	8748.51
887.7	8677.33
888.017	8714.39
888.334	8725.46
888.651	8693.83
888.967	8604.11
889.284	8642.3
889.6	8625.13
889.917	8508.97
890.233	8516.88
890.55	8550.55
890.866	8548.07
891.182	8507.84
891.498	8457.45
891.815	8382.19
892.131	8401.63
892.447	8388.3
892.763	8305.59
893.079	8315.08
893.395	8298.58
893.71	8259.94
894.026	8214.74
894.342	8216.1
894.657	8152.6
894.973	8161.41
895.289	8125.25
895.604	8114.63
895.92	8053.39
896.235	8054.75
896.55	8056.55
896.865	8006.61
897.181	7940.62
897.496	7978.36
897.811	7986.27
898.126	7950.34
898.441	7895.2
898.756	7845.49
899.071	7785.83
899.386	7823.34
899.7	7777.01
900.015	7708.31
900.33	7666.73
900.644	7678.71
900.959	7627.64
901.273	7587.64
901.588	7544.7
901.902	7598.71
902.216	7587.41
902.531	7508.77
902.845	7473.07
903.159	7484.37
903.473	7392.39
903.787	7365.72
904.101	7346.29
904.415	7362.79
904.729	7318.95
905.042	7286.63
905.356	7276.91
905.67	7228.33
905.984	7226.29
906.297	7194.66
906.611	7194.43
906.924	7162.34
907.237	7107.65
907.551	7155.56
907.864	7010.03
908.177	7055.45
908.491	7020.87
908.804	6969.12
909.117	6962.57
909.43	6943.14
909.743	6887.77
910.056	6882.8
910.368	6785.4
910.681	6794.89
910.994	6819.3
911.307	6744.27
911.619	6746.08
911.932	6798.28
912.244	6667.21
912.557	6661.56
912.869	6601.9
913.181	6579.08
913.494	6577.27
913.806	6506.54
914.118	6493.43
914.43	6478.74
914.742	6505.86
915.054	6413.89
915.366	6398.74
915.678	6358.75
915.99	6377.28
916.302	6324.17
916.613	6329.59
916.925	6293.21
917.236	6269.03
917.548	6229.48
917.859	6204.62
918.171	6163.27
918.482	6165.53
918.794	6076.72
919.105	6162.14
919.416	6049.37
919.727	6020.22
920.038	6023.16
920.349	5977.29
920.66	5944.97
920.971	5965.54
921.282	5975.25
921.593	5893.22
921.903	5836.05
922.214	5827.46
922.525	5811.41
922.835	5838.76
923.146	5805.77
923.456	5780.68
923.767	5734.35
924.077	5707.24
924.387	5665.88
924.697	5655.26
925.008	5618.2
925.318	5601.25
925.628	5623.17
925.938	5580.91
926.248	5590.63
926.558	5473.12
926.867	5487.36
927.177	5443.06
927.487	5483.74
927.796	5410.52
928.106	5393.8
928.416	5381.14
928.725	5425.44
929.034	5304.99
929.344	5342.95
929.653	5300.47
929.962	5261.6
930.271	5244.42
930.581	5243.52
930.89	5202.84
931.199	5183.86
931.508	5163.07
931.817	5121.94
932.125	5136.4
932.434	5101.15
932.743	5028.16
933.051	5078.33
933.36	5004.43
933.669	4995.84
933.977	4966.24
934.286	4996.97
934.594	4950.65
934.902	4905.9
935.21	4832.23
935.519	4862.97
935.827	4856.41
936.135	4835.17
936.443	4830.65
936.751	4797.88
937.059	4740.48
937.367	4729.18
937.674	4745.45
937.982	4714.72
938.29	4702.07
938.597	4712.46
938.905	4622.97
939.213	4613.93
939.52	4635.4
939.827	4603.31
940.135	4594.95
940.442	4556.31
940.749	4534.84
941.056	4539.58
941.363	4491
941.67	4511.56
941.977	4462.75
942.284	4445.35
942.591	4425.69
942.898	4423.88
943.205	4403.99
943.511	4357.89
943.818	4359.7
944.125	4356.99
944.431	4306.14
944.738	4302.08
945.044	4315.18
945.35	4232.47
945.657	4282.64
945.963	4188.18
946.269	4196.09
946.575	4210.55
946.881	4190.89
947.187	4147.5
947.493	4196.99
947.799	4121.97
948.105	4131.46
948.41	4075.87
948.716	4100.5
949.022	4070.67
949.327	4030.9
949.633	3997.9
949.938	4004
950.244	3976.21
950.549	3953.16
950.854	3944.57
951.16	3953.38
951.465	3875.65
951.77	3892.37
952.075	3920.17
952.38	3874.06
952.685	3865.93
952.99	3848.98
953.294	3835.87
953.599	3796.33
953.904	3778.93
954.209	3771.02
954.513	3773.95
954.818	3713.84
955.122	3724.46
955.426	3710.68
955.731	3710.23
956.035	3707.06
956.339	3631.81
956.643	3643.34
956.948	3639.95
957.252	3593.39
957.556	3567.41
957.86	3572.38
958.163	3535.32
958.467	3552.04
958.771	3534.41
959.075	3519.5
959.378	3525.37
959.682	3463.45
959.985	3449.9
960.289	3465.94
960.592	3431.59
960.896	3428.65
961.199	3400.18
961.502	3390.01
961.805	3394.08
962.108	3371.93
962.411	3337.13
962.714	3340.07
963.017	3354.98
963.32	3322.67
963.623	3314.76
963.926	3263.01
964.228	3290.58
964.531	3265.95
964.833	3240.18
965.136	3206.51
965.438	3189.79
965.741	3211.48
966.043	3212.84
966.345	3164.03
966.648	3162.22
966.95	3166.51
967.252	3157.02
967.554	3127.42
967.856	3095.55
968.158	3074.54
968.46	3061.66
968.761	3081.09
969.063	3028.89
969.365	3043.58
969.666	3049.91
969.968	2967.87
970.269	3033.86
970.571	2986.63
970.872	2969.23
971.174	2956.57
971.475	2954.09
971.776	2934.43
972.077	2927.87
972.378	2904.82
972.679	2922.68
972.98	2898.72
973.281	2861.66
973.582	2871.38
973.883	2841.1
974.183	2835
974.484	2830.93
974.785	2793.19
975.085	2823.47
975.386	2811.04
975.686	2781.21
975.986	2796.13
976.287	2740.54
976.587	2734.66
976.887	2745.73
977.187	2698.5
977.487	2685.4
977.787	2662.8
978.087	2675.45
978.387	2672.29
978.687	2644.94
978.987	2640.65
979.286	2628.9
979.586	2610.6
979.885	2602.01
980.185	2589.35
980.484	2603.82
980.784	2555.23
981.083	2590.71
981.382	2597.71
981.682	2553.65
981.981	2521.33
982.28	2518.85
982.579	2514.33
982.878	2510.03
983.177	2488.79
983.475	2505.29
983.774	2491.95
984.073	2463.48
984.372	2430.71
984.67	2458.51
984.969	2416.02
985.267	2427.55
985.566	2420.54
985.864	2390.26
986.162	2394.33
986.461	2367.89
986.759	2360.66
987.057	2336.03
987.355	2344.39
987.653	2312.52
987.951	2335.8
988.249	2323.6
988.547	2293.32
988.844	2289.25
989.142	2313.88
989.44	2273.2
989.737	2236.82
990.035	2279.98
990.332	2229.81
990.63	2271.85
990.927	2224.84
991.224	2201.79
991.521	2231.62
991.819	2172.41
992.116	2162.47
992.413	2148.01
992.71	2179.42
993.006	2135.58
993.303	2116.14
993.6	2111.85
993.897	2124.51
994.193	2124.28
994.49	2096.71
994.787	2106.43
995.083	2057.84
995.379	2064.39
995.676	2054.23
995.972	2061.46
996.268	2044.06
996.565	2046.32
996.861	2032.31
997.157	2013.1
997.453	1988.92
997.749	1975.36
998.044	1964.96
998.34	1972.19
998.636	1983.04
998.932	1945.53
999.227	1893.78
999.523	1922.25
999.818	1937.17
1000.114	1897.39
1000.409	1921.8
1000.704	1906.21
1001	1895.13
1001.295	1870.5
1001.59	1862.82
1001.885	1887.45
1002.18	1840.9
1002.475	1820.33
1002.77	1828.92
1003.065	1837.73
1003.359	1788.47
1003.654	1788.47
1003.949	1786.89
1004.243	1751.18
1004.538	1731.97
1004.832	1716.38
1005.127	1716.38
1005.421	1747.12
1005.715	1771.75
1006.009	1713.9
1006.304	1730.62
1006.598	1706.44
1006.892	1684.74
1007.186	1678.64
1007.48	1668.02
1007.773	1683.16
1008.067	1654.46
1008.361	1640
1008.655	1625.31
1008.948	1652.2
1009.242	1612.66
1009.535	1626.44
1009.829	1598.64
1010.122	1598.19
1010.415	1568.36
1010.708	1593.67
1011.001	1574.46
1011.295	1567.23
1011.588	1536.5
1011.881	1551.19
1012.173	1543.05
1012.466	1523.62
1012.759	1513.67
1013.052	1520
1013.344	1495.6
1013.637	1501.7
1013.93	1461.47
1014.222	1428.71
1014.514	1468.93
1014.807	1469.61
1015.099	1472.32
1015.391	1418.08
1015.683	1443.17
1015.976	1426.9
1016.268	1413.79
1016.56	1391.42
1016.851	1422.83
1017.143	1400.91
1017.435	1374.92
1017.727	1398.88
1018.018	1362.72
1018.31	1360.46
1018.602	1348.26
1018.893	1336.5
1019.185	1344.41
1019.476	1326.34
1019.767	1292.44
1020.058	1308.93
1020.35	1316.17
1020.641	1286.56
1020.932	1267.35
1021.223	1282.95
1021.514	1274.59
1021.804	1262.38
1022.095	1259.22
1022.386	1239.78
1022.677	1250.18
1022.967	1219.45
1023.258	1220.12
1023.548	1207.69
1023.839	1203.63
1024.129	1197.07
1024.419	1201.82
1024.709	1185.32
1025	1186.23
1025.29	1177.19
1025.58	1164.31
1025.87	1131.76
1026.16	1148.49
1026.449	1131.31
1026.739	1145.32
1027.029	1163.18
1027.319	1104.42
1027.608	1118.66
1027.898	1111.43
1028.187	1086.34
1028.477	1095.15
1028.766	1086.34
1029.055	1077.3
1029.344	1053.8
1029.634	1075.72
1029.923	1064.2
1030.212	1012.67
1030.501	1047.02
1030.79	1036.17
1031.078	1030.52
1031.367	1014.93
1031.656	1017.42
1031.945	1008.83
1032.233	1012.9
1032.522	1021.03
1032.81	974.71
1033.099	998.66
1033.387	970.41
1033.675	961.82
1033.963	966.57
1034.251	984.88
1034.54	948.49
1034.828	956.18
1035.116	954.59
1035.403	938.1
1035.691	922.96
1035.979	922.05
1036.267	932.67
1036.554	927.25
1036.842	901.26
1037.129	891.54
1037.417	913.46
1037.704	909.17
1037.992	877.76
1038.279	907.82
1038.566	883.18
1038.853	883.18
1039.14	883.18
