Data from hue_300_FLMS001491_00002.txt Node
Date: Tue Feb 07 15:49:37 GMT 2017
User: dcchb
Spectrometer: FLMS00149
Trigger mode: 0
Integration Time (sec): 2.000000E-2
Scans to average: 10
Electric dark correction enabled: true
Nonlinearity correction enabled: false
Boxcar width: 0
XAxis mode: Wavelengths
Number of Pixels in Spectrum: 2048
>>>>>Begin Spectral Data<<<<<
341.393	-20.68
341.776	-20.68
342.16	-20.68
342.543	-57.51
342.927	-60.68
343.31	-83.5
343.693	-56.83
344.077	-71.52
344.46	-88.02
344.843	-40.79
345.226	-31.52
345.61	-24.52
345.993	-22.94
346.376	12.54
346.759	14.8
347.142	41.47
347.525	42.6
347.908	28.81
348.291	81.92
348.674	82.6
349.057	114.91
349.44	118.08
349.823	134.57
350.206	163.27
350.588	175.25
350.971	212.31
351.354	217.51
351.737	223.61
352.119	252.99
352.502	238.3
352.884	282.14
353.267	265.19
353.65	270.61
354.032	291.86
354.414	294.12
354.797	315.81
355.179	312.42
355.562	306.32
355.944	310.84
356.326	335.92
356.709	315.81
357.091	320.78
357.473	341.12
357.855	338.64
358.238	345.41
358.62	302.93
359.002	333.89
359.384	316.04
359.766	325.98
360.148	322.82
360.53	307.9
360.912	315.58
361.294	337.96
361.676	316.04
362.057	304.51
362.439	321.69
362.821	322.82
363.203	327.34
363.584	306.77
363.966	327.79
364.348	343.61
364.729	314.23
365.111	330.5
365.493	316.94
365.874	316.26
366.256	309.94
366.637	313.1
367.019	328.47
367.4	308.58
367.781	307
368.163	286.66
368.544	337.51
368.925	310.16
369.306	317.84
369.688	313.55
370.069	292.08
370.45	307.22
370.831	300.67
371.212	284.85
371.593	309.94
371.974	298.41
372.355	311.07
372.736	314.68
373.117	304.06
373.498	314.23
373.879	307
374.26	285.98
374.641	304.06
375.021	316.26
375.402	316.49
375.783	316.49
376.163	304.51
376.544	322.59
376.925	317.84
377.305	320.56
377.686	324.17
378.066	345.87
378.447	331.4
378.827	300.9
379.208	314
379.588	321.46
379.968	321.91
380.349	292.53
380.729	336.83
381.109	332.53
381.489	335.25
381.87	341.35
382.25	325.98
382.63	342.7
383.01	347
383.39	330.27
383.77	341.57
384.15	322.14
384.53	340.44
384.91	332.08
385.29	353.55
385.67	339.77
386.049	353.32
386.429	327.34
386.809	358.52
387.189	334.34
387.568	353.32
387.948	368.92
388.328	367.33
388.707	365.98
389.087	361.23
389.466	353.78
389.846	369.14
390.225	377.96
390.605	362.36
390.984	347.9
391.363	355.13
391.743	352.87
392.122	384.96
392.501	354.91
392.881	369.14
393.26	373.44
393.639	377.28
394.018	379.99
394.397	393.77
394.776	381.57
395.155	394.9
395.534	364.85
395.913	381.8
396.292	383.83
396.671	376.15
397.05	368.46
397.429	405.07
397.808	395.58
398.186	375.7
398.565	391.97
398.944	392.42
399.323	415.92
399.701	412.98
400.08	384.74
400.458	407.33
400.837	410.27
401.215	391.97
401.594	414.79
401.972	425.19
402.351	437.62
402.729	412.76
403.107	416.6
403.486	430.38
403.864	408.69
404.242	410.72
404.62	431.51
404.999	452.98
405.377	421.12
405.755	451.63
406.133	443.04
406.511	448.46
406.889	471.06
407.267	474.22
407.645	471.96
408.023	467.22
408.401	486.88
408.779	469.71
409.156	475.58
409.534	509.48
409.912	491.17
410.29	506.31
410.667	495.02
411.045	535.47
411.422	521.23
411.8	515.81
412.178	538.4
412.555	519.87
412.933	552.64
413.31	565.07
413.687	561.45
414.065	577.5
414.442	584.05
414.819	579.76
415.197	604.84
415.574	595.8
415.951	591.28
416.328	621.79
416.705	629.25
417.082	635.58
417.46	635.35
417.837	646.88
418.214	668.34
418.591	676.25
418.967	692.98
419.344	697.5
419.721	670.83
420.098	701.11
420.475	691.85
420.852	728.68
421.228	721.68
421.605	747.21
421.982	745.4
422.358	730.49
422.735	744.95
423.111	778.17
423.488	774.1
423.864	789.7
424.241	778.17
424.617	778.62
424.994	780.66
425.37	827.21
425.746	798.74
426.123	822.24
426.499	842.35
426.875	826.08
427.251	887.77
427.627	837.38
428.003	890.03
428.379	882.8
428.756	905.63
429.132	929.35
429.507	919.18
429.883	939.98
430.259	929.35
430.635	918.73
431.011	956.92
431.387	969.35
431.763	982.46
432.138	995.79
432.514	1030.14
432.89	1001.67
433.265	1033.76
433.641	1035.34
434.016	1065.62
434.392	1086.19
434.767	1055.23
435.143	1096.36
435.518	1102.91
435.894	1134.09
436.269	1121.67
436.644	1140.42
437.02	1149.01
437.395	1153.08
437.77	1165.51
438.145	1186.52
438.52	1199.18
438.895	1214.09
439.271	1213.87
439.646	1233.75
440.021	1241.21
440.395	1226.75
440.77	1235.56
441.145	1242.34
441.52	1263.36
441.895	1257.26
442.27	1283.47
442.645	1262.9
443.019	1305.84
443.394	1288.67
443.769	1299.97
444.143	1281.66
444.518	1305.39
444.892	1289.12
445.267	1318.5
445.641	1327.76
446.016	1325.05
446.39	1333.41
446.764	1332.06
447.139	1353.52
447.513	1352.17
447.887	1333.64
448.262	1360.08
448.636	1350.36
449.01	1354.65
449.384	1385.61
449.758	1372.73
450.132	1384.48
450.506	1395.78
450.88	1391.26
451.254	1389.68
451.628	1388.78
452.002	1411.15
452.376	1417.25
452.75	1431.49
453.123	1428.78
453.497	1445.72
453.871	1433.07
454.244	1471.03
454.618	1478.49
454.992	1493.18
455.365	1523.24
455.739	1522.56
456.112	1536.57
456.486	1532.05
456.859	1562.56
457.232	1543.8
457.606	1562.78
457.979	1576.79
458.352	1586.96
458.725	1610.24
459.099	1577.92
459.472	1626.96
459.845	1652.72
460.218	1652.95
460.591	1646.17
460.964	1647.3
461.337	1658.83
461.71	1707.19
462.083	1733.17
462.456	1731.82
462.829	1701.09
463.201	1741.99
463.574	1747.64
463.947	1774.3
464.32	1789.9
464.692	1784.25
465.065	1824.02
465.438	1806.17
465.81	1849.56
466.183	1852.95
466.555	1844.81
466.928	1876.22
467.3	1879.16
467.672	1878.71
468.045	1907.86
468.417	1911.48
468.789	1922.55
469.161	1936.79
469.534	1995.09
469.906	1991.47
470.278	2005.48
470.65	2021.08
471.022	2059.95
471.394	2081.19
471.766	2112.6
472.138	2109.44
472.51	2122.54
472.882	2157.8
473.253	2170
473.625	2158.25
473.997	2216.78
474.369	2200.28
474.74	2228.98
475.112	2232.37
475.484	2245.03
475.855	2312.37
476.227	2308.3
476.598	2393.95
476.97	2378.36
477.341	2408.19
477.713	2453.83
478.084	2449.09
478.455	2499.48
478.827	2488.86
479.198	2550.78
479.569	2529.99
479.94	2614.51
480.311	2611.34
480.682	2675.52
481.053	2673.94
481.424	2728.63
481.795	2720.49
482.166	2736.99
482.537	2802.3
482.908	2819.25
483.279	2844.11
483.65	2870.09
484.021	2884.78
484.391	2903.54
484.762	2934.95
485.133	2944.22
485.503	2942.41
485.874	3005.01
486.244	3016.76
486.615	3055.4
486.985	3080.94
487.356	3182.4
487.726	3165.45
488.097	3200.03
488.467	3168.39
488.837	3241.16
489.207	3233.7
489.578	3320.93
489.948	3331.32
490.318	3370.65
490.688	3319.8
491.058	3362.96
491.428	3422.4
491.798	3436.41
492.168	3529.51
492.538	3507.59
492.908	3538.78
493.278	3527.03
493.648	3571.54
494.017	3584.2
494.387	3651.32
494.757	3613.13
495.126	3633.92
495.496	3651.32
495.866	3679.34
496.235	3701.48
496.605	3730.64
496.974	3729.05
497.344	3735.38
497.713	3778.32
498.082	3776.06
498.452	3849.05
498.821	3841.14
499.19	3866.68
499.559	3831.65
499.928	3892.44
500.298	3928.82
500.667	3910.29
501.036	3894.93
501.405	3990.74
501.774	3972.66
502.143	3989.84
502.512	3983.29
502.88	4020.8
503.249	4006.34
503.618	4071.87
503.987	4032.78
504.356	4054.47
504.724	4077.52
505.093	4039.33
505.462	4035.26
505.83	4113.68
506.199	4144.64
506.567	4105.09
506.936	4103.96
507.304	4184.64
507.672	4163.39
508.041	4196.39
508.409	4230.74
508.777	4258.98
509.145	4284.07
509.514	4267.57
509.882	4292.88
510.25	4268.48
510.618	4243.84
510.986	4260.57
511.354	4307.57
511.722	4324.07
512.09	4397.06
512.458	4331.52
512.826	4372.2
513.193	4386.21
513.561	4372.65
513.929	4378.75
514.297	4426.66
514.664	4439.54
515.032	4441.35
515.4	4494.68
515.767	4464.18
516.135	4520.9
516.502	4423.05
516.869	4531.29
517.237	4535.59
517.604	4500.56
517.972	4537.39
518.339	4547.11
518.706	4575.13
519.073	4525.42
519.44	4609.03
519.808	4600.44
520.175	4588.47
520.542	4623.27
520.909	4644.28
521.276	4654.91
521.643	4673.89
522.009	4702.14
522.376	4734.23
522.743	4735.36
523.11	4776.71
523.477	4791.17
523.843	4797.5
524.21	4827.1
524.577	4908.68
524.943	4845.41
525.31	4917.72
525.676	4904.16
526.043	4909.14
526.409	4923.6
526.776	4973.99
527.142	5023.03
527.508	5042.24
527.874	5043.6
528.241	5078.62
528.607	5072.3
528.973	5138.51
529.339	5166.53
529.705	5159.3
530.071	5179.19
530.437	5224.16
530.803	5279.07
531.169	5224.38
531.535	5246.98
531.901	5258.05
532.267	5285.17
532.632	5327.88
532.998	5346.41
533.364	5357.03
533.73	5364.49
534.095	5385.73
534.461	5439.07
534.826	5442.91
535.192	5474.77
535.557	5516.13
535.923	5518.61
536.288	5539.4
536.653	5545.5
537.019	5543.92
537.384	5611.94
537.749	5623.24
538.114	5670.02
538.479	5638.16
538.845	5672.28
539.21	5609.01
539.575	5680.19
539.94	5706.4
540.305	5756.12
540.67	5760.41
541.034	5748.44
541.399	5846.74
541.764	5801.99
542.129	5844.93
542.494	5856
542.858	5900.3
543.223	5916.34
543.587	5981.2
543.952	5981.65
544.316	5982.78
544.681	6005.83
545.045	5977.36
545.41	6057.13
545.774	6090.35
546.138	6075.89
546.503	6126.96
546.867	6098.26
547.231	6184.36
547.595	6168.99
547.959	6155.66
548.324	6217.12
548.688	6238.37
549.052	6261.64
549.416	6283.56
549.779	6332.6
550.143	6325.14
550.507	6399.27
550.871	6376.67
551.235	6357.01
551.599	6387.74
551.962	6454.63
552.326	6467.74
552.689	6445.37
553.053	6458.02
553.417	6489.21
553.78	6548.64
554.143	6525.59
554.507	6570.56
554.87	6572.82
555.234	6644.46
555.597	6591.13
555.96	6630
556.323	6629.32
556.686	6679.94
557.05	6662.31
557.413	6694.63
557.776	6754.96
558.139	6757.68
558.502	6744.79
558.865	6754.06
559.228	6812.36
559.59	6813.72
559.953	6874.73
560.316	6888.97
560.679	6836.32
561.041	6896.43
561.404	6979.59
561.767	6971.46
562.129	6946.15
562.492	6993.38
562.854	6974.17
563.217	6990.66
563.579	7058.68
563.941	7080.83
564.304	7072.24
564.666	7135.07
565.028	7237.66
565.39	7216.42
565.753	7208.96
566.115	7220.26
566.477	7282.63
566.839	7347.72
567.201	7323.76
567.563	7299.58
567.925	7367.6
568.287	7385.91
568.648	7327.38
569.01	7446.7
569.372	7458.22
569.734	7443.99
570.095	7493.7
570.457	7573.93
570.819	7598.56
571.18	7639.91
571.542	7591.55
571.903	7697.09
572.265	7759.68
572.626	7764.88
572.987	7716.52
573.349	7878.32
573.71	7935.5
574.071	7919.23
574.432	8010.07
574.794	8069.05
575.155	8079.9
575.516	8184.98
575.877	8226.79
576.238	8205.77
576.599	8373.9
576.96	8415.71
577.32	8502.94
577.681	8540.91
578.042	8643.05
578.403	8690.96
578.763	8761.01
579.124	8876.04
579.485	8974.34
579.845	9096.82
580.206	9175.01
580.566	9280.55
580.927	9404.16
581.287	9586.98
581.648	9652.51
582.008	9826.52
582.368	9892.96
582.728	10086.4
583.089	10230.58
583.449	10389.44
583.809	10510.57
584.169	10753.95
584.529	10894.74
584.889	11155.07
585.249	11257.9
585.609	11408.4
585.969	11706.47
586.329	11880.93
586.688	12111.43
587.048	12320.47
587.408	12506.45
587.768	12809.72
588.127	12950.05
588.487	13192.31
588.846	13556.37
589.206	13755.01
589.565	13947.77
589.925	14296.91
590.284	14520.86
590.643	14745.04
591.003	15112.94
591.362	15411.91
591.721	15650.1
592.08	15878.57
592.44	16217.09
592.799	16481.49
593.158	16787.47
593.517	17077.4
593.876	17374.57
594.235	17624.73
594.593	17866.08
594.952	18285.06
595.311	18532.51
595.67	18974.08
596.029	19213.17
596.387	19527.96
596.746	19882.53
597.104	20089.98
597.463	20293.14
597.822	20749.62
598.18	20947.13
598.538	21180.57
598.897	21633.67
599.255	21769.71
599.613	22278.17
599.972	22410.37
600.33	22884.26
600.688	23017.59
601.046	23302.1
601.404	23739.83
601.762	24004.45
602.12	24372.58
602.478	24647.15
602.836	24971.89
603.194	25024.77
603.552	25345.21
603.91	25517.41
604.268	25893.44
604.625	26097.96
604.983	26413.88
605.341	26501.11
605.698	26822.68
606.056	27175.22
606.413	27354.65
606.771	27618.37
607.128	27891.81
607.485	28090
607.843	28239.6
608.2	28658.79
608.557	28772.69
608.914	28948.5
609.272	29320.47
609.629	29551.65
609.986	29760.01
610.343	29815.15
610.7	30271.18
611.057	30574.68
611.414	30528.35
611.771	30722.92
612.127	31130.14
612.484	31277.26
612.841	31459.85
613.198	31512.28
613.554	31739.62
613.911	32081.76
614.267	32224.12
614.624	32333.5
614.98	32484.91
615.337	32874.73
615.693	32986.14
616.05	32944.78
616.406	33317.88
616.762	33271.78
617.118	33526.01
617.475	33578.67
617.831	33820.01
618.187	33941.14
618.543	34175.03
618.899	34322.15
619.255	34403.73
619.611	34463.16
619.967	34669.48
620.323	34846.65
620.678	34895.69
621.034	34907.9
621.39	34889.59
621.746	35033.77
622.101	35558.05
622.457	35412.06
622.812	35555.79
623.168	35675.79
623.523	35750.59
623.879	35930.69
624.234	35859.28
624.589	35916
624.945	36124.81
625.3	36079.62
625.655	36307.86
626.01	36421.53
626.365	36553.5
626.72	36406.84
627.075	36473.5
627.43	36572.94
627.785	36684.12
628.14	36585.37
628.495	36723.67
628.85	36695.42
629.205	36606.61
629.559	36916.43
629.914	36642.09
630.269	36926.15
630.623	36960.05
630.978	36978.35
631.332	37078.01
631.687	37092.7
632.041	37044.11
632.396	37171.56
632.75	37032.59
633.104	37295.63
633.459	37101.51
633.813	37036.65
634.167	37160.49
634.521	37131.79
634.875	37365.46
635.229	37273.26
635.583	37141.06
635.937	37133.37
636.291	37155.97
636.645	37300.83
636.999	37215.41
637.352	37266.25
637.706	37151.68
638.06	37287.72
638.413	37185.8
638.767	37099.25
639.121	37133.15
639.474	37023.09
639.828	37145.58
640.181	37134.5
640.534	37225.35
640.888	37045.24
641.241	36974.06
641.594	36980.38
641.947	37191.45
642.301	37080.27
642.654	37255.86
643.007	37201.62
643.36	37166.37
643.713	37060.16
644.066	37247.27
644.419	37011.34
644.771	36835.53
645.124	36389.66
645.477	36494.97
645.83	36187.64
646.182	36094.98
646.535	36077.81
646.888	36118.49
647.24	35936.34
647.593	36181.53
647.945	36189.9
648.298	36046.85
648.65	35852.73
649.002	35879.85
649.355	36048.88
649.707	35977.25
650.059	36118.94
650.411	36546.72
650.763	36560.28
651.115	37032.13
651.467	36868.75
651.819	36847.51
652.171	36932.48
652.523	36633.73
652.875	36759.6
653.227	36527.74
653.578	36854.96
653.93	36709.66
654.282	36719.15
654.633	36512.6
654.985	36586.27
655.337	36694.97
655.688	36675.76
656.039	36793.5
656.391	36628.08
656.742	36601.64
657.094	36634.4
657.445	36698.58
657.796	36680.28
658.147	36443.67
658.498	36494.52
658.849	36643.9
659.2	36447.74
659.551	36469.44
659.902	36530.45
660.253	36510.79
660.604	36573.39
660.955	36335.65
661.306	36604.12
661.656	36675.53
662.007	36556.67
662.358	36479.83
662.708	36472.83
663.059	36502.43
663.409	36238.71
663.76	36486.16
664.11	36451.58
664.461	36535.2
664.811	36626.95
665.161	36496.78
665.511	36404.13
665.862	36405.03
666.212	36448.65
666.562	36558.02
666.912	36468.31
667.262	36403
667.612	36479.61
667.962	36448.19
668.312	36473.28
668.662	36540.17
669.011	36425.6
669.361	36395.09
669.711	36379.27
670.06	36334.07
670.41	36323.9
670.76	36194.42
671.109	36459.95
671.459	36320.29
671.808	36252.04
672.157	36325.49
672.507	36227.18
672.856	36193.96
673.205	36205.26
673.554	36417.69
673.904	36264.24
674.253	36354.64
674.602	36281.64
674.951	35750.59
675.3	35571.83
675.649	36160.29
675.998	36075.77
676.346	36091.37
676.695	36205.71
677.044	35873.97
677.393	35955.33
677.741	36190.12
678.09	35932.5
678.438	35868.55
678.787	36009.34
679.135	35864.03
679.484	35805.5
679.832	35728.21
680.181	35603.7
680.529	35683.47
680.877	35674.2
681.225	35497.26
681.573	35877.36
681.922	35490.93
682.27	35453.19
682.618	35455.23
682.966	35313.08
683.314	35364.38
683.661	35390.59
684.009	35280.77
684.357	35191.28
684.705	35101.79
685.053	35158.51
685.4	35093.65
685.748	34922.36
686.095	34905.41
686.443	34730.5
686.79	34693.21
687.138	34637.17
687.485	34829.48
687.832	34688.92
688.18	34656.83
688.527	34370.06
688.874	34485.76
689.221	34422.71
689.568	34315.82
689.915	34168.48
690.262	34144.75
690.609	34161.25
690.956	33940.69
691.303	34082.38
691.65	33942.5
691.997	33823.4
692.344	33694.14
692.69	33679.91
693.037	33648.04
693.383	33405.34
693.73	33442.4
694.077	33328.73
694.423	33193.82
694.769	33238.34
695.116	33265.68
695.462	33022.3
695.808	33034.5
696.155	33043.99
696.501	32713.15
696.847	32804.22
697.193	32547.05
697.539	32712.47
697.885	32454.4
698.231	32330.56
698.577	32435.87
698.923	32396.55
699.269	32159.72
699.614	32053.28
699.96	32011.47
700.306	32044.47
700.651	31816.68
700.997	31709.56
701.342	31686.74
701.688	31735.1
702.033	31699.62
702.379	31640.19
702.724	31482
703.069	31570.58
703.415	31136.92
703.76	31209.46
704.105	31210.59
704.45	31044.49
704.795	30934.67
705.14	30852.86
705.485	30861.22
705.83	30688.57
706.175	30774.9
706.52	30558.86
706.865	30527.67
707.209	30533.77
707.554	30379.88
707.899	30448.13
708.243	30246.32
708.588	30312.08
708.932	30036.61
709.277	30079.55
709.621	30123.16
709.966	29907.58
710.31	29901.25
710.654	29662.84
710.998	29713
711.342	29691.08
711.687	29548.49
712.031	29523.63
712.375	29362.5
712.719	29527.25
713.063	29305.78
713.407	29362.28
713.75	29209.06
714.094	29221.04
714.438	29157.76
714.782	29152.11
715.125	28896.53
715.469	29047.48
715.812	28858.56
716.156	28742.41
716.499	28870.99
716.843	28703.54
717.186	28621.28
717.53	28745.8
717.873	28868.73
718.216	28622.41
718.559	28541.51
718.902	28304
719.246	28398.46
719.589	28365.47
719.932	28238.01
720.275	28191.01
720.617	28231.24
720.96	28168.19
721.303	28067.17
721.646	28087.28
721.989	27944.91
722.331	27966.84
722.674	27887.74
723.016	27882.32
723.359	27877.57
723.701	27900.4
724.044	27720.29
724.386	27585.83
724.729	27772.94
725.071	27664.02
725.413	27518.71
725.755	27596.9
726.097	27475.55
726.439	27215.89
726.782	27415.21
727.124	27462.67
727.465	27317.81
727.807	27297.02
728.149	27258.15
728.491	27131.83
728.833	27155.56
729.175	27090.25
729.516	27039.85
729.858	26995.11
730.199	27092.96
730.541	26991.27
730.882	26921.21
731.224	27037.59
731.565	26827.2
731.906	26798.73
732.248	26893.42
732.589	26737.26
732.93	26751.73
733.271	26666.3
733.612	26713.99
733.953	26685.51
734.294	26594.22
734.635	26524.39
734.976	26619.75
735.317	26373.88
735.658	26368.91
735.999	26512.64
736.339	26310.83
736.68	26455.69
737.021	26319.19
737.361	26184.28
737.702	26416.14
738.042	26364.39
738.383	26239.2
738.723	26325.52
739.063	26160.33
739.404	26086.66
739.744	26088.92
740.084	26008.92
740.424	25956.04
740.764	25989.26
741.104	26005.98
741.444	25927.34
741.784	25834.24
742.124	26027.23
742.464	25758.31
742.804	25855.48
743.143	25628.82
743.483	25750.85
743.823	25613.68
744.162	25645.99
744.502	25670.85
744.841	25675.37
745.181	25694.13
745.52	25515.37
745.86	25598.76
746.199	25597.41
746.538	25536.39
746.877	25494.36
747.216	25489.84
747.556	25392.44
747.895	25370.75
748.234	25267.02
748.573	25188.38
748.911	25312.22
749.25	25230.64
749.589	25170.52
749.928	25350.41
750.267	25296.17
750.605	25224.53
750.944	25223.18
751.283	25042.17
751.621	25119.45
751.96	24925.11
752.298	24912.23
752.636	25011.21
752.975	24884.43
753.313	24790.65
753.651	24916.07
753.989	24782.51
754.327	24839.69
754.666	24627.71
755.004	24713.36
755.342	24702.06
755.679	24665.68
756.017	24518.56
756.355	24575.06
756.693	24418.23
757.031	24585.46
757.368	24412.8
757.706	24418.91
758.044	24293.94
758.381	24418.23
758.719	24319.47
759.056	24335.07
759.394	24166.94
759.731	24017.33
760.068	24024.11
760.405	23999.93
760.743	23875.19
761.08	23998.35
761.417	23891.69
761.754	23868.64
762.091	23801.97
762.428	23751.35
762.765	23630.9
763.102	23699.38
763.438	23396.56
763.775	23399.72
764.112	23406.28
764.449	23519.95
764.785	23362.21
765.122	23176.23
765.458	23190.01
765.795	23206.73
766.131	23184.14
766.467	23075.66
766.804	22904.37
767.14	22802
767.476	22751.15
767.812	22742.79
768.148	22798.38
768.485	22576.69
768.821	22535.79
769.157	22583.7
769.492	22496.92
769.828	22468.45
770.164	22185.74
770.5	22271.62
770.836	22244.95
771.171	22007.9
771.507	22041.34
771.842	21797.05
772.178	21833.66
772.513	21807
772.849	21715.25
773.184	21651.07
773.519	21564.97
773.855	21443.16
774.19	21393
774.525	21356.61
774.86	21316.61
775.195	21338.53
775.53	21156.17
775.865	21092.89
776.2	20880.92
776.535	20814.48
776.87	20832.33
777.205	20736.74
777.539	20712.11
777.874	20663.75
778.209	20482.96
778.543	20414.72
778.878	20365.45
779.212	20329.07
779.547	20278.22
779.881	20237.55
780.215	20130.66
780.55	20054.73
780.884	19997.1
781.218	19931.79
781.552	19918.23
781.886	19768.63
782.22	19691.35
782.554	19683.89
782.888	19450.22
783.222	19487.51
783.556	19294.29
783.889	19270.57
784.223	19221.53
784.557	19155.32
784.89	19177.24
785.224	19052.27
785.557	19009.56
785.891	18912.16
786.224	18806.85
786.558	18769.11
786.891	18673.97
787.224	18555.56
787.557	18579.96
787.891	18512.39
788.224	18456.12
788.557	18515.78
788.89	18355.79
789.223	18385.84
789.556	18282.57
789.888	18252.06
790.221	18056.81
790.554	18036.25
790.887	17922.81
791.219	17897.72
791.552	17877.38
791.884	17702.47
792.217	17683.49
792.549	17711.06
792.882	17579.09
793.214	17537.96
793.546	17518.75
793.879	17416.6
794.211	17300.45
794.543	17266.55
794.875	17279.43
795.207	17335.02
795.539	17181.58
795.871	17138.65
796.203	16973.45
796.535	16913.34
796.867	16931.19
797.198	16850.97
797.53	16799.22
797.862	16769.84
798.193	16721.71
798.525	16651.43
798.856	16613.24
799.188	16479.45
799.519	16377.99
799.85	16271.32
800.182	16424.54
800.513	16374.37
800.844	16177.54
801.175	16345.67
801.506	16228.16
801.837	16211.21
802.168	16141.38
802.499	16082.18
802.83	15940.48
803.161	15848.96
803.491	15909.75
803.822	15910.43
804.153	15799.47
804.483	15633.15
804.814	15605.35
805.145	15688.74
805.475	15629.98
805.805	15592.92
806.136	15472.93
806.466	15547.73
806.796	15458.69
807.126	15401.06
807.457	15248.3
807.787	15325.36
808.117	15189.09
808.447	15141.64
808.777	15189.09
809.107	15099.6
809.436	15047.4
809.766	15039.72
810.096	14977.8
810.426	14922.66
810.755	15008.31
811.085	14896.22
811.414	14822.55
811.744	14883.79
812.073	14761.76
812.403	14695.32
812.732	14663.68
813.061	14662.1
813.39	14625.49
813.719	14548.88
814.049	14616.68
814.378	14534.42
814.707	14394.08
815.036	14530.35
815.365	14344.59
815.693	14334.65
816.022	14300.98
816.351	14233.41
816.68	14140.53
817.008	14192.96
817.337	13991.84
817.665	14077.03
817.994	14061.44
818.322	14022.57
818.651	13910.03
818.979	13855.34
819.307	14000.87
819.636	13948.45
819.964	13772.86
820.292	13884.72
820.62	13896.02
820.948	13841.56
821.276	13821.44
821.604	13821.44
821.932	13826.87
822.259	13839.75
822.587	13834.33
822.915	13785.29
823.243	13783.48
823.57	13706.42
823.898	13797.04
824.225	13786.42
824.553	13760.88
824.88	13692.18
825.207	13700.09
825.535	13680.21
825.862	13766.3
826.189	13722.69
826.516	13755.23
826.843	13849.24
827.17	13760.43
827.497	13732.63
827.824	13776.93
828.151	13771.5
828.478	13755.23
828.805	13823.48
829.131	13736.47
829.458	13708
829.785	13732.41
830.111	13625.07
830.438	13687.21
830.764	13697.83
831.09	13728.57
831.417	13612.18
831.743	13726.98
832.069	13743.93
832.395	13617.83
832.722	13661.45
833.048	13594.33
833.374	13625.52
833.7	13564.05
834.026	13551.62
834.351	13588.23
834.677	13580.77
835.003	13587.1
835.329	13558.85
835.654	13395.92
835.98	13457.84
836.306	13457.61
836.631	13416.94
836.956	13491.96
837.282	13468.46
837.607	13385.52
837.932	13375.81
838.258	13363.38
838.583	13370.16
838.908	13294.45
839.233	13299.65
839.558	13258.3
839.883	13148.24
840.208	13159.54
840.533	13213.32
840.858	13203.16
841.182	13214
841.507	13179.2
841.832	13148.24
842.156	13030.5
842.481	13031.63
842.805	12981.47
843.13	13008.58
843.454	12962.03
843.778	12879.55
844.103	12883.16
844.427	12750.96
844.751	12856.5
845.075	12762.72
845.399	12742.15
845.723	12768.59
846.047	12633.91
846.371	12555.72
846.695	12546.45
847.019	12469.16
847.343	12448.6
847.666	12368.38
847.99	12309.17
848.313	12260.36
848.637	12185.78
848.96	12193.92
849.284	12154.82
849.607	12062.39
849.931	12074.37
850.254	11931.32
850.577	11946.92
850.9	11840.48
851.223	11730.2
851.546	11743.98
851.869	11634.61
852.192	11789.41
852.515	11628.96
852.838	11543.09
853.161	11627.38
853.483	11525.91
853.806	11442.3
854.129	11537.66
854.451	11365.24
854.774	11414.95
855.096	11335.41
855.419	11382.64
855.741	11264.45
856.063	11251.34
856.385	11241.63
856.708	11145.13
857.03	11119.14
857.352	11097
857.674	11013.38
857.996	11054.96
858.318	10943.1
858.64	11056.09
858.961	10925.25
859.283	10914.63
859.605	10860.17
859.926	10907.62
860.248	10832.6
860.57	10840.51
860.891	10865.82
861.212	10742.2
861.534	10729.1
861.855	10786.04
862.176	10667.18
862.498	10696.55
862.819	10632.15
863.14	10632.15
863.461	10691.36
863.782	10567.07
864.103	10565.94
864.424	10533.17
864.745	10588.54
865.065	10466.73
865.386	10404.13
865.707	10540.17
866.027	10490.68
866.348	10459.95
866.668	10428.99
866.989	10382.21
867.309	10317.81
867.63	10338.6
867.95	10337.24
868.27	10233.06
868.59	10203.01
868.91	10293.85
869.23	10243.46
869.55	10211.82
869.87	10306.96
870.19	10230.13
870.51	10217.02
870.83	10196.91
871.15	10092.73
871.469	10120.98
871.789	10133.41
872.109	10138.83
872.428	10090.92
872.748	10040.98
873.067	10103.8
873.386	10088.66
873.706	10067.64
874.025	9988.1
874.344	10014.99
874.663	10057.7
874.982	10010.92
875.301	9971.15
875.62	9894.09
875.939	9933.86
876.258	9931.6
876.577	9820.19
876.896	9835.33
877.214	9882.11
877.533	9847.31
877.852	9825.17
878.17	9867.42
878.489	9815.22
878.807	9830.59
879.125	9763.02
879.444	9679.63
879.762	9661.1
880.08	9682.8
880.398	9594.89
880.716	9637.83
881.034	9597.15
881.352	9571.39
881.67	9570.03
881.988	9569.35
882.306	9539.75
882.624	9542.46
882.941	9448.23
883.259	9506.98
883.577	9473.08
883.894	9500.43
884.212	9328
884.529	9410.04
884.846	9421.11
885.164	9408.45
885.481	9297.5
885.798	9298.4
886.115	9276.25
886.432	9269.47
886.75	9199.87
887.067	9235.35
887.383	9228.12
887.7	9175.69
888.017	9170.27
888.334	9203.94
888.651	9163.26
888.967	9048.24
889.284	9063.38
889.6	9065.64
889.917	8963.49
890.233	8994.45
890.55	8921.69
890.866	8964.62
891.182	8916.04
891.498	8878.3
891.815	8873.33
892.131	8825.19
892.447	8812.08
892.763	8797.4
893.079	8779.32
893.395	8707.23
893.71	8689.15
894.026	8644.18
894.342	8661.81
894.657	8562.37
894.973	8534.13
895.289	8552.43
895.604	8525.76
895.92	8478.99
896.235	8412.55
896.55	8499.32
896.865	8463.39
897.181	8382.04
897.496	8358.09
897.811	8319.67
898.126	8310.63
898.441	8332.55
898.756	8240.35
899.071	8257.52
899.386	8134.36
899.7	8137.3
900.015	8052.56
900.33	8024.31
900.644	8015.04
900.959	8057.75
901.273	8039
901.588	8011.88
901.902	7936.85
902.216	7925.78
902.531	7894.59
902.845	7900.02
903.159	7885.33
903.473	7765.11
903.787	7840.13
904.101	7717.65
904.415	7714.94
904.729	7734.6
905.042	7637.43
905.356	7674.71
905.67	7630.87
905.984	7610.08
906.297	7577.54
906.611	7530.76
906.924	7528.73
907.237	7509.29
907.551	7468.62
907.864	7419.35
908.177	7401.73
908.491	7325.57
908.804	7323.08
909.117	7287.83
909.43	7284.22
909.743	7227.72
910.056	7211.9
910.368	7173.48
910.681	7154.5
910.994	7108.17
911.307	7143.43
911.619	7043.77
911.932	7014.39
912.244	6964
912.557	6998.12
912.869	6910.89
913.181	6930.55
913.494	6976.43
913.806	6899.37
914.118	6830.67
914.43	6805.58
914.742	6827.5
915.054	6751.57
915.366	6734.63
915.678	6754.29
915.99	6672.48
916.302	6578.25
916.613	6556.32
916.925	6584.8
917.236	6590.22
917.548	6555.87
917.859	6490.56
918.171	6464.35
918.482	6452.82
918.794	6393.39
919.105	6413.5
919.416	6393.62
919.727	6338.93
920.038	6309.1
920.349	6264.36
920.66	6237.01
920.971	6190.23
921.282	6220.06
921.593	6108.43
921.903	6155.43
922.214	6140.52
922.525	6078.6
922.835	6081.76
923.146	6050.58
923.456	6034.76
923.767	5976
924.077	6007.41
924.387	5980.07
924.697	5945.49
925.008	5886.74
925.318	5844.93
925.628	5895.55
925.938	5826.17
926.248	5805.61
926.558	5801.32
926.867	5717.93
927.177	5691.71
927.487	5688.78
927.796	5691.71
928.106	5632.96
928.416	5593.41
928.725	5603.58
929.034	5570.14
929.344	5590.93
929.653	5566.52
929.962	5529.01
930.271	5514.54
930.581	5466.64
930.89	5483.58
931.199	5395.68
931.508	5384.6
931.817	5407.43
932.125	5303.48
932.434	5317.71
932.743	5286.75
933.051	5254.66
933.36	5220.54
933.669	5202.91
933.977	5197.26
934.286	5222.57
934.594	5176.02
934.902	5136.25
935.21	5082.92
935.519	5133.09
935.827	5108.23
936.135	5075.46
936.443	5008.79
936.751	4957.72
937.059	4984.84
937.367	4974.9
937.674	4967.44
937.982	4923.37
938.29	4936.71
938.597	4906.42
938.905	4834.34
939.213	4853.77
939.52	4851.51
939.827	4795.02
940.135	4793.21
940.442	4764.96
940.749	4790.5
941.056	4764.96
941.363	4696.71
941.67	4714.57
941.977	4654.91
942.284	4664.85
942.591	4612.42
942.898	4632.99
943.205	4570.84
943.511	4568.13
943.818	4532.2
944.125	4566.32
944.431	4466.21
944.738	4474.57
945.044	4474.35
945.35	4455.59
945.657	4418.98
945.963	4423.73
946.269	4376.72
946.575	4386.89
946.881	4343.5
947.187	4361.35
947.493	4298.31
947.799	4326.55
948.105	4324.52
948.41	4214.24
948.716	4256.95
949.022	4202.71
949.327	4192.09
949.633	4186.9
949.938	4147.35
950.244	4189.83
950.549	4122.49
950.854	4095.82
951.16	4078.42
951.465	4053.57
951.77	4073.45
952.075	4036.84
952.38	4013.57
952.685	4008.6
952.99	3943.29
953.294	3943.51
953.599	3971.31
953.904	3914.59
954.209	3922.72
954.513	3881.37
954.818	3820.8
955.122	3862.16
955.426	3863.97
955.731	3841.14
956.035	3803.4
956.339	3778.09
956.643	3751.65
956.948	3791.65
957.252	3750.75
957.556	3744.65
957.86	3710.07
958.163	3713.24
958.467	3677.53
958.771	3667.81
959.075	3651.32
959.378	3665.78
959.682	3636.63
959.985	3591.88
960.289	3607.48
960.592	3578.55
960.896	3548.04
961.199	3563.41
961.502	3563.64
961.805	3523.64
962.108	3482.73
962.411	3489.74
962.714	3482.06
963.017	3491.09
963.32	3447.71
963.623	3401.61
963.926	3427.14
964.228	3403.64
964.531	3384.66
964.833	3396.18
965.136	3365.22
965.438	3342.17
965.741	3307.14
966.043	3288.61
966.345	3285.45
966.648	3260.37
966.95	3239.35
967.252	3220.59
967.554	3267.37
967.856	3221.95
968.158	3221.27
968.46	3194.61
968.761	3203.87
969.063	3165
969.365	3151.67
969.666	3148.73
969.968	3116.42
970.269	3115.51
970.571	3099.01
970.872	3097.66
971.174	3069.18
971.475	3048.85
971.776	3033.71
972.077	3010.2
972.378	3040.03
972.679	2996.87
972.98	2975.63
973.281	2989.19
973.582	2988.06
973.883	2983.76
974.183	2938.11
974.484	2945.35
974.785	2911.45
975.085	2890.88
975.386	2863.31
975.686	2873.48
975.986	2884.56
976.287	2864.67
976.587	2837.78
976.887	2800.49
977.187	2807.27
977.487	2796.2
977.787	2775.41
978.087	2763.43
978.387	2765.46
978.687	2767.72
978.987	2736.99
979.286	2742.41
979.586	2681.85
979.885	2714.84
980.185	2679.59
980.484	2683.43
980.784	2664.45
981.083	2669.65
981.382	2644.11
981.682	2652.47
981.981	2631.23
982.28	2616.09
982.579	2563.66
982.878	2585.36
983.177	2562.31
983.475	2596.65
983.774	2533.38
984.073	2562.31
984.372	2516.43
984.67	2518.01
984.969	2515.3
985.267	2485.02
985.566	2481.63
985.864	2474.17
986.162	2463.78
986.461	2428.98
986.759	2437.11
987.057	2404.8
987.355	2450.9
987.653	2428.98
987.951	2363.89
988.249	2390.78
988.547	2386.04
988.844	2371.12
989.142	2365.93
989.44	2306.72
989.737	2314.18
990.035	2287.96
990.332	2306.04
990.63	2292.03
990.927	2275.99
991.224	2284.8
991.521	2273.95
991.819	2279.6
992.116	2241.64
992.413	2260.84
992.71	2228.75
993.006	2202.77
993.303	2186.27
993.6	2172.94
993.897	2168.42
994.193	2214.74
994.49	2191.92
994.787	2188.53
995.083	2123.45
995.379	2163.22
995.676	2124.8
995.972	2094.75
996.268	2094.97
996.565	2092.49
996.861	2063.56
997.157	2049.32
997.453	2051.81
997.749	2007.74
998.044	2037.12
998.34	2037.57
998.636	2012.49
998.932	2027.18
999.227	2011.13
999.523	1999.16
999.818	1962.1
1000.114	1943.79
1000.409	1969.33
1000.704	1939.5
1001	1938.14
1001.295	1909.44
1001.59	1883.45
1001.885	1893.17
1002.18	1873.51
1002.475	1855.66
1002.77	1882.1
1003.065	1875.54
1003.359	1880.74
1003.654	1846.39
1003.949	1859.05
1004.243	1824.92
1004.538	1803
1004.832	1800.07
1005.127	1798.26
1005.421	1762.78
1005.715	1759.84
1006.009	1751.25
1006.304	1757.35
1006.598	1739.73
1006.892	1720.29
1007.186	1713.97
1007.48	1674.87
1007.773	1707.41
1008.067	1679.62
1008.361	1665.83
1008.655	1684.81
1008.948	1669
1009.242	1646.85
1009.535	1665.83
1009.829	1672.16
1010.122	1633.06
1010.415	1622.9
1010.708	1623.35
1011.001	1579.73
1011.295	1595.33
1011.588	1607.75
1011.881	1569.34
1012.173	1591.48
1012.466	1553.07
1012.759	1537.7
1013.052	1547.87
1013.344	1537.93
1013.637	1529.56
1013.93	1522.56
1014.222	1510.36
1014.514	1498.83
1014.807	1482.56
1015.099	1487.98
1015.391	1445.72
1015.683	1491.15
1015.976	1458.15
1016.268	1450.92
1016.56	1428.1
1016.851	1414.31
1017.143	1433.75
1017.435	1380.87
1017.727	1410.7
1018.018	1436.69
1018.31	1377.7
1018.602	1399.62
1018.893	1374.99
1019.185	1380.42
1019.476	1381.55
1019.767	1332.28
1020.058	1337.48
1020.35	1369.12
1020.641	1317.59
1020.932	1295.9
1021.223	1320.08
1021.514	1299.29
1021.804	1275.79
1022.095	1285.95
1022.386	1274.2
1022.677	1267.65
1022.967	1240.98
1023.258	1247.09
1023.548	1226.75
1023.839	1219.29
1024.129	1238.05
1024.419	1233.3
1024.709	1197.37
1025	1200.31
1025.29	1193.53
1025.58	1180.19
1025.87	1158.95
1026.16	1157.82
1026.449	1155.34
1026.739	1168.22
1027.029	1133.42
1027.319	1142.23
1027.608	1111.72
1027.898	1115.79
1028.187	1141.1
1028.477	1108.11
1028.766	1113.08
1029.055	1102.91
1029.344	1098.62
1029.634	1083.93
1029.923	1095.9
1030.212	1077.6
1030.501	1068.11
1030.79	1070.14
1031.078	1064.72
1031.367	1043.48
1031.656	1039.18
1031.945	1034.66
1032.233	1020.88
1032.522	1005.74
1032.81	1012.52
1033.099	1015.91
1033.387	1019.75
1033.675	1017.94
1033.963	979.52
1034.251	989.01
1034.54	959.41
1034.828	964.61
1035.116	943.37
1035.403	948.11
1035.691	947.88
1035.979	918.73
1036.267	938.17
1036.554	943.14
1036.842	919.86
1037.129	915.34
1037.417	890.26
1037.704	917.83
1037.992	906.98
1038.279	901.11
1038.566	894.55
1038.853	894.55
1039.14	894.55
