Data from hue_40_FLMS001491_88.txt Node
Date: Mon Feb 06 15:08:41 GMT 2017
User: dcchb
Spectrometer: FLMS00149
Trigger mode: 0
Integration Time (sec): 2.000000E-2
Scans to average: 10
Electric dark correction enabled: true
Nonlinearity correction enabled: false
Boxcar width: 0
XAxis mode: Wavelengths
Number of Pixels in Spectrum: 2048
>>>>>Begin Spectral Data<<<<<
341.393	-7.64
341.776	-7.64
342.16	-7.64
342.543	-93.06
342.927	-76.34
343.31	-73.18
343.693	-60.97
344.077	-71.37
344.46	-66.4
344.843	-58.49
345.226	-54.87
345.61	-10.35
345.993	-8.77
346.376	2.3
346.759	9.76
347.142	17.22
347.525	36.43
347.908	49.98
348.291	69.19
348.674	95.86
349.057	123.65
349.44	127.95
349.823	125.01
350.206	159.59
350.588	191.22
350.971	218.57
351.354	201.84
351.737	213.6
352.119	254.72
352.502	257.89
352.884	233.93
353.267	276.65
353.65	283.88
354.032	300.37
354.414	295.4
354.797	325.01
355.179	339.47
355.562	326.81
355.944	324.55
356.326	318
356.709	318
357.091	331.33
357.473	327.04
357.855	330.66
358.238	337.21
358.62	329.53
359.002	318.9
359.384	318.9
359.766	324.1
360.148	328.62
360.53	322.52
360.912	339.24
361.294	321.62
361.676	324.1
362.057	329.07
362.439	342.86
362.821	325.91
363.203	333.37
363.584	322.75
363.966	315.06
364.348	309.41
364.729	321.84
365.111	328.62
365.493	311.22
365.874	313.48
366.256	306.7
366.637	323.42
367.019	298.79
367.4	324.33
367.781	298.79
368.163	322.52
368.544	301.05
368.925	324.78
369.306	309.64
369.688	309.19
370.069	308.73
370.45	319.58
370.831	320.26
371.212	311.22
371.593	322.75
371.974	323.2
372.355	313.03
372.736	315.29
373.117	308.06
373.498	310.32
373.879	296.31
374.26	333.14
374.641	312.35
375.021	303.99
375.402	318.23
375.783	317.1
376.163	328.62
376.544	336.3
376.925	319.13
377.305	320.49
377.686	325.46
378.066	316.19
378.447	310.09
378.827	322.97
379.208	317.77
379.588	310.54
379.968	332.01
380.349	332.69
380.729	345.57
381.109	324.55
381.489	340.37
381.87	336.98
382.25	348.28
382.63	333.59
383.01	313.25
383.39	341.95
383.77	328.4
384.15	334.95
384.53	331.33
384.91	348.73
385.29	337.21
385.67	365.91
386.049	334.72
386.429	329.53
386.809	337.43
387.189	352.12
387.568	346.25
387.948	350.99
388.328	350.54
388.707	362.29
389.087	349.86
389.466	365.23
389.846	335.17
390.225	371.33
390.605	390.09
390.984	365.91
391.363	339.92
391.743	369.98
392.122	364.33
392.501	376.3
392.881	380.6
393.26	361.39
393.639	389.86
394.018	390.54
394.397	366.81
394.776	347.38
395.155	350.54
395.534	398.22
395.913	366.36
396.292	368.17
396.671	383.31
397.05	394.61
397.429	389.18
397.808	378.34
398.186	369.98
398.565	380.6
398.944	388.05
399.323	389.86
399.701	397.77
400.08	396.42
400.458	391.44
400.837	393.7
401.215	388.28
401.594	396.87
401.972	389.86
402.351	388.96
402.729	418.34
403.107	420.14
403.486	412.23
403.864	391.44
404.242	410.2
404.62	416.08
404.999	410.2
405.377	420.37
405.755	425.79
406.133	410.2
406.511	423.53
406.889	421.95
407.267	438
407.645	430.09
408.023	428.28
408.401	438.9
408.779	456.53
409.156	450.88
409.534	429.18
409.912	435.96
410.29	456.98
410.667	433.93
411.045	461.05
411.422	458.11
411.8	483.19
412.178	461.5
412.555	477.09
412.933	463.76
413.31	480.93
413.687	476.41
414.065	482.29
414.442	482.06
414.819	469.86
415.197	485.91
415.574	478.22
415.951	496.3
416.328	504.66
416.705	502.4
417.082	507.15
417.46	503.31
417.837	522.06
418.214	509.41
418.591	519.8
418.967	509.41
419.344	523.42
419.721	503.08
420.098	515.96
420.475	541.72
420.852	530.42
421.228	524.1
421.605	529.52
421.982	550.08
422.358	548.95
422.735	535.17
423.111	552.34
423.488	576.98
423.864	564.1
424.241	577.2
424.617	555.51
424.994	574.49
425.37	567.94
425.746	552.12
426.123	588.5
426.499	577.88
426.875	588.95
427.251	598.67
427.627	574.26
428.003	615.85
428.379	607.48
428.756	602.06
429.132	630.99
429.507	624.43
429.883	614.94
430.259	627.82
430.635	635.28
431.011	650.42
431.387	643.87
431.763	653.36
432.138	659.23
432.514	652.45
432.89	646.35
433.265	658.78
433.641	670.76
434.016	681.15
434.392	671.89
434.767	682.28
435.143	701.04
435.518	694.71
435.894	708.95
436.269	732.68
436.644	732.68
437.02	736.29
437.395	717.76
437.77	734.49
438.145	748.95
438.52	752.79
438.895	759.57
439.271	773.81
439.646	781.94
440.021	786.69
440.395	768.84
440.77	793.92
441.145	761.15
441.52	774.03
441.895	793.69
442.27	802.96
442.645	812.9
443.019	812.22
443.394	793.02
443.769	807.25
444.143	837.31
444.518	812.45
444.892	841.38
445.267	855.16
445.641	859
446.016	838.21
446.39	848.16
446.764	857.42
447.139	856.07
447.513	849.51
447.887	849.29
448.262	876.63
448.636	868.95
449.01	882.73
449.384	877.31
449.758	876.86
450.132	883.18
450.506	894.03
450.88	902.39
451.254	926.35
451.628	903.3
452.002	949.17
452.376	940.58
452.75	931.32
453.123	969.96
453.497	962.73
453.871	956.18
454.244	953.92
454.618	988.04
454.992	992.11
455.365	1010.19
455.739	1020.81
456.112	1029.39
456.486	1051.77
456.859	1038.89
457.232	1067.81
457.606	1037.76
457.979	1066.68
458.352	1103.97
458.725	1092.22
459.099	1096.96
459.472	1130.86
459.845	1120.46
460.218	1150.29
460.591	1142.16
460.964	1139.22
461.337	1211.54
461.71	1194.36
462.083	1210.63
462.456	1191.88
462.829	1240.01
463.201	1223.06
463.574	1249.28
463.947	1267.81
464.32	1284.08
464.692	1299.67
465.065	1299.67
465.438	1343.06
465.81	1357.07
466.183	1377.18
466.555	1377.86
466.928	1394.36
467.3	1390.51
467.672	1409.27
468.045	1452.66
468.417	1472.32
468.789	1487.69
469.161	1482.49
469.534	1547.57
469.906	1555.71
470.278	1602.49
470.65	1615.82
471.022	1638.64
471.394	1706.66
471.766	1688.81
472.138	1714.8
472.51	1755.7
472.882	1780.33
473.253	1829.15
473.625	1863.04
473.997	1884.96
474.369	1928.58
474.74	1945.53
475.112	1993.21
475.484	2084.96
475.855	2098.07
476.227	2092.42
476.598	2174.67
476.97	2202.47
477.341	2259.19
477.713	2321.34
478.084	2322.24
478.455	2415.8
478.827	2433.65
479.198	2555.91
479.569	2560.88
479.94	2658.96
480.311	2704.15
480.682	2738.05
481.053	2824.83
481.424	2945.73
481.795	2974.88
482.166	3020.98
482.537	3115.67
482.908	3231.6
483.279	3276.34
483.65	3342.55
484.021	3455.32
484.391	3516.79
484.762	3614.86
485.133	3671.13
485.503	3776.89
485.874	3850.34
486.244	3927.4
486.615	4023.44
486.985	4138.24
487.356	4201.29
487.726	4317.89
488.097	4496.2
488.467	4481.51
488.837	4701.61
489.207	4729.64
489.578	4827.49
489.948	4955.17
490.318	5032.9
490.688	5099.8
491.058	5241.26
491.428	5361.03
491.798	5460.92
492.168	5591.99
492.538	5651.65
492.908	5775.71
493.278	5901.81
493.648	5947.46
494.017	6056.15
494.387	6127.11
494.757	6298.18
495.126	6387.45
495.496	6407.78
495.866	6541.34
496.235	6642.35
496.605	6764.84
496.974	6850.71
497.344	6944.04
497.713	6986.98
498.082	7134.09
498.452	7271.04
498.821	7328.66
499.19	7343.35
499.559	7446.85
499.928	7617.24
500.298	7695.43
500.667	7728.88
501.036	7833.96
501.405	7951.47
501.774	7991.24
502.143	8188.75
502.512	8224.91
502.88	8277.11
503.249	8341.74
503.618	8447.05
503.987	8437.11
504.356	8558.24
504.724	8639.14
505.093	8736.08
505.462	8816.99
505.83	8909.64
506.199	8975.85
506.567	9129.75
506.936	9056.3
507.304	9230.31
507.672	9312.57
508.041	9379.68
508.409	9473.92
508.777	9560.69
509.145	9655.83
509.514	9672.1
509.882	9808.6
510.25	9812.44
510.618	9907.35
510.986	9983.51
511.354	10077.07
511.722	10143.05
512.09	10266.67
512.458	10205.65
512.826	10362.03
513.193	10463.5
513.561	10493.78
513.929	10551.18
514.297	10674.56
514.664	10781.45
515.032	10810.61
515.4	10858.29
515.767	10922.24
516.135	10989.13
516.502	11028.23
516.869	11109.13
517.237	11210.82
517.604	11216.47
517.972	11312.74
518.339	11385.05
518.706	11442
519.073	11524.49
519.44	11522
519.808	11706.85
520.175	11770.13
520.542	11911.14
520.909	11933.29
521.276	11970.35
521.643	12056.67
522.009	12143
522.376	12199.27
522.743	12289.44
523.11	12403.11
523.477	12578.69
523.843	12584.57
524.21	12765.58
524.577	12827.95
524.943	12871.57
525.31	12935.75
525.676	13099.81
526.043	13142.3
526.409	13139.58
526.776	13258.68
527.142	13334.83
527.508	13384.32
527.874	13552.45
528.241	13621.83
528.607	13591.32
528.973	13774.82
529.339	13655.5
529.705	13839.9
530.071	13974.14
530.437	14043.51
530.803	14156.28
531.169	14267.69
531.535	14249.16
531.901	14221.82
532.267	14375.94
532.632	14396.05
532.998	14513.79
533.364	14497.74
533.73	14645.98
534.095	14768.24
534.461	14789.94
534.826	14909.03
535.192	14914.68
535.557	14989.03
535.923	14987.9
536.288	15028.12
536.653	15231.96
537.019	15163.71
537.384	15186.54
537.749	15295.69
538.114	15366.19
538.479	15488
538.845	15543.81
539.21	15541.33
539.575	15654.09
539.94	15609.35
540.305	15709.01
540.67	15770.7
541.034	15828.1
541.399	15947.65
541.764	15909
542.129	16062.67
542.494	16033.07
542.858	16174.31
543.223	16185.61
543.587	16311.48
543.952	16322.33
544.316	16413.85
544.681	16438.48
545.045	16465.82
545.41	16566.84
545.774	16638.93
546.138	16759.6
546.503	16660.62
546.867	16829.2
547.231	16946.04
547.595	16964.12
547.959	17024.91
548.324	16989.65
548.688	17104.45
549.052	17158.69
549.416	17163.21
549.779	17221.06
550.143	17316.88
550.507	17394.16
550.871	17442.07
551.235	17494.95
551.599	17518.45
551.962	17559.35
552.326	17719.58
552.689	17767.03
553.053	17777.2
553.417	17736.98
553.78	17986.46
554.143	17905.33
554.507	18012.68
554.87	18119.11
555.234	18157.31
555.597	18124.31
555.96	18248.83
556.323	18303.29
556.686	18355.27
557.05	18460.35
557.413	18458.99
557.776	18551.64
558.139	18814.69
558.502	18622.6
558.865	18742.83
559.228	18878.42
559.59	19006.32
559.953	18874.12
560.316	19148.24
560.679	19163.61
561.041	19296.48
561.404	19295.81
561.767	19396.14
562.129	19397.5
562.492	19537.83
562.854	19513.65
563.217	19599.08
563.579	19669.36
563.941	19830.71
564.304	19879.52
564.666	19929.69
565.028	19917.48
565.39	20128.33
565.753	20191.15
566.115	20300.3
566.477	20431.82
566.839	20486.51
567.201	20598.14
567.563	20617.58
567.925	20560.86
568.287	20674.98
568.648	20837.23
569.01	20900.28
569.372	21149.32
569.734	20949.55
570.095	21081.52
570.457	21269.99
570.819	21225.02
571.18	21192.93
571.542	21495.75
571.903	21463.88
572.265	21586.82
572.626	21588.4
572.987	21737.55
573.349	21835.85
573.71	21940.26
574.071	22090.99
574.432	22128.27
574.794	22272.9
575.155	22236.07
575.516	22302.51
575.877	22509.28
576.238	22497.76
576.599	22688.03
576.96	22749.5
577.32	22850.06
577.681	22984.3
578.042	23135.93
578.403	23177.96
578.763	23358.07
579.124	23458.86
579.485	23622.92
579.845	23730.49
580.206	23795.57
580.566	24019.98
580.927	24076.7
581.287	24233.3
581.648	24381.77
582.008	24642.33
582.368	24769.33
582.728	24812.72
583.089	25036.45
583.449	25111.25
583.809	25289.55
584.169	25477.11
584.529	25578.8
584.889	26054.5
585.249	25952.81
585.609	26123.2
585.969	26227.83
586.329	26429.63
586.688	26679.79
587.048	26737.42
587.408	26892.89
587.768	27076.62
588.127	27242.04
588.487	27281.58
588.846	27764.96
589.206	27674.34
589.565	27991.62
589.925	28189.13
590.284	28246.31
590.643	28483.36
591.003	28782.79
591.362	28977.81
591.721	29020.07
592.08	29276.79
592.44	29540.51
592.799	29796.77
593.158	29889.43
593.517	29978.92
593.876	30156.09
594.235	30199.7
594.593	30428.17
594.952	30751.78
595.311	30601.05
595.67	31065.67
596.029	31254.81
596.387	31447.58
596.746	31699.77
597.104	31692.32
597.463	31885.08
597.822	32120.78
598.18	32086.43
598.538	32293.2
598.897	32557.38
599.255	32475.57
599.613	33183.8
599.972	33055.22
600.33	33179.06
600.688	33203.24
601.046	33433.29
601.404	33671.25
601.762	33828.53
602.12	33971.58
602.478	34245.24
602.836	34271.46
603.194	34206.37
603.552	34372.47
603.91	34499.7
604.268	34725.68
604.625	34779.01
604.983	35016.3
605.341	34964.77
605.698	35131.32
606.056	35402.73
606.413	35470.97
606.771	35743.96
607.128	35689.27
607.485	35735.15
607.843	35843.17
608.2	36192.54
608.557	36203.16
608.914	36352.53
609.272	36427.33
609.629	36585.75
609.986	36762.69
610.343	36690.38
610.7	37053.31
611.057	37054.44
611.414	37148.9
611.771	37239.52
612.127	37460.98
612.484	37438.61
612.841	37550.92
613.198	37503.01
613.554	37742.78
613.911	37885.37
614.267	37969.44
614.624	37980.06
614.98	38048.08
615.337	38246.72
615.693	38225.03
616.05	38320.84
616.406	38626.37
616.762	38481.06
617.118	38524.68
617.475	38649.87
617.831	38798.57
618.187	38879.7
618.543	38941.39
618.899	39172.35
619.255	39133.48
619.611	39205.57
619.967	39343.19
620.323	39482.17
620.678	39229.07
621.034	39338.44
621.39	39297.77
621.746	39323.53
622.101	39793.12
622.457	39530.08
622.812	39754.7
623.168	39774.36
623.523	39859.56
623.879	39876.96
624.234	39648.94
624.589	39912.67
624.945	40022.27
625.3	39996.96
625.655	40012.55
626.01	40135.03
626.365	40017.3
626.72	40095.94
627.075	39970.52
627.43	40130.51
627.785	39979.33
628.14	40120.12
628.495	40212.09
628.85	40196.5
629.205	39998.76
629.559	40406.44
629.914	40176.39
630.269	40332.77
630.623	39963.51
630.978	40189.27
631.332	40381.13
631.687	40205.99
632.041	40149.5
632.396	40139.55
632.75	40121.93
633.104	40175.03
633.459	39996.96
633.813	39998.99
634.167	39951.31
634.521	39945.21
634.875	40088.25
635.229	40086.67
635.583	39816.17
635.937	39860.46
636.291	39957.41
636.645	39961.03
636.999	39797.87
637.352	39913.8
637.706	39730.07
638.06	39894.36
638.413	39771.43
638.767	39715.61
639.121	39802.16
639.474	39490.98
639.828	39647.59
640.181	39728.72
640.534	39825.21
640.888	39602.16
641.241	39485.56
641.594	39659.79
641.947	39758.32
642.301	39615.27
642.654	39581.37
643.007	39573.69
643.36	39641.94
643.713	39604.2
644.066	39516.97
644.419	39375.28
644.771	39185
645.124	38728.52
645.477	38682.64
645.83	38513.83
646.182	38302.54
646.535	38231.58
646.888	38362.2
647.24	38181.19
647.593	38228.64
647.945	38240.39
648.298	38046.5
648.65	38100.28
649.002	37777.35
649.355	38033.17
649.707	37923.11
650.059	38181.41
650.411	38593.83
650.763	38637.67
651.115	39093.03
651.467	38916.99
651.819	38742.53
652.171	38731.91
652.523	38682.42
652.875	38823.88
653.227	38458.24
653.578	38845.35
653.93	38784.11
654.282	38511.35
654.633	38540.5
654.985	38563.1
655.337	38653.94
655.688	38561.29
656.039	38772.58
656.391	38447.17
656.742	38366.94
657.094	38286.04
657.445	38618.46
657.796	38373.5
658.147	38364.68
658.498	38390.67
658.849	38504.57
659.2	38439.03
659.551	38276.32
659.902	38444.91
660.253	38390.22
660.604	38383.89
660.955	38243.56
661.306	38419.82
661.656	38377.56
662.007	38221.86
662.358	38356.1
662.708	38303.89
663.059	38265.7
663.409	38034.97
663.76	38341.63
664.11	38215.53
664.461	38152.49
664.811	38314.06
665.161	38223.9
665.511	38227.29
665.862	38180.51
666.212	38183.22
666.562	38270
666.912	38204.69
667.262	38206.27
667.612	38044.47
667.962	38067.52
668.312	38194.07
668.662	38305.48
669.011	38069.55
669.361	38109.1
669.711	38030
670.06	38023.68
670.41	37904.36
670.76	37901.64
671.109	38032.04
671.459	37944.81
671.808	37825.71
672.157	37964.02
672.507	37808.54
672.856	37840.4
673.205	37953.85
673.554	37874.3
673.904	37889.89
674.253	38087.63
674.602	37798.37
674.951	37364.71
675.3	37125.17
675.649	37710.69
675.998	37620.07
676.346	37543.91
676.695	37778.94
677.044	37508.43
677.393	37584.59
677.741	37649.22
678.09	37477.7
678.438	37479.06
678.787	37609
679.135	37630.24
679.484	37203.81
679.832	37516.34
680.181	37086.07
680.529	37324.26
680.877	37182.34
681.225	37182.34
681.573	37292.17
681.922	37077.71
682.27	36903.7
682.618	37051.95
682.966	36943.25
683.314	37020.31
683.661	36882.46
684.009	36728.57
684.357	36693.09
684.705	36629.81
685.053	36633.43
685.4	36576.48
685.748	36460.33
686.095	36470.5
686.443	36334.68
686.79	36287.9
687.138	36355.02
687.485	36162.93
687.832	36163.84
688.18	36127.45
688.527	36054.46
688.874	36024.18
689.221	35943.28
689.568	35886.56
689.915	35761.81
690.262	35587.36
690.609	35686.79
690.956	35529.73
691.303	35577.19
691.65	35288.83
691.997	35281.15
692.344	35086.35
692.69	35164.77
693.037	35205.67
693.383	34872.57
693.73	35040.02
694.077	34852.23
694.423	34785.12
694.769	34595.29
695.116	34627.61
695.462	34552.81
695.808	34389.19
696.155	34620.83
696.501	34290.44
696.847	34257.22
697.193	33938.59
697.539	33879.38
697.885	33884.35
698.231	33697.01
698.577	33830.57
698.923	33581.08
699.269	33497.92
699.614	33292.95
699.96	33390.12
700.306	33409.33
700.651	33207.53
700.997	33040.3
701.342	33020.42
701.688	32945.84
702.033	32921.66
702.379	32830.14
702.724	32668.79
703.069	32853.64
703.415	32316.71
703.76	32513.31
704.105	32365.75
704.45	32385.41
704.795	32276.26
705.14	32129.82
705.485	32119.2
705.83	31937.73
706.175	32009.37
706.52	31976.83
706.865	31761.02
707.209	31758.3
707.554	31699.1
707.899	31717.4
708.243	31451.19
708.588	31611.64
708.932	31276.51
709.277	31269.5
709.621	31276.06
709.966	30973.92
710.31	31231.54
710.654	30853.47
710.998	30982.96
711.342	30996.06
711.687	30871.55
712.031	30643.08
712.375	30661.38
712.719	30647.15
713.063	30607.83
713.407	30625.45
713.75	30457.09
714.094	30438.79
714.438	30336.65
714.782	30429.07
715.125	30176.88
715.469	30087.84
715.812	30039.48
716.156	29837.9
716.499	29877.67
716.843	29967.39
717.186	29743.89
717.53	29976.2
717.873	29868.41
718.216	29839.48
718.559	29614.4
718.902	29413.28
719.246	29524.92
719.589	29483.33
719.932	29407.63
720.275	29412.6
720.617	29268.2
720.96	29222.32
721.303	29202.89
721.646	29281.31
721.989	29033.63
722.331	29173.29
722.674	28964.25
723.016	29052.84
723.359	28979.39
723.701	29021.43
724.044	28691.04
724.386	28577.37
724.729	28728.55
725.071	28679.74
725.413	28707.76
725.755	28536.24
726.097	28511.84
726.439	28435.68
726.782	28335.34
727.124	28461.44
727.465	28402.01
727.807	28306.19
728.149	28252.63
728.491	28277.04
728.833	28333.99
729.175	28155.46
729.516	28113.65
729.858	28120.43
730.199	27994.33
730.541	28036.82
730.882	28078.63
731.224	28029.14
731.565	27812.19
731.906	27889.93
732.248	27824.17
732.589	27777.17
732.93	27680.22
733.271	27683.83
733.612	27607.45
733.953	27715.7
734.294	27558.19
734.635	27422.15
734.976	27545.08
735.317	27395.03
735.658	27407.01
735.999	27340.79
736.339	27239.1
736.68	27343.73
737.021	27223.28
737.361	27141.02
737.702	27251.3
738.042	27107.35
738.383	26906.45
738.723	27110.97
739.063	26950.07
739.404	26929.05
739.744	26906.91
740.084	26750.53
740.424	26813.57
740.764	26692.67
741.104	26792.11
741.444	26723.41
741.784	26639.57
742.124	26636.4
742.464	26665.56
742.804	26532.45
743.143	26527.71
743.483	26526.58
743.823	26331.78
744.162	26359.8
744.502	26488.16
744.841	26184.44
745.181	26441.38
745.52	26297.2
745.86	26299.24
746.199	26239.8
746.538	26203.42
746.877	26365.22
747.216	26173.82
747.556	26116.42
747.895	26099.24
748.234	26043.43
748.573	25997.32
748.911	25927.04
749.25	25805.01
749.589	25789.65
749.928	25763.66
750.267	25843.2
750.605	25696.09
750.944	25635.53
751.283	25583.78
751.621	25583.1
751.96	25421.07
752.298	25435.53
752.636	25517.56
752.975	25276.67
753.313	25284.12
753.651	25221.3
753.989	25255.88
754.327	25153.51
754.666	25032.83
755.004	25080.51
755.342	25094.98
755.679	24986.05
756.017	24769.11
756.355	24972.72
756.693	24757.81
757.031	24856.79
757.368	24638.04
757.706	24635.78
758.044	24560.07
758.381	24597.36
758.719	24403.69
759.056	24466.52
759.394	24349.23
759.731	24263.59
760.068	24164.6
760.405	24168.45
760.743	24105.4
761.08	24097.49
761.417	23975.23
761.754	23961.67
762.091	23877.61
762.428	23671.96
762.765	23540.67
763.102	23752.64
763.438	23549.48
763.775	23428.13
764.112	23551.29
764.449	23359.2
764.785	23393.78
765.122	23149.49
765.458	23058.42
765.795	23139.55
766.131	23051.64
766.467	22996.27
766.804	22857.52
767.14	22723.29
767.476	22726.45
767.812	22587.7
768.148	22704.76
768.485	22507.93
768.821	22486.68
769.157	22365.78
769.492	22260.25
769.828	22259.57
770.164	22097.54
770.5	21963.31
770.836	22083.76
771.171	21842.86
771.507	21793.82
771.842	21647.16
772.178	21652.13
772.513	21583.88
772.849	21527.61
773.184	21464.34
773.519	21387.05
773.855	21269.54
774.19	21292.82
774.525	21209.43
774.86	21083.1
775.195	21071.8
775.53	21028.87
775.865	20874.07
776.2	20773.28
776.535	20612.16
776.87	20580.97
777.205	20469.56
777.539	20514.31
777.874	20535.77
778.209	20256.46
778.543	20301.88
778.878	20202.68
779.212	20240.64
779.547	19963.59
779.881	20162.68
780.215	19891.5
780.55	20046.97
780.884	19801.1
781.218	19700.09
781.552	19738.73
781.886	19606.08
782.22	19504.61
782.554	19498.96
782.888	19346.43
783.222	19266.88
783.556	19125.42
783.889	19234.56
784.223	18932.88
784.557	18899.66
784.89	18940.56
785.224	18812.88
785.557	18781.47
785.891	18802.94
786.224	18610.4
786.558	18610.4
786.891	18424.42
787.224	18407.24
787.557	18417.19
787.891	18348.03
788.224	18323.4
788.557	18248.15
788.89	18222.61
789.223	18149.17
789.556	18023.52
789.888	17899.23
790.221	17891.1
790.554	17796.86
790.887	17666.47
791.219	17698.11
791.552	17696.98
791.884	17555.29
792.217	17533.59
792.549	17467.15
792.882	17326.14
793.214	17275.97
793.546	17229.19
793.879	17197.78
794.211	17085.69
794.543	17126.37
794.875	17124.11
795.207	17152.36
795.539	16976.77
795.871	17003.66
796.203	16771.58
796.535	16822.65
796.867	16700.85
797.198	16567.74
797.53	16728.87
797.862	16523
798.193	16570.23
798.525	16475.32
798.856	16472.6
799.188	16241.2
799.519	16241.65
799.85	16134.31
800.182	16169.33
800.513	16121.88
800.844	16005.95
801.175	16051.82
801.506	15979.06
801.837	15994.2
802.168	15817.25
802.499	15865.39
802.83	15861.09
803.161	15743.81
803.491	15691.38
803.822	15750.81
804.153	15631.5
804.483	15485.96
804.814	15430.15
805.145	15462.23
805.475	15429.24
805.805	15414.55
806.136	15312.18
806.466	15334.1
806.796	15298.85
807.126	15080.32
807.457	15115.35
807.787	15184.5
808.117	15047.56
808.447	15001
808.777	14964.39
809.107	14973.89
809.436	15042.13
809.766	14978.63
810.096	14761.24
810.426	14741.8
810.755	14845.53
811.085	14770.95
811.414	14677.62
811.744	14575.48
812.073	14483.73
812.403	14481.47
812.732	14476.05
813.061	14415.93
813.39	14400.34
813.719	14322.83
814.049	14393.11
814.378	14322.6
814.707	14282.83
815.036	14266.11
815.365	14155.15
815.693	14104.76
816.022	14157.64
816.351	14088.49
816.68	13956.96
817.008	14001.03
817.337	13864.08
817.665	13888.04
817.994	13919.22
818.322	13807.14
818.651	13800.13
818.979	13682.39
819.307	13706.8
819.636	13701.6
819.964	13674.94
820.292	13650.53
820.62	13656.18
820.948	13643.75
821.276	13685.11
821.604	13616.63
821.932	13656.63
822.259	13716.97
822.587	13563.08
822.915	13582.74
823.243	13669.06
823.57	13616.86
823.898	13570.08
824.225	13558.56
824.553	13600.59
824.88	13596.97
825.207	13654.15
825.535	13477.88
825.862	13538.67
826.189	13439.91
826.516	13566.92
826.843	13564.21
827.17	13599.68
827.497	13573.02
827.824	13625.9
828.151	13535.73
828.478	13555.39
828.805	13600.59
829.131	13488.95
829.458	13518.78
829.785	13454.15
830.111	13468.61
830.438	13543.87
830.764	13554.71
831.09	13484.66
831.417	13445.56
831.743	13413.25
832.069	13382.74
832.395	13332.57
832.722	13375.96
833.048	13483.3
833.374	13426.36
833.7	13354.95
834.026	13326.7
834.351	13379.13
834.677	13332.57
835.003	13418.45
835.329	13371.89
835.654	13409.63
835.98	13275.85
836.306	13206.47
836.631	13267.26
836.956	13229.3
837.282	13294.38
837.607	13168.51
837.932	13159.92
838.258	13185.23
838.583	13117.44
838.908	13070.66
839.233	13081.28
839.558	13052.13
839.883	12962.41
840.208	12904.56
840.533	12996.31
840.858	13000.38
841.182	12956.09
841.507	12976.88
841.832	12857.56
842.156	12805.36
842.481	12813.49
842.805	12842.19
843.13	12819.59
843.454	12801.29
843.778	12688.3
844.103	12754.28
844.427	12587.28
844.751	12655.98
845.075	12611.24
845.399	12563.33
845.723	12538.24
846.047	12566.04
846.371	12411.69
846.695	12417.79
847.019	12306.61
847.343	12230
847.666	12218.48
847.99	12165.37
848.313	12152.27
848.637	12103.45
848.96	12112.04
849.284	11975.32
849.607	11968.54
849.931	11886.06
850.254	11806.74
850.577	11706.18
850.9	11674.31
851.223	11691.03
851.546	11643.13
851.869	11542.34
852.192	11580.75
852.515	11433.19
852.838	11389.57
853.161	11401.55
853.483	11302.8
853.806	11325.39
854.129	11311.61
854.451	11305.73
854.774	11199.07
855.096	11159.52
855.419	11092.86
855.741	11081.78
856.063	11062.58
856.385	11072.29
856.708	10913.65
857.03	10957.27
857.352	10870.49
857.674	10894.22
857.996	10918.63
858.318	10788.69
858.64	10824.62
858.961	10782.36
859.283	10739.87
859.605	10705.75
859.926	10711.85
860.248	10637.5
860.57	10624.4
860.891	10722.7
861.212	10589.37
861.534	10608.58
861.855	10554.79
862.176	10632.08
862.498	10503.95
862.819	10483.83
863.14	10496.49
863.461	10396.61
863.782	10348.92
864.103	10432.99
864.424	10363.61
864.745	10373.33
865.065	10299.88
865.386	10319.09
865.707	10242.71
866.027	10233.45
866.348	10225.54
866.668	10250.39
866.989	10232.77
867.309	10157.97
867.63	10178.53
867.95	10162.26
868.27	10136.27
868.59	10149.15
868.91	10074.35
869.23	10050.85
869.55	10033.22
869.87	10075.94
870.19	10107.12
870.51	9987.12
870.83	10046.33
871.15	9903.51
871.469	9904.64
871.789	9968.82
872.109	9983.51
872.428	9885.43
872.748	9905.54
873.067	9902.83
873.386	9894.25
873.706	9852.21
874.025	9804.53
874.344	9853.34
874.663	9821.48
874.982	9831.42
875.301	9728.83
875.62	9710.3
875.939	9697.41
876.258	9680.92
876.577	9650.41
876.896	9713.23
877.214	9602.05
877.533	9609.51
877.852	9675.72
878.17	9639.56
878.489	9587.13
878.807	9642.27
879.125	9612.22
879.444	9541.49
879.762	9492
880.08	9500.81
880.398	9538.77
880.716	9484.31
881.034	9509.4
881.352	9505.78
881.67	9463.07
881.988	9406.8
882.306	9414.94
882.624	9407.93
882.941	9361.15
883.259	9303.98
883.577	9367.93
883.894	9256.07
884.212	9257.65
884.529	9285.22
884.846	9194.6
885.164	9239.8
885.481	9113.93
885.798	9217.65
886.115	9162.29
886.432	9079.35
886.75	9115.28
887.067	9061.95
887.383	9030.09
887.7	9045
888.017	8985.34
888.334	9038.67
888.651	9020.6
888.967	8988.96
889.284	8888.62
889.6	8866.93
889.917	8828.06
890.233	8819.25
890.55	8786.7
890.866	8883.88
891.182	8746.93
891.498	8708.74
891.815	8754.84
892.131	8635.3
892.447	8641.85
892.763	8659.93
893.079	8702.19
893.395	8587.39
893.71	8591.45
894.026	8539.7
894.342	8452.48
894.657	8503.32
894.973	8404.34
895.289	8395.08
895.604	8420.84
895.92	8335.87
896.235	8344.46
896.55	8351.69
896.865	8312.82
897.181	8249.32
897.496	8262.88
897.811	8229.88
898.126	8202.09
898.441	8138.59
898.756	8109.21
899.071	8073.73
899.386	8123.44
899.7	8040.73
900.015	8071.92
900.33	7974.97
900.644	7946.05
900.959	7984.47
901.273	7954.18
901.588	7856.78
901.902	7822.21
902.216	7807.52
902.531	7812.72
902.845	7786.5
903.159	7657.47
903.473	7713.06
903.787	7692.72
904.101	7653.63
904.415	7640.52
904.729	7562.78
905.042	7542.89
905.356	7556.23
905.67	7556.68
905.984	7487.98
906.297	7471.48
906.611	7429.45
906.924	7378.61
907.237	7382
907.551	7355.78
907.864	7355.78
908.177	7333.41
908.491	7325.05
908.804	7199.18
909.117	7179.06
909.43	7165.05
909.743	7131.83
910.056	7078.05
910.368	7090.03
910.681	7052.06
910.994	7013.64
911.307	6999.18
911.619	6902.46
911.932	6942.01
912.244	6916.47
912.557	6878.96
912.869	6830.15
913.181	6858.17
913.494	6835.12
913.806	6753.99
914.118	6729.58
914.43	6721
914.742	6704.95
915.054	6646.2
915.366	6628.79
915.678	6655.23
915.99	6568.91
916.302	6536.59
916.613	6460.66
916.925	6559.42
917.236	6502.24
917.548	6409.82
917.859	6410.72
918.171	6373.43
918.482	6346.77
918.794	6319.88
919.105	6313.32
919.416	6289.82
919.727	6238.52
920.038	6240.56
920.349	6187.22
920.66	6132.76
920.971	6078.07
921.282	6144.97
921.593	6050.05
921.903	6068.13
922.214	6049.37
922.525	6021.8
922.835	5990.17
923.146	5950.39
923.456	5969.15
923.767	5938.64
924.077	5907.01
924.387	5918.98
924.697	5876.27
925.008	5829.27
925.318	5774.35
925.628	5827.91
925.938	5773.22
926.248	5666.56
926.558	5704.07
926.867	5659.33
927.177	5706.78
927.487	5645.77
927.796	5571.87
928.106	5552.44
928.416	5541.37
928.725	5538.2
929.034	5496.4
929.344	5507.69
929.653	5496.85
929.962	5475.38
930.271	5403.74
930.581	5383.63
930.89	5357.87
931.199	5328.49
931.508	5280.58
931.817	5328.49
932.125	5283.75
932.434	5254.82
932.743	5204.65
933.051	5225.67
933.36	5196.97
933.669	5198.32
933.977	5144.54
934.286	5113.35
934.594	5086.46
934.902	5069.29
935.21	5075.39
935.519	5073.36
935.827	5017.09
936.135	5027.71
936.443	4945.45
936.751	4987.93
937.059	4947.03
937.367	4885.79
937.674	4899.12
937.982	4875.85
938.29	4836.75
938.597	4861.16
938.905	4769.41
939.213	4787.94
939.52	4764.89
939.827	4749.75
940.135	4715.62
940.442	4680.37
940.749	4709.07
941.056	4674.95
941.363	4625.01
941.67	4629.98
941.977	4566.48
942.284	4594.5
942.591	4564.44
942.898	4564.44
943.205	4565.57
943.511	4523.31
943.818	4467.27
944.125	4450.77
944.431	4449.19
944.738	4434.28
945.044	4410.77
945.35	4371.68
945.657	4365.58
945.963	4400.6
946.269	4323.32
946.575	4324
946.881	4289.87
947.187	4290.78
947.493	4234.28
947.799	4247.84
948.105	4292.81
948.41	4216.65
948.716	4192.25
949.022	4201.51
949.327	4169.65
949.633	4092.14
949.938	4119.93
950.244	4104.12
950.549	4099.6
950.854	4065.25
951.16	4078.35
951.465	4033.61
951.77	3969.2
952.075	3982.76
952.38	4006.49
952.685	3944.8
952.99	3929.66
953.294	3959.49
953.599	3938.7
953.904	3889.88
954.209	3871.58
954.513	3845.14
954.818	3818.25
955.122	3827.96
955.426	3826.16
955.731	3818.02
956.035	3786.38
956.339	3767.63
956.643	3748.64
956.948	3695.54
957.252	3748.64
957.556	3730.79
957.86	3681.53
958.163	3693.28
958.467	3685.82
958.771	3625.71
959.075	3633.17
959.378	3625.03
959.682	3599.95
959.985	3592.49
960.289	3582.77
960.592	3554.53
960.896	3539.84
961.199	3495.77
961.502	3500.06
961.805	3487.41
962.108	3439.27
962.411	3438.6
962.714	3436.11
963.017	3466.17
963.32	3421.42
963.623	3385.94
963.926	3407.64
964.228	3399.73
964.531	3353.4
964.833	3373.06
965.136	3279.05
965.438	3314.31
965.741	3299.62
966.043	3281.76
966.345	3250.8
966.648	3244.48
966.95	3227.98
967.252	3225.72
967.554	3180.52
967.856	3186.85
968.158	3175.55
968.46	3141.43
968.761	3151.82
969.063	3167.64
969.365	3134.42
969.666	3136.68
969.968	3098.04
970.269	3093.07
970.571	3061.66
970.872	3054.65
971.174	3007.65
971.475	3001.55
971.776	3011.26
972.077	3036.8
972.378	2965.39
972.679	2966.97
972.98	2962.22
973.281	2996.35
973.582	2952.06
973.883	2900.31
974.183	2888.55
974.484	2892.4
974.785	2886.07
975.085	2889.91
975.386	2902.11
975.686	2846.07
975.986	2817.6
976.287	2844.26
976.587	2813.3
976.887	2814.43
977.187	2762.23
977.487	2808.78
977.787	2784.83
978.087	2760.42
978.387	2744.15
978.687	2736.24
978.987	2739.63
979.286	2695.34
979.586	2721.55
979.885	2690.14
980.185	2675.9
980.484	2632.52
980.784	2667.09
981.083	2599.52
981.382	2644.49
981.682	2633.87
981.981	2624.61
982.28	2602.46
982.579	2571.05
982.878	2575.57
983.177	2588
983.475	2547.55
983.774	2503.03
984.073	2540.31
984.372	2498.96
984.67	2528.56
984.969	2516.36
985.267	2479.98
985.566	2450.83
985.864	2455.8
986.162	2431.16
986.461	2442.92
986.759	2437.27
987.057	2397.49
987.355	2403.82
987.653	2392.97
987.951	2360.21
988.249	2373.31
988.547	2393.65
988.844	2344.61
989.142	2365.86
989.44	2302.81
989.737	2292.19
990.035	2303.94
990.332	2298.29
990.63	2288.34
990.927	2285.18
991.224	2249.93
991.521	2243.37
991.819	2256.03
992.116	2232.98
992.413	2261
992.71	2206.31
993.006	2213.32
993.303	2173.32
993.6	2185.75
993.897	2170.38
994.193	2162.92
994.49	2167.22
994.787	2120.21
995.083	2141.91
995.379	2095.81
995.676	2093.09
995.972	2107.78
996.268	2068.91
996.565	2129.93
996.861	2086.99
997.157	2065.07
997.453	2037.05
997.749	2064.85
998.044	2042.47
998.34	2032.98
998.636	2006.32
998.932	2015.13
999.227	1978.07
999.523	1986.88
999.818	1959.54
1000.114	1963.83
1000.409	1961.8
1000.704	1933.78
1001	1937.84
1001.295	1925.64
1001.59	1928.58
1001.885	1889.03
1002.18	1913.44
1002.475	1882.93
1002.77	1875.7
1003.065	1854
1003.359	1844.74
1003.654	1821.01
1003.949	1825.08
1004.243	1834.8
1004.538	1814.91
1004.832	1792.76
1005.127	1793.44
1005.421	1803.84
1005.715	1781.24
1006.009	1760.67
1006.304	1730.84
1006.598	1754.12
1006.892	1729.71
1007.186	1708.7
1007.48	1707.12
1007.773	1708.25
1008.067	1718.87
1008.361	1673.9
1008.655	1683.39
1008.948	1661.24
1009.242	1678.19
1009.535	1643.39
1009.829	1632.54
1010.122	1616.05
1010.415	1627.8
1010.708	1600.23
1011.001	1600.9
1011.295	1614.92
1011.588	1592.32
1011.881	1576.05
1012.173	1588.7
1012.466	1540.79
1012.759	1547.57
1013.052	1556.84
1013.344	1554.8
1013.637	1511.64
1013.93	1546.44
1014.222	1519.55
1014.514	1491.98
1014.807	1505.54
1015.099	1498.53
1015.391	1456.73
1015.683	1468.03
1015.976	1479.33
1016.268	1466.22
1016.56	1484.3
1016.851	1427.35
1017.143	1436.39
1017.435	1416.5
1017.727	1454.02
1018.018	1372.21
1018.31	1351.65
1018.602	1391.42
1018.893	1382.38
1019.185	1371.98
1019.476	1373.11
1019.767	1353.45
1020.058	1318.43
1020.35	1324.08
1020.641	1322.27
1020.932	1317.97
1021.223	1330.63
1021.514	1280.01
1021.804	1294.25
1022.095	1277.97
1022.386	1278.2
1022.677	1258.54
1022.967	1272.1
1023.258	1225.09
1023.548	1269.39
1023.839	1268.03
1024.129	1230.07
1024.419	1237.75
1024.709	1225.32
1025	1205.43
1025.29	1204.98
1025.58	1214.7
1025.87	1177.86
1026.16	1155.49
1026.449	1176.51
1026.739	1162.5
1027.029	1145.55
1027.319	1145.55
1027.608	1128.6
1027.898	1157.07
1028.187	1120.92
1028.477	1124.08
1028.766	1094.93
1029.055	1076.4
1029.344	1086.34
1029.634	1096.51
1029.923	1109.39
1030.212	1108.04
1030.501	1058.32
1030.79	1065.1
1031.078	1050.41
1031.367	1041.82
1031.656	1044.08
1031.945	1050.41
1032.233	987.81
1032.522	1016.51
1032.81	1012.45
1033.099	1020.35
1033.387	981.94
1033.675	998.43
1033.963	990.52
1034.251	988.49
1034.54	969.51
1034.828	968.38
1035.116	964.08
1035.403	961.82
1035.691	940.58
1035.979	965.44
1036.267	932.67
1036.554	921.37
1036.842	929.28
1037.129	915.5
1037.417	926.57
1037.704	913.46
1037.992	917.08
1038.279	892.9
1038.566	908.49
1038.853	908.49
1039.14	908.49
