Data from hue_22_FLMS001491_00005.txt Node
Date: Tue Feb 07 17:09:24 GMT 2017
User: dcchb
Spectrometer: FLMS00149
Trigger mode: 0
Integration Time (sec): 2.000000E-2
Scans to average: 10
Electric dark correction enabled: true
Nonlinearity correction enabled: false
Boxcar width: 0
XAxis mode: Wavelengths
Number of Pixels in Spectrum: 2048
>>>>>Begin Spectral Data<<<<<
341.393	-22.41
341.776	-22.41
342.16	-22.41
342.543	-71.45
342.927	-61.28
343.31	-64.9
343.693	-67.39
344.077	-57.22
344.46	-69.87
344.843	-62.64
345.226	-47.95
345.61	-61.74
345.993	-19.48
346.376	16.68
346.759	18.94
347.142	32.5
347.525	38.15
347.908	57.81
348.291	86.06
348.674	104.59
349.057	96.45
349.44	121.08
349.823	129.9
350.206	158.37
350.588	202.66
350.971	208.54
351.354	218.71
351.737	220.97
352.119	252.61
352.502	256.67
352.884	237.24
353.267	252.38
353.65	282.21
354.032	276.11
354.414	303.45
354.797	316.33
355.179	314.3
355.562	300.97
355.944	338.25
356.326	324.47
356.709	338.25
357.091	315.43
357.473	321.98
357.855	317.01
358.238	346.62
358.62	347.07
359.002	349.55
359.384	337.12
359.766	331.93
360.148	350
360.53	335.54
360.912	332.15
361.294	316.33
361.676	330.12
362.057	325.6
362.439	325.82
362.821	316.79
363.203	335.09
363.584	333.73
363.966	337.35
364.348	311.14
364.729	321.98
365.111	310.23
365.493	305.26
365.874	315.2
366.256	314.07
366.637	316.79
367.019	318.37
367.4	316.33
367.781	300.06
368.163	318.37
368.544	304.13
368.925	322.44
369.306	312.04
369.688	322.44
370.069	319.05
370.45	330.57
370.831	307.75
371.212	306.16
371.593	318.14
371.974	327.86
372.355	303
372.736	314.98
373.117	300.06
373.498	313.62
373.879	305.49
374.26	291.48
374.641	296.67
375.021	292.15
375.402	335.32
375.783	315.88
376.163	336.67
376.544	308.2
376.925	338.48
377.305	328.31
377.686	315.88
378.066	328.76
378.447	340.97
378.827	322.21
379.208	322.44
379.588	313.85
379.968	321.53
380.349	334.19
380.729	335.77
381.109	324.92
381.489	304.81
381.87	327.41
382.25	327.18
382.63	365.15
383.01	335.99
383.39	340.97
383.77	346.62
384.15	348.65
384.53	354.52
384.91	352.04
385.29	359.27
385.67	326.5
386.049	333.51
386.429	338.71
386.809	338.93
387.189	333.06
387.568	351.13
387.948	339.38
388.328	349.55
388.707	345.26
389.087	366.73
389.466	348.2
389.846	360.17
390.225	374.86
390.605	358.37
390.984	345.03
391.363	351.59
391.743	361.3
392.122	366.95
392.501	355.2
392.881	356.11
393.26	366.95
393.639	341.42
394.018	365.6
394.397	379.61
394.776	362.21
395.155	379.83
395.534	395.43
395.913	377.57
396.292	360.17
396.671	378.48
397.05	390
397.429	363.56
397.808	386.39
398.186	352.04
398.565	378.7
398.944	380.74
399.323	372.6
399.701	386.16
400.08	390.23
400.458	393.39
400.837	387.74
401.215	393.39
401.594	395.43
401.972	376.22
402.351	409.89
402.729	411.7
403.107	413.96
403.486	390.23
403.864	419.83
404.242	395.43
404.62	405.6
404.999	430
405.377	406.95
405.755	414.18
406.133	441.3
406.511	408.08
406.889	407.4
407.267	416.9
407.645	449.44
408.023	440.85
408.401	451.02
408.779	432.04
409.156	429.55
409.534	407.63
409.912	425.48
410.29	440.4
410.667	438.59
411.045	444.69
411.422	456.67
411.8	453.51
412.178	452.38
412.555	469.1
412.933	456.89
413.31	444.92
413.687	464.35
414.065	458.25
414.442	462.32
414.819	472.49
415.197	455.99
415.574	473.62
415.951	472.49
416.328	484.01
416.705	474.75
417.082	477.01
417.46	470
417.837	474.97
418.214	477.91
418.591	491.24
418.967	474.3
419.344	493.28
419.721	488.08
420.098	488.98
420.475	523.79
420.852	500.51
421.228	499.61
421.605	505.03
421.982	514.52
422.358	521.53
422.735	507.74
423.111	519.72
423.488	536.89
423.864	533.28
424.241	537.8
424.617	540.06
424.994	534.41
425.37	539.15
425.746	558.59
426.123	562.88
426.499	569.43
426.875	537.34
427.251	567.4
427.627	548.19
428.003	567.63
428.379	573.28
428.756	564.24
429.132	560.62
429.507	589.55
429.883	583.67
430.259	582.54
430.635	594.52
431.011	589.32
431.387	605.37
431.763	605.59
432.138	599.04
432.514	610.56
432.89	623.67
433.265	617.12
433.641	613.73
434.016	628.19
434.392	633.61
434.767	666.61
435.143	644.46
435.518	650.79
435.894	662.99
436.269	665.25
436.644	664.8
437.02	674.52
437.395	672.71
437.77	671.58
438.145	677.45
438.52	702.54
438.895	683.33
439.271	680.39
439.646	692.14
440.021	692.59
440.395	735.98
440.77	712.03
441.145	721.75
441.52	720.84
441.895	725.36
442.27	737.57
442.645	732.82
443.019	745.25
443.394	737.57
443.769	763.33
444.143	750.67
444.518	742.09
444.892	765.59
445.267	743.67
445.641	753.61
446.016	752.03
446.39	764.46
446.764	766.49
447.139	777.79
447.513	774.4
447.887	761.97
448.262	795.19
448.636	778.24
449.01	786.83
449.384	789.77
449.758	809.2
450.132	793.84
450.506	815.3
450.88	825.92
451.254	822.53
451.628	843.33
452.002	834.51
452.376	829.77
452.75	853.27
453.123	848.75
453.497	854.4
453.871	862.53
454.244	867.73
454.618	879.48
454.992	889.2
455.365	890.78
455.739	913.83
456.112	908.41
456.486	905.02
456.859	919.03
457.232	935.98
457.606	905.24
457.979	952.47
458.352	953.83
458.725	982.3
459.099	986.6
459.472	982.3
459.845	970.33
460.218	1014.62
460.591	1025.92
460.964	1028.18
461.337	1050.55
461.71	1041.96
462.083	1073.6
462.456	1076.99
462.829	1092.58
463.201	1105.92
463.574	1067.5
463.947	1114.96
464.32	1142.75
464.692	1115.18
465.065	1145.92
465.438	1150.66
465.81	1168.97
466.183	1179.14
466.555	1198.34
466.928	1176.65
467.3	1211.45
467.672	1219.36
468.045	1239.02
468.417	1242.41
468.789	1258
469.161	1254.16
469.534	1259.36
469.906	1328.51
470.278	1327.15
470.65	1351.11
471.022	1380.71
471.394	1418.45
471.766	1385.23
472.138	1399.47
472.51	1459.58
472.882	1471.78
473.253	1481.27
473.625	1497.55
473.997	1530.31
474.369	1539.58
474.74	1568.96
475.112	1563.76
475.484	1610.99
475.855	1595.62
476.227	1634.26
476.598	1702.29
476.97	1702.29
477.341	1755.62
477.713	1766.46
478.084	1795.62
478.455	1809.4
478.827	1836.75
479.198	1880.81
479.569	1921.72
479.94	1975.27
480.311	2015.05
480.682	2026.57
481.053	2059.34
481.424	2083.07
481.795	2137.75
482.166	2159.67
482.537	2212.78
482.908	2244.42
483.279	2259.33
483.65	2318.09
484.021	2333.91
484.391	2398.09
484.762	2402.15
485.133	2453.68
485.503	2471.98
485.874	2558.08
486.244	2552.43
486.615	2625.43
486.985	2674.01
487.356	2704.75
487.726	2711.07
488.097	2772.09
488.467	2805.76
488.837	2915.14
489.207	2880.79
489.578	2969.6
489.948	3011.86
490.318	3079.65
490.688	3048.01
491.058	3075.13
491.428	3185.64
491.798	3222.92
492.168	3288.91
492.538	3307.44
492.908	3300.21
493.278	3384.73
493.648	3391.28
494.017	3412.3
494.387	3486.65
494.757	3505.18
495.126	3568.45
495.496	3520.32
495.866	3573.42
496.235	3641.9
496.605	3661.56
496.974	3727.09
497.344	3768.22
497.713	3780.42
498.082	3808.67
498.452	3849.8
498.821	3864.04
499.19	3873.75
499.559	3912.85
499.928	3972.73
500.298	3980.87
500.667	4013.19
501.036	4014.77
501.405	4048.66
501.774	4044.82
502.143	4102.9
502.512	4111.26
502.88	4166.18
503.249	4200.75
503.618	4226.51
503.987	4214.99
504.356	4263.12
504.724	4292.95
505.093	4322.1
505.462	4297.47
505.83	4365.49
506.199	4355.32
506.567	4469.22
506.936	4421.08
507.304	4477.13
507.672	4499.5
508.041	4468.77
508.409	4585.6
508.777	4546.28
509.145	4597.8
509.514	4604.13
509.882	4626.73
510.25	4665.15
510.618	4679.38
510.986	4668.99
511.354	4787.85
511.722	4807.51
512.09	4807.06
512.458	4779.04
512.826	4849.1
513.193	4864.91
513.561	4867.17
513.929	4894.07
514.297	4942.88
514.664	4909.66
515.032	4952.6
515.4	4988.53
515.767	5056.55
516.135	5037.34
516.502	4962.09
516.869	5120.5
517.237	5097.45
517.604	5099.48
517.972	5100.39
518.339	5167.28
518.706	5163.89
519.073	5183.78
519.44	5175.19
519.808	5247.5
520.175	5238.01
520.542	5313.49
520.909	5291.57
521.276	5277.11
521.643	5349.87
522.009	5358.23
522.376	5396.65
522.743	5431.23
523.11	5428.29
523.477	5528.85
523.843	5516.2
524.21	5567.95
524.577	5639.81
524.943	5630.32
525.31	5646.36
525.676	5721.39
526.043	5786.7
526.409	5745.57
526.776	5851.78
527.142	5861.27
527.508	5814.27
527.874	5888.62
528.241	5925.23
528.607	5950.54
528.973	6043.41
529.339	5939.46
529.705	6075.5
530.071	6067.37
530.437	6068.72
530.803	6150.76
531.169	6195.95
531.535	6170.87
531.901	6224.43
532.267	6200.02
532.632	6222.84
532.998	6276.63
533.364	6320.92
533.73	6336.74
534.095	6363.18
534.461	6390.07
534.826	6486.79
535.192	6430.97
535.557	6512.78
535.923	6526.57
536.288	6527.92
536.653	6577.64
537.019	6595.26
537.384	6613.8
537.749	6597.07
538.114	6688.6
538.479	6652.44
538.845	6670.29
539.21	6639.56
539.575	6784.41
539.94	6738.76
540.305	6786.22
540.67	6819.67
541.034	6884.07
541.399	6817.18
541.764	6894.69
542.129	6878.19
542.494	6962.94
542.858	6961.13
543.223	7000.45
543.587	7031.41
543.952	7104.4
544.316	7118.19
544.681	7121.35
545.045	7148.7
545.41	7141.46
545.774	7177.17
546.138	7235.25
546.503	7238.41
546.867	7235.93
547.231	7358.18
547.595	7338.52
547.959	7371.74
548.324	7338.75
548.688	7392.76
549.052	7404.73
549.416	7366.77
549.779	7470.04
550.143	7498.52
550.507	7521.34
550.871	7541
551.235	7573.32
551.599	7602.7
551.962	7650.83
552.326	7668.23
552.689	7698.29
553.053	7682.47
553.417	7727.44
553.78	7755.46
554.143	7732.86
554.507	7811.5
554.87	7771.5
555.234	7884.5
555.597	7870.71
555.96	7843.59
556.323	7898.51
556.686	7991.61
557.05	8006.07
557.413	8029.58
557.776	8058.95
558.139	8135.11
558.502	8057.15
558.865	8149.8
559.228	8219.18
559.59	8166.97
559.953	8183.7
560.316	8267.31
560.679	8302.79
561.041	8357.25
561.404	8353.64
561.767	8364.71
562.129	8385.5
562.492	8522.22
562.854	8460.07
563.217	8475.44
563.579	8505.04
563.941	8537.81
564.304	8603.12
564.666	8624.59
565.028	8662.55
565.39	8697.58
565.753	8684.93
566.115	8732.61
566.477	8759.95
566.839	8784.81
567.201	8943.9
567.563	8858.03
567.925	8982.77
568.287	8976.22
568.648	8976.22
569.01	8959.72
569.372	9140.96
569.734	9056.89
570.095	9169.66
570.457	9195.65
570.819	9196.55
571.18	9228.64
571.542	9286.04
571.903	9329.88
572.265	9312.48
572.626	9335.98
572.987	9465.47
573.349	9486.71
573.71	9503.21
574.071	9550.44
574.432	9670.21
574.794	9789.08
575.155	9745.92
575.516	9865.46
575.877	9883.54
576.238	9915.4
576.599	9963.76
576.96	9978.9
577.32	10107.04
577.681	10202.4
578.042	10292.34
578.403	10335.96
578.763	10387.48
579.124	10488.95
579.485	10550.64
579.845	10681.26
580.206	10776.4
580.566	10898.43
580.927	10914.47
581.287	11118.54
581.648	11147.24
582.008	11371.41
582.368	11481.24
582.728	11622.48
583.089	11787.44
583.449	11881.68
583.809	12052.97
584.169	12172.74
584.529	12401.67
584.889	12612.51
585.249	12642.79
585.609	12855.21
585.969	13080.52
586.329	13333.17
586.688	13535.65
587.048	13713.04
587.408	13868.07
587.768	14089.08
588.127	14351.22
588.487	14550.76
588.846	14784.2
589.206	14984.87
589.565	15254.92
589.925	15577.4
590.284	15896.71
590.643	16007.9
591.003	16353.65
591.362	16636.36
591.721	16913.64
592.08	17114.31
592.44	17439.73
592.799	17776.67
593.158	17976.89
593.517	18303.43
593.876	18716.53
594.235	18903.64
594.593	19291.43
594.952	19472.21
595.311	19785.43
595.67	20099.54
596.029	20670.15
596.387	20913.53
596.746	21216.57
597.104	21424.93
597.463	21764.36
597.822	22211.8
598.18	22339.03
598.538	22681.4
598.897	23142.63
599.255	23271.89
599.613	23906.67
599.972	23974.02
600.33	24399.09
600.688	24594.79
601.046	24978.06
601.404	25439.74
601.762	25603.58
602.12	25947.98
602.478	26445.82
602.836	26567.39
603.194	26681.29
603.552	27193.37
603.91	27354.49
604.268	27805.78
604.625	28074.93
604.983	28277.63
605.341	28568.92
605.698	28918.97
606.056	29208.46
606.413	29472.63
606.771	29782.9
607.128	30123.91
607.485	30078.26
607.843	30405.71
608.2	30865.13
608.557	31157.33
608.914	31350.32
609.272	31642.29
609.629	31873.02
609.986	32292.89
610.343	32367.92
610.7	32941.69
611.057	32913.67
611.414	33132.65
611.771	33349.36
612.127	33774.89
612.484	33804.49
612.841	34171.49
613.198	34253.29
613.554	34525.38
613.911	34958.36
614.267	34934.41
614.624	35032.48
614.98	35207.39
615.337	35694.84
615.693	35839.47
616.05	35915.85
616.406	36246.91
616.762	36361.94
617.118	36436.74
617.475	36570.52
617.831	36780.69
618.187	37064.52
618.543	37230.39
618.899	37548.12
619.255	37598.52
619.611	37590.83
619.967	37907.89
620.323	38076.47
620.678	38126.86
621.034	38146.98
621.39	38222.68
621.746	38299.97
622.101	38884.36
622.457	38559.4
622.812	38838.71
623.168	39019.72
623.523	39082.55
623.879	39381.75
624.234	39167.52
624.589	39413.61
624.945	39410.22
625.3	39661.29
625.655	39527.73
626.01	39637.33
626.365	39810.44
626.72	39768.4
627.075	39883.88
627.43	39998.23
627.785	39942.41
628.14	40165
628.495	40228.05
628.85	40256.53
629.205	40335.39
629.559	40449.97
629.914	40421.72
630.269	40433.7
630.623	40519.12
630.978	40580.36
631.332	40653.13
631.687	40833.46
632.041	40501.49
632.396	40821.26
632.75	40698.55
633.104	40860.58
633.459	40753.01
633.813	40653.13
634.167	40642.96
634.521	40734.93
634.875	40792.33
635.229	40888.15
635.583	40649.28
635.937	40866.68
636.291	40786
636.645	40793.91
636.999	40717.08
637.352	40902.84
637.706	40723.63
638.06	40818.55
638.413	40749.17
638.767	40793.46
639.121	40828.49
639.474	40607.03
639.828	40657.65
640.181	40783.07
640.534	40802.73
640.888	40631.43
641.241	40600.02
641.594	40683.41
641.947	40849.28
642.301	40534.49
642.654	40788.94
643.007	40652.67
643.36	40738.55
643.713	40662.17
644.066	40811.09
644.419	40525.9
644.771	40283.64
645.124	39958.91
645.477	39865.35
645.83	39759.59
646.182	39822.64
646.535	39571.57
646.888	39682.53
647.24	39344.23
647.593	39662.87
647.945	39584.68
648.298	39442.99
648.65	39398.7
649.002	39257.23
649.355	39401.41
649.707	39360.28
650.059	39585.81
650.411	40020.83
650.763	40126.81
651.115	40326.35
651.467	40348.05
651.819	40273.47
652.171	40246.36
652.523	40233.25
652.875	40207.94
653.227	40000.49
653.578	40367.48
653.93	40227.37
654.282	40115.96
654.633	40042.97
654.985	40114.38
655.337	40203.19
655.688	40220.59
656.039	40140.15
656.391	40014.95
656.742	40080.49
657.094	39993.48
657.445	40146.25
657.796	40087.49
658.147	39980.6
658.498	39907.61
658.849	39977.89
659.2	40018.79
659.551	39945.8
659.902	40016.08
660.253	40057.66
660.604	40115.96
660.955	39847.05
661.306	39978.12
661.656	39935.18
662.007	39947.61
662.358	39898.12
662.708	39990.77
663.059	39930.66
663.409	39745.81
663.76	40017.44
664.11	40019.92
664.461	40002.97
664.811	39959.81
665.161	39986.48
665.511	39670.1
665.862	39825.13
666.212	39917.55
666.562	40005.91
666.912	39819.7
667.262	39897.89
667.612	39807.95
667.962	39861.51
668.312	39728.4
668.662	39947.38
669.011	39848.4
669.361	39776.54
669.711	39581.97
670.06	39689.31
670.41	39718.24
670.76	39659.71
671.109	39955.07
671.459	39710.1
671.808	39692.7
672.157	39753.04
672.507	39637.11
672.856	39560.05
673.205	39520.95
673.554	39689.76
673.904	39610.89
674.253	39809.98
674.602	39588.97
674.951	39084.81
675.3	38983.34
675.649	39504.23
675.998	39353.05
676.346	39427.4
676.695	39494.06
677.044	39256.55
677.393	39317.57
677.741	39340.39
678.09	39199.38
678.438	39074.64
678.787	39249.1
679.135	39202.99
679.484	39024.47
679.832	39128.42
680.181	39030.57
680.529	39135.88
680.877	39015.65
681.225	38964.58
681.573	39225.82
681.922	38929.33
682.27	38745.15
682.618	38780.86
682.966	38798.03
683.314	38920.29
683.661	38747.19
684.009	38530.7
684.357	38520.75
684.705	38476.91
685.053	38470.81
685.4	38415.67
685.748	38212.06
686.095	38146.07
686.443	38035.12
686.79	37996.25
687.138	38000.77
687.485	38084.38
687.832	37974.78
688.18	37992.86
688.527	37746.08
688.874	37736.82
689.221	37706.54
689.568	37565.98
689.915	37587.44
690.262	37543.6
690.609	37375.47
690.956	37331.18
691.303	37306.32
691.65	37110.62
691.997	37194.91
692.344	37003.73
692.69	36848.93
693.037	36905.88
693.383	36467.25
693.73	36757.64
694.077	36532.33
694.423	36625.66
694.769	36443.97
695.116	36343.41
695.462	36342.28
695.808	36194.03
696.155	36205.33
696.501	36029.52
696.847	35972.12
697.193	35688.74
697.539	35890.31
697.885	35724.44
698.231	35575.75
698.577	35554.28
698.923	35428.63
699.269	35188.18
699.614	35036.1
699.96	35120.16
700.306	35030
700.651	34878.36
700.997	34841.53
701.342	34625.94
701.688	34609.44
702.033	34547.52
702.379	34522.44
702.724	34474.08
703.069	34550.01
703.415	34078.16
703.76	34080.64
704.105	34190.25
704.45	34032.51
704.795	33907.77
705.14	33909.12
705.485	33747.77
705.83	33669.13
706.175	33842.46
706.52	33658.51
706.865	33590.26
707.209	33567.21
707.554	33281.12
707.899	33488.34
708.243	33244.28
708.588	33153.66
708.932	32935.14
709.277	33022.37
709.621	32903.27
709.966	32854.69
710.31	32774.46
710.654	32627.57
710.998	32541.93
711.342	32508.26
711.687	32529.27
712.031	32370.63
712.375	32404.3
712.719	32452.89
713.063	32424.42
713.407	32408.6
713.75	32192.33
714.094	32230.75
714.438	31987.14
714.782	32072.79
715.125	31820.59
715.469	31858.78
715.812	31733.59
716.156	31743.3
716.499	31639.8
716.843	31627.6
717.186	31411.11
717.53	31608.17
717.873	31625.57
718.216	31622.63
718.559	31314.39
718.902	31197.33
719.246	31309.19
719.589	31012.48
719.932	31124.56
720.275	31024.68
720.617	31046.82
720.96	30816.55
721.303	30894.29
721.646	30876.21
721.989	30738.81
722.331	30827.4
722.674	30699.04
723.016	30726.83
723.359	30619.04
723.701	30636.44
724.044	30430.57
724.386	30392.6
724.729	30494.07
725.071	30285.26
725.413	30290.01
725.755	30306.05
726.097	30253.17
726.439	29955.1
726.782	30112.84
727.124	30171.82
727.465	30054.76
727.807	30036.91
728.149	29914.65
728.491	29813.19
728.833	29915.33
729.175	29743.58
729.516	29765.5
729.858	29647.99
730.199	29716.24
730.541	29626.52
730.882	29644.38
731.224	29548.33
731.565	29422.23
731.906	29527.32
732.248	29492.97
732.589	29326.87
732.93	29290.03
733.271	29263.37
733.612	29261.56
733.953	29306.31
734.294	29066.09
734.635	29028.35
734.976	29247.32
735.317	28970.95
735.658	28991.29
735.999	29063.83
736.339	28949.7
736.68	29006.88
737.021	28867.22
737.361	28798.52
737.702	28890.72
738.042	28833.32
738.383	28724.63
738.723	28726.21
739.063	28651.86
739.404	28728.24
739.744	28610.05
740.084	28507.23
740.424	28584.52
740.764	28523.95
741.104	28559.43
741.444	28389.72
741.784	28295.94
742.124	28290.74
742.464	28154.47
742.804	28188.37
743.143	28201.7
743.483	28127.13
743.823	28150.18
744.162	28020.24
744.502	28034.02
744.841	27976.85
745.181	28063.85
745.52	27796.29
745.86	27950.64
746.199	27884.87
746.538	27907.7
746.877	27928.71
747.216	27870.41
747.556	27776.85
747.895	27911.99
748.234	27655.05
748.573	27742.73
748.911	27688.72
749.25	27553.36
749.589	27585
749.928	27571.89
750.267	27609.63
750.605	27361.95
750.944	27457.09
751.283	27358.11
751.621	27357.2
751.96	27131.9
752.298	27235.17
752.636	27218
752.975	26998.57
753.313	26928.06
753.651	27096.65
753.989	27013.26
754.327	26739.37
754.666	26657.34
755.004	26740.27
755.342	26706.6
755.679	26731.23
756.017	26552.25
756.355	26731.01
756.693	26526.72
757.031	26484.23
757.368	26396.78
757.706	26348.42
758.044	26365.59
758.381	26465.7
758.719	26102.1
759.056	26219.16
759.394	26166.73
759.731	25939.16
760.068	25960.86
760.405	25810.35
760.743	25766.74
761.08	25776.68
761.417	25722.9
761.754	25673.18
762.091	25533.75
762.428	25414.43
762.765	25392.51
763.102	25440.42
763.438	25282.91
763.775	25113.42
764.112	25177.37
764.449	25295.79
764.785	25060.77
765.122	24928.34
765.458	24687.9
765.795	24710.95
766.131	24693.09
766.467	24668.69
766.804	24491.74
767.14	24521.57
767.476	24402.25
767.812	24317.28
768.148	24311.86
768.485	24174.01
768.821	24013.56
769.157	24061.25
769.492	24070.51
769.828	23868.93
770.164	23710.97
770.5	23590.07
770.836	23606.12
771.171	23551.65
771.507	23481.83
771.842	23431.43
772.178	23214.49
772.513	23224.21
772.849	23253.58
773.184	23078.67
773.519	22974.04
773.855	23056.75
774.19	22910.54
774.525	22812.69
774.86	22736.31
775.195	22598.23
775.53	22591
775.865	22341.97
776.2	22320.73
776.535	22122.09
776.87	22125.03
777.205	22156.21
777.539	21983.11
777.874	21978.14
778.209	21779.5
778.543	21784.02
778.878	21615.43
779.212	21668.31
779.547	21553.29
779.881	21586.28
780.215	21332.96
780.55	21557.58
780.884	21260.64
781.218	21280.53
781.552	21222.9
781.886	21167.31
782.22	21037.14
782.554	20959.86
782.888	20828.11
783.222	20664.05
783.556	20538.17
783.889	20636.03
784.223	20398.07
784.557	20379.53
784.89	20401.91
785.224	20282.36
785.557	20198.97
785.891	20099.09
786.224	20034.46
786.558	20085.76
786.891	19861.81
787.224	19808.93
787.557	19819.1
787.891	19704.07
788.224	19642.6
788.557	19685.77
788.89	19549.95
789.223	19578.43
789.556	19351.09
789.888	19353.57
790.221	19284.2
790.554	19192.45
790.887	19158.32
791.219	19043.07
791.552	19061.38
791.884	18850.08
792.217	18935.5
792.549	18832.46
792.882	18730.09
793.214	18690.54
793.546	18649.18
793.879	18489.64
794.211	18361.96
794.543	18506.14
794.875	18361.51
795.207	18521.5
795.539	18351.57
795.871	18365.12
796.203	18223.66
796.535	18053.27
796.867	18016.43
797.198	17860.5
797.53	17990.45
797.862	17812.37
798.193	17829.55
798.525	17657.57
798.856	17710.23
799.188	17550.68
799.519	17519.5
799.85	17435.21
800.182	17435.66
800.513	17380.29
800.844	17120.19
801.175	17379.84
801.506	17261.42
801.837	17199.73
802.168	17146.4
802.499	17121.32
802.83	16877.25
803.161	16959.06
803.491	16975.33
803.822	16972.17
804.153	16869.34
804.483	16728.78
804.814	16646.3
805.145	16679.97
805.475	16607.2
805.805	16548
806.136	16512.97
806.466	16601.56
806.796	16432.75
807.126	16355.91
807.457	16363.14
807.787	16336.7
808.117	16241.34
808.447	16122.7
808.777	16301
809.107	16118.86
809.436	16029.59
809.766	16085.86
810.096	15991.63
810.426	15972.19
810.755	15871.63
811.085	15871.18
811.414	15859.2
811.744	15679.77
812.073	15719.32
812.403	15713.44
812.732	15655.14
813.061	15578.53
813.39	15532.43
813.719	15500.79
814.049	15583.73
814.378	15432.55
814.707	15376.5
815.036	15437.52
815.365	15291.08
815.693	15214.47
816.022	15209.05
816.351	15128.15
816.68	15175.6
817.008	15075.72
817.337	14987.81
817.665	14990.75
817.994	14981.26
818.322	14883.41
818.651	14885.89
818.979	14863.52
819.307	14938.32
819.636	14854.03
819.964	14630.76
820.292	14879.79
820.62	14632.12
820.948	14743.3
821.276	14751.89
821.604	14743.98
821.932	14692.9
822.259	14707.14
822.587	14691.1
822.915	14655.17
823.243	14701.72
823.57	14612.68
823.898	14607.03
824.225	14602.51
824.553	14662.4
824.88	14622.4
825.207	14657.65
825.535	14710.53
825.862	14710.53
826.189	14544.43
826.516	14649.29
826.843	14723.86
827.17	14630.08
827.497	14657.43
827.824	14597.99
828.151	14699.68
828.478	14680.7
828.805	14686.35
829.131	14616.75
829.458	14589.4
829.785	14509.86
830.111	14632.57
830.438	14585.79
830.764	14598.67
831.09	14580.14
831.417	14517.32
831.743	14675.73
832.069	14617.88
832.395	14535.62
832.722	14552.12
833.048	14429.41
833.374	14517.32
833.7	14396.19
834.026	14478.45
834.351	14415.62
834.677	14410.88
835.003	14530.42
835.329	14403.19
835.654	14346.93
835.98	14289.07
836.306	14356.42
836.631	14240.94
836.956	14304.89
837.282	14295.17
837.607	14271.67
837.932	14241.62
838.258	14244.1
838.583	14161.17
838.908	14106.03
839.233	14119.59
839.558	14048.18
839.883	14043.2
840.208	14030.78
840.533	13969.99
840.858	14012.24
841.182	13939.25
841.507	13960.27
841.832	13926.15
842.156	13835.98
842.481	13856.99
842.805	13853.38
843.13	13790.78
843.454	13779.71
843.778	13751.23
844.103	13697.22
844.427	13609.32
844.751	13680.5
845.075	13656.1
845.399	13600.05
845.723	13440.28
846.047	13506.95
846.371	13381.07
846.695	13361.41
847.019	13308.53
847.343	13275.31
847.666	13109.22
847.99	13112.16
848.313	13078.26
848.637	13079.61
848.96	12989.22
849.284	13012.27
849.607	12892.95
849.931	12829
850.254	12760.3
850.577	12669.46
850.9	12617.03
851.223	12608.44
851.546	12579.06
851.869	12534.09
852.192	12564.15
852.515	12420.2
852.838	12304.04
853.161	12360.76
853.483	12287.32
853.806	12251.61
854.129	12195.34
854.451	12085.52
854.774	12077.38
855.096	12106.08
855.419	12042.13
855.741	11890.94
856.063	11864.5
856.385	11854.56
856.708	11870.83
857.03	11891.4
857.352	11801
857.674	11759.42
857.996	11720.33
858.318	11695.02
858.64	11723.49
858.961	11616.15
859.283	11603.72
859.605	11539.77
859.926	11576.6
860.248	11469.49
860.57	11474.46
860.891	11483.05
861.212	11363.27
861.534	11374.8
861.855	11385.19
862.176	11374.8
862.498	11332.09
862.819	11286.21
863.14	11268.14
863.461	11248.02
863.782	11233.33
864.103	11321.02
864.424	11201.7
864.745	11258.19
865.065	11162.38
865.386	11088.71
865.707	11112.21
866.027	11126.67
866.348	11078.08
866.668	11110.85
866.989	11070.63
867.309	10970.06
867.63	11046.22
867.95	11028.37
868.27	10945.66
868.59	10958.09
868.91	10925.09
869.23	10876.73
869.55	10827.92
869.87	10902.72
870.19	10865.21
870.51	10821.37
870.83	10811.88
871.15	10826.79
871.469	10812.1
871.789	10786.57
872.109	10740.92
872.428	10653.24
872.748	10730.52
873.067	10700.24
873.386	10653.46
873.706	10642.39
874.025	10606.68
874.344	10608.04
874.663	10572.79
874.982	10586.12
875.301	10602.62
875.62	10579.57
875.939	10535.95
876.258	10506.57
876.577	10430.87
876.896	10438.33
877.214	10353.81
877.533	10439.68
877.852	10339.12
878.17	10401.04
878.489	10382.28
878.807	10403.3
879.125	10387.48
879.444	10355.17
879.762	10304.77
880.08	10286.24
880.398	10227.71
880.716	10283.98
881.034	10288.05
881.352	10250.31
881.67	10180.93
881.988	10204.21
882.306	10171.89
882.624	10129.86
882.941	10065.23
883.259	10056.42
883.577	10061.61
883.894	10031.78
884.212	10015.51
884.529	10040.15
884.846	9989.98
885.164	10010.32
885.481	9949.07
885.798	9920.6
886.115	9897.1
886.432	9825.69
886.75	9797.67
887.067	9812.13
887.383	9737.1
887.7	9884.44
888.017	9744.79
888.334	9797.21
888.651	9734.39
888.967	9647.39
889.284	9592.25
889.6	9629.99
889.917	9593.15
890.233	9586.37
890.55	9568.52
890.866	9548.63
891.182	9504.57
891.498	9437.22
891.815	9429.99
892.131	9436.32
892.447	9390.67
892.763	9356.32
893.079	9322.88
893.395	9282.88
893.71	9262.09
894.026	9215.99
894.342	9237.23
894.657	9098.93
894.973	9199.72
895.289	9159.04
895.604	9076.33
895.92	9086.95
896.235	9045.82
896.55	9025.71
896.865	8986.84
897.181	8927.63
897.496	8907.29
897.811	8866.39
898.126	8899.16
898.441	8829.33
898.756	8769.67
899.071	8788.88
899.386	8734.64
899.7	8712.5
900.015	8634.31
900.33	8570.81
900.644	8609.22
900.959	8612.84
901.273	8581.88
901.588	8500.98
901.902	8441.32
902.216	8517.25
902.531	8445.84
902.845	8430.7
903.159	8356.12
903.473	8278.16
903.787	8267.99
904.101	8239.97
904.415	8155.22
904.729	8184.83
905.042	8136.24
905.356	8150.48
905.67	8130.37
905.984	8130.82
906.297	8070.93
906.611	7994.55
906.924	7999.3
907.237	7966.53
907.551	7928.56
907.864	7909.58
908.177	7883.37
908.491	7901.44
908.804	7826.42
909.117	7773.31
909.43	7622.81
909.743	7722.47
910.056	7645.63
910.368	7652.64
910.681	7623.71
910.994	7573.09
911.307	7552.3
911.619	7429.37
911.932	7527.22
912.244	7424.17
912.557	7435.02
912.869	7388.24
913.181	7409.03
913.494	7329.26
913.806	7309.6
914.118	7243.16
914.43	7196.6
914.742	7188.7
915.054	7216.04
915.366	7132.43
915.678	7103.05
915.99	7159.77
916.302	7026.89
916.613	7075.93
916.925	7051.75
917.236	6992.77
917.548	6939.66
917.859	6974.01
918.171	6868.48
918.482	6891.53
918.794	6848.82
919.105	6777.86
919.416	6736.73
919.727	6777.86
920.038	6747.58
920.349	6697.18
920.66	6657.86
920.971	6600.46
921.282	6612.44
921.593	6594.36
921.903	6562.04
922.214	6513.23
922.525	6526.57
922.835	6487.7
923.146	6435.27
923.456	6461.71
923.767	6366.34
924.077	6369.73
924.387	6353.91
924.697	6256.97
925.008	6268.72
925.318	6250.87
925.628	6246.12
925.938	6221.04
926.248	6227.82
926.558	6145.33
926.867	6121.83
927.177	6113.47
927.487	6089.06
927.796	6003.19
928.106	6059.23
928.416	5962.06
928.725	5937.43
929.034	5939.01
929.344	5930.2
929.653	5896.53
929.962	5859.01
930.271	5841.84
930.581	5800.71
930.89	5820.82
931.199	5713.48
931.508	5769.75
931.817	5733.37
932.125	5730.88
932.434	5653.59
932.743	5600.94
933.051	5640.49
933.36	5619.24
933.669	5572.92
933.977	5563.2
934.286	5559.36
934.594	5486.59
934.902	5488.63
935.21	5508.51
935.519	5427.84
935.827	5438.91
936.135	5415.63
936.443	5370.44
936.751	5370.66
937.059	5340.61
937.367	5297.9
937.674	5308.07
937.982	5245.47
938.29	5214.96
938.597	5242.08
938.905	5172.93
939.213	5163.66
939.52	5139.26
939.827	5151.46
940.135	5098.58
940.442	5080.5
940.749	5057.9
941.056	5036.44
941.363	5010.9
941.67	5012.26
941.977	4937
942.284	4944.91
942.591	4962.54
942.898	4887.74
943.205	4917.34
943.511	4901.98
943.818	4840.51
944.125	4832.6
944.431	4787.85
944.738	4803.22
945.044	4778.36
945.35	4765.93
945.657	4673.96
945.963	4708.31
946.269	4692.49
946.575	4642.32
946.881	4631.7
947.187	4612.72
947.493	4627.63
947.799	4587.18
948.105	4498.82
948.41	4516.9
948.716	4531.82
949.022	4517.35
949.327	4491.59
949.633	4457.24
949.938	4427.86
950.244	4436
950.549	4396.9
950.854	4394.64
951.16	4384.7
951.465	4386.06
951.77	4328.88
952.075	4292.95
952.38	4308.09
952.685	4265.61
952.99	4232.39
953.294	4268.77
953.599	4190.81
953.904	4182.22
954.209	4177.25
954.513	4174.09
954.818	4147.65
955.122	4089.34
955.426	4107.65
955.731	4066.29
956.035	4048.66
956.339	4026.07
956.643	4065.84
956.948	4040.08
957.252	4030.81
957.556	4017.25
957.86	3971.6
958.163	3960.98
958.467	3947.2
958.771	3902.68
959.075	3921.44
959.378	3878.27
959.682	3857.03
959.985	3803.7
960.289	3823.81
960.592	3812.29
960.896	3782.23
961.199	3796.92
961.502	3800.31
961.805	3735.23
962.108	3686.64
962.411	3716.47
962.714	3654.55
963.017	3656.13
963.32	3694.78
963.623	3666.3
963.926	3657.04
964.228	3595.57
964.531	3611.84
964.833	3608.68
965.136	3564.16
965.438	3566.19
965.741	3555.34
966.043	3531.84
966.345	3514.89
966.648	3503.82
966.95	3456.36
967.252	3479.19
967.554	3447.32
967.856	3442.35
968.158	3387.21
968.46	3431.73
968.761	3417.72
969.063	3349.25
969.365	3366.42
969.666	3345.18
969.968	3319.64
970.269	3302.92
970.571	3336.82
970.872	3255.24
971.174	3250.72
971.475	3279.42
971.776	3255.24
972.077	3206.65
972.378	3215.69
972.679	3232.64
972.98	3236.71
973.281	3196.26
973.582	3174.56
973.883	3144.28
974.183	3104.06
974.484	3138.86
974.785	3114.23
975.085	3109.71
975.386	3075.36
975.686	3085.07
975.986	3045.98
976.287	3040.56
976.587	3013.44
976.887	3043.72
977.187	3017.51
977.487	2998.07
977.787	2945.64
978.087	2944.51
978.387	2911.07
978.687	2970.5
978.987	2944.96
979.286	2893.89
979.586	2891.86
979.885	2897.96
980.185	2883.27
980.484	2885.08
980.784	2854.57
981.083	2795.36
981.382	2820.45
981.682	2792.88
981.981	2780.22
982.28	2791.07
982.579	2761.01
982.878	2744.74
983.177	2719.66
983.475	2715.82
983.774	2714.46
984.073	2701.81
984.372	2696.38
984.67	2725.54
984.969	2694.8
985.267	2661.13
985.566	2630.4
985.864	2634.92
986.162	2608.25
986.461	2612.32
986.759	2631.53
987.057	2571.64
987.355	2533.68
987.653	2556.5
987.951	2564.86
988.249	2527.12
988.547	2528.03
988.844	2525.54
989.142	2498.2
989.44	2497.75
989.737	2447.8
990.035	2469.95
990.332	2460.01
990.63	2429.5
990.927	2458.65
991.224	2436.73
991.521	2409.16
991.819	2407.13
992.116	2412.32
992.413	2417.75
992.71	2359.22
993.006	2360.12
993.303	2378.43
993.6	2345.21
993.897	2359.22
994.193	2333.46
994.49	2313.57
994.787	2293.46
995.083	2253.01
995.379	2316.28
995.676	2282.38
995.972	2253.01
996.268	2211.88
996.565	2229.73
996.861	2229.28
997.157	2224.31
997.453	2215.04
997.749	2222.05
998.044	2179.34
998.34	2193.8
998.636	2154.48
998.932	2143.18
999.227	2157.64
999.523	2116.74
999.818	2080.35
1000.114	2066.34
1000.409	2070.41
1000.704	2086.46
1001	2089.39
1001.295	2043.07
1001.59	2079
1001.885	2051.43
1002.18	2016.4
1002.475	1993.58
1002.77	1984.99
1003.065	1953.58
1003.359	2012.79
1003.654	1953.13
1003.949	1994.26
1004.243	1945.22
1004.538	1923.75
1004.832	1914.48
1005.127	1949.51
1005.421	1900.02
1005.715	1868.84
1006.009	1916.97
1006.304	1868.84
1006.598	1849.4
1006.892	1890.3
1007.186	1883.07
1007.48	1848.95
1007.773	1835.16
1008.067	1832
1008.361	1782.96
1008.655	1795.62
1008.948	1805.56
1009.242	1771.66
1009.535	1739.12
1009.829	1768.27
1010.122	1751.1
1010.415	1750.42
1010.708	1698.67
1011.001	1720.59
1011.295	1659.8
1011.588	1711.33
1011.881	1684.66
1012.173	1668.61
1012.466	1699.8
1012.759	1688.05
1013.052	1659.12
1013.344	1650.99
1013.637	1617.32
1013.93	1607.6
1014.222	1606.24
1014.514	1608.5
1014.807	1588.16
1015.099	1596.98
1015.391	1574.38
1015.683	1560.59
1015.976	1566.47
1016.268	1561.27
1016.56	1529.18
1016.851	1542.52
1017.143	1501.39
1017.435	1485.34
1017.727	1479.01
1018.018	1501.39
1018.31	1474.95
1018.602	1488.51
1018.893	1451.44
1019.185	1455.06
1019.476	1455.74
1019.767	1437.66
1020.058	1432.46
1020.35	1376.64
1020.641	1415.51
1020.932	1375.97
1021.223	1391.56
1021.514	1379.13
1021.804	1384.55
1022.095	1373.03
1022.386	1347.94
1022.677	1343.65
1022.967	1330.32
1023.258	1344.56
1023.548	1306.36
1023.839	1297.55
1024.129	1306.36
1024.419	1296.19
1024.709	1276.31
1025	1282.64
1025.29	1276.08
1025.58	1270.88
1025.87	1247.61
1026.16	1235.41
1026.449	1239.25
1026.739	1226.59
1027.029	1228.4
1027.319	1221.17
1027.608	1198.12
1027.898	1194.73
1028.187	1194.05
1028.477	1157.89
1028.766	1198.57
1029.055	1163.09
1029.344	1178.46
1029.634	1170.32
1029.923	1121.96
1030.212	1131.45
1030.501	1133.26
1030.79	1139.14
1031.078	1093.26
1031.367	1094.39
1031.656	1092.58
1031.945	1105.47
1032.233	1079.03
1032.522	1083.77
1032.81	1084.67
1033.099	1069.99
1033.387	1056.88
1033.675	1037.67
1033.963	1045.35
1034.251	1032.47
1034.54	1014.62
1034.828	1043.09
1035.116	1032.02
1035.403	1015.75
1035.691	994.06
1035.979	1024.34
1036.267	1021.4
1036.554	1007.39
1036.842	973.94
1037.129	981.63
1037.417	1000.38
1037.704	954.96
1037.992	964.45
1038.279	973.04
1038.566	945.47
1038.853	945.47
1039.14	945.47
