Data from hue_160_FLMS001491_00011.txt Node
Date: Tue Feb 07 16:50:48 GMT 2017
User: dcchb
Spectrometer: FLMS00149
Trigger mode: 0
Integration Time (sec): 2.000000E-2
Scans to average: 10
Electric dark correction enabled: true
Nonlinearity correction enabled: false
Boxcar width: 0
XAxis mode: Wavelengths
Number of Pixels in Spectrum: 2048
>>>>>Begin Spectral Data<<<<<
341.393	-6.19
341.776	-6.19
342.16	-6.19
342.543	-78.05
342.927	-63.59
343.31	-78.5
343.693	-66.98
344.077	-57.94
344.46	-80.76
344.843	-39.63
345.226	-26.98
345.61	-47.09
345.993	-28.78
346.376	-17.94
346.759	13.93
347.142	34.94
347.525	53.02
347.908	71.55
348.291	83.08
348.674	83.08
349.057	105
349.44	128.73
349.823	146.8
350.206	175.96
350.588	188.61
350.971	211.21
351.354	194.26
351.737	239.46
352.119	255.28
352.502	252.56
352.884	247.82
353.267	279.68
353.65	293.24
354.032	279.23
354.414	307.03
354.797	317.42
355.179	311.55
355.562	339.12
355.944	329.17
356.326	328.04
356.709	328.04
357.091	347.02
357.473	325.56
357.855	335.5
358.238	337.76
358.62	340.47
359.002	323.52
359.384	337.53
359.766	340.7
360.148	353.8
360.53	317.2
360.912	335.05
361.294	334.37
361.676	323.75
362.057	323.3
362.439	309.51
362.821	305.44
363.203	302.28
363.584	319
363.966	337.31
364.348	326.01
364.729	318.1
365.111	326.69
365.493	312.68
365.874	323.52
366.256	306.35
366.637	323.52
367.019	304.31
367.4	334.82
367.781	315.39
368.163	311.77
368.544	328.27
368.925	318.78
369.306	314.03
369.688	310.19
370.069	289.17
370.45	295.73
370.831	289.85
371.212	290.53
371.593	308.61
371.974	316.52
372.355	302.28
372.736	311.77
373.117	299.79
373.498	320.81
373.879	300.92
374.26	301.6
374.641	306.57
375.021	309.29
375.402	314.94
375.783	309.29
376.163	320.58
376.544	318.55
376.925	328.49
377.305	321.71
377.686	327.36
378.066	332.34
378.447	322.17
378.827	303.64
379.208	313.35
379.588	317.42
379.968	325.33
380.349	339.57
380.729	323.75
381.109	330.98
381.489	345.89
381.87	316.97
382.25	330.08
382.63	309.29
383.01	348.38
383.39	324.88
383.77	360.13
384.15	309.74
384.53	315.61
384.91	364.88
385.29	341.6
385.67	341.6
386.049	341.6
386.429	337.08
386.809	348.15
387.189	370.08
387.568	350.41
387.948	338.89
388.328	348.15
388.707	338.66
389.087	351.77
389.466	355.61
389.846	364.88
390.225	362.17
390.605	367.14
390.984	344.09
391.363	378.21
391.743	352.45
392.122	355.61
392.501	355.16
392.881	375.95
393.26	351.54
393.639	358.78
394.018	374.14
394.397	356.52
394.776	379.34
395.155	381.37
395.534	367.59
395.913	363.75
396.292	370.98
396.671	368.72
397.05	385.22
397.429	385.44
397.808	375.95
398.186	384.76
398.565	374.82
398.944	398.1
399.323	387.93
399.701	391.77
400.08	409.85
400.458	385.89
400.837	384.31
401.215	402.39
401.594	382.96
401.972	393.8
402.351	397.87
402.729	412.79
403.107	405.78
403.486	391.54
403.864	387.25
404.242	412.11
404.62	417.31
404.999	409.85
405.377	425.67
405.755	404.2
406.133	438.55
406.511	421.83
406.889	434.71
407.267	419.11
407.645	436.29
408.023	418.89
408.401	445.78
408.779	432.9
409.156	435.61
409.534	448.72
409.912	436.51
410.29	451.2
410.667	454.82
411.045	452.56
411.422	451.43
411.8	446.23
412.178	479.9
412.555	467.93
412.933	470.64
413.31	497.3
413.687	474.25
414.065	465.21
414.442	477.64
414.819	476.29
415.197	503.4
415.574	483.74
415.951	496.4
416.328	501.82
416.705	510.86
417.082	497.08
417.46	503.18
417.837	494.82
418.214	509.05
418.591	534.59
418.967	511.09
419.344	502.05
419.721	534.14
420.098	526.68
420.475	521.94
420.852	525.1
421.228	545.21
421.605	519.68
421.982	531.65
422.358	547.47
422.735	573.91
423.111	557.64
423.488	559.9
423.864	586.57
424.241	575.27
424.617	573.01
424.994	576.85
425.37	567.58
425.746	569.62
426.123	591.99
426.499	596.06
426.875	589.28
427.251	613.46
427.627	631.31
428.003	594.02
428.379	601.93
428.756	614.36
429.132	627.47
429.507	628.83
429.883	642.38
430.259	613.68
430.635	646
431.011	654.14
431.387	646.68
431.763	666.11
432.138	672.21
432.514	674.02
432.89	672.21
433.265	675.15
433.641	708.37
434.016	681.93
434.392	700.91
434.767	679.9
435.143	703.17
435.518	720.35
435.894	722.38
436.269	725.77
436.644	733.46
437.02	758.77
437.395	738.2
437.77	762.83
438.145	767.58
438.52	782.27
438.895	760.8
439.271	767.58
439.646	801.02
440.021	810.29
440.395	777.97
440.77	808.03
441.145	835.15
441.52	811.65
441.895	811.87
442.27	833.34
442.645	817.29
443.019	842.15
443.394	856.62
443.769	816.84
444.143	858.88
444.518	842.6
444.892	843.96
445.267	871.76
445.641	882.6
446.016	884.64
446.39	888.03
446.764	901.13
447.139	899.33
447.513	899.1
447.887	883.51
448.262	918.76
448.636	927.57
449.01	948.59
449.384	915.37
449.758	923.28
450.132	970.29
450.506	968.7
450.88	951.75
451.254	950.17
451.628	989.72
452.002	999.89
452.376	1000.79
452.75	996.27
453.123	1013
453.497	1024.52
453.871	1040.79
454.244	1045.09
454.618	1053.67
454.992	1045.99
455.365	1075.14
455.739	1077.85
456.112	1112.88
456.486	1120.56
456.859	1109.72
457.232	1129.15
457.606	1137.51
457.979	1155.59
458.352	1161.24
458.725	1187.45
459.099	1178.42
459.472	1215.25
459.845	1252.31
460.218	1253.67
460.591	1241.69
460.964	1266.77
461.337	1290.05
461.71	1307
462.083	1339.99
462.456	1323.04
462.829	1335.47
463.201	1349.48
463.574	1375.25
463.947	1396.94
464.32	1446.88
464.692	1414.57
465.065	1430.84
465.438	1450.05
465.81	1503.15
466.183	1539.76
466.555	1569.37
466.928	1569.59
467.3	1538.41
467.672	1614.79
468.045	1635.13
468.417	1667.22
468.789	1683.49
469.161	1719.87
469.534	1757.61
469.906	1772.07
470.278	1794.9
470.65	1817.04
471.022	1891.16
471.394	1906.08
471.766	1931.16
472.138	1953.54
472.51	2010.26
472.882	2052.52
473.253	2103.14
473.625	2154.21
473.997	2184.04
474.369	2245.51
474.74	2251.83
475.112	2300.65
475.484	2343.58
475.855	2417.93
476.227	2490.92
476.598	2549.23
476.97	2610.24
477.341	2657.02
477.713	2720.07
478.084	2749.45
478.455	2843.46
478.827	2902.89
479.198	3031.7
479.569	3053.62
479.94	3142.88
480.311	3199.61
480.682	3336.32
481.053	3437.11
481.424	3516.88
481.795	3582.65
482.166	3685.02
482.537	3765.92
482.908	3878.91
483.279	3951.22
483.65	4105.8
484.021	4126.81
484.391	4285.23
484.762	4348.5
485.133	4459.01
485.503	4586.46
485.874	4741.26
486.244	4770.64
486.615	4953.46
486.985	5062.38
487.356	5183.51
487.726	5276.84
488.097	5454.01
488.467	5511.18
488.837	5696.04
489.207	5808.8
489.578	5931.74
489.948	6040.21
490.318	6156.14
490.688	6295.12
491.058	6439.52
491.428	6503.93
491.798	6672.06
492.168	6850.81
492.538	6912.95
492.908	7038.15
493.278	7192.72
493.648	7275.66
494.017	7392.94
494.387	7605.14
494.757	7716.1
495.126	7829.77
495.496	7882.19
495.866	7989.31
496.235	8061.17
496.605	8279.7
496.974	8401.95
497.344	8470.43
497.713	8584.1
498.082	8673.13
498.452	8806.01
498.821	8890.3
499.19	8946.57
499.559	9030.19
499.928	9108.6
500.298	9289.39
500.667	9357.18
501.036	9376.17
501.405	9503.39
501.774	9621.36
502.143	9637.85
502.512	9727.57
502.88	9806.21
503.249	9921.46
503.618	9909.03
503.987	10043.04
504.356	10160.33
504.724	10118.97
505.093	10274.22
505.462	10278.52
505.83	10305.63
506.199	10425.63
506.567	10546.53
506.936	10462.01
507.304	10704.49
507.672	10646.64
508.041	10767.32
508.409	10855.22
508.777	10946.52
509.145	11027.2
509.514	10973.64
509.882	11060.87
510.25	11122.56
510.618	11159.17
510.986	11200.75
511.354	11288.21
511.722	11376.34
512.09	11437.58
512.458	11407.07
512.826	11441.42
513.193	11533.62
513.561	11534.98
513.929	11602.55
514.297	11706.05
514.664	11671.7
515.032	11631.02
515.4	11805.48
515.767	11867.17
516.135	11852.26
516.502	11748.31
516.869	11886.16
517.237	11979.49
517.604	11822.2
517.972	11960.5
518.339	12034.63
518.706	12057.9
519.073	12048.41
519.44	12103.55
519.808	12190.78
520.175	12125.47
520.542	12171.12
520.909	12289.54
521.276	12260.84
521.643	12299.03
522.009	12345.81
522.376	12293.38
522.743	12293.83
523.11	12429.19
523.477	12542.18
523.843	12496.31
524.21	12626.48
524.577	12567.27
524.943	12616.76
525.31	12598.91
525.676	12713.25
526.043	12739.02
526.409	12663.76
526.776	12737.66
527.142	12682.52
527.508	12758
527.874	12778.11
528.241	12813.59
528.607	12734.04
528.973	12819.47
529.339	12782.86
529.705	12798.9
530.071	12852.01
530.437	12860.82
530.803	12824.89
531.169	12841.16
531.535	12829.86
531.901	12788.51
532.267	12750.31
532.632	12825.79
532.998	12812.69
533.364	12779.01
533.73	12779.92
534.095	12819.01
534.461	12749.86
534.826	12840.93
535.192	12832.8
535.557	12762.52
535.923	12677.55
536.288	12804.32
536.653	12732.91
537.019	12650.43
537.384	12691.78
537.749	12684.33
538.114	12548.51
538.479	12515.29
538.845	12548.29
539.21	12465.8
539.575	12513.48
539.94	12405.01
540.305	12495.63
540.67	12360.49
541.034	12374.73
541.399	12358.01
541.764	12359.82
542.129	12349.65
542.494	12251.8
542.858	12189.2
543.223	12222.87
543.587	12114.17
543.952	12175.87
544.316	12186.49
544.681	12066.94
545.045	12014.29
545.41	12126.83
545.774	12028.53
546.138	11928.64
546.503	11942.65
546.867	11880.96
547.231	11860.17
547.595	11846.16
547.959	11900.39
548.324	11756.22
548.688	11714.41
549.052	11785.59
549.416	11733.84
549.779	11587.41
550.143	11621.3
550.507	11630.12
550.871	11579.27
551.235	11508.31
551.599	11576.56
551.962	11537.24
552.326	11546.28
552.689	11591.47
553.053	11446.85
553.417	11420.86
553.78	11567.75
554.143	11364.59
554.507	11473.06
554.87	11466.28
555.234	11480.74
555.597	11353.74
555.96	11321.88
556.323	11318.71
556.686	11326.17
557.05	11384.25
557.413	11275.1
557.776	11313.74
558.139	11290.47
558.502	11265.61
558.865	11237.81
559.228	11314.19
559.59	11309.45
559.953	11250.92
560.316	11358.94
560.679	11274.42
561.041	11274.42
561.404	11316.23
561.767	11317.13
562.129	11240.07
562.492	11306.74
562.854	11233.52
563.217	11270.35
563.579	11298.38
563.941	11296.79
564.304	11351.93
564.666	11391.93
565.028	11316.91
565.39	11291.82
565.753	11402.55
566.115	11300.41
566.477	11391.93
566.839	11452.5
567.201	11496.56
567.563	11395.1
567.925	11451.14
568.287	11447.07
568.648	11435.55
569.01	11494.08
569.372	11567.07
569.734	11423.8
570.095	11510.8
570.457	11569.55
570.819	11539.72
571.18	11536.56
571.542	11586.05
571.903	11542.89
572.265	11572.04
572.626	11585.37
572.987	11587.86
573.349	11646.84
573.71	11650.68
574.071	11636.22
574.432	11641.64
574.794	11795.31
575.155	11601.64
575.516	11617.91
575.877	11616.56
576.238	11718.48
576.599	11681.42
576.96	11613.85
577.32	11628.99
577.681	11659.04
578.042	11628.76
578.403	11663.34
578.763	11676.9
579.124	11717.35
579.485	11714.41
579.845	11728.19
580.206	11732.94
580.566	11812.49
580.927	11690.46
581.287	11747.4
581.648	11740.62
582.008	11683
582.368	11671.02
582.728	11734.07
583.089	11652.49
583.449	11621.3
583.809	11622.21
584.169	11718.03
584.529	11621.76
584.889	11720.96
585.249	11612.94
585.609	11603.23
585.969	11682.09
586.329	11618.37
586.688	11642.1
587.048	11540.18
587.408	11531.59
587.768	11594.19
588.127	11567.52
588.487	11504.92
588.846	11561.19
589.206	11551.48
589.565	11534.75
589.925	11569.78
590.284	11534.75
590.643	11598.25
591.003	11542.21
591.362	11568.65
591.721	11586.5
592.08	11479.16
592.44	11509.9
592.799	11530.01
593.158	11516
593.517	11540.18
593.876	11533.85
594.235	11488.65
594.593	11503.57
594.952	11498.14
595.311	11435.32
595.67	11504.02
596.029	11518.26
596.387	11468.77
596.746	11480.07
597.104	11469.44
597.463	11394.64
597.822	11471.93
598.18	11412.27
598.538	11369.11
598.897	11377.92
599.255	11386.51
599.613	11546.05
599.972	11412.5
600.33	11561.42
600.688	11385.15
601.046	11412.5
601.404	11453.85
601.762	11414.3
602.12	11526.39
602.478	11551.02
602.836	11482.78
603.194	11438.48
603.552	11478.26
603.91	11388.54
604.268	11445.26
604.625	11449.78
604.983	11406.39
605.341	11415.89
605.698	11486.84
606.056	11515.09
606.413	11427.41
606.771	11504.02
607.128	11508.54
607.485	11444.13
607.843	11419.28
608.2	11512.61
608.557	11550.57
608.914	11447.98
609.272	11541.53
609.629	11527.3
609.986	11551.93
610.343	11534.75
610.7	11552.61
611.057	11544.02
611.414	11564.58
611.771	11536.34
612.127	11603
612.484	11629.21
612.841	11589.22
613.198	11565.03
613.554	11526.62
613.911	11650.68
614.267	11626.73
614.624	11612.04
614.98	11636.22
615.337	11749.89
615.693	11681.87
616.05	11593.96
616.406	11688.65
616.762	11700.85
617.118	11664.47
617.475	11713.05
617.831	11757.57
618.187	11689.78
618.543	11662.21
618.899	11791.7
619.255	11741.75
619.611	11735.88
619.967	11767.29
620.323	11776.55
620.678	11729.1
621.034	11786.5
621.39	11725.93
621.746	11750.79
622.101	11788.53
622.457	11754.41
622.812	11747.63
623.168	11793.96
623.523	11803.45
623.879	11771.36
624.234	11696.78
624.589	11785.59
624.945	11765.26
625.3	11761.19
625.655	11790.34
626.01	11795.54
626.365	11812.03
626.72	11784.01
627.075	11821.75
627.43	11797.35
627.785	11704.24
628.14	11774.75
628.495	11776.1
628.85	11769.1
629.205	11696.56
629.559	11819.04
629.914	11688.65
630.269	11759.83
630.623	11685.71
630.978	11687.07
631.332	11776.78
631.687	11763.67
632.041	11669.89
632.396	11633.51
632.75	11650.23
633.104	11626.28
633.459	11595.54
633.813	11546.05
634.167	11560.29
634.521	11573.62
634.875	11613.4
635.229	11581.08
635.583	11459.05
635.937	11540.63
636.291	11554.19
636.645	11509.67
636.999	11500.4
637.352	11485.04
637.706	11410.01
638.06	11392.84
638.413	11339.5
638.767	11425.6
639.121	11374.53
639.474	11322.1
639.828	11255.44
640.181	11350.8
640.534	11314.65
640.888	11332.05
641.241	11304.7
641.594	11313.06
641.947	11380.63
642.301	11321.2
642.654	11289.34
643.007	11282.1
643.36	11272.39
643.713	11269.9
644.066	11299.51
644.419	11261.31
644.771	11137.93
645.124	11033.07
645.477	11019.29
645.83	10983.81
646.182	10914.2
646.535	10919.85
646.888	10906.75
647.24	10897.71
647.593	10898.61
647.945	10937.93
648.298	10850.25
648.65	10837.14
649.002	10844.15
649.355	10829.91
649.707	10870.59
650.059	10907.65
650.411	11009.8
650.763	10971.6
651.115	11179.96
651.467	11193.97
651.819	11128.21
652.171	11036.46
652.523	11111.71
652.875	11123.24
653.227	11039.17
653.578	11175.44
653.93	11128.89
654.282	11052.96
654.633	11098.83
654.985	11036.01
655.337	11151.94
655.688	11101.32
656.039	11148.32
656.391	11014.99
656.742	11111.04
657.094	11119.85
657.445	11132.05
657.796	11113.3
658.147	11093.18
658.498	11020.64
658.849	11180.64
659.2	11185.61
659.551	11031.94
659.902	11149.9
660.253	11088.21
660.604	11145.61
660.955	11064.26
661.306	11188.55
661.656	11143.13
662.007	11116.91
662.358	11208.66
662.708	11110.58
663.059	11142
663.409	11125.95
663.76	11150.81
664.11	11200.75
664.461	11194.65
664.811	11209.34
665.161	11249.56
665.511	11128.89
665.862	11164.59
666.212	11214.54
666.562	11184.93
666.912	11125.5
667.262	11131.6
667.612	11229.68
667.962	11200.07
668.312	11244.82
668.662	11170.69
669.011	11150.13
669.361	11106.52
669.711	11121.88
670.06	11144.03
670.41	11088.21
670.76	11092.5
671.109	11166.85
671.459	11149.23
671.808	11069.68
672.157	11110.81
672.507	11119.17
672.856	11096.8
673.205	11069.91
673.554	11136.57
673.904	11013.41
674.253	11134.31
674.602	11105.61
674.951	10912.17
675.3	10940.42
675.649	10991.49
675.998	10974.54
676.346	11014.31
676.695	11016.12
677.044	10969.34
677.393	11044.37
677.741	11052.28
678.09	10959.63
678.438	10958.95
678.787	10911.27
679.135	10951.72
679.484	10817.71
679.832	10880.31
680.181	10798.28
680.529	10804.83
680.877	10862
681.225	10836.69
681.573	10849.8
681.922	10756.24
682.27	10761.21
682.618	10754.66
682.966	10688.67
683.314	10667.66
683.661	10676.47
684.009	10645.96
684.357	10614.78
684.705	10620.2
685.053	10675.34
685.4	10548.56
685.748	10509.02
686.095	10512.41
686.443	10461.79
686.79	10490.03
687.138	10452.07
687.485	10531.16
687.832	10415.91
688.18	10491.39
688.527	10392.86
688.874	10369.59
689.221	10321
689.568	10280.1
689.915	10298.18
690.262	10269.48
690.609	10290.72
690.956	10137.73
691.303	10168.01
691.65	10168.69
691.997	10128.24
692.344	9993.78
692.69	10093.44
693.037	10070.16
693.383	9876.94
693.73	9948.13
694.077	9873.78
694.423	9901.35
694.769	9818.41
695.116	9800.79
695.462	9763.05
695.808	9764.4
696.155	9745.87
696.501	9699.1
696.847	9689.38
697.193	9593.34
697.539	9603.96
697.885	9544.3
698.231	9580.23
698.577	9468.82
698.923	9502.94
699.269	9425.43
699.614	9385.21
699.96	9313.12
700.306	9342.49
700.651	9278.32
700.997	9279.22
701.342	9235.38
701.688	9222.27
702.033	9166
702.379	9097.76
702.724	9118.32
703.069	9111.31
703.415	9010.3
703.76	8970.53
704.105	9017.08
704.45	8992
704.795	8942.96
705.14	8921.26
705.485	8924.2
705.83	8802.62
706.175	8812.11
706.52	8806.92
706.865	8787.93
707.209	8808.5
707.554	8756.07
707.899	8742.74
708.243	8683.53
708.588	8602.4
708.932	8620.93
709.277	8642.63
709.621	8595.4
709.966	8576.41
710.31	8559.01
710.654	8402.18
710.998	8540.71
711.342	8554.94
711.687	8467.49
712.031	8525.79
712.375	8446.47
712.719	8502.06
713.063	8455.96
713.407	8403.31
713.75	8380.26
714.094	8453.48
714.438	8321.96
714.782	8286.03
715.125	8298.91
715.469	8322.63
715.812	8278.57
716.156	8235.4
716.499	8242.41
716.843	8227.5
717.186	8190.89
717.53	8274.95
717.873	8211
718.216	8159.25
718.559	8158.57
718.902	8077.67
719.246	8088.74
719.589	8142.75
719.932	8060.04
720.275	8028.63
720.617	8029.08
720.96	8107.27
721.303	8060.27
721.646	8091.45
721.989	8003.55
722.331	7996.54
722.674	7965.58
723.016	8016.43
723.359	8006.94
723.701	8042.64
724.044	7932.81
724.386	7956.09
724.729	7995.19
725.071	7975.07
725.413	7954.06
725.755	7956.09
726.097	7911.12
726.439	7835.87
726.782	7948.86
727.124	7951.57
727.465	7864.79
727.807	7901.85
728.149	7915.64
728.491	7878.13
728.833	7924.9
729.175	7865.25
729.516	7905.7
729.858	7851.69
730.199	7878.58
730.541	7795.87
730.882	7826.38
731.224	7909.31
731.565	7842.65
731.906	7902.08
732.248	7891.46
732.589	7813.5
732.93	7850.56
733.271	7842.87
733.612	7849.2
733.953	7775.98
734.294	7858.92
734.635	7864.12
734.976	7878.8
735.317	7838.58
735.658	7895.75
735.999	7856.43
736.339	7803.78
736.68	7858.69
737.021	7835.87
737.361	7799.26
737.702	7853.72
738.042	7879.26
738.383	7870.67
738.723	7866.6
739.063	7870.44
739.404	7944.11
739.744	7886.26
740.084	7833.38
740.424	7908.63
740.764	7908.41
741.104	7968.29
741.444	7886.49
741.784	7916.09
742.124	7991.8
742.464	7982.08
742.804	8036.09
743.143	8044.68
743.483	8062.53
743.823	8036.54
744.162	8081.28
744.502	8094.62
744.841	8132.81
745.181	8213.71
745.52	8187.04
745.86	8217.78
746.199	8304.33
746.538	8257.33
746.877	8368.06
747.216	8400.6
747.556	8408.51
747.895	8482.4
748.234	8502.06
748.573	8530.76
748.911	8559.01
749.25	8650.76
749.589	8671.55
749.928	8700.7
750.267	8848.04
750.605	8891.21
750.944	8928.27
751.283	9023.63
751.621	9089.17
751.96	9108.6
752.298	9270.41
752.636	9290.29
752.975	9405.77
753.313	9455.71
753.651	9582.49
753.989	9690.96
754.327	9787.23
754.666	9866.55
755.004	10013.66
755.342	10147.67
755.679	10233.32
756.017	10363.94
756.355	10512.63
756.693	10600.09
757.031	10764.83
757.368	10806.41
757.706	10993.98
758.044	11104.48
758.381	11284.14
758.719	11363.68
759.056	11526.17
759.394	11646.39
759.731	11816.33
760.068	11952.37
760.405	12125.25
760.743	12211.8
761.08	12432.13
761.417	12576.08
761.754	12736.3
762.091	12908.05
762.428	13029.4
762.765	13085.22
763.102	13402.05
763.438	13529.28
763.775	13567.02
764.112	13794.81
764.449	13918.87
764.785	14097.85
765.122	14279.31
765.458	14318.63
765.795	14555.24
766.131	14722.92
766.467	14835.01
766.804	14856.93
767.14	15000.2
767.476	15152.74
767.812	15369.91
768.148	15488.1
768.485	15536.23
768.821	15712.5
769.157	15840.4
769.492	15905.26
769.828	16025.93
770.164	16051.24
770.5	16152.94
770.836	16394.74
771.171	16399.71
771.507	16471.57
771.842	16539.82
772.178	16651.23
772.513	16704.33
772.849	16836.99
773.184	16851.68
773.519	17052.57
773.855	17030.43
774.19	17046.7
774.525	17066.13
774.86	17194.27
775.195	17306.8
775.53	17320.59
775.865	17263.19
776.2	17300.93
776.535	17361.27
776.87	17458.44
777.205	17481.04
777.539	17589.51
777.874	17655.27
778.209	17534.6
778.543	17570.3
778.878	17582.96
779.212	17638.55
779.547	17646.46
779.881	17730.75
780.215	17590.87
780.55	17759.45
780.884	17723.29
781.218	17685.1
781.552	17758.09
781.886	17707.25
782.22	17768.04
782.554	17789.28
782.888	17738.88
783.222	17652.33
783.556	17598.77
783.889	17603.29
784.223	17594.71
784.557	17570.53
784.89	17700.47
785.224	17566.91
785.557	17486.46
785.891	17592.22
786.224	17563.07
786.558	17606.46
786.891	17401.49
787.224	17424.77
787.557	17458.44
787.891	17446.91
788.224	17409.63
788.557	17483.3
788.89	17319.46
789.223	17421.38
789.556	17374.37
789.888	17245.79
790.221	17273.36
790.554	17175.28
790.887	17216.64
791.219	17224.55
791.552	17224.77
791.884	17138.9
792.217	17087.6
792.549	17006.47
792.882	16844.44
793.214	16981.62
793.546	16947.72
793.879	16893.93
794.211	16875.63
794.543	16902.75
794.875	16808.06
795.207	16875.4
795.539	16686.93
795.871	16753.6
796.203	16707.05
796.535	16594.96
796.867	16514.51
797.198	16444.45
797.53	16524.23
797.862	16469.09
798.193	16454.17
798.525	16412.37
798.856	16396.32
799.188	16307.96
799.519	16292.14
799.85	16161.07
800.182	16253.95
800.513	16220.51
800.844	16121.75
801.175	16120.17
801.506	16187.06
801.837	16032.94
802.168	16000.17
802.499	16032.94
802.83	16001.75
803.161	15880.18
803.491	15914.98
803.822	15838.59
804.153	15786.39
804.483	15629.11
804.814	15673.18
805.145	15605.83
805.475	15714.3
805.805	15656
806.136	15636.79
806.466	15525.38
806.796	15564.93
807.126	15403.35
807.457	15503.69
807.787	15463.92
808.117	15382.79
808.447	15303.69
808.777	15322.22
809.107	15224.83
809.436	15183.24
809.766	15258.95
810.096	15126.07
810.426	15095.56
810.755	15058.28
811.085	15106.18
811.414	15074.32
811.744	14945.06
812.073	14967.88
812.403	14971.72
812.732	14851.95
813.061	14894.21
813.39	14832.52
813.719	14855.8
814.049	14896.25
814.378	14773.31
814.707	14789.81
815.036	14730.83
815.365	14629.59
815.693	14547.33
816.022	14649.02
816.351	14643.15
816.68	14509.36
817.008	14700.32
817.337	14430.72
817.665	14436.82
817.994	14435.92
818.322	14430.95
818.651	14301.69
818.979	14377.84
819.307	14317.5
819.636	14318.86
819.964	14251.97
820.292	14342.81
820.62	14255.13
820.948	14226.43
821.276	14304.62
821.604	14243.38
821.932	14306.21
822.259	14273.66
822.587	14244.29
822.915	14200.67
823.243	14217.62
823.57	14233.44
823.898	14162.93
824.225	14115.25
824.553	14192.31
824.88	14279.31
825.207	14251.52
825.535	14210.16
825.862	14261.46
826.189	14243.16
826.516	14262.82
826.843	14256.04
827.17	14284.29
827.497	14330.61
827.824	14305.75
828.151	14378.75
828.478	14181.69
828.805	14341.46
829.131	14192.08
829.458	14204.29
829.785	14126.78
830.111	14197.96
830.438	14251.52
830.764	14302.14
831.09	14264.4
831.417	14177.17
831.743	14279.54
832.069	14218.75
832.395	14088.58
832.722	14190.73
833.048	14116.61
833.374	14185.76
833.7	14032.54
834.026	14101.92
834.351	14201.8
834.677	14125.42
835.003	14131.75
835.329	14057.17
835.654	14024.86
835.98	14003.39
836.306	14003.84
836.631	14074.35
836.956	13967.68
837.282	14067.12
837.607	13939.44
837.932	14016.5
838.258	13945.09
838.583	13965.65
838.908	13774.69
839.233	13929.72
839.558	13804.07
839.883	13803.85
840.208	13727.24
840.533	13771.53
840.858	13789.16
841.182	13826.9
841.507	13692.66
841.832	13652.44
842.156	13679.33
842.481	13672.1
842.805	13587.81
843.13	13542.38
843.454	13566.34
843.778	13513.23
844.103	13405.89
844.427	13424.87
844.751	13444.08
845.075	13406.34
845.399	13424.87
845.723	13292.45
846.047	13318.66
846.371	13216.97
846.695	13156.63
847.019	13105.56
847.343	13009.52
847.666	12994.6
847.99	12954.6
848.313	12904.43
848.637	12848.84
848.96	12875.06
849.284	12828.05
849.607	12728.62
849.931	12639.81
850.254	12572.92
850.577	12501.06
850.9	12427.84
851.223	12485.24
851.546	12396.65
851.869	12291.34
852.192	12344.22
852.515	12191.01
852.838	12138.81
853.161	12216.32
853.483	12078.92
853.806	12105.81
854.129	12062.42
854.451	11960.96
854.774	11890.22
855.096	11904.01
855.419	11904.24
855.741	11861.75
856.063	11796.44
856.385	11731.36
856.708	11708.31
857.03	11684.58
857.352	11634.41
857.674	11680.51
857.996	11639.16
858.318	11575.43
858.64	11546.05
858.961	11527.52
859.283	11421.31
859.605	11438.03
859.926	11440.97
860.248	11358.49
860.57	11323.23
860.891	11325.95
861.212	11318.04
861.534	11257.25
861.855	11199.85
862.176	11150.81
862.498	11224.93
862.819	11212.95
863.14	11072.39
863.461	11133.18
863.782	11111.49
864.103	11070.36
864.424	11103.35
864.745	10999.85
865.065	11031.94
865.386	10989.91
865.707	10945.62
866.027	11009.57
866.348	10977.48
866.668	10949.91
866.989	10929.8
867.309	10949.01
867.63	10900.65
867.95	10892.28
868.27	10797.37
868.59	10845.51
868.91	10763.7
869.23	10784.04
869.55	10691.16
869.87	10765.51
870.19	10691.16
870.51	10813.87
870.83	10731.84
871.15	10652.29
871.469	10709.92
871.789	10688.22
872.109	10665.17
872.428	10587.43
872.748	10646.19
873.067	10625.17
873.386	10571.39
873.706	10525.29
874.025	10473.31
874.344	10471.73
874.663	10495.23
874.982	10485.29
875.301	10500.88
875.62	10464.95
875.939	10481.9
876.258	10377.04
876.577	10412.75
876.896	10417.04
877.214	10328.68
877.533	10346.31
877.852	10309.25
878.17	10373.2
878.489	10295.92
878.807	10259.98
879.125	10244.62
879.444	10306.31
879.762	10210.49
880.08	10184.96
880.398	10153.32
880.716	10189.93
881.034	10084.85
881.352	10178.63
881.67	10152.42
881.988	10118.97
882.306	10045.75
882.624	10062.25
882.941	9977.96
883.259	9952.42
883.577	9930.5
883.894	9941.8
884.212	9910.84
884.529	9978.18
884.846	9947.68
885.164	9883.95
885.481	9761.92
885.798	9864.74
886.115	9782.26
886.432	9833.1
886.75	9693.22
887.067	9726.89
887.383	9690.06
887.7	9700.9
888.017	9610.51
888.334	9684.86
888.651	9569.16
888.967	9625.42
889.284	9527.12
889.6	9492.55
889.917	9467.91
890.233	9461.81
890.55	9417.52
890.866	9441.25
891.182	9404.64
891.498	9360.57
891.815	9308.82
892.131	9298.2
892.447	9233.57
892.763	9224.08
893.079	9244.64
893.395	9188.83
893.71	9126.91
894.026	9141.82
894.342	9131.43
894.657	9039
894.973	9045.1
895.289	8961.94
895.604	9047.36
895.92	8866.8
896.235	8879.46
896.55	8839.46
896.865	8866.12
897.181	8796.07
897.496	8813.02
897.811	8747.48
898.126	8702.06
898.441	8685.11
898.756	8742.96
899.071	8644.66
899.386	8550.88
899.7	8541.61
900.015	8481.05
900.33	8465
900.644	8465
900.959	8471.56
901.273	8422.97
901.588	8469.75
901.902	8379.58
902.216	8321.73
902.531	8307.95
902.845	8280.38
903.159	8203.99
903.473	8178.91
903.787	8168.74
904.101	8120.38
904.415	8121.28
904.729	8086.03
905.042	7991.8
905.356	8033.83
905.67	8002.19
905.984	7972.36
906.297	7890.56
906.611	7862.76
906.924	7991.8
907.237	7906.37
907.551	7862.76
907.864	7805.13
908.177	7766.26
908.491	7767.85
908.804	7699.6
909.117	7665.02
909.43	7592.26
909.743	7620.51
910.056	7555.87
910.368	7453.73
910.681	7476.1
910.994	7483.79
911.307	7431.13
911.619	7441.3
911.932	7410.79
912.244	7293.73
912.557	7328.54
912.869	7298.93
913.181	7217.58
913.494	7251.7
913.806	7192.27
914.118	7148.88
914.43	7133.96
914.742	7105.94
915.054	7074.31
915.366	7005.61
915.678	7012.16
915.99	6951.37
916.302	6937.59
916.613	6951.82
916.925	6924.93
917.236	6879.73
917.548	6849.45
917.859	6807.42
918.171	6814.88
918.482	6767.42
918.794	6753.18
919.105	6714.99
919.416	6680.87
919.727	6671.83
920.038	6655.11
920.349	6587.54
920.66	6587.99
920.971	6537.37
921.282	6540.31
921.593	6476.81
921.903	6441.55
922.214	6451.05
922.525	6411.5
922.835	6445.62
923.146	6311.16
923.456	6379.86
923.767	6308.9
924.077	6274.78
924.387	6263.71
924.697	6253.99
925.008	6190.49
925.318	6132.64
925.628	6174.89
925.938	6152.3
926.248	6080.66
926.558	6074.11
926.867	6058.06
927.177	5996.14
927.487	6007.89
927.796	5953.66
928.106	5981.23
928.416	5962.47
928.725	5890.16
929.034	5804.06
929.344	5864.17
929.653	5832.76
929.962	5771.06
930.271	5741.01
930.581	5714.12
930.89	5716.83
931.199	5679.99
931.508	5728.13
931.817	5662.14
932.125	5673.66
932.434	5685.87
932.743	5583.05
933.051	5573.78
933.36	5541.24
933.669	5502.14
933.977	5540.79
934.286	5534.68
934.594	5444.97
934.902	5435.93
935.21	5398.64
935.519	5417.17
935.827	5343.28
936.135	5380.11
936.443	5319.78
936.751	5298.53
937.059	5327.68
937.367	5279.32
937.674	5246.1
937.982	5251.53
938.29	5184.19
938.597	5248.36
938.905	5163.4
939.213	5158.65
939.52	5133.57
939.827	5099.22
940.135	5058.99
940.442	5048.6
940.749	5022.83
941.056	5043.85
941.363	4955.27
941.67	4943.29
941.977	4903.97
942.284	4933.57
942.591	4921.59
942.898	4927.47
943.205	4878.43
943.511	4862.84
943.818	4788.26
944.125	4787.13
944.431	4809.05
944.738	4788.94
945.044	4692.67
945.35	4715.5
945.657	4699.68
945.963	4673.24
946.269	4653.13
946.575	4658.1
946.881	4591.43
947.187	4610.64
947.493	4582.62
947.799	4549.4
948.105	4527.25
948.41	4513.47
948.716	4483.87
949.022	4498.1
949.327	4466.92
949.633	4447.93
949.938	4473.7
950.244	4423.53
950.549	4378.33
950.854	4338.11
951.16	4298.79
951.465	4299.92
951.77	4282.51
952.075	4252.68
952.38	4296.75
952.685	4307.82
952.99	4258.11
953.294	4184.44
953.599	4208.39
953.904	4168.17
954.209	4185.34
954.513	4174.04
954.818	4141.28
955.122	4092.69
955.426	4060.15
955.731	4108.28
956.035	4080.03
956.339	4058.11
956.643	4024.44
956.948	3976.53
957.252	4000.94
957.556	3992.8
957.86	3942.18
958.163	3931.56
958.467	3901.06
958.771	3919.59
959.075	3909.19
959.378	3878.01
959.682	3878.91
959.985	3836.65
960.289	3827.39
960.592	3795.3
960.896	3823.32
961.199	3746.94
961.502	3789.65
961.805	3723.43
962.108	3736.09
962.411	3690.89
962.714	3695.86
963.017	3655.41
963.32	3671.23
963.623	3686.82
963.926	3656.32
964.228	3655.19
964.531	3614.96
964.833	3607.96
965.136	3552.14
965.438	3564.34
965.741	3551.01
966.043	3505.13
966.345	3523.21
966.648	3536.55
966.95	3543.1
967.252	3502.42
967.554	3439.37
967.856	3418.81
968.158	3410
968.46	3386.72
968.761	3372.71
969.063	3394.18
969.365	3351.01
969.666	3348.53
969.968	3300.17
970.269	3303.11
970.571	3286.38
970.872	3281.18
971.174	3254.74
971.475	3263.33
971.776	3244.8
972.077	3192.83
972.378	3219.94
972.679	3194.18
972.98	3172.49
973.281	3200.06
973.582	3167.97
973.883	3146.27
974.183	3144.92
974.484	3077.57
974.785	3118.93
975.085	3087.74
975.386	3097.01
975.686	3059.95
975.986	3029.67
976.287	3010.01
976.587	3016.11
976.887	3021.98
977.187	2993.73
977.487	3020.63
977.787	2968.65
978.087	2951.48
978.387	2970.68
978.687	2966.39
978.987	2922.1
979.286	2897.69
979.586	2899.95
979.885	2873.74
980.185	2804.59
980.484	2828.09
980.784	2834.87
981.083	2849.78
981.382	2831.93
981.682	2837.81
981.981	2813.63
982.28	2782.21
982.579	2747.87
982.878	2704.02
983.177	2754.42
983.475	2723.23
983.774	2718.26
984.073	2678.49
984.372	2678.04
984.67	2690.01
984.969	2678.26
985.267	2628.32
985.566	2645.04
985.864	2611.37
986.162	2614.76
986.461	2601.2
986.759	2626.96
987.057	2570.02
987.355	2584.48
987.653	2541.54
987.951	2568.89
988.249	2557.14
988.547	2560.53
988.844	2508.55
989.142	2490.92
989.44	2501.54
989.737	2451.83
990.035	2462.22
990.332	2458.61
990.63	2473.75
990.927	2444.37
991.224	2443.69
991.521	2436.91
991.819	2435.78
992.116	2397.14
992.413	2402.79
992.71	2369.8
993.006	2376.58
993.303	2358.72
993.6	2364.37
993.897	2327.76
994.193	2373.86
994.49	2330.7
994.787	2299.97
995.083	2248.22
995.379	2343.36
995.676	2261.55
995.972	2245.28
996.268	2247.99
996.565	2207.77
996.861	2234.66
997.157	2223.59
997.453	2196.02
997.749	2200.31
998.044	2168.45
998.34	2173.64
998.636	2160.08
998.932	2114.66
999.227	2125.28
999.523	2106.53
999.818	2096.13
1000.114	2104.94
1000.409	2072.86
1000.704	2064.49
1001	2059.07
1001.295	2060.43
1001.59	2059.75
1001.885	2052.52
1002.18	1997.38
1002.475	2025.17
1002.77	2017.26
1003.065	1982.46
1003.359	1988.11
1003.654	2002.35
1003.949	1954.89
1004.243	1922.35
1004.538	1909.24
1004.832	1906.31
1005.127	1926.42
1005.421	1875.35
1005.715	1892.97
1006.009	1910.37
1006.304	1852.75
1006.598	1851.39
1006.892	1874.22
1007.186	1817.04
1007.48	1824.95
1007.773	1780.21
1008.067	1824.5
1008.361	1800.09
1008.655	1824.05
1008.948	1766.2
1009.242	1779.53
1009.535	1737.04
1009.829	1756.48
1010.122	1719.42
1010.415	1714.9
1010.708	1715.12
1011.001	1702.24
1011.295	1707.44
1011.588	1676.03
1011.881	1693.66
1012.173	1650.95
1012.466	1630.15
1012.759	1637.16
1013.052	1615.92
1013.344	1656.59
1013.637	1613.66
1013.93	1581.79
1014.222	1583.83
1014.514	1603.94
1014.807	1580.21
1015.099	1559.87
1015.391	1591.96
1015.683	1581.79
1015.976	1541.12
1016.268	1524.39
1016.56	1497.5
1016.851	1514.23
1017.143	1509.48
1017.435	1524.62
1017.727	1480.55
1018.018	1455.24
1018.31	1468.58
1018.602	1441.46
1018.893	1457.5
1019.185	1434.68
1019.476	1443.95
1019.767	1455.24
1020.058	1411.63
1020.35	1408.69
1020.641	1375.02
1020.932	1396.04
1021.223	1383.38
1021.514	1356.49
1021.804	1343.16
1022.095	1341.8
1022.386	1336.83
1022.677	1367.56
1022.967	1328.24
1023.258	1328.24
1023.548	1315.36
1023.839	1314.46
1024.129	1306.55
1024.419	1271.52
1024.709	1290.95
1025	1279.88
1025.29	1238.98
1025.58	1233.56
1025.87	1240.56
1026.16	1234.91
1026.449	1253.89
1026.739	1221.35
1027.029	1223.39
1027.319	1211.18
1027.608	1177.96
1027.898	1179.77
1028.187	1183.39
1028.477	1176.16
1028.766	1177.29
1029.055	1168.92
1029.344	1146.78
1029.634	1154.01
1029.923	1126.21
1030.212	1124.41
1030.501	1136.38
1030.79	1113.78
1031.078	1120.11
1031.367	1081.69
1031.656	1105.65
1031.945	1099.77
1032.233	1084.41
1032.522	1070.85
1032.81	1067.68
1033.099	1050.28
1033.387	1063.39
1033.675	1067.01
1033.963	1027.01
1034.251	1013.22
1034.54	1002.37
1034.828	1014.8
1035.116	1009.15
1035.403	1027.91
1035.691	1003.96
1035.979	991.08
1036.267	982.04
1036.554	990.62
1036.842	989.95
1037.129	977.97
1037.417	969.83
1037.704	959.66
1037.992	956.95
1038.279	935.26
1038.566	941.59
1038.853	941.59
1039.14	941.59
