Data from hue_130_FLMS001491_00075.txt Node
Date: Tue Feb 07 16:58:04 GMT 2017
User: dcchb
Spectrometer: FLMS00149
Trigger mode: 0
Integration Time (sec): 2.000000E-2
Scans to average: 10
Electric dark correction enabled: true
Nonlinearity correction enabled: false
Boxcar width: 0
XAxis mode: Wavelengths
Number of Pixels in Spectrum: 2048
>>>>>Begin Spectral Data<<<<<
341.393	-3.91
341.776	-3.91
342.16	-3.91
342.543	-73.97
342.927	-70.8
343.31	-77.81
343.693	-84.14
344.077	-65.61
344.46	-64.93
344.843	-40.75
345.226	-36.23
345.61	-33.52
345.993	-19.05
346.376	6.26
346.759	3.32
347.142	-0.3
347.525	39.7
347.908	57.78
348.291	89.64
348.674	102.98
349.057	122.64
349.44	123.99
349.823	142.3
350.206	161.73
350.588	194.27
350.971	187.27
351.354	207.38
351.737	249.87
352.119	249.87
352.502	255.29
352.884	260.26
353.267	295.74
353.65	298.9
354.032	292.8
354.414	302.07
354.797	316.08
355.179	310.43
355.562	317.66
355.944	294.38
356.326	330.77
356.709	337.77
357.091	326.93
357.473	353.82
357.855	339.58
358.238	326.02
358.62	328.06
359.002	367.83
359.384	332.12
359.766	336.87
360.148	318.79
360.53	327.6
360.912	343.65
361.294	333.71
361.676	354.72
362.057	303.65
362.439	327.38
362.821	339.58
363.203	315.18
363.584	323.76
363.966	339.36
364.348	335.97
364.729	327.83
365.111	318.11
365.493	314.72
365.874	307.49
366.256	321.05
366.637	315.18
367.019	324.21
367.4	314.5
367.781	303.65
368.163	300.49
368.544	316.76
368.925	299.36
369.306	305.68
369.688	302.97
370.069	298.9
370.45	317.66
370.831	292.58
371.212	301.84
371.593	325.34
371.974	307.49
372.355	305.01
372.736	332.8
373.117	318.79
373.498	312.46
373.879	310.66
374.26	335.06
374.641	326.25
375.021	316.08
375.402	301.62
375.783	303.2
376.163	307.72
376.544	319.92
376.925	307.04
377.305	323.54
377.686	319.02
378.066	311.79
378.447	331.45
378.827	309.53
379.208	334.61
379.588	328.51
379.968	316.53
380.349	334.61
380.729	344.1
381.109	345.68
381.489	336.87
381.87	333.93
382.25	337.32
382.63	309.3
383.01	340.71
383.39	341.84
383.77	355.85
384.15	335.06
384.53	348.39
384.91	345.68
385.29	358.34
385.67	339.13
386.049	351.78
386.429	365.57
386.809	361.95
387.189	367.6
387.568	352.46
387.948	340.71
388.328	350.65
388.707	347.26
389.087	352.01
389.466	353.82
389.846	344.1
390.225	366.93
390.605	348.85
390.984	371.22
391.363	357.66
391.743	354.04
392.122	362.18
392.501	350.65
392.881	360.15
393.26	378.68
393.639	380.03
394.018	366.93
394.397	380.94
394.776	374.83
395.155	357.89
395.534	362.63
395.913	361.28
396.292	373.03
396.671	379.13
397.05	372.35
397.429	386.13
397.808	388.39
398.186	389.3
398.565	386.13
398.944	376.64
399.323	393.82
399.701	369.64
400.08	399.92
400.458	395.17
400.837	396.3
401.215	378.68
401.594	403.99
401.972	411.9
402.351	393.82
402.729	411.44
403.107	404.89
403.486	403.31
403.864	390.43
404.242	408.73
404.62	404.44
404.999	410.31
405.377	401.73
405.755	398.79
406.133	413.48
406.511	422.97
406.889	420.48
407.267	434.04
407.645	425.91
408.023	409.41
408.401	434.72
408.779	442.18
409.156	453.02
409.534	450.31
409.912	446.47
410.29	441.95
410.667	447.83
411.045	460.93
411.422	442.4
411.8	455.74
412.178	476.75
412.555	453.7
412.933	459.58
413.31	457.09
413.687	476.3
414.065	467.26
414.442	477.88
414.819	481.95
415.197	473.36
415.574	479.46
415.951	497.54
416.328	491.22
416.705	506.13
417.082	504.55
417.46	484.44
417.837	497.54
418.214	485.34
418.591	502.52
418.967	508.39
419.344	500.93
419.721	517.2
420.098	511.1
420.475	519.01
420.852	528.5
421.228	523.76
421.605	537.32
421.982	527.15
422.358	546.58
422.735	547.03
423.111	559.91
423.488	544.1
423.864	531.89
424.241	535.51
424.617	529.18
424.994	537.09
425.37	544.55
425.746	567.82
426.123	557.88
426.499	559.01
426.875	564.66
427.251	578.67
427.627	571.21
428.003	570.31
428.379	600.37
428.756	591.78
429.132	596.3
429.507	607.6
429.883	595.17
430.259	605.34
430.635	585.68
431.011	579.8
431.387	620.03
431.763	644.43
432.138	651.66
432.514	650.08
432.89	641.04
433.265	650.76
433.641	650.08
434.016	639.91
434.392	635.62
434.767	693.47
435.143	687.59
435.518	673.58
435.894	672.23
436.269	675.17
436.644	709.29
437.02	686.01
437.395	706.35
437.77	708.84
438.145	727.14
438.52	717.88
438.895	735.28
439.271	719.68
439.646	730.31
440.021	742.73
440.395	735.96
440.77	730.76
441.145	755.62
441.52	758.55
441.895	769.4
442.27	769.63
442.645	758.33
443.019	789.29
443.394	774.15
443.769	797.42
444.143	770.3
444.518	803.98
444.892	801.94
445.267	819.79
445.641	820.02
446.016	819.12
446.39	814.6
446.764	806.69
447.139	817.99
447.513	830.19
447.887	839.23
448.262	836.97
448.636	841.26
449.01	862.96
449.384	846.01
449.758	873.35
450.132	895.27
450.506	895.95
450.88	885.78
451.254	895.5
451.628	897.31
452.002	883.07
452.376	927.59
452.75	914.93
453.123	937.98
453.497	949.06
453.871	967.59
454.244	966.46
454.618	980.69
454.992	982.5
455.365	991.54
455.739	1006
456.112	1008.49
456.486	1024.31
456.859	1050.3
457.232	1045.78
457.606	1036.06
457.979	1055.04
458.352	1072.44
458.725	1096.85
459.099	1104.53
459.472	1129.84
459.845	1122.84
460.218	1137.75
460.591	1131.88
460.964	1165.32
461.337	1162.38
461.71	1203.51
462.083	1208.94
462.456	1221.37
462.829	1203.29
463.201	1246.22
463.574	1263.62
463.947	1281.48
464.32	1304.75
464.692	1321.93
465.065	1333.91
465.438	1370.29
465.81	1336.62
466.183	1352.66
466.555	1424.3
466.928	1411.42
467.3	1409.16
467.672	1433.79
468.045	1489.16
468.417	1481.92
468.789	1497.74
469.161	1544.07
469.534	1561.92
469.906	1598.08
470.278	1614.35
470.65	1639.21
471.022	1726.44
471.394	1697.06
471.766	1746.78
472.138	1766.44
472.51	1819.54
472.882	1850.95
473.253	1892.53
473.625	1936.38
473.997	1993.1
474.369	1985.41
474.74	2040.1
475.112	2079.87
475.484	2147.44
475.855	2193.54
476.227	2250.04
476.598	2303.82
476.97	2375.46
477.341	2449.13
477.713	2498.17
478.084	2525.29
478.455	2624.04
478.827	2666.3
479.198	2771.16
479.569	2829.01
479.94	2918.5
480.311	2961.21
480.682	3050.02
481.053	3151.94
481.424	3224.03
481.795	3301.09
482.166	3372.5
482.537	3475.54
482.908	3581.3
483.279	3674.64
483.65	3768.87
484.021	3861.52
484.391	3954.63
484.762	4042.08
485.133	4134.96
485.503	4242.53
485.874	4408.63
486.244	4450.89
486.615	4633.71
486.985	4710.99
487.356	4815.85
487.726	4941.72
488.097	5109.17
488.467	5218.32
488.837	5332.9
489.207	5451.09
489.578	5599.33
489.948	5718.65
490.318	5884.29
490.688	5916.61
491.058	6078.19
491.428	6197.73
491.798	6376.48
492.168	6517.95
492.538	6651.96
492.908	6754.55
493.278	6859.64
493.648	6968.56
494.017	7046.75
494.387	7244.71
494.757	7332.17
495.126	7459.39
495.496	7545.49
495.866	7631.82
496.235	7834.53
496.605	7962.66
496.974	8062.09
497.344	8189.54
497.713	8349.31
498.082	8437.22
498.452	8538.91
498.821	8578.01
499.19	8740.94
499.559	8889.64
499.928	8888.28
500.298	9038.11
500.667	9135.73
501.036	9170.31
501.405	9268.61
501.774	9281.95
502.143	9510.19
502.512	9505.89
502.88	9642.61
503.249	9684.42
503.618	9760.58
503.987	9815.49
504.356	9968.71
504.724	10060.91
505.093	10055.48
505.462	10123.96
505.83	10205.76
506.199	10268.81
506.567	10497.96
506.936	10460.9
507.304	10619.09
507.672	10624.51
508.041	10691.17
508.409	10789.25
508.777	10875.12
509.145	10908.34
509.514	10934.11
509.882	11032.86
510.25	11119.41
510.618	11058.4
510.986	11154.66
511.354	11260.2
511.722	11375.9
512.09	11374.09
512.458	11387.43
512.826	11531.83
513.193	11528.89
513.561	11523.24
513.929	11654.76
514.297	11674.88
514.664	11709.45
515.032	11765.95
515.4	11838.04
515.767	11852.5
516.135	11867.19
516.502	11868.09
516.869	11998.71
517.237	12061.99
517.604	11988.77
517.972	12070.35
518.339	12154.41
518.706	12134.07
519.073	12172.26
519.44	12193.96
519.808	12323.22
520.175	12216.11
520.542	12346.27
520.909	12375.42
521.276	12330
521.643	12391.92
522.009	12441.41
522.376	12518.7
522.743	12568.86
523.11	12583.33
523.477	12686.38
523.843	12700.16
524.21	12723.89
524.577	12789.2
524.943	12759.37
525.31	12906.48
525.676	12864
526.043	12940.61
526.409	12916.2
526.776	12993.49
527.142	12969.08
527.508	13027.38
527.874	13024.22
528.241	13032.13
528.607	12995.07
528.973	13013.37
529.339	13051.56
529.705	13058.34
530.071	13178.11
530.437	13158
530.803	13093.82
531.169	13109.42
531.535	13132.01
531.901	13104.67
532.267	13153.71
532.632	13049.98
532.998	13050.66
533.364	13171.33
533.73	13092.47
534.095	13137.89
534.461	13078.91
534.826	13084.78
535.192	13084.56
535.557	13143.76
535.923	12990.55
536.288	13042.75
536.653	13029.64
537.019	12966.59
537.384	12985.12
537.749	13006.82
538.114	12840.27
538.479	12932.02
538.845	12887.73
539.21	12856.31
539.575	12783.77
539.94	12885.24
540.305	12869.87
540.67	12797.78
541.034	12676.66
541.399	12658.35
541.764	12702.65
542.129	12665.59
542.494	12731.8
542.858	12660.61
543.223	12523.67
543.587	12593.95
543.952	12561.41
544.316	12502.2
544.681	12451.13
545.045	12448.19
545.41	12504.01
545.774	12402.77
546.138	12358.93
546.503	12495.42
546.867	12267.63
547.231	12353.5
547.595	12238.93
547.959	12262.21
548.324	12211.81
548.688	12132.72
549.052	12160.97
549.416	12080.29
549.779	12018.6
550.143	12037.13
550.507	12104.02
550.871	12055.43
551.235	11941.08
551.599	12054.08
551.962	11986.51
552.326	11955.77
552.689	11959.16
553.053	11870.8
553.417	11789.68
553.78	11855.66
554.143	11783.12
554.507	11896.79
554.87	11828.09
555.234	11836.23
555.597	11800.75
555.96	11715.1
556.323	11734.31
556.686	11701.99
557.05	11746.29
557.413	11699.28
557.776	11744.25
558.139	11776.12
558.502	11734.76
558.865	11634.88
559.228	11665.61
559.59	11668.32
559.953	11743.35
560.316	11671.94
560.679	11711.03
561.041	11750.81
561.404	11685.95
561.767	11697.47
562.129	11719.17
562.492	11828.54
562.854	11650.47
563.217	11656.12
563.579	11664.71
563.941	11718.72
564.304	11779.05
564.666	11697.25
565.028	11729.11
565.39	11847.75
565.753	11801.2
566.115	11772.05
566.477	11774.08
566.839	11805.04
567.201	11854.53
567.563	11852.5
567.925	11902.67
568.287	11855.66
568.648	11860.41
569.01	11916
569.372	11926.62
569.734	11902.22
570.095	12022.44
570.457	11950.35
570.819	11949.22
571.18	11940.41
571.542	11929.56
571.903	11949.67
572.265	11988.54
572.626	11947.86
572.987	11984.02
573.349	11962.78
573.71	12007.52
574.071	11970.01
574.432	12092.94
574.794	12050.23
575.155	12073.74
575.516	12047.52
575.877	12053.17
576.238	12018.6
576.599	12099.05
576.96	12121.19
577.32	11978.6
577.681	12100.85
578.042	12107.63
578.403	12111.7
578.763	12055.43
579.124	12136.11
579.485	12116.45
579.845	12122.77
580.206	12132.04
580.566	12190.34
580.927	12066.28
581.287	12086.17
581.648	12116.45
582.008	12169.78
582.368	12096.56
582.728	12087.75
583.089	12032.16
583.449	12099.5
583.809	12107.63
584.169	12054.08
584.529	11966.85
584.889	12090.91
585.249	12004.59
585.609	11984.02
585.969	12101.53
586.329	12033.96
586.688	12026.73
587.048	12013.85
587.408	11986.05
587.768	11998.48
588.127	11926.62
588.487	11923.68
588.846	11925.27
589.206	11874.42
589.565	11932.27
589.925	11849.79
590.284	11873.29
590.643	11918.26
591.003	11954.87
591.362	11976.11
591.721	11893.63
592.08	11817.92
592.44	11887.07
592.799	11864.7
593.158	11869.9
593.517	11828.54
593.876	11897.02
594.235	11800.52
594.593	11829.22
594.952	11882.33
595.311	11811.37
595.67	11831.93
596.029	11908.99
596.387	11854.76
596.746	11841.65
597.104	11925.04
597.463	11811.82
597.822	11916.23
598.18	11776.79
598.538	11724.59
598.897	11783.12
599.255	11695.44
599.613	11940.41
599.972	11722.78
600.33	11824.48
600.688	11717.36
601.046	11762.56
601.404	11845.95
601.762	11751.03
602.12	11861.31
602.478	11826.06
602.836	11790.81
603.194	11771.6
603.552	11744.93
603.91	11727.76
604.268	11741.77
604.625	11794.42
604.983	11746.97
605.341	11716.91
605.698	11825.38
606.056	11788.32
606.413	11764.37
606.771	11815.21
607.128	11842.56
607.485	11762.33
607.843	11743.35
608.2	11807.98
608.557	11904.7
608.914	11757.59
609.272	11897.02
609.629	11883.91
609.986	11864.02
610.343	12012.49
610.7	12011.14
611.057	11877.58
611.414	11856.79
611.771	11917.81
612.127	11961.87
612.484	11981.08
612.841	11959.84
613.198	11926.62
613.554	11925.04
613.911	11961.2
614.267	12018.82
614.624	11935.43
614.98	12014.3
615.337	12050.69
615.693	12023.34
616.05	11954.42
616.406	12095.66
616.762	11978.37
617.118	12051.36
617.475	12025.6
617.831	12137.01
618.187	12049.78
618.543	12117.12
618.899	12116.9
619.255	12107.18
619.611	12146.95
619.967	12209.78
620.323	12224.47
620.678	12077.58
621.034	12038.71
621.39	12125.03
621.746	12087.07
622.101	12150.34
622.457	12078.48
622.812	12126.62
623.168	12120.29
623.523	12173.17
623.879	12173.17
624.234	12156.9
624.589	12123.45
624.945	12103.11
625.3	12184.24
625.655	12093.4
626.01	12153.28
626.365	12127.52
626.72	12125.71
627.075	12040.06
627.43	12060.86
627.785	12051.14
628.14	12096.79
628.495	12092.27
628.85	12119.84
629.205	12154.86
629.559	12096.56
629.914	12000.74
630.269	12089.33
630.623	12071.93
630.978	11949.9
631.332	12054.75
631.687	12099.27
632.041	12044.13
632.396	12012.95
632.75	11955.55
633.104	11988.77
633.459	11895.66
633.813	11885.49
634.167	11888.43
634.521	11921.42
634.875	11964.36
635.229	11922.78
635.583	11895.89
635.937	11903.8
636.291	11826.06
636.645	11824.48
636.999	11808.88
637.352	11807.08
637.706	11750.58
638.06	11806.4
638.413	11784.93
638.767	11697.25
639.121	11726.63
639.474	11647.08
639.828	11693.63
640.181	11690.92
640.534	11716.46
640.888	11680.98
641.241	11652.5
641.594	11627.87
641.947	11666.29
642.301	11660.87
642.654	11619.96
643.007	11622.9
643.36	11622.22
643.713	11597.14
644.066	11700.19
644.419	11592.17
644.771	11453.41
645.124	11406.86
645.477	11352.85
645.83	11339.29
646.182	11312.4
646.535	11324.6
646.888	11221.78
647.24	11262.68
647.593	11291.61
647.945	11276.7
648.298	11147.21
648.65	11183.59
649.002	11176.81
649.355	11164.61
649.707	11201.89
650.059	11214.1
650.411	11360.08
650.763	11429.91
651.115	11513.75
651.467	11464.03
651.819	11426.3
652.171	11463.13
652.523	11354.89
652.875	11503.13
653.227	11446.86
653.578	11512.4
653.93	11496.8
654.282	11455.45
654.633	11371.16
654.985	11401.44
655.337	11492.28
655.688	11401.21
656.039	11475.79
656.391	11367.09
656.742	11421.78
657.094	11463.13
657.445	11486.18
657.796	11459.97
658.147	11399.4
658.498	11551.72
658.849	11524.37
659.2	11482.79
659.551	11463.36
659.902	11519.4
660.253	11568.89
660.604	11473.3
660.955	11478.72
661.306	11527.76
661.656	11562.34
662.007	11477.37
662.358	11511.49
662.708	11515.33
663.059	11525.5
663.409	11401.21
663.76	11557.59
664.11	11555.11
664.461	11531.83
664.811	11566.86
665.161	11590.59
665.511	11537.25
665.862	11536.12
666.212	11550.13
666.562	11594.65
666.912	11461.32
667.262	11506.52
667.612	11442.11
667.962	11535.45
668.312	11523.92
668.662	11575.44
669.011	11511.72
669.361	11528.89
669.711	11531.15
670.06	11499.06
670.41	11471.04
670.76	11492.06
671.109	11528.89
671.459	11514.2
671.808	11524.15
672.157	11532.06
672.507	11495.22
672.856	11503.81
673.205	11471.94
673.554	11446.18
673.904	11498.84
674.253	11573.64
674.602	11399.4
674.951	11320.31
675.3	11235.79
675.649	11354.89
675.998	11319.86
676.346	11387.88
676.695	11395.79
677.044	11278.95
677.393	11348.56
677.741	11350.37
678.09	11347.2
678.438	11238.05
678.787	11264.04
679.135	11247.54
679.484	11161.44
679.832	11211.16
680.181	11168.22
680.529	11244.15
680.877	11164.16
681.225	11120.09
681.573	11231.95
681.922	11140.2
682.27	11054.55
682.618	11059.3
682.966	11064.05
683.314	11065.85
683.661	11034.89
684.009	10949.7
684.357	10969.13
684.705	10920.77
685.053	10969.36
685.4	10937.04
685.748	10842.81
686.095	10893.2
686.443	10898.4
686.79	10763.49
687.138	10801.45
687.485	10805.75
687.832	10739.08
688.18	10807.1
688.527	10724.39
688.874	10669.93
689.221	10656.15
689.568	10574.34
689.915	10614.57
690.262	10605.07
690.609	10570.5
690.956	10483.5
691.303	10490.28
691.65	10408.47
691.997	10488.02
692.344	10376.61
692.69	10287.12
693.037	10325.76
693.383	10251.86
693.73	10253.67
694.077	10146.56
694.423	10158.31
694.769	10163.96
695.116	10097.97
695.462	10123.28
695.808	10067.01
696.155	10047.8
696.501	9928.03
696.847	9937.97
697.193	9876.96
697.539	9858.2
697.885	9824.53
698.231	9820.24
698.577	9758.54
698.923	9728.71
699.269	9719
699.614	9584.08
699.96	9610.98
700.306	9594.25
700.651	9600.81
700.997	9575.95
701.342	9504.09
701.688	9486.23
702.033	9423.18
702.379	9403.98
702.724	9437.42
703.069	9433.81
703.415	9361.49
703.76	9333.7
704.105	9286.69
704.45	9273.36
704.795	9200.37
705.14	9142.74
705.485	9183.19
705.83	9116.07
706.175	9134.6
706.52	9046.7
706.865	9058.9
707.209	9021.84
707.554	8913.14
707.899	8956.76
708.243	8916.53
708.588	8919.47
708.932	8866.59
709.277	8840.37
709.621	8825.69
709.966	8797.89
710.31	8829.3
710.654	8703.43
710.998	8754.28
711.342	8744.56
711.687	8704.33
712.031	8624.56
712.375	8688.29
712.719	8606.26
713.063	8602.64
713.407	8648.29
713.75	8599.7
714.094	8617.33
714.438	8551.12
714.782	8550.21
715.125	8479.71
715.469	8520.61
715.812	8439.71
716.156	8427.05
716.499	8411.91
716.843	8445.36
717.186	8332.82
717.53	8388.18
717.873	8413.27
718.216	8401.97
718.559	8358.58
718.902	8312.48
719.246	8371.01
719.589	8267.96
719.932	8261.41
720.275	8316.77
720.617	8355.42
720.96	8270.9
721.303	8246.04
721.646	8289.43
721.989	8263.89
722.331	8300.73
722.674	8272.25
723.016	8259.15
723.359	8259.15
723.701	8271.35
724.044	8208.08
724.386	8142.09
724.729	8217.11
725.071	8163.33
725.413	8195.65
725.755	8142.77
726.097	8129.43
726.439	8054.18
726.782	8074.29
727.124	8205.82
727.465	8179.83
727.807	8156.33
728.149	8098.7
728.491	8093.95
728.833	8129.89
729.175	8052.82
729.516	8094.18
729.858	8117.46
730.199	8100.28
730.541	8038.59
730.882	8084.46
731.224	8124.69
731.565	8025.71
731.906	8061.86
732.248	8074.52
732.589	7987.74
732.93	8008.31
733.271	8003.79
733.612	8016.67
733.953	8068.64
734.294	7997.46
734.635	7985.93
734.976	8073.62
735.317	7978.02
735.658	8027.97
735.999	8039.72
736.339	8093.73
736.68	8049.89
737.021	8028.64
737.361	8034.52
737.702	8084.01
738.042	8088.53
738.383	8088.53
738.723	8084.91
739.063	8065.71
739.404	8134.18
739.744	8076.78
740.084	8152.26
740.424	8135.31
740.764	8130.79
741.104	8122.43
741.444	8207.17
741.784	8114.29
742.124	8227.74
742.464	8196.1
742.804	8210.11
743.143	8231.35
743.483	8246.27
743.823	8202.88
744.162	8266.83
744.502	8341.86
744.841	8314.06
745.181	8389.77
745.52	8365.81
745.86	8456.66
746.199	8490.33
746.538	8524
746.877	8597.9
747.216	8624.56
747.556	8654.17
747.895	8694.84
748.234	8710.21
748.573	8726.25
748.911	8862.75
749.25	8825.91
749.589	8941.39
749.928	9012.57
750.267	9098.67
750.605	9128.05
750.944	9241.49
751.283	9227.94
751.621	9335.73
751.96	9442.84
752.298	9441.26
752.636	9554.25
752.975	9711.54
753.313	9778.2
753.651	9895.26
753.989	9920.35
754.327	9976.16
754.666	10054.13
755.004	10241.69
755.342	10390.16
755.679	10547
756.017	10606.66
756.355	10802.81
756.693	10827.44
757.031	10963.48
757.368	11068.56
757.706	11197.83
758.044	11379.29
758.381	11540.87
758.719	11653.63
759.056	11902.89
759.394	11883.46
759.731	12035.55
760.068	12180.4
760.405	12347.18
760.743	12550.11
761.08	12672.14
761.417	12756.88
761.754	13031.68
762.091	13126.82
762.428	13262.63
762.765	13431.21
763.102	13644.32
763.438	13708.95
763.775	13827.59
764.112	13997.3
764.449	14271.19
764.785	14341.02
765.122	14392.77
765.458	14497.4
765.795	14631.64
766.131	14829.37
766.467	14959.54
766.804	15101.23
767.14	15275.23
767.476	15339.41
767.812	15406.3
768.148	15563.81
768.485	15650.37
768.821	15793.41
769.157	15875.67
769.492	16016.01
769.828	16168.77
770.164	16120.86
770.5	16246.06
770.836	16365.6
771.171	16401.53
771.507	16502.77
771.842	16554.3
772.178	16652.37
772.513	16700.28
772.849	16822.09
773.184	16942.08
773.519	17031.12
773.855	16995.64
774.19	17143.21
774.525	17171.91
774.86	17272.24
775.195	17318.12
775.53	17284.45
775.865	17406.7
776.2	17311.11
776.535	17291
776.87	17394.95
777.205	17378.46
777.539	17410.09
777.874	17589.75
778.209	17423.65
778.543	17538.23
778.878	17478.57
779.212	17482.41
779.547	17470.88
779.881	17523.31
780.215	17525.8
780.55	17620.93
780.884	17575.29
781.218	17537.32
781.552	17573.48
781.886	17554.27
782.22	17498
782.554	17578.45
782.888	17387.72
783.222	17458
783.556	17450.32
783.889	17440.37
784.223	17399.47
784.557	17408.06
784.89	17473.37
785.224	17499.36
785.557	17342.52
785.891	17301.17
786.224	17373.71
786.558	17444.67
786.891	17276.09
787.224	17258.91
787.557	17196.09
787.891	17250.32
788.224	17241.74
788.557	17304.79
788.89	17177.56
789.223	17165.58
789.556	17137.33
789.888	17158.57
790.221	17117.67
790.554	16938.69
790.887	16995.19
791.219	16945.92
791.552	16987.05
791.884	16876.77
792.217	16818.24
792.549	16901.86
792.882	16688.53
793.214	16717.46
793.546	16855.76
793.879	16636.55
794.211	16567.18
794.543	16666.84
794.875	16581.87
795.207	16651.47
795.539	16500.06
795.871	16479.95
796.203	16437.24
796.535	16381.87
796.867	16387.75
797.198	16389.78
797.53	16340.52
797.862	16305.04
798.193	16267.98
798.525	16179.62
798.856	16140.3
799.188	16086.96
799.519	15974.65
799.85	15997.25
800.182	15987.76
800.513	16003.35
800.844	15838.83
801.175	15904.37
801.506	15973.75
801.837	15898.95
802.168	15824.82
802.499	15707.09
802.83	15702.79
803.161	15570.59
803.491	15672.06
803.822	15609.01
804.153	15597.94
804.483	15550.03
804.814	15418.73
805.145	15407.21
805.475	15336.02
805.805	15323.14
806.136	15299.41
806.466	15322.92
806.796	15289.02
807.126	15160.21
807.457	15143.49
807.787	15234.78
808.117	15111.4
808.447	15057.61
808.777	15094.67
809.107	15044.28
809.436	15061.45
809.766	14991.4
810.096	14900.55
810.426	14925.19
810.755	14880.44
811.085	14840.22
811.414	14821.69
811.744	14758.64
812.073	14759.54
812.403	14771.29
812.732	14631.86
813.061	14519.77
813.39	14571.75
813.719	14614.46
814.049	14635.48
814.378	14454.01
814.707	14514.12
815.036	14444.07
815.365	14533.56
815.693	14321.59
816.022	14336.95
816.351	14284.75
816.68	14221.48
817.008	14318.65
817.337	14195.49
817.665	14162.72
817.994	14204.75
818.322	14124.76
818.651	14015.61
818.979	14102.16
819.307	14119.33
819.636	14041.59
819.964	13995.49
820.292	14094.93
820.62	14016.28
820.948	13996.4
821.276	14051.31
821.604	13883.41
821.932	14019.22
822.259	13973.8
822.587	13943.29
822.915	13971.31
823.243	13951.43
823.57	13862.16
823.898	13998.21
824.225	13852.22
824.553	13902.84
824.88	13954.59
825.207	13913.91
825.535	13931.31
825.862	13957.53
826.189	13923.86
826.516	14006.57
826.843	14007.7
827.17	13924.76
827.497	14031.42
827.824	13983.97
828.151	13982.16
828.478	13956.17
828.805	14000.69
829.131	13947.13
829.458	13918.21
829.785	13892.9
830.111	13948.72
830.438	13940.81
830.764	13911.43
831.09	14022.16
831.417	13894.25
831.743	13994.36
832.069	13949.85
832.395	13908.26
832.722	13971.77
833.048	13901.48
833.374	13878.21
833.7	13929.51
834.026	13895.84
834.351	13910.75
834.677	13943.29
835.003	13778.1
835.329	13785.1
835.654	13883.41
835.98	13735.84
836.306	13795.27
836.631	13747.14
836.956	13762.28
837.282	13754.14
837.607	13705.11
837.932	13691.55
838.258	13643.41
838.583	13645.45
838.908	13615.84
839.233	13636.86
839.558	13575.84
839.883	13623.75
840.208	13538.78
840.533	13445.45
840.858	13510.08
841.182	13562.96
841.507	13459.69
841.832	13390.76
842.156	13349.63
842.481	13339.01
842.805	13346.02
843.13	13320.26
843.454	13293.14
843.778	13163.43
844.103	13156.19
844.427	13140.15
844.751	13170.43
845.075	13151.67
845.399	13108.06
845.723	13009.08
846.047	13066.7
846.371	12929.76
846.695	12926.37
847.019	12871.46
847.343	12772.7
847.666	12682.08
847.99	12681.18
848.313	12599.37
848.637	12607.06
848.96	12609.54
849.284	12558.92
849.607	12431.92
849.931	12478.02
850.254	12310.79
850.577	12259.49
850.9	12120.06
851.223	12148.99
851.546	12096.79
851.869	11960.74
852.192	12129.1
852.515	11982.21
852.838	11984.92
853.161	11936.11
853.483	11894.31
853.806	11819.05
854.129	11836.23
854.451	11758.26
854.774	11706.29
855.096	11733.18
855.419	11657.02
855.741	11576.8
856.063	11555.78
856.385	11544.03
856.708	11512.85
857.03	11433.08
857.352	11548.78
857.674	11402.57
857.996	11340.42
858.318	11339.97
858.64	11288.45
858.961	11243.48
859.283	11191.27
859.605	11130.03
859.926	11152.63
860.248	11191.27
860.57	11151.73
860.891	11127.55
861.212	11066.53
861.534	10976.14
861.855	11017.49
862.176	11054.33
862.498	11043.48
862.819	10999.87
863.14	10928.91
863.461	10921.9
863.782	10862.92
864.103	10879.19
864.424	10846.2
864.745	10817.05
865.065	10799.42
865.386	10740.66
865.707	10721.46
866.027	10693.43
866.348	10728.46
866.668	10686.65
866.989	10686.43
867.309	10623.15
867.63	10668.8
867.95	10639.65
868.27	10517.39
868.59	10631.51
868.91	10540.22
869.23	10485.3
869.55	10453.21
869.87	10583.38
870.19	10506.77
870.51	10502.03
870.83	10504.29
871.15	10433.78
871.469	10440.33
871.789	10441.69
872.109	10481.91
872.428	10366.66
872.748	10390.62
873.067	10327.34
873.386	10396.72
873.706	10367.79
874.025	10328.7
874.344	10275.59
874.663	10222.94
874.982	10241.92
875.301	10252.99
875.62	10219.77
875.939	10210.51
876.258	10207.34
876.577	10193.11
876.896	10192.66
877.214	10115.82
877.533	10158.08
877.852	10192.88
878.17	10097.29
878.489	10071.08
878.807	10078.76
879.125	10041.25
879.444	10028.82
879.762	10019.78
880.08	10033.79
880.398	9880.35
880.716	10029.95
881.034	9912.21
881.352	9970.06
881.67	9876.28
881.988	9942.04
882.306	9848.03
882.624	9859.33
882.941	9780.01
883.259	9738.2
883.577	9732.78
883.894	9720.35
884.212	9753.8
884.529	9698.66
884.846	9694.14
885.164	9667.7
885.481	9637.64
885.798	9656.62
886.115	9594.48
886.432	9605.55
886.75	9546.35
887.067	9544.99
887.383	9427.03
887.7	9559.9
888.017	9455.27
888.334	9458.21
888.651	9361.27
888.967	9387.48
889.284	9330.98
889.6	9320.81
889.917	9304.09
890.233	9262.28
890.55	9239.23
890.866	9261.38
891.182	9226.81
891.498	9177.99
891.815	9128.05
892.131	9052.35
892.447	9123.98
892.763	9042.63
893.079	9122.63
893.395	8982.52
893.71	9002.86
894.026	8947.49
894.342	8988.39
894.657	8861.84
894.973	8861.17
895.289	8867.27
895.604	8853.03
895.92	8740.26
896.235	8699.36
896.55	8699.36
896.865	8701.62
897.181	8688.74
897.496	8693.49
897.811	8585.47
898.126	8549.31
898.441	8509.54
898.756	8503.89
899.071	8504.34
899.386	8491.91
899.7	8389.54
900.015	8393.83
900.33	8273.38
900.644	8243.55
900.959	8305.7
901.273	8312.71
901.588	8237.23
901.902	8174.4
902.216	8096.21
902.531	8138.02
902.845	8119.94
903.159	8083.33
903.473	7997.69
903.787	7998.36
904.101	7964.92
904.415	7969.66
904.729	7978.25
905.042	7864.58
905.356	7834.98
905.67	7849.21
905.984	7862.77
906.297	7844.92
906.611	7734.19
906.924	7719.5
907.237	7703.68
907.551	7705.72
907.864	7680.86
908.177	7595.89
908.491	7623.01
908.804	7551.37
909.117	7533.06
909.43	7459.62
909.743	7423.91
910.056	7457.81
910.368	7387.76
910.681	7327.87
910.994	7313.41
911.307	7304.82
911.619	7217.82
911.932	7307.08
912.244	7180.53
912.557	7237.25
912.869	7118.16
913.181	7160.65
913.494	7100.31
913.806	7026.86
914.118	7027.09
914.43	6988.9
914.742	7048.33
915.054	6924.04
915.366	6879.97
915.678	6923.14
915.99	6867.32
916.302	6805.63
916.613	6734.44
916.925	6758.17
917.236	6726.76
917.548	6729.24
917.859	6688.57
918.171	6703.03
918.482	6596.82
918.794	6552.75
919.105	6583.49
919.416	6584.39
919.727	6533.77
920.038	6559.53
920.349	6460.1
920.66	6456.93
920.971	6449.93
921.282	6394.79
921.593	6378.07
921.903	6351.63
922.214	6281.12
922.525	6299.2
922.835	6261.91
923.146	6210.39
923.456	6223.49
923.767	6183.72
924.077	6185.53
924.387	6101.46
924.697	6094.46
925.008	6131.29
925.318	6037.06
925.628	6061.24
925.938	6011.52
926.248	6004.74
926.558	5918.19
926.867	5920.45
927.177	5934.91
927.487	5862.6
927.796	5862.83
928.106	5847.46
928.416	5855.14
928.725	5796.84
929.034	5794.13
929.344	5723.62
929.653	5755.26
929.962	5665.77
930.271	5686.11
930.581	5642.94
930.89	5629.39
931.199	5586.9
931.508	5580.35
931.817	5620.35
932.125	5522.04
932.434	5535.15
932.743	5466.68
933.051	5480.46
933.36	5465.1
933.669	5384.19
933.977	5380.58
934.286	5380.8
934.594	5323.63
934.902	5286.12
935.21	5291.09
935.519	5270.53
935.827	5260.58
936.135	5236.18
936.443	5195.05
936.751	5208.61
937.059	5205.89
937.367	5150.98
937.674	5177.65
937.982	5147.82
938.29	5108.04
938.597	5109.17
938.905	5071.43
939.213	5002.51
939.52	5002.96
939.827	4979.46
940.135	4995.28
940.442	4986.01
940.749	4905.34
941.056	4932.23
941.363	4911.21
941.67	4876.41
941.977	4810.2
942.284	4793.48
942.591	4751.89
942.898	4790.76
943.205	4786.02
943.511	4760.26
943.818	4750.31
944.125	4688.62
944.431	4716.64
944.738	4665.57
945.044	4641.84
945.35	4604.1
945.657	4602.52
945.963	4578.34
946.269	4562.75
946.575	4562.97
946.881	4546.02
947.187	4548.96
947.493	4487.72
947.799	4454.95
948.105	4473.94
948.41	4400.94
948.716	4455.63
949.022	4411.11
949.327	4413.82
949.633	4320.95
949.938	4348.74
950.244	4325.69
950.549	4283.21
950.854	4259.7
951.16	4281.4
951.465	4227.16
951.77	4224.9
952.075	4153.72
952.38	4188.75
952.685	4168.86
952.99	4104.23
953.294	4160.27
953.599	4119.14
953.904	4067.17
954.209	4064.46
954.513	4056.32
954.818	4001.86
955.122	4003.21
955.426	4008.86
955.731	3939.49
956.035	3970.9
956.339	3972.48
956.643	3983.78
956.948	3916.89
957.252	3880.05
957.556	3920.05
957.86	3902.43
958.163	3860.39
958.467	3857.68
958.771	3874.63
959.075	3819.72
959.378	3780.85
959.682	3782.88
959.985	3764.58
960.289	3766.84
960.592	3738.81
960.896	3735.65
961.199	3714.86
961.502	3655.43
961.805	3700.62
962.108	3645.71
962.411	3666.5
962.714	3659.49
963.017	3636.44
963.32	3604.13
963.623	3599.38
963.926	3589.44
964.228	3514.19
964.531	3538.59
964.833	3555.99
965.136	3509.67
965.438	3459.73
965.741	3423.79
966.043	3473.96
966.345	3386.28
966.648	3445.94
966.95	3431.93
967.252	3418.14
967.554	3393.06
967.856	3378.15
968.158	3373.85
968.46	3368.43
968.761	3325.72
969.063	3326.4
969.365	3311.25
969.666	3269.45
969.968	3253.4
970.269	3243.91
970.571	3255.21
970.872	3244.36
971.174	3197.59
971.475	3200.52
971.776	3167.08
972.077	3158.26
972.378	3138.38
972.679	3200.07
972.98	3141.54
973.281	3144.48
973.582	3094.76
973.883	3101.32
974.183	3073.97
974.484	3081.2
974.785	3036.46
975.085	3057.02
975.386	3009.34
975.686	3066.29
975.986	3011.38
976.287	2963.02
976.587	2923.69
976.887	2956.01
977.187	2950.36
977.487	2923.47
977.787	2899.29
978.087	2918.95
978.387	2874.66
978.687	2895.45
978.987	2870.81
979.286	2839.4
979.586	2837.59
979.885	2850.02
980.185	2816.8
980.484	2819.97
980.784	2798.27
981.083	2809.57
981.382	2745.62
981.682	2751.95
981.981	2743.59
982.28	2752.63
982.579	2696.13
982.878	2700.88
983.177	2690.48
983.475	2699.97
983.774	2640.99
984.073	2643.48
984.372	2643.48
984.67	2656.58
984.969	2597.15
985.267	2589.69
985.566	2605.06
985.864	2564.16
986.162	2564.16
986.461	2594.44
986.759	2565.06
987.057	2520.32
987.355	2506.53
987.653	2541.56
987.951	2506.98
988.249	2498.39
988.547	2489.58
988.844	2474.89
989.142	2451.39
989.44	2418.4
989.737	2417.04
990.035	2393.54
990.332	2411.17
990.63	2369.81
990.927	2380.66
991.224	2408
991.521	2377.27
991.819	2376.59
992.116	2342.24
992.413	2351.28
992.71	2312.64
993.006	2320.32
993.303	2304.28
993.6	2305.63
993.897	2293.65
994.193	2285.74
994.49	2278.29
994.787	2251.85
995.083	2221.11
995.379	2212.53
995.676	2202.58
995.972	2226.31
996.268	2205.3
996.565	2171.4
996.861	2170.49
997.157	2164.84
997.453	2139.08
997.749	2157.84
998.044	2114.22
998.34	2115.35
998.636	2119.65
998.932	2107.9
999.227	2103.38
999.523	2068.12
999.818	2030.38
1000.114	2034.68
1000.409	2035.81
1000.704	2024.06
1001	2017.96
1001.295	2028.8
1001.59	2012.76
1001.885	2027.45
1002.18	2007.33
1002.475	1978.18
1002.77	1975.24
1003.065	1957.62
1003.359	1940.22
1003.654	1941.12
1003.949	1898.18
1004.243	1902.48
1004.538	1873.1
1004.832	1883.27
1005.127	1853.44
1005.421	1906.09
1005.715	1856.15
1006.009	1828.81
1006.304	1808.24
1006.598	1837.85
1006.892	1783.39
1007.186	1804.85
1007.48	1816.15
1007.773	1758.98
1008.067	1787.23
1008.361	1791.75
1008.655	1741.8
1008.948	1762.14
1009.242	1748.13
1009.535	1758.75
1009.829	1735.25
1010.122	1718.3
1010.415	1725.53
1010.708	1692.99
1011.001	1680.79
1011.295	1658.87
1011.588	1635.59
1011.881	1638.98
1012.173	1636.27
1012.466	1627.01
1012.759	1575.03
1013.052	1619.77
1013.344	1580
1013.637	1612.09
1013.93	1574.8
1014.222	1582.49
1014.514	1537.74
1014.807	1561.24
1015.099	1542.26
1015.391	1557.85
1015.683	1547.91
1015.976	1519.89
1016.268	1499.1
1016.56	1489.83
1016.851	1509.49
1017.143	1491.87
1017.435	1473.56
1017.727	1463.39
1018.018	1466.33
1018.31	1453.45
1018.602	1454.13
1018.893	1423.85
1019.185	1407.8
1019.476	1438.54
1019.767	1391.76
1020.058	1385.88
1020.35	1385.66
1020.641	1367.58
1020.932	1342.72
1021.223	1368.71
1021.514	1369.16
1021.804	1336.84
1022.095	1330.06
1022.386	1344.98
1022.677	1342.49
1022.967	1289.39
1023.258	1281.93
1023.548	1287.81
1023.839	1273.79
1024.129	1263.4
1024.419	1254.59
1024.709	1255.94
1025	1246.45
1025.29	1233.12
1025.58	1243.51
1025.87	1214.81
1026.16	1223.17
1026.449	1204.42
1026.739	1194.7
1027.029	1198.54
1027.319	1184.08
1027.608	1166.45
1027.898	1181.37
1028.187	1154.02
1028.477	1147.02
1028.766	1153.8
1029.055	1160.12
1029.344	1160.35
1029.634	1138.88
1029.923	1104.76
1030.212	1089.62
1030.501	1118.32
1030.79	1108.15
1031.078	1101.82
1031.367	1085.55
1031.656	1078.32
1031.945	1070.18
1032.233	1047.81
1032.522	1080.8
1032.81	1040.35
1033.099	1021.82
1033.387	1022.28
1033.675	1022.95
1033.963	1023.18
1034.251	1010.3
1034.54	1016.4
1034.828	980.02
1035.116	976.85
1035.403	1000.13
1035.691	995.16
1035.979	1014.37
1036.267	963.07
1036.554	965.33
1036.842	943.63
1037.129	941.37
1037.417	944.31
1037.704	947.25
1037.992	928.49
1038.279	933.01
1038.566	922.84
1038.853	922.84
1039.14	922.84
