Data from hue_120_FLMS001491_00035.txt Node
Date: Tue Feb 07 16:59:17 GMT 2017
User: dcchb
Spectrometer: FLMS00149
Trigger mode: 0
Integration Time (sec): 2.000000E-2
Scans to average: 10
Electric dark correction enabled: true
Nonlinearity correction enabled: false
Boxcar width: 0
XAxis mode: Wavelengths
Number of Pixels in Spectrum: 2048
>>>>>Begin Spectral Data<<<<<
341.393	-18.33
341.776	-18.33
342.16	-18.33
342.543	-47.03
342.927	-54.04
343.31	-48.16
343.693	-65.11
344.077	-70.31
344.46	-52.46
344.843	-68.5
345.226	-41.38
345.61	-42.29
345.993	-15.85
346.376	-0.93
346.759	5.62
347.142	23.7
347.525	23.93
347.908	72.74
348.291	67.09
348.674	93.3
349.057	118.61
349.44	134.66
349.823	147.76
350.206	172.4
350.588	194.32
350.971	202.23
351.354	236.35
351.737	237.48
352.119	257.14
352.502	271.6
352.884	279.51
353.267	270.93
353.65	280.64
354.032	304.37
354.414	311.15
354.797	331.94
355.179	319.96
355.562	327.87
355.944	338.49
356.326	329.68
356.709	333.97
357.091	334.2
357.473	360.87
357.855	343.69
358.238	340.53
358.62	331.71
359.002	331.26
359.384	345.95
359.766	349.57
360.148	335.56
360.53	331.94
360.912	327.65
361.294	324.48
361.676	324.71
362.057	330.36
362.439	346.18
362.821	341.66
363.203	329.23
363.584	341.43
363.966	335.33
364.348	323.35
364.729	331.04
365.111	348.21
365.493	343.24
365.874	306.4
366.256	311.15
366.637	313.18
367.019	320.64
367.4	341.88
367.781	338.49
368.163	325.61
368.544	319.74
368.925	308.66
369.306	341.43
369.688	327.87
370.069	322.68
370.45	316.35
370.831	308.66
371.212	338.72
371.593	327.87
371.974	336.91
372.355	327.19
372.736	335.33
373.117	317.25
373.498	338.27
373.879	318.16
374.26	335.1
374.641	318.16
375.021	325.16
375.402	332.39
375.783	323.13
376.163	337.14
376.544	338.49
376.925	349.34
377.305	349.79
377.686	335.78
378.066	319.51
378.447	352.96
378.827	330.13
379.208	342.79
379.588	331.94
379.968	357.7
380.349	343.69
380.729	336.46
381.109	326.97
381.489	335.56
381.87	333.75
382.25	322.68
382.63	364.93
383.01	336.91
383.39	338.27
383.77	353.41
384.15	332.17
384.53	365.84
384.91	345.95
385.29	349.79
385.67	340.3
386.049	364.26
386.429	369.68
386.809	362.9
387.189	380.3
387.568	352.28
387.948	359.51
388.328	379.17
388.707	383.24
389.087	380.07
389.466	365.61
389.846	355.22
390.225	376.91
390.605	381.66
390.984	359.74
391.363	364.26
391.743	391.6
392.122	380.75
392.501	371.26
392.881	404.03
393.26	387.98
393.639	395.44
394.018	384.82
394.397	381.66
394.776	394.99
395.155	384.59
395.534	396.57
395.913	397.48
396.292	405.61
396.671	390.7
397.05	395.22
397.429	388.44
397.808	400.41
398.186	416.23
398.565	413.97
398.944	422.33
399.323	423.92
399.701	409
400.08	403.12
400.458	436.34
400.837	414.2
401.215	413.75
401.594	418.94
401.972	440.41
402.351	387.53
402.729	441.99
403.107	442.45
403.486	439.96
403.864	441.99
404.242	426.4
404.62	426.85
404.999	428.44
405.377	451.03
405.755	467.3
406.133	455.33
406.511	460.3
406.889	455.78
407.267	431.37
407.645	465.04
408.023	465.5
408.401	485.61
408.779	473.41
409.156	477.47
409.534	446.74
409.912	484.25
410.29	473.63
410.667	474.08
411.045	463.69
411.422	477.02
411.8	497.13
412.178	484.48
412.555	519.51
412.933	508.88
413.31	507.98
413.687	520.86
414.065	493.29
414.442	515.44
414.819	513.63
415.197	510.92
415.574	534.65
415.951	535.32
416.328	556.57
416.705	546.4
417.082	523.12
417.46	542.56
417.837	568.54
418.214	555.89
418.591	547.98
418.967	532.16
419.344	557.47
419.721	567.41
420.098	531.03
420.475	545.95
420.852	572.16
421.228	578.04
421.605	569
421.982	587.07
422.358	597.24
422.735	593.18
423.111	613.29
423.488	598.37
423.864	603.12
424.241	587.98
424.617	596.57
424.994	586.62
425.37	627.75
425.746	625.04
426.123	616
426.499	634.31
426.875	625.04
427.251	632.5
427.627	645.15
428.003	674.76
428.379	637.92
428.756	679.5
429.132	656.9
429.507	674.3
429.883	680.63
430.259	682.89
430.635	705.72
431.011	707.07
431.387	700.07
431.763	726.96
432.138	717.24
432.514	732.16
432.89	737.13
433.265	746.39
433.641	724.47
434.016	762.89
434.392	760.63
434.767	767.18
435.143	768.77
435.518	771.25
435.894	788.2
436.269	797.24
436.644	795.43
437.02	820.74
437.395	802.89
437.77	836.79
438.145	844.02
438.52	818.71
438.895	848.09
439.271	820.97
439.646	836.11
440.021	863.68
440.395	876.11
440.77	834.75
441.145	849.44
441.52	852.15
441.895	886.73
442.27	889.44
442.645	885.6
443.019	899.61
443.394	900.29
443.769	915.88
444.143	915.88
444.518	932.38
444.892	910.46
445.267	925.6
445.641	919.04
446.016	957.46
446.39	947.97
446.764	958.59
447.139	944.58
447.513	973.96
447.887	943.9
448.262	987.74
448.636	985.26
449.01	990.68
449.384	1036.55
449.758	997.46
450.132	1017.35
450.506	1014.86
450.88	1032.26
451.254	1040.17
451.628	1058.02
452.002	1050.79
452.376	1061.19
452.75	1086.5
453.123	1085.59
453.497	1094.86
453.871	1115.65
454.244	1084.24
454.618	1116.1
454.992	1140.05
455.365	1123.78
455.739	1146.83
456.112	1188.87
456.486	1187.51
456.859	1191.35
457.232	1201.07
457.606	1207.17
457.979	1219.83
458.352	1254.63
458.725	1269.54
459.099	1282.65
459.472	1291.01
459.845	1319.94
460.218	1321.97
460.591	1342.99
460.964	1335.53
461.337	1362.65
461.71	1413.95
462.083	1432.48
462.456	1395.19
462.829	1422.76
463.201	1469.76
463.574	1470.89
463.947	1476.09
464.32	1530.78
464.692	1524
465.065	1547.28
465.438	1600.38
465.81	1600.61
466.183	1606.71
466.555	1653.94
466.928	1679.93
467.3	1685.35
467.672	1705.92
468.045	1742.07
468.417	1785.69
468.789	1803.31
469.161	1820.26
469.534	1869.3
469.906	1894.16
470.278	1909.75
470.65	1923.54
471.022	2012.35
471.394	2030.43
471.766	2040.37
472.138	2086.7
472.51	2139.12
472.882	2193.13
473.253	2233.36
473.625	2257.54
473.997	2337.76
474.369	2389.29
474.74	2409.17
475.112	2461.15
475.484	2508.38
475.855	2591.54
476.227	2605.78
476.598	2672.9
476.97	2733.23
477.341	2826.11
477.713	2897.97
478.084	2910.63
478.455	3020.91
478.827	3081.47
479.198	3197.4
479.569	3259.55
479.94	3364.18
480.311	3391.3
480.682	3530.5
481.053	3654.11
481.424	3739.76
481.795	3814.11
482.166	3908.57
482.537	3998.96
482.908	4123.48
483.279	4235.79
483.65	4386.52
484.021	4478.72
484.391	4534.09
484.762	4627.65
485.133	4733.63
485.503	4901.31
485.874	5024.47
486.244	5147.18
486.615	5250.91
486.985	5379.27
487.356	5534.97
487.726	5629.2
488.097	5824.68
488.467	5907.16
488.837	6105.35
489.207	6241.39
489.578	6373.14
489.948	6534.72
490.318	6674.15
490.688	6710.98
491.058	6970.41
491.428	7084.53
491.798	7181.48
492.168	7406.33
492.538	7520.23
492.908	7621.24
493.278	7825.3
493.648	7905.53
494.017	8083.38
494.387	8198.63
494.757	8304.16
495.126	8459.86
495.496	8568.33
495.866	8745.5
496.235	8950.92
496.605	9040.86
496.974	9146.17
497.344	9245.38
497.713	9377.35
498.082	9578.93
498.452	9668.19
498.821	9728.3
499.19	9867.28
499.559	9940.95
499.928	10070.22
500.298	10104.34
500.667	10295.29
501.036	10291.68
501.405	10535.29
501.774	10626.81
502.143	10672.91
502.512	10791.1
502.88	10944.32
503.249	10889.63
503.618	11087.59
503.987	11132.56
504.356	11293.01
504.724	11345.89
505.093	11373.91
505.462	11421.82
505.83	11521.25
506.199	11708.82
506.567	11791.53
506.936	11838.98
507.304	12005.53
507.672	12000.79
508.041	12089.82
508.409	12096.15
508.777	12311.96
509.145	12334.11
509.514	12308.12
509.882	12456.37
510.25	12454.11
510.618	12615.23
510.986	12632.63
511.354	12750.14
511.722	12803.7
512.09	12967.09
512.458	12889.35
512.826	13048.89
513.193	13055
513.561	13037.37
513.929	13171.6
514.297	13273.3
514.664	13323.46
515.032	13356
515.4	13423.57
515.767	13450.92
516.135	13585.15
516.502	13487.75
516.869	13673.96
517.237	13629.67
517.604	13579.73
517.972	13636.9
518.339	13703.79
518.706	13803.68
519.073	13781.76
519.44	13852.71
519.808	13843.22
520.175	13958.02
520.542	14068.75
520.909	14113.27
521.276	14078.47
521.643	14156.66
522.009	14257.9
522.376	14320.95
522.743	14221.52
523.11	14423.1
523.477	14429.2
523.843	14429.42
524.21	14552.81
524.577	14663.99
524.943	14534.96
525.31	14678.68
525.676	14686.37
526.043	14752.13
526.409	14808.17
526.776	14888.85
527.142	14778.57
527.508	14901.05
527.874	14995.96
528.241	14986.7
528.607	14986.7
528.973	14970.2
529.339	14890.65
529.705	15111.66
530.071	15080.71
530.437	15150.53
530.803	15131.55
531.169	15132.91
531.535	15009.97
531.901	15056.75
532.267	15148.05
532.632	15069.18
532.998	15148.27
533.364	15094.49
533.73	15163.19
534.095	15150.53
534.461	15042.06
534.826	15091.1
535.192	15086.81
535.557	15154.6
535.923	15101.04
536.288	15160.93
536.653	15031.21
537.019	14995.28
537.384	14962.97
537.749	15105.34
538.114	14981.95
538.479	14955.06
538.845	15008.39
539.21	14922.29
539.575	14884.55
539.94	14880.26
540.305	14910.99
540.67	14865.12
541.034	14838.23
541.399	14892.46
541.764	14768.4
542.129	14797.77
542.494	14755.74
542.858	14787.15
543.223	14716.42
543.587	14744.44
543.952	14630.1
544.316	14537.44
544.681	14432.59
545.045	14588.06
545.41	14482.3
545.774	14563.66
546.138	14564.79
546.503	14411.12
546.867	14358.69
547.231	14412.25
547.595	14386.49
547.959	14342.42
548.324	14361.63
548.688	14307.39
549.052	14243.67
549.416	14252.25
549.779	14310.56
550.143	14240.73
550.507	14247.96
550.871	14252.48
551.235	14075.99
551.599	14182.2
551.962	14178.36
552.326	14089.09
552.689	14227.39
553.053	13936.78
553.417	13958.02
553.78	14137.45
554.143	14023.33
554.507	14038.25
554.87	14010.68
555.234	14046.83
555.597	13919.83
555.96	13928.19
556.323	13964.35
556.686	13873.96
557.05	14023.78
557.413	13986.04
557.776	13948.08
558.139	13995.31
558.502	13813.62
558.865	13916.67
559.228	13917.57
559.59	13977.68
559.953	13928.65
560.316	14073.73
560.679	13898.82
561.041	13997.57
561.404	13995.08
561.767	13991.02
562.129	13929.77
562.492	14101.07
562.854	13999.83
563.217	13960.73
563.579	14000.96
563.941	14053.16
564.304	14045.03
564.666	14142.65
565.028	14066.27
565.39	14152.82
565.753	14104.01
566.115	14142.88
566.477	14204.57
566.839	14195.53
567.201	14259.94
567.563	14301.52
567.925	14321.63
568.287	14329.31
568.648	14169.32
569.01	14275.08
569.372	14393.72
569.734	14180.39
570.095	14423.1
570.457	14414.28
570.819	14310.78
571.18	14319.37
571.542	14456.31
571.903	14459.25
572.265	14490.66
572.626	14337.45
572.987	14410.44
573.349	14507.84
573.71	14515.52
574.071	14533.15
574.432	14560.27
574.794	14616.76
575.155	14538.8
575.516	14529.08
575.877	14522.53
576.238	14524.56
576.599	14677.33
576.96	14642.75
577.32	14466.26
577.681	14637.55
578.042	14667.83
578.403	14603.66
578.763	14558.91
579.124	14672.81
579.485	14608.85
579.845	14652.47
580.206	14642.75
580.566	14621.51
580.927	14628.74
581.287	14650.43
581.648	14656.31
582.008	14704.9
582.368	14684.33
582.728	14642.75
583.089	14679.13
583.449	14566.82
583.809	14649.3
584.169	14683.65
584.529	14652.69
584.889	14753.03
585.249	14510.32
585.609	14567.27
585.969	14656.08
586.329	14584.9
586.688	14574.5
587.048	14528.86
587.408	14540.83
587.768	14522.53
588.127	14526.37
588.487	14515.3
588.846	14619.47
589.206	14492.25
589.565	14519.82
589.925	14559.81
590.284	14443.43
590.643	14489.99
591.003	14558.23
591.362	14586.25
591.721	14515.97
592.08	14456.54
592.44	14530.21
592.799	14469.87
593.158	14421.97
593.517	14386.49
593.876	14485.24
594.235	14475.52
594.593	14414.06
594.952	14447.73
595.311	14421.06
595.67	14298.8
596.029	14525.01
596.387	14497.9
596.746	14391.23
597.104	14341.52
597.463	14339.03
597.822	14464.22
598.18	14351.23
598.538	14273.49
598.897	14423.32
599.255	14249.54
599.613	14436.88
599.972	14403.21
600.33	14426.26
600.688	14323.21
601.046	14409.76
601.404	14477.33
601.762	14436.2
602.12	14420.61
602.478	14372.48
602.836	14355.75
603.194	14281.4
603.552	14498.12
603.91	14379.71
604.268	14483.21
604.625	14385.36
604.983	14448.41
605.341	14256.55
605.698	14465.35
606.056	14402.08
606.413	14376.54
606.771	14442.3
607.128	14404.11
607.485	14376.32
607.843	14360.5
608.2	14438.91
608.557	14385.81
608.914	14431.46
609.272	14465.13
609.629	14511.23
609.986	14517.1
610.343	14518.01
610.7	14591.23
611.057	14505.81
611.414	14505.81
611.771	14471
612.127	14638.46
612.484	14509.19
612.841	14682.52
613.198	14613.6
613.554	14527.5
613.911	14649.76
614.267	14677.78
614.624	14699.7
614.98	14746.93
615.337	14788.06
615.693	14720.94
616.05	14707.38
616.406	14782.41
616.762	14739.47
617.118	14805.91
617.475	14726.59
617.831	14767.72
618.187	14785.12
618.543	14808.62
618.899	14822.63
619.255	14852.46
619.611	14748.51
619.967	14794.39
620.323	14821.5
620.678	14770.66
621.034	14842.97
621.39	14800.71
621.746	14809.3
622.101	15056.75
622.457	14817.21
622.812	14776.08
623.168	14850.65
623.523	14834.84
623.879	14930.88
624.234	14755.06
624.589	14885.46
624.945	14896.76
625.3	14940.37
625.655	14834.61
626.01	14828.51
626.365	14894.27
626.72	14844.55
627.075	14874.16
627.43	14828.51
627.785	14755.97
628.14	14788.06
628.495	14912.12
628.85	14821.05
629.205	14785.57
629.559	14845.46
629.914	14722.3
630.269	14801.62
630.623	14752.8
630.978	14672.13
631.332	14729.08
631.687	14795.29
632.041	14747.38
632.396	14722.75
632.75	14627.61
633.104	14731.34
633.459	14693.6
633.813	14640.94
634.167	14584
634.521	14551.91
634.875	14685.69
635.229	14591.45
635.583	14536.54
635.937	14470.78
636.291	14570.44
636.645	14474.17
636.999	14444.11
637.352	14541.74
637.706	14406.15
638.06	14442.3
638.413	14414.96
638.767	14379.25
639.121	14424.23
639.474	14348.97
639.828	14311.23
640.181	14404.56
640.534	14386.03
640.888	14304
641.241	14272.82
641.594	14202.76
641.947	14276.21
642.301	14230.78
642.654	14338.13
643.007	14259.26
643.36	14206.15
643.713	14186.04
644.066	14198.24
644.419	14120.73
644.771	14010
645.124	13962.32
645.477	13968.19
645.83	13784.92
646.182	13738.59
646.535	13787.41
646.888	13828.76
647.24	13715.77
647.593	13861.98
647.945	13702.89
648.298	13662.89
648.65	13594.19
649.002	13641.87
649.355	13744.47
649.707	13705.6
650.059	13806.16
650.411	13970
650.763	13888.19
651.115	14041.86
651.467	13958.25
651.819	14055.65
652.171	14014.52
652.523	13938.36
652.875	13937.23
653.227	13906.27
653.578	14027.63
653.93	13911.02
654.282	13928.19
654.633	13909.21
654.985	13932.49
655.337	14013.16
655.688	13940.62
656.039	14037.12
656.391	13867.86
656.742	13898.36
657.094	13923
657.445	14035.99
657.796	14021.07
658.147	14021.75
658.498	13937.23
658.849	13975.88
659.2	14066.49
659.551	13934.29
659.902	14019.26
660.253	13972.03
660.604	13965.25
660.955	13983.56
661.306	13942.43
661.656	13976.1
662.007	13996.67
662.358	13957.12
662.708	14032.82
663.059	14019.94
663.409	13930.23
663.76	14051.35
664.11	13985.37
664.461	13988.53
664.811	14119.6
665.161	14003.67
665.511	13930.68
665.862	14127.28
666.212	14032.82
666.562	14018.59
666.912	14021.75
667.262	14055.87
667.612	14025.82
667.962	14034.4
668.312	13973.16
668.662	14052.48
669.011	14040.05
669.361	14030.34
669.711	14027.63
670.06	14002.54
670.41	13963.67
670.76	13998.93
671.109	14050.45
671.459	13978.81
671.808	13885.93
672.157	13933.16
672.507	13873.96
672.856	13904.92
673.205	13981.98
673.554	14025.37
673.904	13889.55
674.253	13945.14
674.602	13903.11
674.951	13695.88
675.3	13740.18
675.649	13832.83
675.998	13892.49
676.346	13764.58
676.695	13899.95
677.044	13711.48
677.393	13710.8
677.741	13864.01
678.09	13689.33
678.438	13715.54
678.787	13712.15
679.135	13670.35
679.484	13529.56
679.832	13672.61
680.181	13553.97
680.529	13595.09
680.877	13457.7
681.225	13526.85
681.573	13660.63
681.922	13439.39
682.27	13507.19
682.618	13527.98
682.966	13422.67
683.314	13539.73
683.661	13384.93
684.009	13319.85
684.357	13287.08
684.705	13306.97
685.053	13363.69
685.4	13333.63
685.748	13248.44
686.095	13160.98
686.443	13174.77
686.79	13118.72
687.138	13144.71
687.485	13094.99
687.832	13085.05
688.18	13118.72
688.527	13026.75
688.874	12965.96
689.221	12928.9
689.568	12924.6
689.915	12889.8
690.262	12834.21
690.609	12795.57
690.956	12779.3
691.303	12748.34
691.65	12645.74
691.997	12664.95
692.344	12579.75
692.69	12592.63
693.037	12516.7
693.383	12422.47
693.73	12435.58
694.077	12368.23
694.423	12401
694.769	12274
695.116	12324.85
695.462	12349.25
695.808	12239.42
696.155	12233.77
696.501	12140.9
696.847	12142.03
697.193	12023.61
697.539	12065.87
697.885	11965.08
698.231	11879.21
698.577	11861.58
698.923	11872.65
699.269	11791.07
699.614	11808.02
699.96	11696.84
700.306	11769.38
700.651	11577.07
700.997	11689.61
701.342	11593.11
701.688	11597.18
702.033	11447.58
702.379	11496.84
702.724	11412.55
703.069	11449.84
703.415	11289.39
703.76	11309.28
704.105	11280.58
704.45	11251.43
704.795	11167.59
705.14	11155.84
705.485	11177.3
705.83	11035.39
706.175	11148.15
706.52	11089.17
706.865	10998.55
707.209	10995.61
707.554	10946.58
707.899	11001.72
708.243	10825.9
708.588	10874.71
708.932	10829.52
709.277	10746.58
709.621	10800.37
709.966	10748.62
710.31	10720.82
710.654	10657.32
710.998	10657.32
711.342	10660.71
711.687	10644.44
712.031	10536.19
712.375	10475.4
712.719	10531.22
713.063	10560.15
713.407	10516.98
713.75	10400.15
714.094	10498.68
714.438	10400.83
714.782	10406.25
715.125	10348.85
715.469	10345.91
715.812	10305.46
716.156	10293.49
716.499	10304.33
716.843	10241.28
717.186	10304.56
717.53	10282.19
717.873	10272.24
718.216	10243.54
718.559	10200.38
718.902	10175.07
719.246	10192.02
719.589	10110.44
719.932	10061.18
720.275	10106.15
720.617	10055.75
720.96	10086.49
721.303	10085.13
721.646	10094.62
721.989	10071.12
722.331	9975.08
722.674	10037.9
723.016	10026.6
723.359	9999.26
723.701	9943.89
724.044	9995.64
724.386	9927.39
724.729	9962.42
725.071	10014.17
725.413	9919.03
725.755	9972.14
726.097	9862.76
726.439	9887.17
726.782	9874.97
727.124	9894.85
727.465	9832.93
727.807	9839.71
728.149	9775.53
728.491	9865.93
728.833	9876.55
729.175	9792.71
729.516	9793.16
729.858	9762.65
730.199	9769.43
730.541	9800.62
730.882	9763.56
731.224	9776.89
731.565	9738.7
731.906	9741.18
732.248	9761.07
732.589	9705.03
732.93	9762.2
733.271	9709.32
733.612	9753.39
733.953	9674.52
734.294	9751.58
734.635	9689.21
734.976	9743.9
735.317	9714.97
735.658	9720.85
735.999	9729.89
736.339	9666.38
736.68	9711.81
737.021	9762.43
737.361	9728.53
737.702	9784.8
738.042	9780.28
738.383	9769.21
738.723	9784.35
739.063	9723.11
739.404	9801.52
739.744	9750.22
740.084	9794.74
740.424	9725.59
740.764	9896.89
741.104	9820.28
741.444	9741.64
741.784	9774.4
742.124	9874.06
742.464	9822.31
742.804	9889.43
743.143	9860.05
743.483	9915.19
743.823	9881.97
744.162	9923.78
744.502	9954.96
744.841	9964.68
745.181	10029.31
745.52	9988.18
745.86	10157.44
746.199	10118.12
746.538	10117.45
746.877	10212.36
747.216	10225.01
747.556	10273.83
747.895	10375.74
748.234	10341.17
748.573	10408.06
748.911	10462.75
749.25	10506.36
749.589	10542.07
749.928	10708.16
750.267	10756.07
750.605	10862.96
750.944	10834.72
751.283	10973.92
751.621	10984.54
751.96	11039.23
752.298	11143.18
752.636	11230.18
752.975	11273.57
753.313	11333.69
753.651	11576.39
753.989	11579.33
754.327	11569.16
754.666	11788.81
755.004	11825.2
755.342	12060.45
755.679	12138.86
756.017	12220.67
756.355	12389.93
756.693	12443.71
757.031	12629.47
757.368	12786.08
757.706	12981.1
758.044	13003.47
758.381	13185.16
758.719	13337.93
759.056	13558.03
759.394	13621.53
759.731	13737.24
760.068	13998.47
760.405	14100.17
760.743	14267.39
761.08	14439.37
761.417	14539.02
761.754	14752.13
762.091	14841.62
762.428	15085.68
762.765	15093.81
763.102	15378.78
763.438	15475.27
763.775	15652.44
764.112	15769.27
764.449	15908.93
764.785	16141.69
765.122	16233.22
765.458	16262.37
765.795	16517.5
766.131	16624.39
766.467	16780.1
766.804	16892.41
767.14	16959.75
767.476	17125.62
767.812	17238.39
768.148	17430.02
768.485	17486.74
768.821	17589.11
769.157	17719.05
769.492	17798.37
769.828	18001.53
770.164	18035.66
770.5	18063
770.836	18161.3
771.171	18302.32
771.507	18384.12
771.842	18394.29
772.178	18503.67
772.513	18666.83
772.849	18666.15
773.184	18672.7
773.519	18849.42
773.855	18853.49
774.19	18863.43
774.525	18990.21
774.86	19052.8
775.195	19156.76
775.53	19127.83
775.865	19152.91
776.2	19054.84
776.535	19176.64
776.87	19225.45
777.205	19215.96
777.539	19207.83
777.874	19280.14
778.209	19221.84
778.543	19411.44
778.878	19320.37
779.212	19276.53
779.547	19357.43
779.881	19421.16
780.215	19366.92
780.55	19466.13
780.884	19379.8
781.218	19429.74
781.552	19433.13
781.886	19317.66
782.22	19372.12
782.554	19382.06
782.888	19364.66
783.222	19254.83
783.556	19268.84
783.889	19257.77
784.223	19180.71
784.557	19256.19
784.89	19221.16
785.224	19103.65
785.557	19221.16
785.891	19111.56
786.224	19108.62
786.558	19096.42
786.891	19130.09
787.224	19014.61
787.557	18949.53
787.891	18915.86
788.224	18956.99
788.557	18922.41
788.89	18984.33
789.223	18958.34
789.556	18825.92
789.888	18870.89
790.221	18745.69
790.554	18724.68
790.887	18645.13
791.219	18711.12
791.552	18634.06
791.884	18637.67
792.217	18622.31
792.549	18572.82
792.882	18396.55
793.214	18324.69
793.546	18486.27
793.879	18317.68
794.211	18173.96
794.543	18347.51
794.875	18248.08
795.207	18282.43
795.539	18293.95
795.871	18152.26
796.203	18069.78
796.535	17962.44
796.867	18062.55
797.198	17976
797.53	18054.86
797.862	17834.98
798.193	17910.69
798.525	17780.97
798.856	17803.12
799.188	17734.87
799.519	17683.35
799.85	17547.76
800.182	17596.57
800.513	17531.04
800.844	17468.21
801.175	17572.17
801.506	17526.06
801.837	17473.41
802.168	17317.48
802.499	17375.33
802.83	17285.62
803.161	17330.14
803.491	17207.43
803.822	17303.7
804.153	17161.78
804.483	16997.26
804.814	17032.52
805.145	16981.45
805.475	16925.4
805.805	16894.89
806.136	16858.96
806.466	16897.61
806.796	16922.01
807.126	16713.66
807.457	16705.07
807.787	16701.91
808.117	16625.98
808.447	16648.57
808.777	16597.5
809.107	16496.04
809.436	16501.46
809.766	16460.78
810.096	16416.04
810.426	16330.84
810.755	16463.04
811.085	16331.75
811.414	16362.71
811.744	16198.87
812.073	16220.56
812.403	16142.82
812.732	16178.08
813.061	16098.76
813.39	15990.51
813.719	16004.75
814.049	16031.64
814.378	15929.27
814.707	15968.82
815.036	15955.26
815.365	15798.88
815.693	15711.2
816.022	15719.78
816.351	15678.43
816.68	15657.64
817.008	15644.98
817.337	15530.86
817.665	15518.43
817.994	15511.88
818.322	15459.68
818.651	15441.15
818.979	15402.28
819.307	15417.42
819.636	15462.84
819.964	15287.25
820.292	15503.52
820.62	15383.97
820.948	15416.29
821.276	15414.03
821.604	15324.09
821.932	15390.08
822.259	15336.52
822.587	15327.7
822.915	15239.35
823.243	15318.44
823.57	15260.81
823.898	15372.9
824.225	15334.94
824.553	15286.58
824.88	15324.31
825.207	15369.29
825.535	15273.02
825.862	15389.4
826.189	15370.64
826.516	15318.67
826.843	15458.55
827.17	15384.65
827.497	15464.2
827.824	15352.11
828.151	15424.42
828.478	15301.72
828.805	15530.64
829.131	15410.19
829.458	15302.39
829.785	15237.99
830.111	15344.88
830.438	15348.72
830.764	15336.52
831.09	15408.61
831.417	15329.51
831.743	15390.75
832.069	15248.61
832.395	15260.14
832.722	15356.4
833.048	15306.24
833.374	15330.19
833.7	15255.62
834.026	15220.36
834.351	15269.63
834.677	15183.75
835.003	15226.01
835.329	15178.78
835.654	15182.17
835.98	15121.83
836.306	15092.68
836.631	15023.98
836.956	15114.83
837.282	15145.56
837.607	15120.7
837.932	15054.94
838.258	14939.24
838.583	15028.5
838.908	14965.45
839.233	14895.4
839.558	14864.44
839.883	14842.97
840.208	14828.73
840.533	14786.02
840.858	14850.2
841.182	14774.72
841.507	14726.82
841.832	14758
842.156	14698.57
842.481	14692.47
842.805	14642.52
843.13	14603.66
843.454	14507.84
843.778	14567.27
844.103	14496.99
844.427	14475.52
844.751	14421.74
845.075	14406.15
845.399	14299.93
845.723	14253.61
846.047	14323.66
846.371	14187.62
846.695	14178.58
847.019	14037.57
847.343	14071.24
847.666	13971.36
847.99	13853.17
848.313	13921.64
848.637	13737.92
848.96	13762.77
849.284	13739.95
849.607	13635.77
849.931	13614.76
850.254	13540.86
850.577	13451.6
850.9	13405.95
851.223	13361.88
851.546	13339.96
851.869	13254.31
852.192	13311.26
852.515	13165.05
852.838	13172.05
853.161	13065.16
853.483	12989.23
853.806	13082.57
854.129	13083.92
854.451	12914.66
854.774	12860.42
855.096	12847.54
855.419	12809.13
855.741	12760.99
856.063	12725.96
856.385	12711.95
856.708	12632.86
857.03	12611.84
857.352	12525.07
857.674	12544.95
857.996	12508.12
858.318	12403.26
858.64	12430.38
858.961	12441
859.283	12377.95
859.605	12282.13
859.926	12319.65
860.248	12179.76
860.57	12228.8
860.891	12169.14
861.212	12110.16
861.534	12093.67
861.855	12086.21
862.176	12035.81
862.498	12074
862.819	12066.55
863.14	11982.93
863.461	11930.51
863.782	11959.66
864.103	11965.98
864.424	11814.12
864.745	11867.91
865.065	11819.1
865.386	11831.75
865.707	11762.15
866.027	11856.61
866.348	11734.8
866.668	11782.26
866.989	11692.09
867.309	11660.46
867.63	11661.59
867.95	11711.75
868.27	11650.29
868.59	11587.46
868.91	11650.96
869.23	11632.89
869.55	11527.58
869.87	11574.13
870.19	11572.1
870.51	11615.71
870.83	11578.2
871.15	11516.73
871.469	11465.21
871.789	11546.79
872.109	11427.02
872.428	11404.87
872.748	11453.68
873.067	11386.79
873.386	11378.88
873.706	11389.73
874.025	11254.37
874.344	11163.75
874.663	11247.13
874.982	11253.24
875.301	11243.29
875.62	11207.36
875.939	11170.07
876.258	11173.24
876.577	11094.6
876.896	11176.63
877.214	11071.55
877.533	11093.92
877.852	10994.03
878.17	11150.64
878.489	10985.45
878.807	11012.79
879.125	11017.76
879.444	10995.16
879.762	10914.49
880.08	10977.31
880.398	10962.17
880.716	10993.36
881.034	10887.37
881.352	10832.68
881.67	10803.53
881.988	10876.3
882.306	10791.55
882.624	10720.59
882.941	10707.94
883.259	10665.45
883.577	10746.58
883.894	10674.27
884.212	10679.01
884.529	10641.73
884.846	10616.19
885.164	10593.14
885.481	10552.46
885.798	10560.82
886.115	10442.18
886.432	10513.37
886.75	10457.78
887.067	10505.23
887.383	10429.53
887.7	10387.27
888.017	10406.93
888.334	10411.68
888.651	10313.82
888.967	10338.46
889.284	10263.66
889.6	10244.45
889.917	10187.95
890.233	10166.03
890.55	10084.9
890.866	10190.21
891.182	10081.06
891.498	10064.34
891.815	10067.73
892.131	10001.97
892.447	9979.6
892.763	9881.07
893.079	9931.46
893.395	9851.24
893.71	9776.89
894.026	9812.37
894.342	9743.67
894.657	9620.96
894.973	9715.65
895.289	9742.31
895.604	9615.31
895.92	9579.61
896.235	9517.24
896.55	9552.94
896.865	9525.15
897.181	9479.5
897.496	9477.69
897.811	9385.49
898.126	9432.04
898.441	9364.02
898.756	9310.46
899.071	9269.33
899.386	9222.55
899.7	9217.81
900.015	9138.26
900.33	9101.65
900.644	9085.61
900.959	9105.95
901.273	9073.63
901.588	8974.65
901.902	9018.94
902.216	8998.15
902.531	8882.22
902.845	8902.79
903.159	8791.6
903.473	8783.02
903.787	8771.94
904.101	8708.22
904.415	8694.66
904.729	8698.95
905.042	8664.15
905.356	8614.66
905.67	8613.53
905.984	8598.62
906.297	8557.94
906.611	8474.33
906.924	8475.23
907.237	8464.16
907.551	8409.92
907.864	8411.73
908.177	8362.24
908.491	8329.92
908.804	8335.8
909.117	8190.94
909.43	8108.91
909.743	8138.51
910.056	8156.59
910.368	8124.73
910.681	8111.17
910.994	8012.19
911.307	8043.83
911.619	7967.9
911.932	7960.67
912.244	7851.06
912.557	7879.99
912.869	7810.84
913.181	7753.67
913.494	7730.39
913.806	7743.5
914.118	7698.07
914.43	7663.27
914.742	7616.27
915.054	7594.57
915.366	7579.89
915.678	7551.86
915.99	7503.05
916.302	7531.07
916.613	7415.6
916.925	7429.38
917.236	7389.16
917.548	7348.25
917.859	7375.37
918.171	7296.96
918.482	7223.74
918.794	7254.47
919.105	7227.58
919.416	7153.91
919.727	7118.65
920.038	7138.09
920.349	7115.72
920.66	7062.84
920.971	7051.09
921.282	7056.28
921.593	6945.1
921.903	6965.21
922.214	6917.98
922.525	6866.01
922.835	6868.27
923.146	6807.93
923.456	6821.71
923.767	6793.47
924.077	6738.78
924.387	6739.23
924.697	6657.2
925.008	6661.94
925.318	6647.71
925.628	6577.65
925.938	6563.64
926.248	6512.12
926.558	6542.85
926.867	6521.38
927.177	6456.07
927.487	6433.02
927.796	6419.01
928.106	6439.35
928.416	6303.76
928.725	6385.79
929.034	6307.6
929.344	6320.26
929.653	6299.24
929.962	6217.89
930.271	6148.96
930.581	6207.49
930.89	6161.62
931.199	6166.82
931.508	6121.17
931.817	6076.2
932.125	6000.49
932.434	6096.53
932.743	5981.06
933.051	5974.5
933.36	5936.54
933.669	5896.99
933.977	5913.94
934.286	5887.27
934.594	5896.99
934.902	5815.41
935.21	5755.3
935.519	5850.89
935.827	5759.14
936.135	5695.42
936.443	5661.07
936.751	5671.01
937.059	5655.42
937.367	5628.75
937.674	5613.61
937.982	5611.8
938.29	5510.34
938.597	5524.35
938.905	5490.9
939.213	5424.24
939.52	5474.86
939.827	5509.21
940.135	5447.96
940.442	5395.08
940.749	5384.69
941.056	5374.29
941.363	5332.26
941.67	5321.87
941.977	5270.79
942.284	5247.74
942.591	5217.24
942.898	5236.67
943.205	5234.64
943.511	5164.58
943.818	5225.37
944.125	5122.77
944.431	5086.84
944.738	5136.79
945.044	5057.47
945.35	5044.13
945.657	5003
945.963	5021.99
946.269	4989.45
946.575	4959.62
946.881	4974.98
947.187	4890.92
947.493	4905.38
947.799	4881.65
948.105	4833.29
948.41	4834.19
948.716	4849.11
949.022	4808.43
949.327	4809.11
949.633	4776.12
949.938	4774.08
950.244	4731.37
950.549	4711.26
950.854	4626.97
951.16	4671.94
951.465	4634.88
951.77	4637.36
952.075	4571.38
952.38	4560.3
952.685	4597.59
952.99	4488.44
953.294	4493.41
953.599	4473.53
953.904	4489.8
954.209	4437.37
954.513	4431.72
954.818	4403.7
955.122	4379.74
955.426	4307.66
955.731	4364.15
956.035	4354.43
956.339	4350.82
956.643	4346.07
956.948	4284.15
957.252	4271.27
957.556	4245.96
957.86	4246.87
958.163	4187.43
958.467	4221.33
958.771	4189.92
959.075	4198.28
959.378	4151.28
959.682	4113.08
959.985	4128.22
960.289	4139.3
960.592	4078.06
960.896	4083.93
961.199	4051.62
961.502	4071.96
961.805	3958.51
962.108	3992.86
962.411	3986.99
962.714	3935.69
963.017	3942.69
963.32	3951.05
963.623	3929.13
963.926	3870.6
964.228	3855.46
964.531	3846.42
964.833	3841.9
965.136	3829.7
965.438	3786.54
965.741	3768.91
966.043	3798.74
966.345	3782.92
966.648	3780.21
966.95	3732.53
967.252	3687.33
967.554	3679.42
967.856	3679.87
968.158	3648.92
968.46	3651.18
968.761	3613.44
969.063	3615.7
969.365	3583.83
969.666	3591.29
969.968	3559.88
970.269	3569.37
970.571	3539.54
970.872	3537.28
971.174	3490.95
971.475	3478.52
971.776	3468.36
972.077	3448.24
972.378	3411.18
972.679	3438.3
972.98	3393.33
973.281	3404.18
973.582	3391.3
973.883	3348.36
974.183	3354.91
974.484	3354.69
974.785	3310.17
975.085	3322.14
975.386	3293.44
975.686	3261.58
975.986	3320.11
976.287	3297.51
976.587	3211.86
976.887	3209.38
977.187	3208.7
977.487	3190.4
977.787	3201.47
978.087	3157.4
978.387	3150.4
978.687	3163.96
978.987	3109.49
979.286	3121.47
979.586	3088.03
979.885	3070.4
980.185	3045.77
980.484	3066.33
980.784	3018.2
981.083	3014.58
981.382	3024.3
981.682	3000.8
981.981	3025.2
982.28	3010.74
982.579	2971.42
982.878	2930.52
983.177	2961.25
983.475	2901.14
983.774	2922.15
984.073	2899.1
984.372	2856.17
984.67	2871.08
984.969	2857.98
985.267	2869.05
985.566	2849.16
985.864	2820.24
986.162	2822.04
986.461	2822.72
986.759	2777.07
987.057	2780.46
987.355	2762.61
987.653	2737.53
987.951	2740.69
988.249	2696.17
988.547	2721.48
988.844	2708.15
989.142	2666.12
989.44	2641.48
989.737	2670.41
990.035	2615.72
990.332	2613.46
990.63	2631.99
990.927	2602.16
991.224	2583.86
991.521	2613.69
991.819	2588.6
992.116	2574.59
992.413	2548.38
992.71	2509.74
993.006	2531.66
993.303	2542.05
993.6	2502.5
993.897	2494.82
994.193	2471.09
994.49	2472.68
994.787	2463.18
995.083	2429.51
995.379	2438.33
995.676	2419.57
995.972	2377.31
996.268	2394.71
996.565	2383.86
996.861	2358.33
997.157	2297.31
997.453	2355.62
997.749	2328.72
998.044	2326.92
998.34	2321.72
998.636	2310.19
998.932	2261.83
999.227	2240.59
999.523	2237.2
999.818	2216.41
1000.114	2232.68
1000.409	2213.47
1000.704	2226.81
1001	2222.74
1001.295	2191.55
1001.59	2175.73
1001.885	2140.03
1002.18	2172.34
1002.475	2156.07
1002.77	2133.47
1003.065	2147.71
1003.359	2095.28
1003.654	2100.48
1003.949	2060.71
1004.243	2053.03
1004.538	2080.14
1004.832	2060.93
1005.127	2020.26
1005.421	2030.2
1005.715	2010.99
1006.009	1988.85
1006.304	1980.71
1006.598	1963.08
1006.892	1970.32
1007.186	1947.94
1007.48	1958.79
1007.773	1930.54
1008.067	1931.22
1008.361	1901.39
1008.655	1888.96
1008.948	1908.85
1009.242	1851
1009.535	1835.63
1009.829	1850.09
1010.122	1851.67
1010.415	1845.12
1010.708	1835.63
1011.001	1774.39
1011.295	1787.27
1011.588	1789.53
1011.881	1773.26
1012.173	1780.04
1012.466	1759.7
1012.759	1777.33
1013.052	1726.93
1013.344	1724.67
1013.637	1731.23
1013.93	1711.34
1014.222	1695.29
1014.514	1695.29
1014.807	1660.49
1015.099	1668.63
1015.391	1672.47
1015.683	1635.86
1015.976	1650.1
1016.268	1649.65
1016.56	1620.49
1016.851	1636.99
1017.143	1620.72
1017.435	1583.66
1017.727	1605.35
1018.018	1611.23
1018.31	1593.83
1018.602	1558.35
1018.893	1552.47
1019.185	1549.31
1019.476	1518.35
1019.767	1502.53
1020.058	1498.24
1020.35	1478.58
1020.641	1483.77
1020.932	1472.7
1021.223	1466.37
1021.514	1468.41
1021.804	1467.73
1022.095	1420.27
1022.386	1447.62
1022.677	1441.52
1022.967	1398.81
1023.258	1414.17
1023.548	1380.27
1023.839	1389.09
1024.129	1366.72
1024.419	1365.81
1024.709	1343.89
1025	1368.52
1025.29	1348.18
1025.58	1333.04
1025.87	1290.11
1026.16	1300.5
1026.449	1311.58
1026.739	1294.4
1027.029	1271.12
1027.319	1269.32
1027.608	1247.85
1027.898	1255.08
1028.187	1248.3
1028.477	1269.54
1028.766	1226.61
1029.055	1232.93
1029.344	1214.63
1029.634	1219.83
1029.923	1192.03
1030.212	1197.45
1030.501	1202.65
1030.79	1192.71
1031.078	1159.26
1031.367	1175.99
1031.656	1152.94
1031.945	1167.4
1032.233	1145.48
1032.522	1123.33
1032.81	1137.34
1033.099	1117.46
1033.387	1147.06
1033.675	1107.06
1033.963	1088.3
1034.251	1117.46
1034.54	1107.51
1034.828	1072.94
1035.116	1064.8
1035.403	1060.73
1035.691	1058.25
1035.979	1059.38
1036.267	1037.01
1036.554	1029.55
1036.842	1040.85
1037.129	1032.04
1037.417	1028.42
1037.704	1010.11
1037.992	1015.99
1038.279	1007.4
1038.566	1010.34
1038.853	1010.34
1039.14	1010.34
