Data from hue_120_FLMS001491_00096.txt Node
Date: Tue Feb 07 17:00:17 GMT 2017
User: dcchb
Spectrometer: FLMS00149
Trigger mode: 0
Integration Time (sec): 2.000000E-2
Scans to average: 10
Electric dark correction enabled: true
Nonlinearity correction enabled: false
Boxcar width: 0
XAxis mode: Wavelengths
Number of Pixels in Spectrum: 2048
>>>>>Begin Spectral Data<<<<<
341.393	-16.38
341.776	-16.38
342.16	-16.38
342.543	-48.02
342.927	-77.17
343.31	-58.64
343.693	-86.21
344.077	-57.74
344.46	-64.52
344.843	-52.54
345.226	-45.99
345.61	-45.31
345.993	-18.64
346.376	-8.02
346.759	21.13
347.142	34.69
347.525	41.47
347.908	65.87
348.291	67.46
348.674	82.37
349.057	124.63
349.44	143.16
349.823	137.06
350.206	163.5
350.588	171.18
350.971	201.69
351.354	209.6
351.737	241.01
352.119	245.3
352.502	262.7
352.884	282.14
353.267	288.69
353.65	281.24
354.032	293.21
354.414	305.19
354.797	323.27
355.179	334.57
355.562	312.87
355.944	328.92
356.326	318.3
356.709	340.67
357.091	337.51
357.473	345.41
357.855	332.53
358.238	341.8
358.62	341.35
359.002	340.44
359.384	348.58
359.766	345.87
360.148	337.05
360.53	333.44
360.912	333.89
361.294	343.61
361.676	343.15
362.057	339.54
362.439	315.81
362.821	326.21
363.203	321.91
363.584	344.74
363.966	340.89
364.348	341.12
364.729	321.46
365.111	309.94
365.493	327.79
365.874	334.12
366.256	313.33
366.637	309.48
367.019	309.26
367.4	308.58
367.781	279.88
368.163	333.66
368.544	311.29
368.925	294.12
369.306	303.61
369.688	322.59
370.069	304.96
370.45	285.98
370.831	302.25
371.212	309.03
371.593	293.89
371.974	298.86
372.355	323.95
372.736	324.85
373.117	319.43
373.498	303.61
373.879	316.26
374.26	310.16
374.641	309.94
375.021	307.68
375.402	307
375.783	323.49
376.163	292.76
376.544	311.97
376.925	327.79
377.305	310.84
377.686	329.37
378.066	350.84
378.447	344.96
378.827	321.91
379.208	316.49
379.588	319.65
379.968	326.66
380.349	322.59
380.729	336.38
381.109	340.67
381.489	333.44
381.87	348.58
382.25	332.31
382.63	328.01
383.01	341.35
383.39	350.39
383.77	325.98
384.15	335.92
384.53	334.12
384.91	349.48
385.29	346.09
385.67	348.58
386.049	357.39
386.429	364.85
386.809	350.61
387.189	340.22
387.568	354
387.948	365.3
388.328	366.88
388.707	356.94
389.087	365.75
389.466	358.52
389.846	354
390.225	361.69
390.605	363.27
390.984	357.62
391.363	359.43
391.743	372.98
392.122	375.47
392.501	381.12
392.881	368.46
393.26	358.07
393.639	388.58
394.018	369.82
394.397	376.37
394.776	387.67
395.155	391.74
395.534	368.46
395.913	400.55
396.292	395.36
396.671	389.26
397.05	395.36
397.429	394.68
397.808	405.3
398.186	382.25
398.565	385.19
398.944	411.18
399.323	410.05
399.701	390.16
400.08	404.4
400.458	404.4
400.837	405.53
401.215	419.54
401.594	410.27
401.972	414.34
402.351	397.39
402.729	430.61
403.107	410.05
403.486	412.98
403.864	415.7
404.242	426.09
404.62	416.83
404.999	419.99
405.377	416.15
405.755	458.18
406.133	421.57
406.511	443.94
406.889	426.32
407.267	438.97
407.645	450.04
408.023	429.48
408.401	433.1
408.779	430.16
409.156	460.67
409.534	436.94
409.912	451.63
410.29	482.59
410.667	444.4
411.045	474.22
411.422	467.67
411.8	483.49
412.178	476.94
412.555	483.94
412.933	487.11
413.31	481.23
413.687	481.46
414.065	479.42
414.442	480.33
414.819	476.71
415.197	495.24
415.574	500.21
415.951	498.86
416.328	515.35
416.705	473.32
417.082	526.65
417.46	518.07
417.837	507.9
418.214	549.93
418.591	535.47
418.967	518.74
419.344	516.71
419.721	522.59
420.098	544.51
420.475	553.32
420.852	533.43
421.228	544.73
421.605	547.67
421.982	550.83
422.358	562.81
422.735	553.77
423.111	563.04
423.488	577.27
423.864	585.86
424.241	589.48
424.617	566.2
424.994	596.03
425.37	575.24
425.746	585.41
426.123	592.87
426.499	578.4
426.875	590.15
427.251	618.85
427.627	607.33
428.003	627.22
428.379	599.87
428.756	632.41
429.132	626.54
429.507	639.42
429.883	642.58
430.259	651.17
430.635	650.04
431.011	654.79
431.387	640.1
431.763	643.71
432.138	645.97
432.514	703.15
432.89	686.87
433.265	701.79
433.641	726.2
434.016	704.5
434.392	706.99
434.767	731.39
435.143	718.96
435.518	727.1
435.894	750.83
436.269	739.53
436.644	737.27
437.02	741.11
437.395	744.27
437.77	747.44
438.145	779.08
438.52	776.36
438.895	794.44
439.271	785.18
439.646	786.31
440.021	814.55
440.395	810.26
440.77	789.47
441.145	803.93
441.52	814.33
441.895	827.66
442.27	829.02
442.645	839.64
443.019	832.86
443.394	805.52
443.769	836.02
444.143	843.93
444.518	859.07
444.892	859.98
445.267	858.62
445.641	872.63
446.016	892.07
446.39	872.86
446.764	893.65
447.139	907.66
447.513	921.44
447.887	905.85
448.262	902.01
448.636	921.9
449.01	920.77
449.384	919.18
449.758	937.94
450.132	935.91
450.506	951.27
450.88	961.9
451.254	973.87
451.628	974.55
452.002	988.11
452.376	1005.06
452.75	976.13
453.123	986.3
453.497	1013.19
453.871	1007.09
454.244	1033.76
454.618	1034.89
454.992	1061.1
455.365	1067.88
455.739	1089.58
456.112	1101.1
456.486	1110.82
456.859	1121.89
457.232	1137.71
457.606	1119.63
457.979	1146.07
458.352	1180.42
458.725	1185.17
459.099	1195.11
459.472	1178.39
459.845	1223.81
460.218	1253.41
460.591	1271.94
460.964	1274.88
461.337	1264.26
461.71	1290.93
462.083	1320.98
462.456	1338.38
462.829	1322.56
463.201	1330.93
463.574	1383.35
463.947	1384.03
464.32	1404.14
464.692	1435.56
465.065	1451.15
465.438	1480.75
465.81	1476.46
466.183	1524.37
466.555	1543.8
466.928	1551.71
467.3	1546.51
467.672	1567.76
468.045	1622.9
468.417	1633.97
468.789	1626.74
469.161	1700.41
469.534	1717.13
469.906	1735.66
470.278	1760.97
470.65	1816.11
471.022	1850.91
471.394	1873.06
471.766	1872.83
472.138	1898.37
472.51	1953.96
472.882	1998.93
473.253	2042.32
473.625	2077.57
473.997	2132.26
474.369	2166.84
474.74	2246.61
475.112	2297.68
475.484	2326.83
475.855	2393.72
476.227	2386.26
476.598	2506.04
476.97	2524.57
477.341	2601.85
477.713	2651.34
478.084	2727.72
478.455	2814.5
478.827	2858.79
479.198	2967.72
479.569	2998.9
479.94	3119.35
480.311	3173.81
480.682	3254.26
481.053	3371.32
481.424	3458.33
481.795	3519.34
482.166	3625.78
482.537	3709.17
482.908	3825.1
483.279	3950.74
483.65	4034.36
484.021	4162.49
484.391	4238.65
484.762	4325.2
485.133	4427.79
485.503	4543.72
485.874	4639.77
486.244	4773.09
486.615	4884.28
486.985	4987.55
487.356	5185.06
487.726	5278.17
488.097	5418.05
488.467	5504.6
488.837	5697.59
489.207	5811.71
489.578	5942.78
489.948	6037.24
490.318	6217.8
490.688	6291.02
491.058	6474.75
491.428	6591.58
491.798	6762.2
492.168	6939.37
492.538	6972.13
492.908	7140.04
493.278	7325.12
493.648	7429.07
494.017	7564.66
494.387	7641.49
494.757	7846.91
495.126	7968.49
495.496	8017.76
495.866	8195.83
496.235	8378.42
496.605	8437.41
496.974	8503.39
497.344	8656.61
497.713	8770.28
498.082	8916.26
498.452	9076.71
498.821	9197.39
499.19	9227.89
499.559	9308.34
499.928	9491.61
500.298	9610.26
500.667	9629.69
501.036	9734.55
501.405	9850.02
501.774	9905.84
502.143	10042.11
502.512	10156.68
502.88	10248.21
503.249	10289.33
503.618	10423.12
503.987	10467.18
504.356	10572.94
504.724	10708.76
505.093	10683
505.462	10791.47
505.83	10901.3
506.199	10995.76
506.567	11166.6
506.936	11121.63
507.304	11288.63
507.672	11337.44
508.041	11422.64
508.409	11591.67
508.777	11591.67
509.145	11654.72
509.514	11690.88
509.882	11642.74
510.25	11758.22
510.618	11934.04
510.986	11910.99
511.354	11997.09
511.722	12120.7
512.09	12193.92
512.458	12103.52
512.826	12307.13
513.193	12328.15
513.561	12354.36
513.929	12438.66
514.297	12535.83
514.664	12534.47
515.032	12655.83
515.4	12646.56
515.767	12731.98
516.135	12726.56
516.502	12671.19
516.869	12831.64
517.237	12909.38
517.604	12830.28
517.972	13032.09
518.339	12949.38
518.706	12966.55
519.073	13000.22
519.44	12927.46
519.808	13148.24
520.175	13138.75
520.542	13249.71
520.909	13334.23
521.276	13202.93
521.643	13334.9
522.009	13378.29
522.376	13378.07
522.743	13459.87
523.11	13530.38
523.477	13639.98
523.843	13641.34
524.21	13711.62
524.577	13717.49
524.943	13747.77
525.31	13823.25
525.676	13826.19
526.043	13878.84
526.409	13937.15
526.776	13977.37
527.142	13936.7
527.508	13998.61
527.874	14027.31
528.241	14049.69
528.607	14031.38
528.973	14089.91
529.339	13944.61
529.705	14143.24
530.071	14162.68
530.437	14182.11
530.803	14206.97
531.169	14143.7
531.535	14125.17
531.901	14181.21
532.267	14127.65
532.632	14198.84
532.998	14136.46
533.364	14186.86
533.73	14197.48
534.095	14211.26
534.461	14218.95
534.826	14255.33
535.192	14144.37
535.557	14158.84
535.923	14131.94
536.288	14180.53
536.653	14197.03
537.019	14076.35
537.384	14131.49
537.749	14139.18
538.114	14091.49
538.479	14084.94
538.845	14063.92
539.21	13957.71
539.575	13982.12
539.94	14000.2
540.305	13965.62
540.67	13858.28
541.034	13827.09
541.399	13882.69
541.764	13892.63
542.129	13794.33
542.494	13815.34
542.858	13821.22
543.223	13677.95
543.587	13872.29
543.952	13671.17
544.316	13698.74
544.681	13648.79
545.045	13663.03
545.41	13646.53
545.774	13587.55
546.138	13543.94
546.503	13500.77
546.867	13501
547.231	13490.38
547.595	13486.09
547.959	13517.95
548.324	13379.87
548.688	13365.64
549.052	13366.54
549.416	13330.61
549.779	13352.53
550.143	13243.83
550.507	13302.36
550.871	13230.05
551.235	13175.13
551.599	13249.48
551.962	13183.95
552.326	13147.34
552.689	13175.13
553.053	13073.67
553.417	13064.4
553.78	13134.91
554.143	13108.24
554.507	13155.25
554.87	13125.42
555.234	13169.26
555.597	13015.59
555.96	13021.92
556.323	13024.63
556.686	13012.88
557.05	13121.12
557.413	13047.45
557.776	13048.81
558.139	13119.99
558.502	12992.99
558.865	12951.64
559.228	12983.27
559.59	13023.05
559.953	12948.02
560.316	13101.01
560.679	13012.88
561.041	13037.51
561.404	13063.5
561.767	13095.81
562.129	13092.88
562.492	13209.26
562.854	13076.83
563.217	13109.37
563.579	13132.42
563.941	13083.61
564.304	13102.59
564.666	13145.98
565.028	13148.02
565.39	13188.24
565.753	13149.37
566.115	13180.11
566.477	13260.1
566.839	13202.48
567.201	13315.7
567.563	13250.61
567.925	13287
568.287	13346.43
568.648	13204.51
569.01	13271.18
569.372	13339.88
569.734	13332.42
570.095	13327.9
570.457	13378.97
570.819	13387.78
571.18	13400.21
571.542	13372.87
571.903	13385.07
572.265	13399.99
572.626	13446.54
572.987	13579.64
573.349	13477.05
573.71	13517.27
574.071	13523.83
574.432	13563.15
574.794	13576.93
575.155	13621
575.516	13470.04
575.877	13590.26
576.238	13584.84
576.599	13544.16
576.96	13540.1
577.32	13655.57
577.681	13642.24
578.042	13660.09
578.403	13564.73
578.763	13569.25
579.124	13577.16
579.485	13636.14
579.845	13658.51
580.206	13619.87
580.566	13703.71
580.927	13640.21
581.287	13694.44
581.648	13622.13
582.008	13571.06
582.368	13672.3
582.728	13644.95
583.089	13598.4
583.449	13613.77
583.809	13596.82
584.169	13590.72
584.529	13563.6
584.889	13691.96
585.249	13565.18
585.609	13573.09
585.969	13586.42
586.329	13473.21
586.688	13522.7
587.048	13562.47
587.408	13500.77
587.768	13459.87
588.127	13536.25
588.487	13386.65
588.846	13569.7
589.206	13414
589.565	13428.23
589.925	13540.1
590.284	13368.8
590.643	13454.45
591.003	13537.16
591.362	13440.89
591.721	13430.04
592.08	13365.64
592.44	13472.75
592.799	13434.11
593.158	13422.36
593.517	13417.16
593.876	13417.39
594.235	13386.65
594.593	13401.12
594.952	13388.69
595.311	13317.73
595.67	13357.5
596.029	13461
596.387	13467.56
596.746	13392.3
597.104	13350.5
597.463	13321.34
597.822	13328.35
598.18	13341.23
598.538	13256.26
598.897	13444.96
599.255	13248.8
599.613	13464.17
599.972	13259.2
600.33	13402.92
600.688	13338.07
601.046	13405.18
601.404	13417.61
601.762	13421.68
602.12	13404.51
602.478	13399.76
602.836	13395.69
603.194	13346.88
603.552	13377.16
603.91	13376.03
604.268	13358.18
604.625	13344.39
604.983	13428.69
605.341	13319.76
605.698	13372.19
606.056	13421
606.413	13333.55
606.771	13363.38
607.128	13407.44
607.485	13265.75
607.843	13433.88
608.2	13390.5
608.557	13441.12
608.914	13412.19
609.272	13402.92
609.629	13505.29
609.986	13472.98
610.343	13449.93
610.7	13601.34
611.057	13576.48
611.414	13522.92
611.771	13509.14
612.127	13561.79
612.484	13542.13
612.841	13516.37
613.198	13427.56
613.554	13576.48
613.911	13541.9
614.267	13584.16
614.624	13455.35
614.98	13620.09
615.337	13582.58
615.693	13687.89
616.05	13613.99
616.406	13720.88
616.762	13689.7
617.118	13660.54
617.475	13648.57
617.831	13713.42
618.187	13768.34
618.543	13753.65
618.899	13798.17
619.255	13732.41
619.611	13774.21
619.967	13801.56
620.323	13789.81
620.678	13761.56
621.034	13778.28
621.39	13685.63
621.746	13751.39
622.101	13743.25
622.457	13695.12
622.812	13707.78
623.168	13704.39
623.523	13745.97
623.879	13849.92
624.234	13693.76
624.589	13780.54
624.945	13741.67
625.3	13731.73
625.655	13782.58
626.01	13810.15
626.365	13834.55
626.72	13752.29
627.075	13716.59
627.43	13737.83
627.785	13687.66
628.14	13757.94
628.495	13690.15
628.85	13693.99
629.205	13726.98
629.559	13849.92
629.914	13756.36
630.269	13650.83
630.623	13590.49
630.978	13665.29
631.332	13746.42
631.687	13746.42
632.041	13624.39
632.396	13688.57
632.75	13553.43
633.104	13634.1
633.459	13503.26
633.813	13550.72
634.167	13629.81
634.521	13572.19
634.875	13530.15
635.229	13477.27
635.583	13478.63
635.937	13519.53
636.291	13428.23
636.645	13462.36
636.999	13453.09
637.352	13406.54
637.706	13443.83
638.06	13477.95
638.413	13414.45
638.767	13428.23
639.121	13381.68
639.474	13273.44
639.828	13311.18
640.181	13309.14
640.534	13294.68
640.888	13274.57
641.241	13198.86
641.594	13221.01
641.947	13307.11
642.301	13204.51
642.654	13176.04
643.007	13220.78
643.36	13221.46
643.713	13116.38
644.066	13175.13
644.419	13164.51
644.771	13112.08
645.124	12976.49
645.477	13018.98
645.83	12936.27
646.182	12860.11
646.535	12844.3
646.888	12767.69
647.24	12755.94
647.593	12836.84
647.945	12863.73
648.298	12717.52
648.65	12724.75
649.002	12690.4
649.355	12664.19
649.707	12714.35
650.059	12777.4
650.411	12972.2
650.763	12986.44
651.115	13081.12
651.467	12961.58
651.819	13018.98
652.171	12996.83
652.523	12925.65
652.875	12982.14
653.227	12931.75
653.578	13061.92
653.93	12959.55
654.282	12833.9
654.633	12905.08
654.985	12915.25
655.337	12979.43
655.688	13041.35
656.039	13013.1
656.391	12894.24
656.742	12921.58
657.094	13024.4
657.445	12995.93
657.796	12956.38
658.147	12903.95
658.498	12932.2
658.849	12972.43
659.2	13034.12
659.551	12940.34
659.902	13000.22
660.253	13013.78
660.604	12984.4
660.955	12892.88
661.306	13143.5
661.656	12970.17
662.007	13010.62
662.358	13003.61
662.708	13038.87
663.059	13015.36
663.409	12885.88
663.76	13063.05
664.11	13013.78
664.461	13014.91
664.811	13116.6
665.161	13064.63
665.511	13033.89
665.862	13072.99
666.212	13073.67
666.562	13090.16
666.912	13031.18
667.262	13016.27
667.612	13061.24
667.962	13094.01
668.312	13006.1
668.662	13102.82
669.011	13052.43
669.361	13011.97
669.711	13023.73
670.06	12927.46
670.41	12967.46
670.76	12861.92
671.109	12992.99
671.459	12909.83
671.808	12972.65
672.157	12968.13
672.507	12898.98
672.856	12889.04
673.205	12898.3
673.554	12925.2
673.904	12950.28
674.253	13008.36
674.602	12929.72
674.951	12774.47
675.3	12647.46
675.649	12837.29
675.998	12903.05
676.346	12835.03
676.695	12924.97
677.044	12766.78
677.393	12838.19
677.741	12791.87
678.09	12816.73
678.438	12727.46
678.787	12753.22
679.135	12751.64
679.484	12665.09
679.832	12694.47
680.181	12665.99
680.529	12514.13
680.877	12650.85
681.225	12605.43
681.573	12646.79
681.922	12596.62
682.27	12475.72
682.618	12595.04
682.966	12461.03
683.314	12499.9
683.661	12515.26
684.009	12390.3
684.357	12422.39
684.705	12301.94
685.053	12435.04
685.4	12347.13
685.748	12259
686.095	12293.58
686.443	12224.2
686.79	12196.85
687.138	12219
687.485	12228.49
687.832	12233.24
688.18	12113.24
688.527	12119.79
688.874	12016.07
689.221	12012.23
689.568	11927.03
689.915	11941.49
690.262	11947.14
690.609	11974.94
690.956	11797.54
691.303	11923.19
691.65	11864.43
691.997	11808.39
692.344	11718.67
692.69	11725
693.037	11664.21
693.383	11579.92
693.73	11683.42
694.077	11513.93
694.423	11516.42
694.769	11428.51
695.116	11427.38
695.462	11400.27
695.808	11332.7
696.155	11378.12
696.501	11304.9
696.847	11310.78
697.193	11219.48
697.539	11205.24
697.885	11141.97
698.231	11087.28
698.577	11068.07
698.923	11033.95
699.269	10945.14
699.614	10915.98
699.96	10908.98
700.306	10859.26
700.651	10799.83
700.997	10732.94
701.342	10778.13
701.688	10697.01
702.033	10729.1
702.379	10708.08
702.724	10639.16
703.069	10679.61
703.415	10518.25
703.76	10514.64
704.105	10598.7
704.45	10494.53
704.795	10380.86
705.14	10407.75
705.485	10370.24
705.83	10333.17
706.175	10320.97
706.52	10288.66
706.865	10188.55
707.209	10170.02
707.554	10153.29
707.899	10214.99
708.243	10126.85
708.588	10071.49
708.932	10057.02
709.277	10015.44
709.621	9998.27
709.966	9974.99
710.31	9986.29
710.654	9894.32
710.998	9888.67
711.342	9860.87
711.687	9864.26
712.031	9790.36
712.375	9753.53
712.719	9780.87
713.063	9702.46
713.407	9780.87
713.75	9721.89
714.094	9689.12
714.438	9698.84
714.782	9711.5
715.125	9600.54
715.469	9664.72
715.812	9561.22
716.156	9542.91
716.499	9546.3
716.843	9586.08
717.186	9463.37
717.53	9593.31
717.873	9573.42
718.216	9547.43
718.559	9533.42
718.902	9385.4
719.246	9439.64
719.589	9380.43
719.932	9464.5
720.275	9378.62
720.617	9384.05
720.96	9393.54
721.303	9399.41
721.646	9411.16
721.989	9304.05
722.331	9338.62
722.674	9332.75
723.016	9315.8
723.359	9254.33
723.701	9352.41
724.044	9267.21
724.386	9199.42
724.729	9286.2
725.071	9304.28
725.413	9246.88
725.755	9219.76
726.097	9179.31
726.439	9153.77
726.782	9186.54
727.124	9157.61
727.465	9164.17
727.807	9137.5
728.149	9115.81
728.491	9049.37
728.833	9157.84
729.175	9039.88
729.516	9111.29
729.858	9108.35
730.199	9209.14
730.541	9152.87
730.882	9115.13
731.224	9123.71
731.565	9052.76
731.906	9049.14
732.248	9051.85
732.589	9088.69
732.93	8996.03
733.271	9038.97
733.612	9080.78
733.953	9069.25
734.294	8987.67
734.635	9013.21
734.976	9140.21
735.317	9047.78
735.658	9048.24
735.999	9073.32
736.339	9082.81
736.68	9135.24
737.021	9067.9
737.361	9021.12
737.702	9117.84
738.042	9068.8
738.383	9084.62
738.723	9131.62
739.063	9125.97
739.404	9206.65
739.744	9121.23
740.084	9136.37
740.424	9157.61
740.764	9158.97
741.104	9188.8
741.444	9186.76
741.784	9152.64
742.124	9180.66
742.464	9239.19
742.804	9277.61
743.143	9240.77
743.483	9256.82
743.823	9297.72
744.162	9299.53
744.502	9429.02
744.841	9283.71
745.181	9375.91
745.52	9384.72
745.86	9406.65
746.199	9467.66
746.538	9494.78
746.877	9584.49
747.216	9547.88
747.556	9637.37
747.895	9674.66
748.234	9745.62
748.573	9719.18
748.911	9812.51
749.25	9865.16
749.589	9900.87
749.928	9994.88
750.267	10097.25
750.605	10137.25
750.944	10101.09
751.283	10200.75
751.621	10348.32
751.96	10377.24
752.298	10486.62
752.636	10639.83
752.975	10676.89
753.313	10734.29
753.651	10870.79
753.989	10935.19
754.327	11035.98
754.666	11079.37
755.004	11279.59
755.342	11378.12
755.679	11444.56
756.017	11555.06
756.355	11753.93
756.693	11833.7
757.031	12029.63
757.368	12025.79
757.706	12248.6
758.044	12369.96
758.381	12585.09
758.719	12689.95
759.056	12865.31
759.394	13009.49
759.731	13038.19
760.068	13296.03
760.405	13422.13
760.743	13428.91
761.08	13679.3
761.417	13764.04
761.754	13923.14
762.091	14124.71
762.428	14321.09
762.765	14394.76
763.102	14555.66
763.438	14699.61
763.775	14729.44
764.112	15077.23
764.449	15232.25
764.785	15324.23
765.122	15400.84
765.458	15552.7
765.795	15713.82
766.131	15787.49
766.467	15992.01
766.804	16121.27
767.14	16132.34
767.476	16302.96
767.812	16354.94
768.148	16634.48
768.485	16635.61
768.821	16755.15
769.157	16909.27
769.492	17077.4
769.828	17141.13
770.164	17094.58
770.5	17218.42
770.836	17330.05
771.171	17409.15
771.507	17488.47
771.842	17549.71
772.178	17717.61
772.513	17785.41
772.849	17850.49
773.184	17885.29
773.519	17904.95
773.855	17948.12
774.19	18110.6
774.525	18150.14
774.86	18288.45
775.195	18281.21
775.53	18327.77
775.865	18335.9
776.2	18267.43
776.535	18207.54
776.87	18410.25
777.205	18320.08
777.539	18218.84
777.874	18496.8
778.209	18410.93
778.543	18445.28
778.878	18436.01
779.212	18476.01
779.547	18435.11
779.881	18446.63
780.215	18403.02
780.55	18559.17
780.884	18553.07
781.218	18519.85
781.552	18536.8
781.886	18531.38
782.22	18486.86
782.554	18438.72
782.888	18406.86
783.222	18444.83
783.556	18422
783.889	18411.83
784.223	18245.28
784.557	18300.87
784.89	18415.45
785.224	18230.37
785.557	18323.25
785.891	18235.57
786.224	18228.56
786.558	18292.97
786.891	18208.67
787.224	18075.8
787.557	18141.78
787.891	18160.31
788.224	18152.18
788.557	18142.69
788.89	18032.86
789.223	18193.53
789.556	18000.09
789.888	17932.3
790.221	18025.63
790.554	17825.18
790.887	17872.64
791.219	17725.75
791.552	17782.47
791.884	17748.35
792.217	17695.47
792.549	17693.21
792.882	17610.72
793.214	17523.72
793.546	17606.43
793.879	17464.51
794.211	17452.08
794.543	17492.08
794.875	17477.85
795.207	17547.67
795.539	17393.1
795.871	17448.24
796.203	17275.14
796.535	17173.67
796.867	17214.8
797.198	17170.96
797.53	17090.51
797.862	17004.41
798.193	17030.17
798.525	16993.79
798.856	17033.56
799.188	16816.39
799.519	16814.59
799.85	16793.57
800.182	16742.05
800.513	16734.59
800.844	16648.26
801.175	16769.62
801.506	16693.69
801.837	16581.37
802.168	16601.94
802.499	16549.96
802.83	16436.74
803.161	16444.65
803.491	16371.21
803.822	16362.39
804.153	16234.94
804.483	16164.89
804.814	16212.12
805.145	16237.2
805.475	16271.1
805.805	16151.55
806.136	16088.05
806.466	16097.32
806.796	16102.97
807.126	15883.09
807.457	15897.77
807.787	15864.1
808.117	15862.97
808.447	15881.28
808.777	15770.32
809.107	15762.86
809.436	15665.24
809.766	15700.49
810.096	15597.44
810.426	15657.1
810.755	15573.71
811.085	15608.06
811.414	15596.09
811.744	15406.94
812.073	15425.02
812.403	15479.93
812.732	15379.14
813.061	15283.33
813.39	15251.69
813.719	15289.88
814.049	15244.23
814.378	15257.34
814.707	15214.85
815.036	15122.65
815.365	15071.13
815.693	14892.6
816.022	14950.91
816.351	15077.91
816.68	14862.55
817.008	14932.38
817.337	14872.04
817.665	14827.75
817.994	14868.65
818.322	14882.21
818.651	14712.95
818.979	14732.38
819.307	14755.88
819.636	14730.12
819.964	14602.44
820.292	14738.03
820.62	14742.78
820.948	14666.62
821.276	14712.72
821.604	14665.26
821.932	14594.53
822.259	14674.53
822.587	14601.31
822.915	14530.35
823.243	14665.94
823.57	14546.62
823.898	14588.88
824.225	14561.09
824.553	14486.29
824.88	14594.08
825.207	14617.13
825.535	14542.33
825.862	14660.97
826.189	14508.88
826.516	14634.53
826.843	14683.12
827.17	14633.17
827.497	14621.88
827.824	14671.37
828.151	14653.29
828.478	14666.85
828.805	14691.03
829.131	14639.5
829.458	14642.67
829.785	14572.16
830.111	14559.28
830.438	14773.96
830.764	14623.01
831.09	14628.2
831.417	14566.06
831.743	14620.97
832.069	14551.37
832.395	14622.55
832.722	14548.43
833.048	14510.92
833.374	14527.41
833.7	14491.48
834.026	14507.3
834.351	14505.49
834.677	14516.34
835.003	14484.25
835.329	14448.77
835.654	14536.45
835.98	14396.8
836.306	14375.1
836.631	14319.96
836.956	14487.42
837.282	14394.99
837.607	14372.39
837.932	14253.52
838.258	14304.6
838.583	14256.01
838.908	14171.72
839.233	14231.6
839.558	14121.32
839.883	14172.17
840.208	14122
840.533	14038.84
840.858	14164.26
841.182	14127.2
841.507	14002.68
841.832	13895.34
842.156	14006.52
842.481	14024.38
842.805	13990.48
843.13	13889.69
843.454	13891.27
843.778	13771.5
844.103	13745.51
844.427	13724.05
844.751	13797.26
845.075	13748.68
845.399	13670.71
845.723	13641.56
846.047	13631.39
846.371	13504.16
846.695	13601.11
847.019	13417.61
847.343	13395.24
847.666	13290.39
847.99	13265.98
848.313	13240.22
848.637	13210.16
848.96	13158.19
849.284	13056.49
849.607	13025.76
849.931	12922.03
850.254	12861.92
850.577	12883.16
850.9	12775.6
851.223	12834.13
851.546	12652.44
851.869	12604.08
852.192	12632.55
852.515	12538.54
852.838	12443.85
853.161	12470.07
853.483	12385.55
853.806	12353.91
854.129	12355.95
854.451	12290.41
854.774	12290.64
855.096	12243.18
855.419	12106.01
855.741	12153.24
856.063	12030.76
856.385	12116.18
856.708	11970.42
857.03	11891.1
857.352	11884.77
857.674	11953.02
857.996	11924.32
858.318	11787.6
858.64	11815.62
858.961	11731.56
859.283	11689.75
859.605	11621.5
859.926	11702.18
860.248	11747.37
860.57	11643.42
860.891	11654.5
861.212	11465.8
861.534	11544.44
861.855	11542.86
862.176	11511
862.498	11452.47
862.819	11484.1
863.14	11425.35
863.461	11394.84
863.782	11332.92
864.103	11386.48
864.424	11258.12
864.745	11319.82
865.065	11357.78
865.386	11192.14
865.707	11225.13
866.027	11315.75
866.348	11285.92
866.668	11212.7
866.989	11148.29
867.309	11115.07
867.63	11153.49
867.95	11132.7
868.27	11007.73
868.59	10997.34
868.91	11005.93
869.23	11019.03
869.55	10952.82
869.87	10979.26
870.19	10984.91
870.51	10989.43
870.83	10967.28
871.15	10862.65
871.469	10952.37
871.789	10922.76
872.109	10889.54
872.428	10797.12
872.748	10791.47
873.067	10870.79
873.386	10806.38
873.706	10817.23
874.025	10708.31
874.344	10711.7
874.663	10785.37
874.982	10734.97
875.301	10642.32
875.62	10586.73
875.939	10671.24
876.258	10619.49
876.577	10629.21
876.896	10597.8
877.214	10563.23
877.533	10564.81
877.852	10554.19
878.17	10506.73
878.489	10535.88
878.807	10486.84
879.125	10492.27
879.444	10452.95
879.762	10455.21
880.08	10480.97
880.398	10409.1
880.716	10438.26
881.034	10386.05
881.352	10391.03
881.67	10330.91
881.988	10373.63
882.306	10284.81
882.624	10266.28
882.941	10225.83
883.259	10148.77
883.577	10157.59
883.894	10205.72
884.212	10203.46
884.529	10156
884.846	10109.45
885.164	10095.67
885.481	10127.3
885.798	10033.75
886.115	9921.66
886.432	10044.37
886.75	9987.2
887.067	9908.1
887.383	9917.14
887.7	9943.58
888.017	9857.48
888.334	9856.13
888.651	9821.1
888.967	9788.56
889.284	9789.69
889.6	9746.75
889.917	9695.68
890.233	9652.29
890.55	9645.28
890.866	9546.75
891.182	9625.17
891.498	9602.35
891.815	9535.68
892.131	9553.53
892.447	9481.22
892.763	9398.51
893.079	9425.85
893.395	9343.37
893.71	9330.94
894.026	9371.62
894.342	9312.18
894.657	9291.85
894.973	9241.45
895.289	9232.86
895.604	9225.18
895.92	9135.47
896.235	9148.8
896.55	9054.11
896.865	9052.76
897.181	9079.65
897.496	9034.23
897.811	8950.16
898.126	8962.14
898.441	8908.81
898.756	8899.09
899.071	8838.98
899.386	8859.99
899.7	8745.87
900.015	8790.62
900.33	8679.66
900.644	8658.19
900.959	8648.47
901.273	8551.75
901.588	8590.4
901.902	8553.56
902.216	8575.03
902.531	8514.92
902.845	8579.1
903.159	8419.33
903.473	8378.42
903.787	8332.55
904.101	8373.68
904.415	8290.97
904.729	8276.05
905.042	8230.41
905.356	8211.65
905.67	8194.25
905.984	8174.14
906.297	8122.84
906.611	8081.71
906.924	8047.81
907.237	8004.87
907.551	8024.31
907.864	7979.34
908.177	7941.6
908.491	7939.34
908.804	7858.89
909.117	7824.77
909.43	7792.45
909.743	7728.95
910.056	7693.24
910.368	7730.08
910.681	7704.54
910.994	7663.64
911.307	7567.15
911.619	7537.09
911.932	7586.81
912.244	7427.49
912.557	7511.78
912.869	7403.08
913.181	7464.1
913.494	7369.41
913.806	7387.26
914.118	7340.94
914.43	7283.99
914.742	7266.59
915.054	7261.39
915.366	7184.56
915.678	7151.34
915.99	7146.37
916.302	7107.72
916.613	7102.98
916.925	7087.84
917.236	7089.64
917.548	6968.07
917.859	7039.7
918.171	6944.79
918.482	6933.94
918.794	6818.46
919.105	6858.69
919.416	6846.94
919.727	6785.7
920.038	6775.98
920.349	6752.48
920.66	6691.91
920.971	6743.66
921.282	6691.46
921.593	6589.32
921.903	6647.17
922.214	6612.37
922.525	6503.44
922.835	6515.87
923.146	6460.96
923.456	6483.56
923.767	6429.1
924.077	6465.03
924.387	6420.06
924.697	6349.55
925.008	6334.64
925.318	6333.73
925.628	6284.02
925.938	6274.07
926.248	6216.22
926.558	6199.05
926.867	6119.73
927.177	6204.24
927.487	6160.18
927.796	6117.69
928.106	6149.56
928.416	6045.6
928.725	6027.75
929.034	6018.94
929.344	6032.04
929.653	5987.53
929.962	5919.96
930.271	5863.91
930.581	5920.41
930.89	5859.39
931.199	5855.55
931.508	5839.51
931.817	5837.47
932.125	5763.13
932.434	5800.64
932.743	5696.69
933.051	5713.41
933.36	5645.61
933.669	5613.3
933.977	5621.43
934.286	5644.71
934.594	5573.07
934.902	5562.9
935.21	5545.96
935.519	5587.31
935.827	5536.24
936.135	5460.76
936.443	5427.77
936.751	5428.67
937.059	5408.33
937.367	5375.56
937.674	5401.1
937.982	5379.63
938.29	5328.33
938.597	5302.35
938.905	5268
939.213	5180.99
939.52	5157.72
939.827	5259.18
940.135	5182.8
940.442	5136.02
940.749	5155.91
941.056	5148.9
941.363	5066.19
941.67	5072.3
941.977	5070.94
942.284	4977.38
942.591	4987.55
942.898	4959.3
943.205	4920.66
943.511	4953.2
943.818	4930.15
944.125	4856.71
944.431	4864.17
944.738	4830.95
945.044	4796.6
945.35	4733.77
945.657	4768.35
945.963	4748.46
946.269	4735.36
946.575	4726.54
946.881	4666.66
947.187	4735.81
947.493	4668.69
947.799	4655.81
948.105	4649.26
948.41	4602.93
948.716	4632.53
949.022	4571.52
949.327	4539.88
949.633	4492.65
949.938	4544.4
950.244	4505.76
950.549	4479.77
950.854	4426.89
951.16	4414.46
951.465	4428.7
951.77	4407.68
952.075	4383.05
952.38	4345.08
952.685	4334.69
952.99	4328.36
953.294	4298.98
953.599	4265.31
953.904	4274.35
954.209	4253.11
954.513	4200.23
954.818	4190.06
955.122	4183.28
955.426	4163.39
955.731	4180.79
956.035	4111.42
956.339	4140.8
956.643	4125.65
956.948	4058.54
957.252	4064.41
957.556	4077.75
957.86	4041.14
958.163	4002.27
958.467	4052.66
958.771	3965.43
959.075	3974.25
959.378	3988.48
959.682	3923.17
959.985	3905.1
960.289	3898.54
960.592	3898.54
960.896	3876.85
961.199	3854.02
961.502	3851.09
961.805	3829.39
962.108	3790.07
962.411	3798.21
962.714	3750.07
963.017	3767.25
963.32	3758.66
963.623	3737.42
963.926	3705.33
964.228	3680.92
964.531	3654.48
964.833	3682.5
965.136	3631.43
965.438	3615.16
965.741	3630.75
966.043	3596.85
966.345	3597.98
966.648	3561.6
966.95	3549.4
967.252	3517.99
967.554	3510.3
967.856	3534.71
968.158	3439.12
968.46	3491.55
968.761	3484.09
969.063	3449.97
969.365	3437.99
969.666	3440.25
969.968	3369.29
970.269	3405.67
970.571	3369.52
970.872	3364.09
971.174	3321.38
971.475	3344.43
971.776	3348.05
972.077	3278.67
972.378	3270.76
972.679	3244.1
972.98	3269.63
973.281	3249.75
973.582	3244.32
973.883	3203.19
974.183	3205.23
974.484	3182.18
974.785	3145.12
975.085	3165.91
975.386	3204.55
975.686	3112.8
975.986	3091.33
976.287	3122.29
976.587	3070.54
976.887	3080.03
977.187	3063.31
977.487	3046.59
977.787	3026.25
978.087	2993.25
978.387	2996.42
978.687	2995.51
978.987	2961.39
979.286	2989.86
979.586	2955.52
979.885	2956.19
980.185	2896.53
980.484	2928.85
980.784	2855.41
981.083	2883.88
981.382	2840.94
981.682	2878.68
981.981	2818.8
982.28	2854.95
982.579	2806.37
982.878	2818.12
983.177	2826.48
983.475	2821.28
983.774	2758.23
984.073	2727.27
984.372	2729.53
984.67	2715.07
984.969	2717.33
985.267	2728.18
985.566	2653.38
985.864	2693.6
986.162	2669.2
986.461	2651.57
986.759	2642.98
987.057	2632.81
987.355	2601.63
987.653	2629.2
987.951	2573.38
988.249	2574.73
988.547	2594.85
988.844	2551.46
989.142	2569.99
989.44	2535.41
989.737	2582.19
990.035	2492.25
990.332	2529.99
990.63	2488.86
990.927	2465.13
991.224	2472.59
991.521	2483.66
991.819	2462.42
992.116	2463.1
992.413	2439.6
992.71	2395.76
993.006	2410.9
993.303	2400.05
993.6	2378.58
993.897	2377.23
994.193	2384.01
994.49	2369.09
994.787	2344.68
995.083	2327.74
995.379	2324.8
995.676	2304.46
995.972	2284.57
996.268	2312.37
996.565	2250.9
996.861	2251.81
997.157	2263.33
997.453	2248.19
997.749	2199.83
998.044	2210
998.34	2188.98
998.636	2178.13
998.932	2205.48
999.227	2141.3
999.523	2153.95
999.818	2152.15
1000.114	2112.6
1000.409	2136.33
1000.704	2109.66
1001	2085.03
1001.295	2111.7
1001.59	2099.72
1001.885	2093.62
1002.18	2062.88
1002.475	2064.01
1002.77	2067.63
1003.065	2016.56
1003.359	2034.18
1003.654	2006.16
1003.949	1997.8
1004.243	1947.63
1004.538	1943.56
1004.832	1960.74
1005.127	1949.44
1005.421	1947.63
1005.715	1944.24
1006.009	1941.98
1006.304	1907.86
1006.598	1896.79
1006.892	1895.2
1007.186	1837.8
1007.48	1852.27
1007.773	1875.09
1008.067	1836.9
1008.361	1823.79
1008.655	1808.88
1008.948	1813.4
1009.242	1792.83
1009.535	1784.25
1009.829	1790.35
1010.122	1751.48
1010.415	1760.29
1010.708	1767.07
1011.001	1734.53
1011.295	1707.64
1011.588	1726.17
1011.881	1702.22
1012.173	1711.48
1012.466	1663.12
1012.759	1696.79
1013.052	1682.33
1013.344	1660.86
1013.637	1658.37
1013.93	1655.89
1014.222	1654.08
1014.514	1657.47
1014.807	1587.87
1015.099	1617.47
1015.391	1582.44
1015.683	1611.6
1015.976	1585.38
1016.268	1549.45
1016.56	1565.95
1016.851	1549.9
1017.143	1543.35
1017.435	1545.61
1017.727	1535.67
1018.018	1530.24
1018.31	1494.09
1018.602	1518.94
1018.893	1484.14
1019.185	1479.85
1019.476	1478.27
1019.767	1471.71
1020.058	1423.8
1020.35	1426.74
1020.641	1422
1020.932	1409.34
1021.223	1387.42
1021.514	1398.95
1021.804	1390.81
1022.095	1360.76
1022.386	1370.47
1022.677	1356.01
1022.967	1365.5
1023.258	1341.32
1023.548	1361.66
1023.839	1316.24
1024.129	1309.68
1024.419	1290.47
1024.709	1314.88
1025	1286.41
1025.29	1291.83
1025.58	1264.94
1025.87	1260.19
1026.16	1249.57
1026.449	1237.59
1026.739	1257.93
1027.029	1229.01
1027.319	1220.87
1027.608	1216.8
1027.898	1263.81
1028.187	1153.53
1028.477	1174.77
1028.766	1202.34
1029.055	1166.64
1029.344	1168.22
1029.634	1155.11
1029.923	1172.29
1030.212	1140.42
1030.501	1146.3
1030.79	1127.99
1031.078	1145.85
1031.367	1119.86
1031.656	1125.06
1031.945	1101.33
1032.233	1123.25
1032.522	1102.23
1032.81	1071.05
1033.099	1070.37
1033.387	1072.85
1033.675	1073.08
1033.963	1062.23
1034.251	1040.99
1034.54	1052.29
1034.828	1050.48
1035.116	1057.71
1035.403	1013.42
1035.691	1032.18
1035.979	1025.4
1036.267	1040.76
1036.554	1022.68
1036.842	996.92
1037.129	1006.19
1037.417	998.05
1037.704	986.08
1037.992	961.22
1038.279	968.45
1038.566	982.01
1038.853	982.01
1039.14	982.01
