Data from hue_30_FLMS001491_44.txt Node
Date: Mon Feb 06 15:05:22 GMT 2017
User: dcchb
Spectrometer: FLMS00149
Trigger mode: 0
Integration Time (sec): 2.000000E-2
Scans to average: 10
Electric dark correction enabled: true
Nonlinearity correction enabled: false
Boxcar width: 0
XAxis mode: Wavelengths
Number of Pixels in Spectrum: 2048
>>>>>Begin Spectral Data<<<<<
341.393	-14.73
341.776	-14.73
342.16	-14.73
342.543	-64.22
342.927	-68.52
343.31	-74.62
343.693	-58.12
344.077	-58.57
344.46	-60.83
344.843	-58.12
345.226	-30.1
345.61	-42.98
345.993	-17.9
346.376	10.35
346.759	8.54
347.142	30.47
347.525	52.39
347.908	49.9
348.291	74.31
348.674	71.37
349.057	103.91
349.44	118.6
349.823	148.88
350.206	150.91
350.588	183.91
350.971	206.05
351.354	220.29
351.737	230.91
352.119	261.65
352.502	274.53
352.884	258.03
353.267	280.85
353.65	312.04
354.032	308.2
354.414	320.18
354.797	305.94
355.179	305.26
355.562	320.63
355.944	325.6
356.326	346.16
356.709	334.64
357.091	326.95
357.473	319.05
357.855	330.57
358.238	340.74
358.62	344.13
359.002	352.04
359.384	357.91
359.766	333.96
360.148	313.85
360.53	326.5
360.912	331.02
361.294	344.13
361.676	336.22
362.057	340.51
362.439	325.15
362.821	318.82
363.203	315.88
363.584	305.03
363.966	321.53
364.348	330.34
364.729	328.08
365.111	320.18
365.493	336.9
365.874	314.3
366.256	307.52
366.637	297.8
367.019	306.39
367.4	319.95
367.781	324.24
368.163	310.91
368.544	310.91
368.925	319.5
369.306	316.79
369.688	319.27
370.069	301.42
370.45	308.88
370.831	307.97
371.212	311.81
371.593	310.91
371.974	338.48
372.355	302.1
372.736	292.61
373.117	320.18
373.498	297.58
373.879	320.4
374.26	324.47
374.641	308.88
375.021	295.54
375.402	300.06
375.783	337.58
376.163	336.67
376.544	294.87
376.925	307.07
377.305	307.75
377.686	317.46
378.066	320.4
378.447	334.64
378.827	334.41
379.208	313.4
379.588	335.54
379.968	326.73
380.349	335.32
380.729	330.34
381.109	329.89
381.489	315.88
381.87	329.21
382.25	328.99
382.63	349.78
383.01	346.84
383.39	354.07
383.77	344.58
384.15	343.45
384.53	361.3
384.91	347.97
385.29	361.53
385.67	359.5
386.049	371.25
386.429	338.48
386.809	336.22
387.189	341.64
387.568	322.66
387.948	366.28
388.328	359.5
388.707	349.78
389.087	357.91
389.466	352.26
389.846	329.21
390.225	336.67
390.605	343.68
390.984	349.55
391.363	376.22
391.743	360.63
392.122	356.56
392.501	367.41
392.881	375.31
393.26	368.31
393.639	360.4
394.018	368.99
394.397	394.98
394.776	375.77
395.155	379.61
395.534	394.07
395.913	368.08
396.292	377.8
396.671	376.44
397.05	390.68
397.429	367.86
397.808	379.83
398.186	380.51
398.565	374.86
398.944	393.39
399.323	374.86
399.701	372.38
400.08	389.55
400.458	385.94
400.837	379.16
401.215	389.1
401.594	376.67
401.972	411.7
402.351	401.08
402.729	399.27
403.107	394.75
403.486	390.91
403.864	419.61
404.242	398.37
404.62	403.34
404.999	407.4
405.377	398.82
405.755	433.17
406.133	416.67
406.511	399.5
406.889	421.19
407.267	427.29
407.645	429.78
408.023	426.61
408.401	415.31
408.779	444.24
409.156	425.94
409.534	430.91
409.912	411.7
410.29	448.99
410.667	445.14
411.045	463.45
411.422	464.58
411.8	425.26
412.178	448.53
412.555	459.38
412.933	473.17
413.31	463
413.687	460.74
414.065	467.52
414.442	459.61
414.819	463.67
415.197	487.18
415.574	466.84
415.951	474.3
416.328	474.75
416.705	480.4
417.082	492.83
417.46	473.62
417.837	484.92
418.214	499.61
418.591	495.54
418.967	498.02
419.344	493.05
419.721	502.09
420.098	505.93
420.475	507.74
420.852	510.68
421.228	508.19
421.605	518.14
421.982	529.44
422.358	514.29
422.735	503.45
423.111	545.48
423.488	534.18
423.864	512.26
424.241	517.01
424.617	537.34
424.994	542.54
425.37	568.3
425.746	540.06
426.123	544.8
426.499	541.64
426.875	538.7
427.251	547.51
427.627	569.43
428.003	585.7
428.379	579.83
428.756	589.32
429.132	583.22
429.507	588.19
429.883	583.67
430.259	587.06
430.635	599.26
431.011	613.27
431.387	587.96
431.763	601.3
432.138	614.18
432.514	616.21
432.89	611.24
433.265	640.17
433.641	621.86
434.016	638.36
434.392	646.49
434.767	643.78
435.143	648.3
435.518	657.34
435.894	672.03
436.269	646.49
436.644	679.26
437.02	688.98
437.395	677.91
437.77	683.33
438.145	690.56
438.52	690.11
438.895	678.81
439.271	711.8
439.646	688.98
440.021	715.42
440.395	739.15
440.77	704.12
441.145	719.26
441.52	738.47
441.895	713.61
442.27	728.3
442.645	743.21
443.019	755.19
443.394	740.5
443.769	742.76
444.143	766.04
444.518	771.69
444.892	771.46
445.267	752.03
445.641	768.3
446.016	764.91
446.39	772.37
446.764	785.25
447.139	765.81
447.513	773.5
447.887	772.37
448.262	777.11
448.636	783.67
449.01	788.19
449.384	821.18
449.758	795.42
450.132	817.79
450.506	817.79
450.88	833.83
451.254	826.38
451.628	833.61
452.002	840.39
452.376	834.06
452.75	871.57
453.123	843.78
453.497	866.6
453.871	866.38
454.244	897.56
454.618	914.51
454.992	890.33
455.365	893.27
455.739	908.41
456.112	923.78
456.486	907.73
456.859	931.91
457.232	954.28
457.606	956.32
457.979	952.02
458.352	984.34
458.725	1009.65
459.099	999.48
459.472	985.02
459.845	991.8
460.218	1042.19
460.591	1026.15
460.964	1025.24
461.337	1049.42
461.71	1061.4
462.083	1073.38
462.456	1062.75
462.829	1090.78
463.201	1089.42
463.574	1099.59
463.947	1129.42
464.32	1163.54
464.692	1142.75
465.065	1160.38
465.438	1171.9
465.81	1181.4
466.183	1208.97
466.555	1235.18
466.928	1255.29
467.3	1240.38
467.672	1288.51
468.045	1275.86
468.417	1287.16
468.789	1290.09
469.161	1321.73
469.534	1344.33
469.906	1378.23
470.278	1360.37
470.65	1402.86
471.022	1434.27
471.394	1454.83
471.766	1467.94
472.138	1453.03
472.51	1513.36
472.882	1559.24
473.253	1554.27
473.625	1566.92
473.997	1605.34
474.369	1591.78
474.74	1649.41
475.112	1694.38
475.484	1686.24
475.855	1751.55
476.227	1734.15
476.598	1814.6
476.97	1825.45
477.341	1886.01
477.713	1908.61
478.084	1913.81
478.455	1967.82
478.827	2021.15
479.198	2049.4
479.569	2092.78
479.94	2101.82
480.311	2157.19
480.682	2225.89
481.053	2299.78
481.424	2304.3
481.795	2373.23
482.166	2387.92
482.537	2446.22
482.908	2520.12
483.279	2562.38
483.65	2580.45
484.021	2680.34
484.391	2691.19
484.762	2731.41
485.133	2797.62
485.503	2845.31
485.874	2908.13
486.244	2938.19
486.615	3016.15
486.985	3055.92
487.356	3163.49
487.726	3162.36
488.097	3269.48
488.467	3292.53
488.837	3362.13
489.207	3416.14
489.578	3490.04
489.948	3524.61
490.318	3600.09
490.688	3627.66
491.058	3711.72
491.428	3772.74
491.798	3835.56
492.168	3930.25
492.538	3936.35
492.908	3957.14
493.278	4044.6
493.648	4102.67
494.017	4131.15
494.387	4236
494.757	4244.14
495.126	4265.38
495.496	4346.96
495.866	4391.71
496.235	4495.66
496.605	4519.61
496.974	4530.23
497.344	4617.69
497.713	4590.35
498.082	4666.05
498.452	4744.01
498.821	4766.84
499.19	4793.28
499.559	4878.7
499.928	4865.59
500.298	4954.86
500.667	4979.94
501.036	5022.42
501.405	5087.51
501.774	5083.44
502.143	5134.51
502.512	5165.47
502.88	5214.51
503.249	5195.53
503.618	5271.68
503.987	5347.16
504.356	5331.34
504.724	5395.3
505.093	5445.69
505.462	5428.74
505.83	5479.14
506.199	5538.34
506.567	5586.7
506.936	5552.81
507.304	5633.26
507.672	5685.46
508.041	5719.58
508.409	5727.26
508.777	5793.03
509.145	5845.91
509.514	5840.71
509.882	5896.53
510.25	5888.84
510.618	5903.98
510.986	5999.57
511.354	6029.86
511.722	6069.18
512.09	6104.2
512.458	6093.36
512.826	6204.54
513.193	6187.59
513.561	6216.74
513.929	6235.27
514.297	6273.01
514.664	6318.44
515.032	6292.45
515.4	6381.94
515.767	6369.06
516.135	6392.33
516.502	6411.77
516.869	6514.81
517.237	6537.64
517.604	6533.8
517.972	6595.72
518.339	6584.87
518.706	6620.12
519.073	6730.85
519.44	6706
519.808	6746.9
520.175	6764.53
520.542	6837.74
520.909	6815.6
521.276	6847.24
521.643	6847.91
522.009	6905.31
522.376	6950.96
522.743	6967.23
523.11	7046.55
523.477	7119.54
523.843	7129.94
524.21	7231.18
524.577	7214.46
524.943	7272.99
525.31	7301.46
525.676	7382.59
526.043	7364.51
526.409	7442.02
526.776	7481.12
527.142	7484.28
527.508	7555.24
527.874	7560.89
528.241	7663.94
528.607	7640.89
528.973	7727.44
529.339	7672.75
529.705	7796.36
530.071	7807.21
530.437	7857.38
530.803	7875.23
531.169	8007.43
531.535	7989.58
531.901	7983.25
532.267	7994.78
532.632	8133.3
532.998	8102.34
533.364	8148.44
533.73	8156.35
534.095	8238.39
534.461	8227.31
534.826	8300.08
535.192	8376.91
535.557	8436.35
535.923	8427.76
536.288	8463.92
536.653	8453.97
537.019	8450.36
537.384	8518.15
537.749	8591.14
538.114	8546.17
538.479	8628.43
538.845	8683.57
539.21	8649.45
539.575	8698.03
539.94	8717.24
540.305	8747.07
540.67	8827.97
541.034	8809.22
541.399	8853.28
541.764	8919.27
542.129	8945.94
542.494	8977.35
542.858	9020.06
543.223	8975.54
543.587	9081.3
543.952	9120.17
544.316	9167.63
544.681	9172.37
545.045	9227.51
545.41	9268.19
545.774	9285.59
546.138	9320.62
546.503	9381.63
546.867	9359.26
547.231	9497.11
547.595	9494.17
547.959	9617.78
548.324	9538.92
548.688	9541.4
549.052	9532.36
549.416	9612.13
549.779	9619.37
550.143	9639.93
550.507	9748.4
550.871	9720.61
551.235	9777.78
551.599	9859.36
551.962	9845.57
552.326	9862.52
552.689	9991.11
553.053	9904.33
553.417	9960.83
553.78	10048.51
554.143	9998.56
554.507	10044.67
554.87	10064.55
555.234	10186.36
555.597	10164.44
555.96	10144.1
556.323	10217.99
556.686	10208.05
557.05	10251.67
557.413	10285.56
557.776	10375.73
558.139	10474.48
558.502	10466.12
558.865	10503.86
559.228	10516.97
559.59	10544.31
559.953	10559.23
560.316	10691.65
560.679	10609.4
561.041	10728.94
561.404	10786.57
561.767	10749.28
562.129	10708.38
562.492	10840.8
562.854	10845.32
563.217	10925.32
563.579	10953.57
563.941	10971.19
564.304	11091.42
564.666	11107.01
565.028	11133.9
565.39	11130.06
565.753	11190.4
566.115	11223.84
566.477	11265.65
566.839	11295.93
567.201	11297.51
567.563	11403.73
567.925	11396.72
568.287	11441.01
568.648	11490.05
569.01	11559.88
569.372	11585.87
569.734	11555.81
570.095	11668.35
570.457	11760.78
570.819	11803.04
571.18	11766.65
571.542	11920.1
571.903	11875.8
572.265	12000.55
572.626	12130.71
572.987	12025.63
573.349	12186.3
573.71	12198.05
574.071	12252.06
574.432	12292.74
574.794	12461.1
575.155	12490.25
575.516	12519.4
575.877	12655.22
576.238	12701.09
576.599	12757.81
576.96	12770.02
577.32	12929.79
577.681	13027.41
578.042	13098.14
578.403	13150.57
578.763	13350.79
579.124	13324.81
579.485	13530
579.845	13637.34
580.206	13614.97
580.566	13801.4
580.927	14020.83
581.287	14153.48
581.648	14205.91
582.008	14447.26
582.368	14543.76
582.728	14655.17
583.089	14810.64
583.449	14988.94
583.809	15214.02
584.169	15354.13
584.529	15525.43
584.889	15818.98
585.249	15820.78
585.609	16035.69
585.969	16217.61
586.329	16485.85
586.688	16686.52
587.048	16820.31
587.408	16961.32
587.768	17192.5
588.127	17484.02
588.487	17648.31
588.846	17949.77
589.206	18125.58
589.565	18321.06
589.925	18633.59
590.284	18803.98
590.643	19015.73
591.003	19389.96
591.362	19579.33
591.721	19866.55
592.08	20060.45
592.44	20307.9
592.799	20558.06
593.158	20802.57
593.517	21100.65
593.876	21286.86
594.235	21576.34
594.593	21713.51
594.952	22119.6
595.311	22238.24
595.67	22608.63
596.029	22782.18
596.387	23132.68
596.746	23367.93
597.104	23466.91
597.463	23768.37
597.822	24042.49
598.18	24208.36
598.538	24464.17
598.897	24843.15
599.255	24891.96
599.613	25348.9
599.972	25444.71
600.33	25756.34
600.688	25900.52
601.046	26222.32
601.404	26512.93
601.762	26706.6
602.12	27002.86
602.478	27258.68
602.836	27453.25
603.194	27627.25
603.552	27732.56
603.91	27885.1
604.268	28356.95
604.625	28323.51
604.983	28651.18
605.341	28604.86
605.698	28968.24
606.056	29205.52
606.413	29375
606.771	29677.37
607.128	29869
607.485	29950.81
607.843	30125.04
608.2	30448.42
608.557	30766.15
608.914	30784.68
609.272	30970.22
609.629	31085.69
609.986	31471.9
610.343	31423.54
610.7	31803.64
611.057	31800.7
611.414	32141.94
611.771	32031.66
612.127	32293.8
612.484	32436.62
612.841	32837.74
613.198	32721.81
613.554	32856.95
613.911	33185.98
614.267	33206.54
614.624	33186.2
614.98	33470.94
615.337	33670.71
615.693	33703.93
616.05	33791.39
616.406	34137.59
616.762	34052.4
617.118	34065.95
617.475	34280.41
617.831	34606.51
618.187	34725.6
618.543	34660.29
618.899	34989.77
619.255	34993.84
619.611	34975.76
619.967	35307.73
620.323	35300.5
620.678	35334.62
621.034	35227.73
621.39	35473.15
621.746	35414.17
622.101	35906.81
622.457	35757.66
622.812	35820.94
623.168	36014.6
623.523	36124.21
623.879	36341.83
624.234	35953.14
624.589	36272.22
624.945	36436.51
625.3	36302.96
625.655	36481.48
626.01	36417.98
626.365	36498.88
626.72	36537.08
627.075	36577.98
627.43	36559.22
627.785	36576.17
628.14	36826.11
628.495	36705.21
628.85	36714.7
629.205	36633.8
629.559	37103.39
629.914	36874.92
630.269	36925.54
630.623	36833.11
630.978	36911.08
631.332	36946.1
631.687	36996.05
632.041	36928.48
632.396	37104.07
632.75	36960.34
633.104	37025.2
633.459	36893.68
633.813	36896.39
634.167	36919.21
634.521	36926.22
634.875	37049.6
635.229	37057.06
635.583	36849.61
635.937	36867.01
636.291	36891.87
636.645	36941.36
636.999	36882.15
637.352	37008.93
637.706	36685.09
638.06	37021.36
638.413	36827.69
638.767	36909.95
639.121	37049.38
639.474	36927.35
639.828	36773.23
640.181	36870.4
640.534	36771.65
640.888	36703.4
641.241	36686.9
641.594	36698.65
641.947	36829.72
642.301	36705.66
642.654	36759.44
643.007	36740.01
643.36	36661.14
643.713	36561.48
644.066	36794.47
644.419	36513.12
644.771	36381.83
645.124	35972.57
645.477	35827.49
645.83	35761.96
646.182	35696.87
646.535	35627.5
646.888	35706.36
647.24	35428.18
647.593	35685.8
647.945	35564.45
648.298	35411
648.65	35459.36
649.002	35270.67
649.355	35494.62
649.707	35429.53
650.059	35601.28
650.411	35954.72
650.763	36122.4
651.115	36336.63
651.467	36323.3
651.819	36284.2
652.171	36392.67
652.523	36225.9
652.875	36174.83
653.227	36071.55
653.578	36389.06
653.93	36236.52
654.282	36192
654.633	36049.41
654.985	36022.06
655.337	36139.35
655.688	36077.88
656.039	36287.14
656.391	35931.44
656.742	35973.02
657.094	36017.32
657.445	35959.46
657.796	36070.42
658.147	35909.75
658.498	35986.13
658.849	35887.6
659.2	35903.65
659.551	35880.37
659.902	35953.59
660.253	35949.29
660.604	35828.39
660.955	35755.85
661.306	35884.44
661.656	35748.62
662.007	35916.3
662.358	35808.28
662.708	35782.52
663.059	35693.48
663.409	35524.67
663.76	35931.22
664.11	35829.3
664.461	35897.09
664.811	35760.15
665.161	35831.56
665.511	35720.6
665.862	35743.88
666.212	35850.54
666.562	35778.45
666.912	35820.48
667.262	35762.86
667.612	35716.76
667.962	35813.48
668.312	35671.11
668.662	35967.83
669.011	35670.88
669.361	35747.27
669.711	35660.26
670.06	35620.26
670.41	35588.85
670.76	35525.13
671.109	35775.29
671.459	35776.87
671.808	35531.23
672.157	35592.02
672.507	35688.06
672.856	35377.33
673.205	35538.46
673.554	35655.29
673.904	35438.35
674.253	35648.51
674.602	35535.75
674.951	35009.88
675.3	34872.26
675.649	35429.99
675.998	35398.12
676.346	35245.58
676.695	35491.91
677.044	35264.57
677.393	35340.95
677.741	35337.56
678.09	35232.93
678.438	35216.88
678.787	35332.14
679.135	35284.68
679.484	35003.78
679.832	35128.98
680.181	34995.65
680.529	35108.64
680.877	34935.54
681.225	35039.04
681.573	35089.43
681.922	34935.99
682.27	34708.65
682.618	34710.23
682.966	34719.04
683.314	34777.57
683.661	34718.37
684.009	34594.08
684.357	34509.11
684.705	34399.05
685.053	34419.17
685.4	34446.06
685.748	34232.96
686.095	34223.69
686.443	34077.48
686.79	33998.61
687.138	34173.07
687.485	34068.21
687.832	34048.33
688.18	34078.38
688.527	33725.85
688.874	33872.29
689.221	33828.22
689.568	33601.11
689.915	33645.4
690.262	33644.5
690.609	33555.01
690.956	33461.22
691.303	33360.21
691.65	33208.12
691.997	33368.35
692.344	32972.2
692.69	33005.87
693.037	32976.27
693.383	32715.48
693.73	32805.42
694.077	32678.87
694.423	32695.6
694.769	32491.98
695.116	32387.81
695.462	32379.45
695.808	32286.11
696.155	32345.32
696.501	32227.81
696.847	32186.68
697.193	31822.17
697.539	31986.69
697.885	31735.62
698.231	31634.61
698.577	31709.86
698.923	31614.27
699.269	31639.35
699.614	31365.46
699.96	31328.85
700.306	31241.62
700.651	31210.44
700.997	31136.09
701.342	31033.72
701.688	31038.01
702.033	30914.17
702.379	30913.95
702.724	30810.22
703.069	30795.08
703.415	30479.16
703.76	30498.36
704.105	30540.17
704.45	30440.51
704.795	30276.68
705.14	30127.98
705.485	30177.02
705.83	30016.12
706.175	30071.03
706.52	30016.34
706.865	29944.48
707.209	29965.95
707.554	29834.65
707.899	29830.36
708.243	29539.75
708.588	29558.05
708.932	29436.25
709.277	29417.94
709.621	29504.49
709.966	29171.85
710.31	29453.87
710.654	28940.67
710.998	29031.28
711.342	29148.34
711.687	29081
712.031	28871.97
712.375	28909.48
712.719	28798.97
713.063	28757.39
713.407	28848.46
713.75	28601.47
714.094	28577.29
714.438	28467.01
714.782	28665.42
715.125	28382.26
715.469	28366.67
715.812	28300
716.156	28196.05
716.499	28322.15
716.843	28210.29
717.186	27926
717.53	28286.45
717.873	28075.6
718.216	28010.07
718.559	27929.39
718.902	27690.75
719.246	27889.39
719.589	27715.39
719.932	27638.55
720.275	27757.19
720.617	27614.6
720.96	27522.17
721.303	27502.74
721.646	27631.32
721.989	27373.93
722.331	27466.81
722.674	27304.55
723.016	27424.1
723.359	27337.09
723.701	27356.3
724.044	27130.09
724.386	27000.38
724.729	27151.33
725.071	27105.01
725.413	26972.13
725.755	26924.67
726.097	26816.65
726.439	26759.93
726.782	26694.62
727.124	26865.69
727.465	26636.55
727.807	26574.63
728.149	26628.64
728.491	26670.89
728.833	26658.92
729.175	26517.45
729.516	26498.47
729.858	26519.49
730.199	26409.43
730.541	26380.51
730.882	26346.61
731.224	26458.92
731.565	26215.77
731.906	26302.77
732.248	26208.99
732.589	26123.11
732.93	25980.74
733.271	26159.72
733.612	26070.01
733.953	26037.24
734.294	25952.95
734.635	25992.49
734.976	25980.07
735.317	25760.18
735.658	25838.83
735.999	25755.89
736.339	25696.01
736.68	25869.33
737.021	25589.79
737.361	25550.92
737.702	25689
738.042	25600.41
738.383	25599.28
738.723	25490.81
739.063	25474.54
739.404	25507.31
739.744	25492.39
740.084	25361.78
740.424	25356.58
740.764	25322
741.104	25332.17
741.444	25249.24
741.784	25032.97
742.124	25259.86
742.464	25143.25
742.804	25110.71
743.143	24914.78
743.483	25137.15
743.823	24999.3
744.162	24972.86
744.502	24933.54
744.841	24807.67
745.181	24948.68
745.52	24862.58
745.86	24880.89
746.199	24866.2
746.538	24767.67
746.877	24746.43
747.216	24827.78
747.556	24647.9
747.895	24720.66
748.234	24525.64
748.573	24521.8
748.911	24524.51
749.25	24558.41
749.589	24571.29
749.928	24484.29
750.267	24559.54
750.605	24388.02
750.944	24369.49
751.283	24231.64
751.621	24430.05
751.96	24185.99
752.298	24103.96
752.636	24214.46
752.975	24117.06
753.313	23963.4
753.651	24131.3
753.989	24083.17
754.327	23933.34
754.666	23762.72
755.004	23808.37
755.342	23856.73
755.679	23795.94
756.017	23630.3
756.355	23848.14
756.693	23610.18
757.031	23671.65
757.368	23483.86
757.706	23510.75
758.044	23389.63
758.381	23436.86
758.719	23328.61
759.056	23289.06
759.394	23264.2
759.731	23105.79
760.068	23149.41
760.405	23035.74
760.743	22984.44
761.08	23018.34
761.417	22928.39
761.754	22817.44
762.091	22803.43
762.428	22831.67
762.765	22584.67
763.102	22651.11
763.438	22612.92
763.775	22475.98
764.112	22527.5
764.449	22533.6
764.785	22267.62
765.122	22061.07
765.458	22182.65
765.795	22082.31
766.131	22031.24
766.467	21981.75
766.804	21904.69
767.14	21816.11
767.476	21775.88
767.812	21641.87
768.148	21774.3
768.485	21539.96
768.821	21461.09
769.157	21392.84
769.492	21279.85
769.828	21391.71
770.164	21065.39
770.5	21242.56
770.836	21070.36
771.171	21004.15
771.507	20995.11
771.842	20788.56
772.178	20837.15
772.513	20725.97
772.849	20661.56
773.184	20680.77
773.519	20603.48
773.855	20413.43
774.19	20354.9
774.525	20314.68
774.86	20325.3
775.195	20172.53
775.53	20156.26
775.865	20023.16
776.2	19950.39
776.535	19802.6
776.87	19797.4
777.205	19702.04
777.539	19692.1
777.874	19717.41
778.209	19508.37
778.543	19463.85
778.878	19390.63
779.212	19410.07
779.547	19194.48
779.881	19203.97
780.215	19141.83
780.55	19131.88
780.884	18970.53
781.218	18984.54
781.552	18902.74
781.886	18750.43
782.22	18671.33
782.554	18611.9
782.888	18466.82
783.222	18437.44
783.556	18346.59
783.889	18290.55
784.223	18205.13
784.557	18156.77
784.89	18298.69
785.224	18028.18
785.557	18022.53
785.891	17905.7
786.224	17931.46
786.558	17852.14
786.891	17758.81
787.224	17729.43
787.557	17706.61
787.891	17578.25
788.224	17606.73
788.557	17531.47
788.89	17535.09
789.223	17444.24
789.556	17285.15
789.888	17249.67
790.221	17154.76
790.554	17022.33
790.887	17170.35
791.219	17014.43
791.552	17028.44
791.884	16971.49
792.217	16845.39
792.549	16711.38
792.882	16729.69
793.214	16560.88
793.546	16712.06
793.879	16521.33
794.211	16421.9
794.543	16527.21
794.875	16447.21
795.207	16542.8
795.539	16399.07
795.871	16360.21
796.203	16166.76
796.535	16035.24
796.867	16093.77
797.198	15987.33
797.53	16042.02
797.862	15822.82
798.193	15946.21
798.525	15822.82
798.856	15821.91
799.188	15674.35
799.519	15635.03
799.85	15495.6
800.182	15559.1
800.513	15595.93
800.844	15383.96
801.175	15461.02
801.506	15365.88
801.837	15278.88
802.168	15309.16
802.499	15191.42
802.83	15138.99
803.161	15059.9
803.491	15161.37
803.822	15014.48
804.153	15042.73
804.483	14862.62
804.814	14826.01
805.145	14847.02
805.475	14777.65
805.805	14777.2
806.136	14743.3
806.466	14831.21
806.796	14686.13
807.126	14610.42
807.457	14515.51
807.787	14557.31
808.117	14502.85
808.447	14468.96
808.777	14490.2
809.107	14378.34
809.436	14302.63
809.766	14301.28
810.096	14217.44
810.426	14146.48
810.755	14170.43
811.085	14194.84
811.414	14161.17
811.744	14059.02
812.073	14054.96
812.403	13999.36
812.732	13946.94
813.061	13934.28
813.39	13853.15
813.719	13798.46
814.049	13845.92
814.378	13767.51
814.707	13760.5
815.036	13685.7
815.365	13622.42
815.693	13465.59
816.022	13536.32
816.351	13504.69
816.68	13481.86
817.008	13411.81
817.337	13404.12
817.665	13351.02
817.994	13308.08
818.322	13374.75
818.651	13214.53
818.979	13266.05
819.307	13248.42
819.636	13191.25
819.964	13111.7
820.292	13159.16
820.62	13198.71
820.948	13177.92
821.276	13126.39
821.604	13139.95
821.932	13143.79
822.259	13139.05
822.587	13061.99
822.915	13113.74
823.243	13144.47
823.57	13124.58
823.898	13062.44
824.225	12982.22
824.553	13091.59
824.88	13040.97
825.207	13063.57
825.535	12996.9
825.862	13047.98
826.189	13036.68
826.516	13049.11
826.843	13104.25
827.17	13092.04
827.497	13134.53
827.824	12996.23
828.151	13103.34
828.478	13045.94
828.805	13045.26
829.131	12976.34
829.458	13030.35
829.785	13012.04
830.111	12981.31
830.438	12986.51
830.764	13032.84
831.09	13041.42
831.417	12865.38
831.743	13019.95
832.069	12984.47
832.395	12849.56
832.722	12943.8
833.048	12926.17
833.374	12935.21
833.7	12870.13
834.026	12899.51
834.351	12944.7
834.677	12886.17
835.003	12855.44
835.329	12874.87
835.654	12782.22
835.98	12787.87
836.306	12788.55
836.631	12769.79
836.956	12796.01
837.282	12738.83
837.607	12702.22
837.932	12634.43
838.258	12688.66
838.583	12682.34
838.908	12601.21
839.233	12643.47
839.558	12600.98
839.883	12526.63
840.208	12481.66
840.533	12557.37
840.858	12494.32
841.182	12509.23
841.507	12398.05
841.832	12405.96
842.156	12384.72
842.481	12365.28
842.805	12245.29
843.13	12276.25
843.454	12281.89
843.778	12272.18
844.103	12207.77
844.427	12182.91
844.751	12128
845.075	12130.26
845.399	12071.73
845.723	12046.42
846.047	12039.87
846.371	11878.29
846.695	12000.32
847.019	11871.96
847.343	11842.58
847.666	11735.24
847.99	11709.03
848.313	11716.94
848.637	11616.38
848.96	11631.74
849.284	11551.29
849.607	11492.08
849.931	11450.5
850.254	11379.77
850.577	11330.73
850.9	11215.03
851.223	11235.37
851.546	11116.73
851.869	11143.85
852.192	11173.45
852.515	11041.7
852.838	11011.19
853.161	11024.07
853.483	10899.78
853.806	10886.23
854.129	10881.93
854.451	10866.34
854.774	10741.82
855.096	10758.54
855.419	10706.34
855.741	10759.67
856.063	10662.95
856.385	10629.73
856.708	10601.94
857.03	10600.58
857.352	10556.97
857.674	10497.08
857.996	10465.9
858.318	10443.07
858.64	10470.64
858.961	10447.59
859.283	10348.84
859.605	10308.61
859.926	10353.58
860.248	10335.96
860.57	10240.37
860.891	10301.16
861.212	10172.8
861.534	10145
861.855	10078.79
862.176	10093.03
862.498	10113.36
862.819	10060.26
863.14	10159.24
863.461	10057.09
863.782	9926.7
864.103	10051.44
864.424	9985.01
864.745	10029.3
865.065	9990.88
865.386	9858
865.707	9956.76
866.027	9951.33
866.348	9899.36
866.668	9851
866.989	9774.39
867.309	9798.57
867.63	9779.81
867.95	9821.39
868.27	9787.04
868.59	9817.33
868.91	9729.19
869.23	9685.58
869.55	9685.8
869.87	9686.71
870.19	9723.09
870.51	9648.97
870.83	9730.78
871.15	9566.71
871.469	9532.81
871.789	9674.05
872.109	9605.81
872.428	9605.81
872.748	9553.6
873.067	9587.95
873.386	9558.58
873.706	9547.5
874.025	9501.63
874.344	9417.34
874.663	9456.88
874.982	9412.37
875.301	9412.14
875.62	9423.66
875.939	9352.25
876.258	9358.81
876.577	9364.01
876.896	9375.3
877.214	9252.82
877.533	9253.05
877.852	9300.96
878.17	9290.33
878.489	9334.18
878.807	9310.45
879.125	9253.5
879.444	9205.59
879.762	9219.15
880.08	9176.21
880.398	9152.71
880.716	9206.95
881.034	9133.95
881.352	9200.62
881.67	9148.19
881.988	9136.44
882.306	9100.28
882.624	9070
882.941	9025.03
883.259	8971.25
883.577	8998.37
883.894	8957.24
884.212	8951.59
884.529	8942.55
884.846	8913.62
885.164	8926.5
885.481	8847.63
885.798	8898.48
886.115	8747.3
886.432	8869.33
886.75	8803.12
887.067	8760.18
887.383	8757.92
887.7	8730.8
888.017	8664.59
888.334	8679.28
888.651	8635.44
888.967	8561.09
889.284	8631.37
889.6	8613.29
889.917	8500.53
890.233	8507.76
890.55	8441.77
890.866	8517.47
891.182	8490.58
891.498	8423.69
891.815	8430.92
892.131	8375.78
892.447	8374.65
892.763	8339.17
893.079	8330.59
893.395	8353.86
893.71	8324.03
894.026	8232.51
894.342	8179.63
894.657	8186.18
894.973	8205.39
895.289	8133.3
895.604	8125.62
895.92	8095.79
896.235	8136.47
896.55	8009.01
896.865	8043.81
897.181	7979.86
897.496	7939.18
897.811	7883.59
898.126	7923.14
898.441	7906.42
898.756	7904.38
899.071	7788.45
899.386	7823.03
899.7	7717.04
900.015	7748.68
900.33	7648.34
900.644	7673.88
900.959	7672.3
901.273	7621
901.588	7637.04
901.902	7607.67
902.216	7501.68
902.531	7526.77
902.845	7553.66
903.159	7439.99
903.473	7452.19
903.787	7399.31
904.101	7360.67
904.415	7335.36
904.729	7288.35
905.042	7282.93
905.356	7223.72
905.67	7240.67
905.984	7245.64
906.297	7223.72
906.611	7181.69
906.924	7141.24
907.237	7135.59
907.551	7114.8
907.864	7077.06
908.177	6995.48
908.491	7018.98
908.804	6961.81
909.117	6939.66
909.43	6932.88
909.743	6855.37
910.056	6862.6
910.368	6851.98
910.681	6807.46
910.994	6822.83
911.307	6756.39
911.619	6646.56
911.932	6717.3
912.244	6659.44
912.557	6622.16
912.869	6630.74
913.181	6573.57
913.494	6557.98
913.806	6473.23
914.118	6489.5
914.43	6490.41
914.742	6466
915.054	6391.43
915.366	6433.01
915.678	6397.3
915.99	6355.5
916.302	6304.42
916.613	6253.8
916.925	6317.08
917.236	6215.16
917.548	6220.59
917.859	6207.03
918.171	6223.07
918.482	6171.77
918.794	6153.47
919.105	6106.92
919.416	6070.98
919.727	6088.39
920.038	6051.55
920.349	5975.62
920.66	5988.95
920.971	5968.84
921.282	5962.29
921.593	5892.01
921.903	5887.94
922.214	5820.6
922.525	5815.62
922.835	5793.25
923.146	5759.81
923.456	5763.87
923.767	5682.29
924.077	5689.75
924.387	5676.64
924.697	5609.3
925.008	5636.87
925.318	5656.08
925.628	5580.83
925.938	5558.91
926.248	5538.12
926.558	5498.34
926.867	5426.71
927.177	5477.1
927.487	5478.01
927.796	5369.53
928.106	5391.45
928.416	5357.56
928.725	5396.65
929.034	5372.02
929.344	5304.45
929.653	5328.18
929.962	5279.37
930.271	5227.39
930.581	5219.26
930.89	5165.7
931.199	5150.78
931.508	5178.58
931.817	5155.3
932.125	5108.07
932.434	5095.19
932.743	5005.93
933.051	5051.35
933.36	5028.53
933.669	4955.31
933.977	4989.43
934.286	4971.35
934.594	4968.41
934.902	4914.63
935.21	4893.39
935.519	4943.33
935.827	4913.5
936.135	4813.84
936.443	4802.09
936.751	4795.09
937.059	4785.82
937.367	4729.55
937.674	4750.12
937.982	4727.52
938.29	4704.24
938.597	4724.13
938.905	4618.14
939.213	4609.1
939.52	4628.08
939.827	4601.42
940.135	4577.92
940.442	4592.15
940.749	4557.35
941.056	4520.52
941.363	4504.47
941.67	4469.9
941.977	4512.38
942.284	4487.52
942.591	4414.76
942.898	4395.55
943.205	4386.28
943.511	4370.69
943.818	4335.44
944.125	4319.39
944.431	4325.27
944.738	4301.54
945.044	4291.14
945.35	4259.73
945.657	4245.04
945.963	4218.15
946.269	4218.15
946.575	4206.63
946.881	4192.16
947.187	4173.41
947.493	4153.07
947.799	4102.67
948.105	4123.01
948.41	4054.54
948.716	4044.37
949.022	4001.66
949.327	4027.65
949.633	3994.43
949.938	3979.29
950.244	3975.9
950.549	3970.25
950.854	3980.64
951.16	3944.26
951.465	3916.92
951.77	3840.76
952.075	3892.06
952.38	3856.35
952.685	3876.47
952.99	3827.43
953.294	3778.62
953.599	3774.32
953.904	3749.69
954.209	3735
954.513	3751.05
954.818	3709.24
955.122	3724.83
955.426	3719.86
955.731	3675.34
956.035	3662.23
956.339	3662.23
956.643	3629.69
956.948	3650.94
957.252	3601.22
957.556	3585.17
957.86	3575.68
958.163	3574.33
958.467	3534.78
958.771	3551.95
959.075	3522.35
959.378	3500.66
959.682	3521.9
959.985	3446.87
960.289	3468.57
960.592	3454.1
960.896	3412.3
961.199	3455.23
961.502	3391.05
961.805	3397.38
962.108	3381.79
962.411	3374.11
962.714	3351.28
963.017	3361.68
963.32	3292.3
963.623	3283.26
963.926	3264.28
964.228	3284.84
964.531	3256.37
964.833	3224.28
965.136	3216.6
965.438	3190.38
965.741	3224.51
966.043	3152.42
966.345	3200.33
966.648	3152.64
966.95	3113.77
967.252	3134.56
967.554	3101.35
967.856	3081.46
968.158	3062.02
968.46	3064.96
968.761	3065.19
969.063	3038.07
969.365	2998.97
969.666	3023.61
969.968	3010.27
970.269	2991.07
970.571	2985.64
970.872	2958.52
971.174	2921.91
971.475	2945.42
971.776	2940.67
972.077	2933.89
972.378	2914.68
972.679	2918.52
972.98	2841.24
973.281	2883.72
973.582	2865.42
973.883	2860.9
974.183	2819.77
974.484	2812.54
974.785	2831.52
975.085	2805.31
975.386	2784.29
975.686	2787
975.986	2759.43
976.287	2735.48
976.587	2694.12
976.887	2734.35
977.187	2703.84
977.487	2678.31
977.787	2708.36
978.087	2698.87
978.387	2669.72
978.687	2668.81
978.987	2663.62
979.286	2622.94
979.586	2638.31
979.885	2608.7
980.185	2582.04
980.484	2576.61
980.784	2561.25
981.083	2557.4
981.382	2535.26
981.682	2559.21
981.981	2529.16
982.28	2536.84
982.579	2521.93
982.878	2505.43
983.177	2492.55
983.475	2489.84
983.774	2449.84
984.073	2474.69
984.372	2439.22
984.67	2438.99
984.969	2446.22
985.267	2425.2
985.566	2385.21
985.864	2384.98
986.162	2397.18
986.461	2387.24
986.759	2335.72
987.057	2331.2
987.355	2326
987.653	2341.14
987.951	2309.05
988.249	2298.65
988.547	2330.29
988.844	2291.42
989.142	2284.64
989.44	2233.57
989.737	2274.02
990.035	2248.71
990.332	2274.93
990.63	2258.43
990.927	2210.29
991.224	2206.68
991.521	2203.06
991.819	2203.52
992.116	2148.38
992.413	2153.57
992.71	2145.66
993.006	2132.33
993.303	2133.01
993.6	2133.01
993.897	2117.42
994.193	2108.6
994.49	2089.62
994.787	2121.03
995.083	2078.77
995.379	2049.85
995.676	2104.08
995.972	2049.4
996.268	2046.46
996.565	2043.75
996.861	1999.91
997.157	2021.15
997.453	1992
997.749	2020.02
998.044	2013.01
998.34	1933.24
998.636	1955.39
998.932	1939.79
999.227	1951.77
999.523	1939.34
999.818	1906.8
1000.114	1907.93
1000.409	1927.36
1000.704	1905.22
1001	1896.18
1001.295	1880.81
1001.59	1872.68
1001.885	1892.11
1002.18	1863.41
1002.475	1850.53
1002.77	1830.87
1003.065	1810.98
1003.359	1808.72
1003.654	1827.93
1003.949	1780.25
1004.243	1775.28
1004.538	1776.41
1004.832	1768.27
1005.127	1759.23
1005.421	1721.27
1005.715	1735.28
1006.009	1719.23
1006.304	1723.98
1006.598	1713.13
1006.892	1710.2
1007.186	1667.26
1007.48	1716.3
1007.773	1693.7
1008.067	1663.87
1008.361	1643.08
1008.655	1658.22
1008.948	1654.83
1009.242	1646.47
1009.535	1618.22
1009.829	1586.36
1010.122	1589.07
1010.415	1578.9
1010.708	1577.54
1011.001	1567.15
1011.295	1567.37
1011.588	1528.05
1011.881	1535.96
1012.173	1531.89
1012.466	1535.74
1012.759	1523.76
1013.052	1537.77
1013.344	1516.98
1013.637	1499.13
1013.93	1512.91
1014.222	1483.31
1014.514	1462.52
1014.807	1488.96
1015.099	1468.85
1015.391	1490.77
1015.683	1404.67
1015.976	1441.73
1016.268	1421.84
1016.56	1429.3
1016.851	1424.33
1017.143	1396.08
1017.435	1373.93
1017.727	1392.01
1018.018	1364.89
1018.31	1375.97
1018.602	1364.89
1018.893	1357.44
1019.185	1325.35
1019.476	1344.33
1019.767	1334.61
1020.058	1335.97
1020.35	1332.58
1020.641	1309.3
1020.932	1286.93
1021.223	1258.91
1021.514	1281.51
1021.804	1247.38
1022.095	1253.26
1022.386	1246.25
1022.677	1254.61
1022.967	1219.81
1023.258	1242.86
1023.548	1220.94
1023.839	1210.77
1024.129	1188.63
1024.419	1200.6
1024.709	1199.47
1025	1180.27
1025.29	1167.38
1025.58	1171.23
1025.87	1161.96
1026.16	1139.36
1026.449	1141.62
1026.739	1145.92
1027.029	1130.55
1027.319	1109.53
1027.608	1119.7
1027.898	1125.8
1028.187	1105.01
1028.477	1091
1028.766	1063.21
1029.055	1097.56
1029.344	1072.25
1029.634	1073.83
1029.923	1045.35
1030.212	1035.64
1030.501	1051.91
1030.79	1041.06
1031.078	1045.13
1031.367	1024.56
1031.656	1020.04
1031.945	1009.2
1032.233	1020.5
1032.522	1024.34
1032.81	995.19
1033.099	993.83
1033.387	979.82
1033.675	965.58
1033.963	983.66
1034.251	961.74
1034.54	948.41
1034.828	969.88
1035.116	927.39
1035.403	933.27
1035.691	926.49
1035.979	940.05
1036.267	935.98
1036.554	914.96
1036.842	924.68
1037.129	896.66
1037.417	905.92
1037.704	892.14
1037.992	901.18
1038.279	880.39
1038.566	874.28
1038.853	874.28
1039.14	874.28
