Data from hue_160_FLMS001491_00044.txt Node
Date: Tue Feb 07 16:51:14 GMT 2017
User: dcchb
Spectrometer: FLMS00149
Trigger mode: 0
Integration Time (sec): 2.000000E-2
Scans to average: 10
Electric dark correction enabled: true
Nonlinearity correction enabled: false
Boxcar width: 0
XAxis mode: Wavelengths
Number of Pixels in Spectrum: 2048
>>>>>Begin Spectral Data<<<<<
341.393	-1.5
341.776	-1.5
342.16	-1.5
342.543	-60.93
342.927	-77.43
343.31	-53.93
343.693	-84.43
344.077	-80.37
344.46	-63.87
344.843	-50.99
345.226	-34.26
345.61	-47.82
345.993	-27.03
346.376	-1.5
346.759	5.06
347.142	40.31
347.525	40.76
347.908	65.39
348.291	70.59
348.674	106.07
349.057	116.01
349.44	120.99
349.823	126.64
350.206	142.45
350.588	198.05
350.971	191.72
351.354	243.24
351.737	233.52
352.119	247.99
352.502	255.9
352.884	287.76
353.267	262.45
353.65	289.57
354.032	278.04
354.414	291.38
354.797	320.53
355.179	318.04
355.562	312.62
355.944	332.28
356.326	336.35
356.709	339.28
357.091	325.05
357.473	354.2
357.855	335.44
358.238	341.77
358.62	341.32
359.002	317.82
359.384	337.03
359.766	337.93
360.148	316.46
360.53	335.9
360.912	343.8
361.294	324.37
361.676	323.01
362.057	312.39
362.439	342.67
362.821	310.36
363.203	306.52
363.584	306.52
363.966	336.12
364.348	318.49
364.729	322.34
365.111	312.17
365.493	324.82
365.874	293.86
366.256	325.5
366.637	319.4
367.019	322.79
367.4	313.07
367.781	308.33
368.163	305.61
368.544	294.09
368.925	287.99
369.306	318.04
369.688	303.35
370.069	308.33
370.45	299.29
370.831	293.41
371.212	310.36
371.593	304.48
371.974	309.46
372.355	304.03
372.736	289.34
373.117	310.81
373.498	300.42
373.879	303.13
374.26	309.46
374.641	311.04
375.021	299.96
375.402	309
375.783	324.14
376.163	315.56
376.544	319.85
376.925	315.33
377.305	333.41
377.686	316.01
378.066	304.26
378.447	331.15
378.827	337.7
379.208	302.68
379.588	320.98
379.968	335.44
380.349	330.02
380.729	320.75
381.109	332.28
381.489	331.15
381.87	319.85
382.25	336.35
382.63	328.89
383.01	339.06
383.39	322.56
383.77	324.82
384.15	331.6
384.53	335.44
384.91	343.8
385.29	336.8
385.67	311.94
386.049	349
386.429	353.52
386.809	351.94
387.189	341.09
387.568	354.43
387.948	342.22
388.328	346.52
388.707	351.71
389.087	333.18
389.466	338.38
389.846	344.93
390.225	354.2
390.605	350.58
390.984	383.58
391.363	348.55
391.743	342.67
392.122	365.5
392.501	377.93
392.881	374.76
393.26	364.59
393.639	367.53
394.018	384.03
394.397	367.98
394.776	375.44
395.155	366.63
395.534	363.92
395.913	374.54
396.292	387.87
396.671	380.41
397.05	376.35
397.429	369.57
397.808	375.89
398.186	358.72
398.565	389.68
398.944	388.1
399.323	391.49
399.701	397.81
400.08	405.95
400.458	399.4
400.837	394.88
401.215	389
401.594	389
401.972	400.3
402.351	394.65
402.729	389.68
403.107	405.95
403.486	414.54
403.864	400.3
404.242	398.04
404.62	391.26
404.999	387.87
405.377	414.76
405.755	418.15
406.133	433.75
406.511	417.93
406.889	424.48
407.267	436.01
407.645	433.97
408.023	415.67
408.401	426.74
408.779	419.51
409.156	429.9
409.534	431.26
409.912	444.14
410.29	465.84
410.667	438.04
411.045	460.19
411.422	462.45
411.8	457.25
412.178	459.28
412.555	451.15
412.933	452.95
413.31	463.8
413.687	483.01
414.065	484.14
414.442	478.72
414.819	478.49
415.197	470.35
415.574	484.82
415.951	494.08
416.328	486.85
416.705	507.19
417.082	491.6
417.46	494.99
417.837	511.48
418.214	507.19
418.591	506.29
418.967	506.51
419.344	521.65
419.721	509
420.098	511.71
420.475	542.22
420.852	523.69
421.228	530.24
421.605	526.85
421.982	530.24
422.358	549
422.735	526.85
423.111	553.97
423.488	544.7
423.864	553.29
424.241	555.55
424.617	576.34
424.994	576.79
425.37	584.02
425.746	566.62
426.123	574.53
426.499	588.54
426.875	612.72
427.251	601.42
427.627	616.34
428.003	576.11
428.379	614.31
428.756	602.55
429.132	636.9
429.507	632.61
429.883	636.23
430.259	636.9
430.635	641.42
431.011	655.66
431.387	655.89
431.763	646.4
432.138	656.79
432.514	670.35
432.89	685.49
433.265	675.1
433.641	681.42
434.016	671.25
434.392	700.86
434.767	697.69
435.143	717.13
435.518	721.42
435.894	719.61
436.269	719.39
436.644	744.92
437.02	748.99
437.395	754.42
437.77	759.84
438.145	756.68
438.52	772.27
438.895	774.75
439.271	763.68
439.646	792.15
440.021	782.66
440.395	792.38
440.77	791.7
441.145	793.28
441.52	820.4
441.895	808.2
442.27	821.76
442.645	841.87
443.019	845.49
443.394	849.33
443.769	838.03
444.143	858.37
444.518	845.03
444.892	867.63
445.267	878.93
445.641	899.5
446.016	872.6
446.39	873.96
446.764	878.25
447.139	886.62
447.513	896.33
447.887	928.65
448.262	903.11
448.636	915.31
449.01	939.5
449.384	941.53
449.758	951.25
450.132	955.09
450.506	947.63
450.88	965.48
451.254	980.85
451.628	966.61
452.002	994.41
452.376	995.76
452.75	1010.68
453.123	1026.95
453.497	999.83
453.871	999.83
454.244	1056.1
454.618	1045.71
454.992	1064.24
455.365	1074.63
455.739	1048.64
456.112	1094.29
456.486	1117.34
456.859	1112.15
457.232	1121.19
457.606	1117.12
457.979	1139.49
458.352	1161.64
458.725	1171.13
459.099	1172.48
459.472	1194.4
459.845	1219.26
460.218	1222.43
460.591	1245.02
460.964	1261.97
461.337	1299.26
461.71	1306.49
462.083	1334.51
462.456	1326.6
462.829	1304.91
463.201	1360.05
463.574	1369.77
463.947	1378.58
464.32	1435.53
464.692	1437.79
465.065	1447.28
465.438	1484.34
465.81	1488.86
466.183	1525.02
466.555	1557.11
466.928	1561.17
467.3	1578.12
467.672	1617.67
468.045	1616.31
468.417	1643.43
468.789	1665.35
469.161	1676.42
469.534	1727.72
469.906	1774.73
470.278	1797.1
470.65	1792.58
471.022	1862.63
471.394	1917.77
471.766	1928.17
472.138	1939.69
472.51	2012.91
472.882	2017.66
473.253	2064.44
473.625	2121.38
473.997	2163.87
474.369	2201.83
474.74	2254.71
475.112	2285.45
475.484	2359.34
475.855	2407.48
476.227	2482.51
476.598	2538.78
476.97	2566.34
477.341	2670.07
477.713	2720.01
478.084	2710.75
478.455	2846.34
478.827	2927.47
479.198	3030.06
479.569	2988.71
479.94	3150.51
480.311	3213.56
480.682	3311.64
481.053	3432.54
481.424	3485.42
481.795	3566.77
482.166	3639.76
482.537	3715.47
482.908	3887.21
483.279	3937.83
483.65	4043.82
484.021	4162.01
484.391	4206.75
484.762	4300.31
485.133	4404.49
485.503	4547.99
485.874	4679.51
486.244	4755.67
486.615	4892.39
486.985	5022.1
487.356	5170.12
487.726	5211.47
488.097	5389.32
488.467	5451.47
488.837	5569.2
489.207	5738.46
489.578	5887.39
489.948	6008.06
490.318	6123.31
490.688	6208.51
491.058	6326.92
491.428	6483.53
491.798	6659.8
492.168	6801.49
492.538	6902.28
492.908	6994.7
493.278	7109.5
493.648	7265.2
494.017	7386.78
494.387	7464.97
494.757	7604.63
495.126	7665.65
495.496	7826.09
495.866	7887.11
496.235	8034.68
496.605	8107.44
496.974	8234.9
497.344	8350.6
497.713	8450.03
498.082	8605.28
498.452	8621.33
498.821	8803.02
499.19	8772.28
499.559	8986.74
499.928	9036.68
500.298	9233.97
500.667	9197.13
501.036	9247.53
501.405	9370.69
501.774	9428.31
502.143	9524.35
502.512	9618.81
502.88	9745.14
503.249	9763.22
503.618	9856.32
503.987	9902.88
504.356	10008.41
504.724	10032.36
505.093	10087.5
505.462	10170.44
505.83	10280.72
506.199	10317.55
506.567	10499.02
506.936	10461.96
507.304	10577.89
507.672	10579.69
508.041	10677.09
508.409	10745.56
508.777	10806.13
509.145	10907.82
509.514	10839.57
509.882	11011.77
510.25	10938.55
510.618	11025.56
510.986	11065.78
511.354	11071.88
511.722	11190.75
512.09	11238.89
512.458	11252.67
512.826	11404.98
513.193	11416.73
513.561	11420.35
513.929	11457.86
514.297	11581.48
514.664	11610.4
515.032	11595.49
515.4	11701.7
515.767	11753.45
516.135	11659.67
516.502	11616.28
516.869	11769.94
517.237	11855.59
517.604	11738.76
517.972	11855.82
518.339	11877.96
518.706	11924.29
519.073	11947.34
519.44	12008.58
519.808	11997.51
520.175	12006.32
520.542	12101.24
520.909	12041.12
521.276	12047.23
521.643	12173.55
522.009	12150.95
522.376	12184.17
522.743	12195.92
523.11	12303.94
523.477	12364.73
523.843	12385.3
524.21	12388.23
524.577	12500.77
524.943	12429.14
525.31	12518.17
525.676	12501.68
526.043	12570.83
526.409	12556.14
526.776	12625.74
527.142	12568.79
527.508	12558.17
527.874	12597.49
528.241	12591.39
528.607	12548.68
528.973	12671.39
529.339	12582.8
529.705	12696.02
530.071	12676.59
530.437	12715.46
530.803	12714.33
531.169	12680.43
531.535	12639.3
531.901	12615.12
532.267	12650.15
532.632	12713.2
532.998	12628.68
533.364	12637.04
533.73	12546.42
534.095	12650.15
534.461	12631.39
534.826	12621.22
535.192	12583.71
535.557	12560.66
535.923	12541.22
536.288	12518.85
536.653	12502.13
537.019	12368.57
537.384	12421.23
537.749	12403.6
538.114	12376.71
538.479	12399.76
538.845	12293.09
539.21	12264.62
539.575	12284.51
539.94	12197.73
540.305	12223.72
540.67	12108.24
541.034	12137.84
541.399	12046.55
541.764	12094
542.129	12141.23
542.494	12002.03
542.858	12021.46
543.223	11938.08
543.587	11994.35
543.952	11917.29
544.316	11889.49
544.681	11758.42
545.045	11823.73
545.41	11867.12
545.774	11812.43
546.138	11729.72
546.503	11676.16
546.867	11654.47
547.231	11622.6
547.595	11626.22
547.959	11656.95
548.324	11583.06
548.688	11574.24
549.052	11551.42
549.416	11523.62
549.779	11421.25
550.143	11367.47
550.507	11438.43
550.871	11296.96
551.235	11324.98
551.599	11341.48
551.962	11305.1
552.326	11313.23
552.689	11241.15
553.053	11149.4
553.417	11216.06
553.78	11242.28
554.143	11091.09
554.507	11157.31
554.87	11169.51
555.234	11177.87
555.597	11057.42
555.96	11090.87
556.323	11051.09
556.686	11063.97
557.05	11085.44
557.413	11028.04
557.776	10999.12
558.139	11004.77
558.502	11012.22
558.865	10997.54
559.228	11024.2
559.59	11000.02
559.953	10934.71
560.316	11061.26
560.679	10927.93
561.041	10996.86
561.404	11058.55
561.767	10992.79
562.129	10974.03
562.492	11071.21
562.854	10998.89
563.217	11007.93
563.579	10949.63
563.941	11009.74
564.304	10982.39
564.666	11028.04
565.028	11084.77
565.39	10995.28
565.753	11061.49
566.115	11088.15
566.477	11106.91
566.839	11073.69
567.201	11116.4
567.563	11115.5
567.925	11123.18
568.287	11086.12
568.648	11056.52
569.01	11178.55
569.372	11178.77
569.734	11125.22
570.095	11169.96
570.457	11232.11
570.819	11234.14
571.18	11185.55
571.542	11214.03
571.903	11231.65
572.265	11265.33
572.626	11254.48
572.987	11284.99
573.349	11263.52
573.71	11335.61
574.071	11249.05
574.432	11255.61
574.794	11341.93
575.155	11310.52
575.516	11298.09
575.877	11317.75
576.238	11338.77
576.599	11310.07
576.96	11284.76
577.32	11329.73
577.681	11360.92
578.042	11383.51
578.403	11318.88
578.763	11280.47
579.124	11311.88
579.485	11381.25
579.845	11391.42
580.206	11298.77
580.566	11357.53
580.927	11315.72
581.287	11370.41
581.648	11293.8
582.008	11407.69
582.368	11380.58
582.728	11369.05
583.089	11295.38
583.449	11353.23
583.809	11305.55
584.169	11354.36
584.529	11326.79
584.889	11468.94
585.249	11206.34
585.609	11241.37
585.969	11315.95
586.329	11314.82
586.688	11200.02
587.048	11265.78
587.408	11228.04
587.768	11235.95
588.127	11224.87
588.487	11225.1
588.846	11298.77
589.206	11171.32
589.565	11186.46
589.925	11221.94
590.284	11157.31
590.643	11108.49
591.003	11196.17
591.362	11143.75
591.721	11156.4
592.08	11222.39
592.44	11127.93
592.799	11235.04
593.158	11151.43
593.517	11125.44
593.876	11200.69
594.235	11153.01
594.593	11067.82
594.952	11119.11
595.311	11113.69
595.67	11071.43
596.029	11137.87
596.387	11099
596.746	11144.88
597.104	11065.1
597.463	11096.74
597.822	11061.26
598.18	11065.78
598.538	11072.79
598.897	11095.16
599.255	11020.59
599.613	11187.81
599.972	11115.95
600.33	11134.48
600.688	11041.38
601.046	11095.16
601.404	11160.92
601.762	11071.66
602.12	11133.8
602.478	11110.3
602.836	11073.24
603.194	11082.51
603.552	11176.51
603.91	11022.17
604.268	11103.97
604.625	11125.67
604.983	11129.96
605.341	10997.54
605.698	11075.73
606.056	11081.38
606.413	11033.69
606.771	11114.59
607.128	11119.57
607.485	11074.14
607.843	11149.85
608.2	11078.89
608.557	11015.61
608.914	11111.43
609.272	11222.84
609.629	11051.32
609.986	11275.27
610.343	11120.47
610.7	11233.24
611.057	11221.94
611.414	11196.17
611.771	11193.24
612.127	11233.24
612.484	11235.04
612.841	11311.88
613.198	11181.71
613.554	11215.61
613.911	11297.87
614.267	11275.49
614.624	11309.84
614.98	11238.21
615.337	11313.69
615.693	11301.26
616.05	11319.79
616.406	11331.76
616.762	11327.47
617.118	11279.34
617.475	11255.61
617.831	11340.35
618.187	11386.45
618.543	11408.6
618.899	11392.1
619.255	11354.36
619.611	11349.39
619.967	11431.87
620.323	11428.71
620.678	11357.53
621.034	11313.01
621.39	11340.13
621.746	11355.04
622.101	11403.17
622.457	11340.8
622.812	11382.61
623.168	11378.77
623.523	11436.39
623.879	11432.55
624.234	11388.49
624.589	11402.95
624.945	11397.75
625.3	11368.83
625.655	11405.89
626.01	11402.95
626.365	11418.09
626.72	11395.04
627.075	11407.02
627.43	11345.1
627.785	11339.67
628.14	11371.09
628.495	11402.5
628.85	11256.06
629.205	11299
629.559	11338.09
629.914	11302.39
630.269	11357.53
630.623	11322.5
630.978	11246.12
631.332	11328.6
631.687	11381.03
632.041	11281.14
632.396	11291.77
632.75	11336.51
633.104	11273.01
633.459	11200.24
633.813	11168.15
634.167	11187.36
634.521	11224.42
634.875	11249.28
635.229	11178.55
635.583	11117.08
635.937	11114.82
636.291	11147.59
636.645	11059.91
636.999	11151.43
637.352	11079.12
637.706	11089.06
638.06	11141.03
638.413	11047.48
638.767	11056.52
639.121	11059
639.474	10965.22
639.828	11028.04
640.181	11009.51
640.534	11013.58
640.888	10927.48
641.241	10872.12
641.594	10949.4
641.947	11007.7
642.301	10928.16
642.654	10929.06
643.007	10953.02
643.36	10938.55
643.713	10892.91
644.066	10971.55
644.419	10861.27
644.771	10824.88
645.124	10687.26
645.477	10770.87
645.83	10584.44
646.182	10579.47
646.535	10577.66
646.888	10616.75
647.24	10531.11
647.593	10595.29
647.945	10506.02
648.298	10553.25
648.65	10555.29
649.002	10540.15
649.355	10472.35
649.707	10532.69
650.059	10623.31
650.411	10692.46
650.763	10716.87
651.115	10839.35
651.467	10795.06
651.819	10754.38
652.171	10782.85
652.523	10674.15
652.875	10678.9
653.227	10692.46
653.578	10774.72
653.93	10747.37
654.282	10680.93
654.633	10687.26
654.985	10739.01
655.337	10813.59
655.688	10734.04
656.039	10757.99
656.391	10678.22
656.742	10746.02
657.094	10781.95
657.445	10710.99
657.796	10807.26
658.147	10770.2
658.498	10706.7
658.849	10740.37
659.2	10715.06
659.551	10713.7
659.902	10748.05
660.253	10818.78
660.604	10753.93
660.955	10730.42
661.306	10783.08
661.656	10746.02
662.007	10761.38
662.358	10812
662.708	10793.47
663.059	10806.58
663.409	10723.87
663.76	10733.14
664.11	10868.5
664.461	10816.98
664.811	10842.06
665.161	10829.18
665.511	10789.86
665.862	10814.94
666.212	10810.65
666.562	10850.19
666.912	10755.28
667.262	10746.47
667.612	10776.52
667.962	10865.79
668.312	10828.5
668.662	10823.98
669.011	10734.49
669.361	10787.6
669.711	10805.68
670.06	10838.9
670.41	10790.54
670.76	10718.67
671.109	10787.82
671.459	10820.14
671.808	10786.92
672.157	10806.81
672.507	10729.97
672.856	10736.75
673.205	10698.33
673.554	10757.09
673.904	10692.01
674.253	10762.29
674.602	10719.12
674.951	10609.3
675.3	10574.04
675.649	10701.27
675.998	10616.3
676.346	10690.2
676.695	10712.12
677.044	10587.83
677.393	10653.82
677.741	10596.64
678.09	10593.25
678.438	10578.34
678.787	10520.71
679.135	10616.3
679.484	10570.88
679.832	10552.35
680.181	10510.99
680.529	10510.32
680.877	10432.58
681.225	10493.59
681.573	10483.2
681.922	10410.66
682.27	10409.98
682.618	10430.32
682.966	10393.03
683.314	10324.33
683.661	10329.3
684.009	10237.33
684.357	10293.83
684.705	10248.18
685.053	10275.52
685.4	10260.15
685.748	10092.25
686.095	10126.6
686.443	10118.46
686.79	10121.17
687.138	10128.63
687.485	10076.43
687.832	10098.12
688.18	10079.59
688.527	10009.99
688.874	9972.25
689.221	9978.81
689.568	9970.9
689.915	9982.42
690.262	9898.81
690.609	9889.77
690.956	9806.83
691.303	9827.17
691.65	9750.79
691.997	9769.32
692.344	9711.92
692.69	9706.04
693.037	9698.81
693.383	9621.3
693.73	9617.01
694.077	9574.07
694.423	9608.65
694.769	9575.88
695.116	9480.74
695.462	9435.54
695.808	9455.66
696.155	9433.28
696.501	9272.16
696.847	9388.09
697.193	9233.29
697.539	9276.68
697.885	9269.22
698.231	9197.13
698.577	9171.37
698.923	9146.06
699.269	9123.46
699.614	9070.35
699.96	9002.56
700.306	9003.01
700.651	8979.51
700.997	8895.22
701.342	8912.17
701.688	8900.87
702.033	8847.99
702.379	8799.18
702.724	8786.75
703.069	8823.58
703.415	8692.51
703.76	8696.13
704.105	8693.64
704.45	8702.23
704.795	8609.58
705.14	8566.41
705.485	8611.16
705.83	8542.91
706.175	8491.39
706.52	8485.29
706.865	8511.73
707.209	8436.93
707.554	8470.37
707.899	8427.89
708.243	8434.89
708.588	8334.33
708.932	8314.67
709.277	8321.9
709.621	8293.65
709.966	8267.21
710.31	8328
710.654	8192.19
710.998	8260.43
711.342	8199.64
711.687	8146.76
712.031	8126.42
712.375	8138.63
712.719	8171.17
713.063	8144.5
713.407	8080.32
713.75	8058.86
714.094	8080.32
714.438	8040.78
714.782	8032.87
715.125	7978.86
715.469	8001.23
715.812	8020.66
716.156	7931.85
716.499	7924.85
716.843	7902.93
717.186	7922.36
717.53	7986.09
717.873	7947.45
718.216	7937.05
718.559	7902.93
718.902	7883.49
719.246	7917.16
719.589	7843.95
719.932	7823.38
720.275	7801.69
720.617	7826.55
720.96	7859.09
721.303	7782.93
721.646	7792.2
721.989	7683.95
722.331	7760.78
722.674	7704.74
723.016	7758.52
723.359	7770.05
723.701	7711.29
724.044	7754.68
724.386	7714.23
724.729	7761.91
725.071	7639.21
725.413	7743.61
725.755	7655.02
726.097	7704.06
726.439	7621.58
726.782	7666.55
727.124	7691.18
727.465	7651.63
727.807	7674.01
728.149	7679.88
728.491	7679.2
728.833	7617.96
729.175	7672.43
729.516	7645.08
729.858	7588.36
730.199	7640.11
730.541	7604.63
730.882	7632.88
731.224	7571.41
731.565	7622.03
731.906	7631.97
732.248	7612.77
732.589	7563.73
732.93	7534.12
733.271	7599.43
733.612	7574.57
733.953	7589.72
734.294	7570.06
734.635	7573.67
734.976	7514.92
735.317	7574.57
735.658	7501.58
735.999	7541.36
736.339	7571.64
736.68	7584.97
737.021	7535.71
737.361	7567.34
737.702	7640.56
738.042	7619.77
738.383	7551.52
738.723	7605.08
739.063	7600.79
739.404	7663.84
739.744	7621.13
740.084	7604.63
740.424	7612.99
740.764	7706.55
741.104	7667.45
741.444	7654.35
741.784	7694.57
742.124	7690.05
742.464	7762.14
742.804	7789.03
743.143	7744.51
743.483	7821.8
743.823	7815.92
744.162	7818.18
744.502	7855.7
744.841	7889.14
745.181	7959.42
745.52	7898.86
745.86	7991.97
746.199	8001.23
746.538	7999.2
746.877	8087.56
747.216	8107.44
747.556	8165.29
747.895	8186.54
748.234	8173.66
748.573	8228.34
748.911	8299.53
749.25	8382.24
749.589	8399.64
749.928	8464.95
750.267	8563.25
750.605	8633.53
750.944	8679.86
751.283	8721.21
751.621	8786.97
751.96	8833.98
752.298	8905.84
752.636	9079.62
752.975	9083.69
753.313	9176.79
753.651	9357.13
753.989	9368.65
754.327	9536.11
754.666	9579.27
755.004	9776.55
755.342	9786.27
755.679	9921.18
756.017	10089.31
756.355	10223.32
756.693	10298.57
757.031	10443.88
757.368	10563.2
757.706	10680.03
758.044	10848.16
758.381	10930.87
758.719	11128.38
759.056	11327.7
759.394	11344.19
759.731	11513.91
760.068	11607.46
760.405	11751.19
760.743	11971.75
761.08	12108.01
761.417	12250.61
761.754	12442.02
762.091	12613.09
762.428	12712.97
762.765	12857.15
763.102	13126.07
763.438	13161.55
763.775	13330.13
764.112	13500.97
764.449	13635.43
764.785	13723.34
765.122	13914.52
765.458	13991.58
765.795	14214.85
766.131	14268.41
766.467	14409.42
766.804	14513.15
767.14	14631.34
767.476	14827.04
767.812	15034.27
768.148	15114.04
768.485	15253.47
768.821	15200.82
769.157	15442.39
769.492	15586.12
769.828	15716.51
770.164	15741.59
770.5	15838.99
770.836	15954.92
771.171	16035.37
771.507	16140.23
771.842	16166.44
772.178	16311.29
772.513	16394.91
772.849	16530.95
773.184	16606.65
773.519	16634
773.855	16573.21
774.19	16864.95
774.525	16794.9
774.86	16922.35
775.195	17011.39
775.53	16983.82
775.865	17039.18
776.2	17089.35
776.535	17074.44
776.87	17179.52
777.205	17160.09
777.539	17141.55
777.874	17322.12
778.209	17288.67
778.543	17316.01
778.878	17247.99
779.212	17367.54
779.547	17301.78
779.881	17447.76
780.215	17351.04
780.55	17475.33
780.884	17458.83
781.218	17368.22
781.552	17485.27
781.886	17437.59
782.22	17438.27
782.554	17452.06
782.888	17440.3
783.222	17301.32
783.556	17417.93
783.889	17323.02
784.223	17217.71
784.557	17331.15
784.89	17360.53
785.224	17268.33
785.557	17234.43
785.891	17289.8
786.224	17225.17
786.558	17327.99
786.891	17201.44
787.224	17189.01
787.557	17106.98
787.891	17094.55
788.224	17190.59
788.557	17142.91
788.89	17164.15
789.223	17217.94
789.556	17096.81
789.888	17059.52
790.221	16968.9
790.554	16918.74
790.887	16942.01
791.219	16920.77
791.552	16921.45
791.884	16856.36
792.217	16775.01
792.549	16836.48
792.882	16702.7
793.214	16650.04
793.546	16748.12
793.879	16615.02
794.211	16646.88
794.543	16593.32
794.875	16504.28
795.207	16558.29
795.539	16555.13
795.871	16627.9
796.203	16398.07
796.535	16437.62
796.867	16265.65
797.198	16376.6
797.53	16321.24
797.862	16336.15
798.193	16329.37
798.525	16220.68
798.856	16203.73
799.188	16077.4
799.519	16118.53
799.85	16022.49
800.182	16083.05
800.513	15973
800.844	15826.56
801.175	16029.72
801.506	15939.78
801.837	15836.05
802.168	15848.03
802.499	15771.2
802.83	15702.27
803.161	15651.65
803.491	15718.54
803.822	15709.28
804.153	15546.34
804.483	15464.54
804.814	15400.81
805.145	15411.88
805.475	15459.57
805.805	15371.88
806.136	15413.24
806.466	15353.35
806.796	15380.25
807.126	15242.85
807.457	15140.93
807.787	15258.21
808.117	15137.31
808.447	15123.08
808.777	15147.26
809.107	15128.05
809.436	14995.17
809.766	15045.79
810.096	14977.54
810.426	14969.18
810.755	14987.71
811.085	14903.2
811.414	14967.6
811.744	14864.1
812.073	14819.58
812.403	14839.47
812.732	14708.62
813.061	14745.69
813.39	14575.29
813.719	14624.11
814.049	14724.67
814.378	14550.44
814.707	14587.5
815.036	14584.33
815.365	14506.37
815.693	14365.36
816.022	14452.59
816.351	14359.03
816.68	14292.36
817.008	14313.38
817.337	14211.91
817.665	14154.74
817.994	14249.2
818.322	14323.32
818.651	14167.85
818.979	14103.22
819.307	14171.24
819.636	14122.65
819.964	14101.63
820.292	14072.48
820.62	14052.14
820.948	13999.94
821.276	14023.67
821.604	14149.54
821.932	14062.77
822.259	14071.58
822.587	14138.92
822.915	14070.68
823.243	14161.52
823.57	14042.88
823.898	14060.28
824.225	14033.39
824.553	14005.59
824.88	14009.66
825.207	14068.19
825.535	14050.34
825.862	14124.69
826.189	14008.98
826.516	14015.99
826.843	14050.56
827.17	14116.32
827.497	14058.92
827.824	14096.21
828.151	14082.65
828.478	14138.7
828.805	14144.8
829.131	14022.09
829.458	14121.52
829.785	14025.48
830.111	14020.96
830.438	14133.27
830.764	13981.19
831.09	14093.95
831.417	14061.18
831.743	14065.25
832.069	14089.43
832.395	13970.56
832.722	13969.66
833.048	14007.4
833.374	14063.67
833.7	13956.55
834.026	14031.13
834.351	14001.07
834.677	13926.27
835.003	13924.01
835.329	13936.89
835.654	13976.21
835.98	13881.3
836.306	13836.33
836.631	13873.84
836.956	13852.6
837.282	13921.98
837.607	13808.31
837.932	13806.5
838.258	13771.93
838.583	13851.02
838.908	13745.03
839.233	13727.41
839.558	13687.86
839.883	13534.64
840.208	13643.12
840.533	13633.4
840.858	13571.03
841.182	13639.05
841.507	13516.11
841.832	13524.93
842.156	13476.57
842.481	13443.12
842.805	13517.47
843.13	13415.78
843.454	13407.19
843.778	13358.38
844.103	13323.12
844.427	13263.46
844.751	13277.25
845.075	13187.31
845.399	13196.35
845.723	13085.39
846.047	13185.5
846.371	13060.98
846.695	13029.57
847.019	12956.13
847.343	12959.29
847.666	12740.99
847.99	12777.15
848.313	12744.83
848.637	12675.91
848.96	12691.05
849.284	12637.94
849.607	12596.36
849.931	12544.39
850.254	12398.4
850.577	12404.28
850.9	12344.39
851.223	12383.26
851.546	12258.52
851.869	12162.93
852.192	12251.06
852.515	12088.35
852.838	11980.33
853.161	12018.53
853.483	11976.27
853.806	11942.37
854.129	11851.52
854.451	11894.24
854.774	11801.36
855.096	11800.68
855.419	11720
855.741	11670.06
856.063	11695.6
856.385	11687.01
856.708	11589.61
857.03	11564.07
857.352	11581.93
857.674	11513.23
857.996	11473.68
858.318	11414.02
858.64	11444.3
858.961	11386
859.283	11254.03
859.605	11266.68
859.926	11300.8
860.248	11271.2
860.57	11202.73
860.891	11220.35
861.212	11163.18
861.534	11130.64
861.855	11071.21
862.176	11089.96
862.498	11112.11
862.819	11132
863.14	11023.07
863.461	11040.47
863.782	10990.3
864.103	10979.01
864.424	10920.02
864.745	10929.74
865.065	10828.05
865.386	10822.4
865.707	10849.07
866.027	10882.74
866.348	10795.96
866.668	10816.3
866.989	10781.72
867.309	10739.01
867.63	10732.91
867.95	10773.81
868.27	10706.92
868.59	10666.92
868.91	10611.56
869.23	10644.1
869.55	10645.45
869.87	10686.36
870.19	10683.42
870.51	10656.08
870.83	10594.61
871.15	10517.32
871.469	10506.93
871.789	10567.26
872.109	10492.24
872.428	10437.55
872.748	10484.33
873.067	10438.45
873.386	10449.08
873.706	10429.19
874.025	10359.13
874.344	10369.76
874.663	10427.83
874.982	10358.68
875.301	10345.35
875.62	10334.05
875.939	10338.12
876.258	10306.03
876.577	10279.14
876.896	10315.29
877.214	10175.41
877.533	10186.03
877.852	10184
878.17	10225.8
878.489	10158.69
878.807	10166.15
879.125	10220.38
879.444	10168.86
879.762	10039.59
880.08	10082.31
880.398	10087.05
880.716	10042.98
881.034	10090.67
881.352	9969.54
881.67	9967.96
881.988	9987.84
882.306	9921.86
882.624	9882.31
882.941	9865.59
883.259	9837.34
883.577	9871.92
883.894	9772.48
884.212	9823.78
884.529	9785.82
884.846	9788.3
885.164	9777
885.481	9683.9
885.798	9724.12
886.115	9610.45
886.432	9640.96
886.75	9605.93
887.067	9638.7
887.383	9580.17
887.7	9618.36
888.017	9548.31
888.334	9578.82
888.651	9492.49
888.967	9502.66
889.284	9472.38
889.6	9407.75
889.917	9366.17
890.233	9436.9
890.55	9333.85
890.866	9377.24
891.182	9259.28
891.498	9247.3
891.815	9258.82
892.131	9245.94
892.447	9159.62
892.763	9100.64
893.079	9074.65
893.395	9043.69
893.71	9030.81
894.026	9010.92
894.342	8996.46
894.657	8949.45
894.973	8970.47
895.289	8934.31
895.604	8947.65
895.92	8777.93
896.235	8804.82
896.55	8810.25
896.865	8753.53
897.181	8742.91
897.496	8708.1
897.811	8653.42
898.126	8635.56
898.441	8541.33
898.756	8518.05
899.071	8494.78
899.386	8528
899.7	8446.64
900.015	8457.04
900.33	8420.65
900.644	8344.27
900.959	8373.88
901.273	8326.19
901.588	8288.45
901.902	8296.36
902.216	8210.04
902.531	8178.63
902.845	8148.35
903.159	8102.02
903.473	8143.37
903.787	8075.13
904.101	8037.61
904.415	8028.12
904.729	8008.46
905.042	8009.82
905.356	7892.08
905.67	7929.37
905.984	7903.61
906.297	7806.43
906.611	7792.2
906.924	7805.53
907.237	7762.14
907.551	7749.94
907.864	7710.39
908.177	7713.55
908.491	7589.04
908.804	7584.07
909.117	7577.51
909.43	7501.13
909.743	7484.18
910.056	7525.54
910.368	7471.3
910.681	7397.63
910.994	7350.85
911.307	7348.37
911.619	7231.98
911.932	7296.16
912.244	7289.16
912.557	7284.64
912.869	7194.7
913.181	7183.17
913.494	7208.48
913.806	7097.07
914.118	7056.4
914.43	7039.45
914.742	7060.69
915.054	7013.69
915.366	6975.95
915.678	6959.9
915.99	6928.49
916.302	6862.73
916.613	6875.16
916.925	6838.55
917.236	6816.4
917.548	6794.48
917.859	6756.52
918.171	6733.24
918.482	6704.54
918.794	6734.6
919.105	6703.86
919.416	6620.02
919.727	6613.7
920.038	6582.96
920.349	6550.42
920.66	6500.48
920.971	6490.31
921.282	6527.14
921.593	6424.32
921.903	6415.74
922.214	6364.21
922.525	6390.2
922.835	6319.47
923.146	6261.62
923.456	6239.92
923.767	6221.62
924.077	6214.16
924.387	6205.57
924.697	6147.27
925.008	6151.11
925.318	6109.98
925.628	6181.17
925.938	6034.05
926.248	6062.07
926.558	6024.79
926.867	5998.12
927.177	5948.63
927.487	5914.05
927.796	5902.98
928.106	5884.22
928.416	5876.09
928.725	5848.74
929.034	5801.97
929.344	5768.52
929.653	5786.37
929.962	5775.98
930.271	5697.56
930.581	5684
930.89	5669.31
931.199	5661.63
931.508	5669.09
931.817	5655.08
932.125	5582.76
932.434	5546.38
932.743	5543.22
933.051	5488.98
933.36	5503.89
933.669	5466.16
933.977	5467.74
934.286	5450.56
934.594	5450.79
934.902	5420.96
935.21	5362.43
935.519	5336.67
935.827	5310.45
936.135	5279.27
936.443	5284.24
936.751	5286.27
937.059	5160.4
937.367	5227.97
937.674	5180.74
937.982	5226.16
938.29	5106.62
938.597	5152.49
938.905	5066.17
939.213	5084.7
939.52	5063
939.827	5053.51
940.135	5012.61
940.442	4983.91
940.749	5001.31
941.056	4971.03
941.363	4928.09
941.67	4899.39
941.977	4854.42
942.284	4890.35
942.591	4845.16
942.898	4877.47
943.205	4846.74
943.511	4808.55
943.818	4783.01
944.125	4738.94
944.431	4756.57
944.738	4694.2
945.044	4656.69
945.35	4704.59
945.657	4639.28
945.963	4585.73
946.269	4594.99
946.575	4650.13
946.881	4564.48
947.187	4532.62
947.493	4494.88
947.799	4491.94
948.105	4505.73
948.41	4440.19
948.716	4458.5
949.022	4445.62
949.327	4499.63
949.633	4398.39
949.938	4395.9
950.244	4378.5
950.549	4336.47
950.854	4326.75
951.16	4314.77
951.465	4308.67
951.77	4281.78
952.075	4257.37
952.38	4240.43
952.685	4228
952.99	4164.04
953.294	4175.12
953.599	4191.39
953.904	4111.39
954.209	4124.27
954.513	4105.74
954.818	4091.73
955.122	4072.97
955.426	4073.88
955.731	4018.74
956.035	4060.99
956.339	4036.36
956.643	4012.41
956.948	3963.6
957.252	3970.83
957.556	3914.78
957.86	3970.83
958.163	3910.04
958.467	3882.02
958.771	3845.18
959.075	3875.92
959.378	3834.33
959.682	3819.65
959.985	3833.66
960.289	3778.74
960.592	3779.87
960.896	3747.78
961.199	3767.67
961.502	3721.57
961.805	3712.53
962.108	3645.64
962.411	3680.89
962.714	3649.25
963.017	3666.2
963.32	3641.8
963.623	3605.41
963.926	3615.13
964.228	3567.22
964.531	3609.26
964.833	3557.96
965.136	3521.8
965.438	3536.04
965.741	3497.39
966.043	3501.46
966.345	3458.52
966.648	3481.58
966.95	3460.56
967.252	3407.68
967.554	3397.74
967.856	3412.88
968.158	3381.01
968.46	3409.49
968.761	3353.44
969.063	3327.68
969.365	3369.26
969.666	3324.29
969.968	3288.13
970.269	3310.05
970.571	3242.26
970.872	3269.83
971.174	3200.9
971.475	3243.84
971.776	3253.33
972.077	3208.81
972.378	3192.54
972.679	3171.3
972.98	3184.63
973.281	3154.13
973.582	3099.21
973.883	3105.99
974.183	3087.01
974.484	3132.21
974.785	3080.46
975.085	3073.68
975.386	3076.61
975.686	3066.44
975.986	3028.48
976.287	3046.78
976.587	2971.76
976.887	2975.6
977.187	2968.14
977.487	3011.53
977.787	2920.23
978.087	2922.95
978.387	2918.88
978.687	2866.45
978.987	2894.92
979.286	2848.37
979.586	2873.23
979.885	2840.46
980.185	2845.21
980.484	2829.61
980.784	2823.06
981.083	2812.44
981.382	2818.99
981.682	2813.57
981.981	2781.71
982.28	2756.4
982.579	2769.5
982.878	2759.11
983.177	2712.33
983.475	2712.56
983.774	2671.43
984.073	2687.7
984.372	2670.3
984.67	2655.61
984.969	2633.01
985.267	2633.91
985.566	2653.8
985.864	2636.63
986.162	2595.5
986.461	2613.8
986.759	2568.83
987.057	2550.53
987.355	2564.99
987.653	2531.54
987.951	2522.96
988.249	2529.51
988.547	2510.08
988.844	2500.81
989.142	2492.67
989.44	2489.74
989.737	2494.03
990.035	2469.4
990.332	2433.69
990.63	2402.73
990.927	2437.08
991.224	2416.97
991.521	2404.77
991.819	2384.65
992.116	2378.1
992.413	2341.04
992.71	2315.73
993.006	2348.95
993.303	2294.49
993.6	2315.5
993.897	2285.45
994.193	2292
994.49	2289.97
994.787	2273.47
995.083	2247.71
995.379	2228.95
995.676	2245.9
995.972	2219.46
996.268	2206.81
996.565	2200.7
996.861	2198.67
997.157	2186.92
997.453	2181.27
997.749	2177.43
998.044	2135.62
998.34	2171.55
998.636	2136.75
998.932	2134.49
999.227	2111.22
999.523	2105.79
999.818	2082.52
1000.114	2058.79
1000.409	2075.96
1000.704	2071.44
1001	2029.86
1001.295	2027.6
1001.59	2020.14
1001.885	2015.62
1002.18	2012.91
1002.475	1998.68
1002.77	1972.69
1003.065	1949.19
1003.359	1984.44
1003.654	1941.05
1003.949	1941.5
1004.243	1924.78
1004.538	1921.39
1004.832	1918.23
1005.127	1904.89
1005.421	1912.8
1005.715	1880.71
1006.009	1863.09
1006.304	1833.93
1006.598	1816.76
1006.892	1816.76
1007.186	1811.56
1007.48	1823.09
1007.773	1824.44
1008.067	1798.46
1008.361	1767.72
1008.655	1760.49
1008.948	1757.33
1009.242	1739.47
1009.535	1755.29
1009.829	1751.9
1010.122	1729.98
1010.415	1718.23
1010.708	1702.41
1011.001	1695.86
1011.295	1682.3
1011.588	1670.78
1011.881	1669.42
1012.173	1667.16
1012.466	1634.84
1012.759	1630.78
1013.052	1638.46
1013.344	1604.56
1013.637	1594.17
1013.93	1588.97
1014.222	1606.6
1014.514	1559.59
1014.807	1595.52
1015.099	1563.89
1015.391	1565.02
1015.683	1541.29
1015.976	1534.96
1016.268	1531.12
1016.56	1498.58
1016.851	1518.01
1017.143	1503.77
1017.435	1491.57
1017.727	1475.75
1018.018	1481.85
1018.31	1444.11
1018.602	1465.36
1018.893	1433.27
1019.185	1398.47
1019.476	1402.53
1019.767	1386.04
1020.058	1391.46
1020.35	1391.69
1020.641	1386.71
1020.932	1366.38
1021.223	1369.54
1021.514	1374.06
1021.804	1344.46
1022.095	1336.77
1022.386	1341.29
1022.677	1322.31
1022.967	1299.03
1023.258	1319.82
1023.548	1307.62
1023.839	1305.36
1024.129	1262.42
1024.419	1283.21
1024.709	1289.32
1025	1260.39
1025.29	1258.36
1025.58	1210.67
1025.87	1233.72
1026.16	1194.18
1026.449	1203.67
1026.739	1218.36
1027.029	1191.92
1027.319	1205.93
1027.608	1186.72
1027.898	1205.25
1028.187	1188.3
1028.477	1166.61
1028.766	1147.63
1029.055	1150.11
1029.344	1160.28
1029.634	1146.27
1029.923	1119.15
1030.212	1118.47
1030.501	1122.99
1030.79	1103.11
1031.078	1101.07
1031.367	1104.24
1031.656	1062.43
1031.945	1094.52
1032.233	1071.02
1032.522	1070.11
1032.81	1061.3
1033.099	1067.4
1033.387	1033.5
1033.675	1030.79
1033.963	1020.4
1034.251	1034.63
1034.54	1023.11
1034.828	979.04
1035.116	1014.3
1035.403	996.22
1035.691	973.39
1035.979	992.83
1036.267	972.26
1036.554	963.22
1036.842	994.41
1037.129	980.85
1037.417	956.9
1037.704	954.64
1037.992	956.22
1038.279	961.42
1038.566	914.86
1038.853	914.86
1039.14	914.86
