Data from hue_26_FLMS001491_00087.txt Node
Date: Tue Feb 07 17:14:42 GMT 2017
User: dcchb
Spectrometer: FLMS00149
Trigger mode: 0
Integration Time (sec): 2.000000E-2
Scans to average: 10
Electric dark correction enabled: true
Nonlinearity correction enabled: false
Boxcar width: 0
XAxis mode: Wavelengths
Number of Pixels in Spectrum: 2048
>>>>>Begin Spectral Data<<<<<
341.393	-4.28
341.776	-4.28
342.16	-4.28
342.543	-40.66
342.927	-72.3
343.31	-61.45
343.693	-64.62
344.077	-89.48
344.46	-48.35
344.843	-45.18
345.226	-48.57
345.61	-31.85
345.993	-27.33
346.376	-8.12
346.759	-2.92
347.142	14.7
347.525	58.09
347.908	63.06
348.291	72.55
348.674	96.73
349.057	122.72
349.44	131.76
349.823	134.47
350.206	166.34
350.588	180.8
350.971	221.7
351.354	224.64
351.737	238.2
352.119	263.96
352.502	247.24
352.884	255.37
353.267	287.46
353.65	282.72
354.032	322.94
354.414	322.94
354.797	322.94
355.179	330.4
355.562	329.5
355.944	337.86
356.326	310.06
356.709	321.36
357.091	326.11
357.473	344.41
357.855	341.25
358.238	335.15
358.62	346.9
359.002	333.34
359.384	348.03
359.766	329.5
360.148	321.81
360.53	346.9
360.912	337.63
361.294	344.41
361.676	338.08
362.057	335.15
362.439	337.86
362.821	333.79
363.203	340.34
363.584	313
363.966	330.17
364.348	301.93
364.729	300.12
365.111	311.87
365.493	308.71
365.874	312.77
366.256	303.28
366.637	312.32
367.019	318.88
367.4	332.89
367.781	312.1
368.163	336.05
368.544	313
368.925	305.32
369.306	313.23
369.688	307.8
370.069	304.41
370.45	303.51
370.831	305.32
371.212	307.58
371.593	327.92
371.974	330.4
372.355	328.59
372.736	319.1
373.117	314.36
373.498	322.94
373.879	339.89
374.26	320.46
374.641	307.35
375.021	298.31
375.402	308.03
375.783	317.07
376.163	329.72
376.544	332.66
376.925	318.2
377.305	343.51
377.686	318.42
378.066	327.46
378.447	307.35
378.827	331.08
379.208	323.85
379.588	333.11
379.968	340.34
380.349	325.2
380.729	348.25
381.109	341.93
381.489	328.82
381.87	320.23
382.25	330.4
382.63	329.27
383.01	363.17
383.39	342.15
383.77	326.56
384.15	331.08
384.53	337.86
384.91	378.54
385.29	341.93
385.67	328.37
386.049	356.84
386.429	361.36
386.809	348.93
387.189	364.3
387.568	365.65
387.948	351.19
388.328	351.87
388.707	336.73
389.087	360.91
389.466	373.11
389.846	383.28
390.225	356.16
390.605	364.52
390.984	372.89
391.363	363.39
391.743	366.56
392.122	353
392.501	390.51
392.881	367.69
393.26	364.3
393.639	389.16
394.018	358.87
394.397	373.79
394.776	377.86
395.155	377.18
395.534	374.47
395.913	386.67
396.292	385.54
396.671	402.04
397.05	362.94
397.429	385.31
397.808	390.96
398.186	416.73
398.565	381.7
398.944	409.04
399.323	383.73
399.701	391.87
400.08	397.97
400.458	392.77
400.837	384.64
401.215	402.94
401.594	388.25
401.972	373.79
402.351	392.55
402.729	404.98
403.107	413.11
403.486	422.38
403.864	408.36
404.242	414.69
404.62	430.96
404.999	408.59
405.377	402.49
405.755	428.25
406.133	405.65
406.511	413.11
406.889	438.87
407.267	415.82
407.645	433
408.023	423.73
408.401	412.43
408.779	424.41
409.156	411.3
409.534	436.61
409.912	448.82
410.29	445.65
410.667	446.56
411.045	442.94
411.422	452.88
411.8	472.32
412.178	449.49
412.555	475.26
412.933	457.4
413.31	459.89
413.687	464.18
414.065	489.04
414.442	463.05
414.819	473.45
415.197	476.61
415.574	444.97
415.951	456.05
416.328	483.39
416.705	470.28
417.082	481.36
417.46	477.52
417.837	512.77
418.214	504.86
418.591	481.36
418.967	516.61
419.344	508.93
419.721	514.8
420.098	497.63
420.475	512.32
420.852	498.76
421.228	527.91
421.605	527.01
421.982	520.45
422.358	523.39
422.735	536.05
423.111	542.15
423.488	525.88
423.864	522.03
424.241	561.13
424.617	543.73
424.994	520.23
425.37	536.05
425.746	536.95
426.123	533.79
426.499	538.76
426.875	541.24
427.251	551.19
427.627	580.34
428.003	565.87
428.379	560.45
428.756	587.8
429.132	581.02
429.507	592.54
429.883	588.7
430.259	596.16
430.635	598.42
431.011	593.9
431.387	604.74
431.763	609.94
432.138	592.09
432.514	612.88
432.89	644.29
433.265	635.03
433.641	634.8
434.016	627.79
434.392	641.81
434.767	637.74
435.143	645.65
435.518	636.16
435.894	660.34
436.269	653.78
436.644	668.25
437.02	675.93
437.395	664.63
437.77	681.58
438.145	696.04
438.52	708.02
438.895	683.84
439.271	702.59
439.646	709.6
440.021	703.95
440.395	729.94
440.77	704.63
441.145	720.45
441.52	728.58
441.895	720.67
442.27	736.49
442.645	733.1
443.019	743.72
443.394	734.68
443.769	747.34
444.143	747.11
444.518	767.45
444.892	757.06
445.267	758.64
445.641	767.9
446.016	773.1
446.39	775.36
446.764	776.94
447.139	791.86
447.513	797.96
447.887	791.63
448.262	785.3
448.636	809.26
449.01	815.81
449.384	802.03
449.758	818.98
450.132	830.5
450.506	811.97
450.88	825.3
451.254	835.7
451.628	837.51
452.002	844.06
452.376	850.84
452.75	831.86
453.123	854.91
453.497	888.8
453.871	871.4
454.244	880.22
454.618	890.84
454.992	912.53
455.365	904.17
455.739	923.38
456.112	919.99
456.486	923.15
456.859	937.39
457.232	950.72
457.606	948.69
457.979	946.2
458.352	1005.41
458.725	1002.02
459.099	999.31
459.472	1011.29
459.845	1023.49
460.218	995.47
460.591	1028.46
460.964	1016.26
461.337	1050.83
461.71	1073.88
462.083	1069.59
462.456	1086.99
462.829	1079.53
463.201	1074.79
463.574	1095.58
463.947	1105.97
464.32	1115.69
464.692	1148.91
465.065	1130.83
465.438	1153.88
465.81	1195.24
466.183	1183.49
466.555	1231.62
466.928	1241.11
467.3	1237.27
467.672	1256.03
468.045	1303.71
468.417	1284.27
468.789	1284.5
469.161	1308
469.534	1301.9
469.906	1367.44
470.278	1370.83
470.65	1375.8
471.022	1395.46
471.394	1440.65
471.766	1435
472.138	1420.32
472.51	1494.44
472.882	1520.43
473.253	1537.15
473.625	1524.27
473.997	1565.4
474.369	1597.49
474.74	1604.04
475.112	1626.41
475.484	1663.7
475.855	1669.12
476.227	1712.74
476.598	1760.42
476.97	1753.19
477.341	1824.82
477.713	1834.09
478.084	1867.76
478.455	1916.35
478.827	1937.82
479.198	2000.41
479.569	2012.84
479.94	2089
480.311	2085.38
480.682	2118.83
481.053	2214.65
481.424	2230.69
481.795	2240.41
482.166	2286.28
482.537	2335.09
482.908	2338.26
483.279	2432.49
483.65	2494.19
484.021	2513.39
484.391	2573.51
484.762	2614.18
485.133	2590.68
485.503	2673.39
485.874	2743.44
486.244	2787.51
486.615	2835.42
486.985	2858.47
487.356	2930.33
487.726	2972.37
488.097	3061.85
488.467	3035.41
488.837	3092.59
489.207	3180.5
489.578	3258.46
489.948	3221.62
490.318	3347.04
490.688	3329.64
491.058	3405.35
491.428	3467.27
491.798	3512.69
492.168	3592.46
492.538	3622.07
492.908	3696.41
493.278	3711.55
493.648	3729.18
494.017	3787.49
494.387	3867.71
494.757	3876.75
495.126	3901.61
495.496	3949.29
495.866	3937.99
496.235	4027.03
496.605	4117.19
496.974	4044.2
497.344	4128.95
497.713	4179.57
498.082	4228.38
498.452	4270.86
498.821	4321.48
499.19	4309.28
499.559	4351.54
499.928	4377.75
500.298	4436.06
500.667	4465.66
501.036	4475.6
501.405	4494.59
501.774	4529.61
502.143	4546.56
502.512	4643.28
502.88	4664.52
503.249	4662.26
503.618	4701.13
503.987	4717.86
504.356	4786.55
504.724	4768.02
505.093	4797.18
505.462	4830.4
505.83	4858.19
506.199	4901.81
506.567	4948.58
506.936	4980.22
507.304	4988.81
507.672	5044.63
508.041	5076.26
508.409	5088.02
508.777	5156.71
509.145	5165.3
509.514	5137.28
509.882	5238.07
510.25	5218.86
510.618	5274.45
510.986	5268.35
511.354	5282.59
511.722	5319.2
512.09	5358.97
512.458	5327.33
512.826	5378.86
513.193	5371.4
513.561	5466.54
513.929	5403.04
514.297	5493.88
514.664	5559.42
515.032	5532.98
515.4	5589.25
515.767	5565.29
516.135	5613.65
516.502	5599.19
516.869	5725.97
517.237	5767.55
517.604	5683.48
517.972	5777.49
518.339	5765.51
518.706	5754.21
519.073	5753.08
519.44	5806.87
519.808	5856.13
520.175	5816.13
520.542	5929.35
520.909	5990.82
521.276	5944.04
521.643	5965.06
522.009	6010.03
522.376	6104.71
522.743	6077.37
523.11	6144.26
523.477	6158.95
523.843	6182.45
524.21	6243.69
524.577	6247.99
524.943	6294.76
525.31	6360.75
525.676	6342.22
526.043	6443.23
526.409	6383.35
526.776	6491.37
527.142	6523.68
527.508	6520.29
527.874	6588.99
528.241	6636.9
528.607	6685.04
528.973	6660.63
529.339	6686.39
529.705	6753.28
530.071	6789.67
530.437	6789.21
530.803	6854.75
531.169	6941.3
531.535	6891.13
531.901	6859.27
532.267	6891.13
532.632	6973.84
532.998	7017.91
533.364	7026.72
533.73	7082.09
534.095	7122.76
534.461	7141.07
534.826	7186.72
535.192	7206.6
535.557	7236.43
535.923	7205.7
536.288	7312.59
536.653	7297.68
537.019	7326.15
537.384	7356.88
537.749	7425.81
538.114	7429.65
538.479	7433.72
538.845	7434.62
539.21	7473.94
539.575	7548.52
539.94	7497.22
540.305	7620.6
540.67	7622.86
541.034	7626.03
541.399	7653.6
541.764	7668.29
542.129	7711
542.494	7767.04
542.858	7764.56
543.223	7836.42
543.587	7858.34
543.952	7887.26
544.316	7958.9
544.681	7934.04
545.045	7954.38
545.41	8036.86
545.774	8078.22
546.138	8067.6
546.503	8153.92
546.867	8141.95
547.231	8260.59
547.595	8237.99
547.959	8178.1
548.324	8286.12
548.688	8234.6
549.052	8272.79
549.416	8331.09
549.779	8285.22
550.143	8357.31
550.507	8471.66
550.871	8478.89
551.235	8485.89
551.599	8475.27
551.962	8502.16
552.326	8585.1
552.689	8597.98
553.053	8530.64
553.417	8537.87
553.78	8663.29
554.143	8671.2
554.507	8702.61
554.87	8716.62
555.234	8819.22
555.597	8826.45
555.96	8758.2
556.323	8821.7
556.686	8852.89
557.05	8946.9
557.413	8966.33
557.776	8988.25
558.139	9057.4
558.502	9094.46
558.865	9063.05
559.228	9130.4
559.59	9199.77
559.953	9185.08
560.316	9278.64
560.679	9218.08
561.041	9308.24
561.404	9345.98
561.767	9404.29
562.129	9296.04
562.492	9386.66
562.854	9362.03
563.217	9392.08
563.579	9429.37
563.941	9530.61
564.304	9548.01
564.666	9591.85
565.028	9665.52
565.39	9635.47
565.753	9727.89
566.115	9763.6
566.477	9808.8
566.839	9831.85
567.201	9825.97
567.563	9838.4
567.925	9936.02
568.287	9995.68
568.648	9978.28
569.01	10093.53
569.372	10069.35
569.734	10043.14
570.095	10163.81
570.457	10183.25
570.819	10266.18
571.18	10218.73
571.542	10290.14
571.903	10359.52
572.265	10368.1
572.626	10493.07
572.987	10475.44
573.349	10564.93
573.71	10591.37
574.071	10702.11
574.432	10776.45
574.794	10836.34
575.155	10804.7
575.516	10886.28
575.877	11012.83
576.238	11032.72
576.599	11138.93
576.96	11212.15
577.32	11237.23
577.681	11375.31
578.042	11426.38
578.403	11506.6
578.763	11505.93
579.124	11720.16
579.485	11835.86
579.845	11971.45
580.206	12033.82
580.566	12156.08
580.927	12350.65
581.287	12445.56
581.648	12528.72
582.008	12722.62
582.368	12867.02
582.728	12961.48
583.089	13093.46
583.449	13147.24
583.809	13418.64
584.169	13659.99
584.529	13742.03
584.889	14039.42
585.249	14091.62
585.609	14391.05
585.969	14559.18
586.329	14776.57
586.688	15031.48
587.048	15237.13
587.408	15328.2
587.768	15630.79
588.127	15890.67
588.487	16078.91
588.846	16499.92
589.206	16592.57
589.565	16784.43
589.925	17148.04
590.284	17409.05
590.643	17704.18
591.003	17908.02
591.362	18283.38
591.721	18439.53
592.08	18740.99
592.44	19190.02
592.799	19372.39
593.158	19637.92
593.517	19857.57
593.876	20265.7
594.235	20516.76
594.593	20830.65
594.952	21209.85
595.311	21413.91
595.67	21688.03
596.029	22121.01
596.387	22543.15
596.746	22801.22
597.104	22927.32
597.463	23198.95
597.822	23635.55
598.18	23818.37
598.538	24066.73
598.897	24491.35
599.255	24676.2
599.613	25249.52
599.972	25281.61
600.33	25677.98
600.688	25892.67
601.046	26265.31
601.404	26743.27
601.762	26790.04
602.12	27237.94
602.478	27669.8
602.836	27794.99
603.194	27984.82
603.552	28317.91
603.91	28439.94
604.268	28880.84
604.625	29083.54
604.983	29385.46
605.341	29545
605.698	29940.92
606.056	30248.94
606.413	30377.07
606.771	30680.56
607.128	30998.07
607.485	31022.48
607.843	31302.92
608.2	31738.61
608.557	32001.88
608.914	32159.39
609.272	32506.28
609.629	32806.16
609.986	32864.69
610.343	33171.57
610.7	33345.8
611.057	33658.11
611.414	33781.72
611.771	33958.44
612.127	34341.03
612.484	34448.37
612.841	34618.31
613.198	34746.45
613.554	34877.29
613.911	35192.54
614.267	35416.94
614.624	35499.87
614.98	35693.31
615.337	35884.72
615.693	36141.89
616.05	36268.21
616.406	36538.71
616.762	36487.64
617.118	36785.71
617.475	36805.15
617.831	37080.4
618.187	37273.61
618.543	37364.91
618.899	37662.53
619.255	37638.8
619.611	37667.95
619.967	38020.71
620.323	38152.23
620.678	38158.56
621.034	38252.57
621.39	38390.87
621.746	38443.07
622.101	38886.45
622.457	38702.5
622.812	38884.87
623.168	39012.77
623.523	39172.54
623.879	39369.83
624.234	39321.92
624.589	39303.84
624.945	39433.55
625.3	39550.39
625.655	39643.94
626.01	39667.45
626.365	39834.67
626.72	39953.77
627.075	39910.38
627.43	40071.5
627.785	39894.78
628.14	40047.32
628.495	40208
628.85	40218.62
629.205	40079.86
629.559	40355.34
629.914	40234.21
630.269	40333.64
630.623	40352.17
630.978	40304.72
631.332	40602.34
631.687	40568.44
632.041	40537.25
632.396	40665.84
632.75	40547.2
633.104	40667.19
633.459	40554.2
633.813	40523.02
634.167	40539.97
634.521	40644.6
634.875	40573.18
635.229	40561.66
635.583	40400.08
635.937	40559.4
636.291	40553.07
636.645	40569.12
636.999	40606.86
637.352	40556.69
637.706	40565.5
638.06	40737.25
638.413	40618.61
638.767	40548.55
639.121	40593.98
639.474	40372.06
639.828	40412.74
640.181	40580.42
640.534	40534.99
640.888	40252.74
641.241	40197.38
641.594	40478.72
641.947	40629.23
642.301	40469.91
642.654	40492.96
643.007	40511.49
643.36	40424.71
643.713	40339.07
644.066	40489.8
644.419	40405.73
644.771	39918.96
645.124	39702.47
645.477	39674
645.83	39525.98
646.182	39382.93
646.535	39297.29
646.888	39253.67
647.24	39097.52
647.593	39420.22
647.945	39282.6
648.298	39252.54
648.65	38984.3
649.002	39032.89
649.355	39319.88
649.707	39025.88
650.059	39369.83
650.411	39808.91
650.763	40035.35
651.115	40286.41
651.467	40013.2
651.819	40145.4
652.171	40027.89
652.523	40043.48
652.875	39942.01
653.227	39914.44
653.578	40124.38
653.93	39946.08
654.282	39806.65
654.633	39741.57
654.985	39827.89
655.337	39898.63
655.688	39954.67
656.039	40106.98
656.391	39648.01
656.742	39764.17
657.094	39830.83
657.445	39907.21
657.796	39906.08
658.147	39677.16
658.498	39849.14
658.849	39792.87
659.2	39890.49
659.551	39621.35
659.902	39843.49
660.253	39860.21
660.604	39853.43
660.955	39702.92
661.306	39749.93
661.656	39649.14
662.007	39591.52
662.358	39690.72
662.708	39697.73
663.059	39719.87
663.409	39480.33
663.76	39761
664.11	39822.47
664.461	39640.78
664.811	39772.98
665.161	39739.31
665.511	39620.22
665.862	39721
666.212	39737.95
666.562	39747.9
666.912	39749.93
667.262	39507.68
667.612	39619.31
667.962	39690.27
668.312	39659.31
668.662	39749.03
669.011	39652.76
669.361	39528.92
669.711	39435.14
670.06	39395.14
670.41	39534.12
670.76	39332.31
671.109	39549.03
671.459	39390.16
671.808	39520.78
672.157	39503.16
672.507	39337.96
672.856	39272.65
673.205	39358.3
673.554	39414.57
673.904	39250.96
674.253	39676.94
674.602	39347.23
674.951	38934.81
675.3	38681.26
675.649	39195.82
675.998	39287.79
676.346	39298.87
676.695	39524.85
677.044	39186.1
677.393	39126.44
677.741	39160.11
678.09	39277.85
678.438	39018.88
678.787	39031.53
679.135	39081.25
679.484	38942.27
679.832	39060
680.181	38822.72
680.529	38808.94
680.877	38809.62
681.225	38711.54
681.573	39022.26
681.922	38653.01
682.27	38590.19
682.618	38620.24
682.966	38484.43
683.314	38662.5
683.661	38462.28
684.009	38231.55
684.357	38160.37
684.705	38292.79
685.053	38166.92
685.4	38001.27
685.748	38083.53
686.095	38133.7
686.443	37826.59
686.79	37899.58
687.138	38047.6
687.485	37987.72
687.832	37850.77
688.18	37702.53
688.527	37565.58
688.874	37505.92
689.221	37522.19
689.568	37400.84
689.915	37334.4
690.262	37248.53
690.609	37231.58
690.956	37115.42
691.303	37070.9
691.65	37001.3
691.997	36889.89
692.344	36700.07
692.69	36666.62
693.037	36741.19
693.383	36388.66
693.73	36560.63
694.077	36278.16
694.423	36334.43
694.769	36183.24
695.116	36237.93
695.462	36081.33
695.808	35949.58
696.155	35934.44
696.501	35819.64
696.847	35748.23
697.193	35548.68
697.539	35625.07
697.885	35327.67
698.231	35407.67
698.577	35356.15
698.923	35290.84
699.269	35040.67
699.614	34913.9
699.96	34928.59
700.306	34777.18
700.651	34810.85
700.997	34699.21
701.342	34624.41
701.688	34486.56
702.033	34452.89
702.379	34563.17
702.724	34363.4
703.069	34388.26
703.415	34028.95
703.76	33944.21
704.105	34175.84
704.45	33914.83
704.795	33778.79
705.14	33575.4
705.485	33596.19
705.83	33509.64
706.175	33549.87
706.52	33518.45
706.865	33310.32
707.209	33328.63
707.554	33228.74
707.899	33269.65
708.243	32946.94
708.588	32984.68
708.932	32814.07
709.277	32793.95
709.621	32791.92
709.966	32508.31
710.31	32697.23
710.654	32393.74
710.998	32506.73
711.342	32495.66
711.687	32373.4
712.031	32275.1
712.375	32025.39
712.719	32081.2
713.063	32082.33
713.407	32232.61
713.75	32054.99
714.094	31902
714.438	31832.85
714.782	31791.04
715.125	31730.25
715.469	31876.24
715.812	31542.91
716.156	31473.08
716.499	31573.87
716.843	31528.45
717.186	31342.24
717.53	31412.75
717.873	31398.96
718.216	31253.88
718.559	31156.48
718.902	31009.82
719.246	31127.33
719.589	31056.15
719.932	30951.74
720.275	31012.76
720.617	30813.44
720.96	30874.46
721.303	30774.35
721.646	30730.51
721.989	30672.88
722.331	30616.16
722.674	30627.01
723.016	30545.2
723.359	30551.98
723.701	30465.65
724.044	30336.39
724.386	30270.86
724.729	30258.88
725.071	30260.69
725.413	30265.66
725.755	30102.05
726.097	30006.46
726.439	29846.91
726.782	29914.26
727.124	29932.79
727.465	29831.32
727.807	29839
728.149	29906.57
728.491	29763.75
728.833	29819.12
729.175	29675.39
729.516	29652.57
729.858	29501.61
730.199	29538.67
730.541	29499.13
730.882	29380.94
731.224	29610.53
731.565	29262.07
731.906	29499.8
732.248	29451.22
732.589	29233.82
732.93	29034.05
733.271	29196.08
733.612	29151.11
733.953	29053.04
734.294	29091.45
734.635	28953.83
734.976	28990.66
735.317	28826.6
735.658	28940.27
735.999	28887.62
736.339	28802.42
736.68	28789.99
737.021	28693.04
737.361	28700.05
737.702	28760.61
738.042	28707.73
738.383	28612.6
738.723	28690.79
739.063	28464.58
739.404	28545.25
739.744	28406.72
740.084	28375.99
740.424	28445.59
740.764	28348.87
741.104	28318.82
741.444	28301.64
741.784	28151.36
742.124	28231.36
742.464	28203.11
742.804	28190.01
743.143	28117.69
743.483	28123.12
743.823	27930.35
744.162	27881.99
744.502	27817.81
744.841	27906.4
745.181	27923.8
745.52	27799.28
745.86	27813.29
746.199	27787.98
746.538	27751.6
746.877	27847.87
747.216	27806.97
747.556	27716.8
747.895	27630.7
748.234	27544.15
748.573	27569.23
748.911	27376.7
749.25	27348
749.589	27323.36
749.928	27441.1
750.267	27476.58
750.605	27379.86
750.944	27248.11
751.283	27082.92
751.621	27171.5
751.96	27032.3
752.298	27083.14
752.636	27066.65
752.975	26866.65
753.313	26794.34
753.651	26930.15
753.989	26772.42
754.327	26831.63
754.666	26623.95
755.004	26731.97
755.342	26524.74
755.679	26613.78
756.017	26414.46
756.355	26498.3
756.693	26369.49
757.031	26375.82
757.368	26141.93
757.706	26151.42
758.044	26132.21
758.381	26045.43
758.719	26093.79
759.056	26033.68
759.394	26036.17
759.731	25814.7
760.068	25809.96
760.405	25785.32
760.743	25685.21
761.08	25743.07
761.417	25568.83
761.754	25557.53
762.091	25516.86
762.428	25382.17
762.765	25192.57
763.102	25350.53
763.438	25172.01
763.775	25072.58
764.112	25070.77
764.449	25097.43
764.785	24929.3
765.122	24883.65
765.458	24600.5
765.795	24570.89
766.131	24660.38
766.467	24404.8
766.804	24361.63
767.14	24291.13
767.476	24393.05
767.812	24222.65
768.148	24250
768.485	24120.96
768.821	23923.9
769.157	23939.95
769.492	23820.63
769.828	23730.46
770.164	23552.62
770.5	23544.71
770.836	23558.72
771.171	23460.87
771.507	23346.74
771.842	23158.28
772.178	23061.1
772.513	23121.21
772.849	23123.7
773.184	22902.91
773.519	22879.41
773.855	22811.62
774.19	22770.49
774.525	22657.5
774.86	22601
775.195	22579.53
775.53	22409.37
775.865	22317.62
776.2	22166.21
776.535	22073.11
776.87	22141.58
777.205	21900.91
777.539	21887.8
777.874	21839.67
778.209	21755.83
778.543	21715.6
778.878	21455.27
779.212	21548.83
779.547	21419.79
779.881	21513.57
780.215	21198.33
780.55	21291.21
780.884	21127.59
781.218	21031.1
781.552	21056.18
781.886	21029.52
782.22	20932.35
782.554	20740.49
782.888	20671.56
783.222	20578
783.556	20498.23
783.889	20445.13
784.223	20294.85
784.557	20342.98
784.89	20318.12
785.224	20074.06
785.557	20074.51
785.891	19918.59
786.224	20025.48
786.558	19960.62
786.891	19779.61
787.224	19679.95
787.557	19622.32
787.891	19638.14
788.224	19573.28
788.557	19576.9
788.89	19533.96
789.223	19448.54
789.556	19407.19
789.888	19218.72
790.221	19175.1
790.554	19140.75
790.887	19044.03
791.219	18975.33
791.552	19041.55
791.884	18900.08
792.217	18755.23
792.549	18718.39
792.882	18526.98
793.214	18559.98
793.546	18455.8
793.879	18395.46
794.211	18232.53
794.543	18381.23
794.875	18171.97
795.207	18317.27
795.539	18250.38
795.871	18243.38
796.203	18028.24
796.535	17843.16
796.867	17922.48
797.198	17887.23
797.53	17800.22
797.862	17813.56
798.193	17749.83
798.525	17665.09
798.856	17641.81
799.188	17390.52
799.519	17369.5
799.85	17322.95
800.182	17366.56
800.513	17325.21
800.844	17108.26
801.175	17279.56
801.506	17192.56
801.837	17115.95
802.168	17064.2
802.499	16994.14
802.83	17003.18
803.161	16879.57
803.491	16821.04
803.822	16862.4
804.153	16709.63
804.483	16620.14
804.814	16482.74
805.145	16482.29
805.475	16538.34
805.805	16442.97
806.136	16380.15
806.466	16391.9
806.796	16380.15
807.126	16239.81
807.457	16241.85
807.787	16161.85
808.117	16126.14
808.447	16067.61
808.777	16054.06
809.107	16016.32
809.436	15930.67
809.766	15937.67
810.096	15870.56
810.426	15779.71
810.755	15826.04
811.085	15826.72
811.414	15753.72
811.744	15597.12
812.073	15586.5
812.403	15577.91
812.732	15447.74
813.061	15513.73
813.39	15419.27
813.719	15409.78
814.049	15441.42
814.378	15406.39
814.707	15289.56
815.036	15293.17
815.365	15258.14
815.693	15170.91
816.022	15118.49
816.351	15061.76
816.68	14986.74
817.008	15044.36
817.337	14867.65
817.665	14899.06
817.994	15023.35
818.322	14914.42
818.651	14825.16
818.979	14737.48
819.307	14720.31
819.636	14792.39
819.964	14723.47
820.292	14760.3
820.62	14645.96
820.948	14541.1
821.276	14647.76
821.604	14609.12
821.932	14657.71
822.259	14657.71
822.587	14669.91
822.915	14487.54
823.243	14685.05
823.57	14593.3
823.898	14608.22
824.225	14480.99
824.553	14492.06
824.88	14545.62
825.207	14536.36
825.535	14545.39
825.862	14565.28
826.189	14407.54
826.516	14503.36
826.843	14623.58
827.17	14571.38
827.497	14530.03
827.824	14584.49
828.151	14543.13
828.478	14484.15
828.805	14578.39
829.131	14478.28
829.458	14552.4
829.785	14436.47
830.111	14533.19
830.438	14553.98
830.764	14467.66
831.09	14487.32
831.417	14458.62
831.743	14560.54
832.069	14437.83
832.395	14326.64
832.722	14353.08
833.048	14403.93
833.374	14400.99
833.7	14380.2
834.026	14276.25
834.351	14372.74
834.677	14422.23
835.003	14331.16
835.329	14265.63
835.654	14271.05
835.98	14200.54
836.306	14218.17
836.631	14200.77
836.956	14225.18
837.282	14186.99
837.607	14143.15
837.932	14136.14
838.258	14046.88
838.583	14090.94
838.908	14064.96
839.233	14083.94
839.558	14015.01
839.883	13954.45
840.208	13889.37
840.533	13938.86
840.858	14024.5
841.182	13855.24
841.507	13874.68
841.832	13790.84
842.156	13836.26
842.481	13873.55
842.805	13772.53
843.13	13773.66
843.454	13724.4
843.778	13639.2
844.103	13632.42
844.427	13593.33
844.751	13607.57
845.075	13522.82
845.399	13469.49
845.723	13442.6
846.047	13449.38
846.371	13337.97
846.695	13271.08
847.019	13167.35
847.343	13194.92
847.666	13056.17
847.99	13039.22
848.313	12991.08
848.637	12973.23
848.96	12997.19
849.284	12924.87
849.607	12812.56
849.931	12771.43
850.254	12739.79
850.577	12609.4
850.9	12498.67
851.223	12584.32
851.546	12448.05
851.869	12457.09
852.192	12400.82
852.515	12347.26
852.838	12324.66
853.161	12361.5
853.483	12239.69
853.806	12168.51
854.129	12188.17
854.451	12083.99
854.774	12046.03
855.096	11905.46
855.419	11946.37
855.741	11883.77
856.063	11858.23
856.385	11845.8
856.708	11775.3
857.03	11744.56
857.352	11801.51
857.674	11706.6
857.996	11667.73
858.318	11648.52
858.64	11589.31
858.961	11537.34
859.283	11560.39
859.605	11453.27
859.926	11545.93
860.248	11391.8
860.57	11388.64
860.891	11482.42
861.212	11377.57
861.534	11314.74
861.855	11294.63
862.176	11292.6
862.498	11331.02
862.819	11291.92
863.14	11266.84
863.461	11212.15
863.782	11118.37
864.103	11179.16
864.424	11096.22
864.745	11140.51
865.065	11068.2
865.386	11036.33
865.707	11081.08
866.027	10975.77
866.348	10991.82
866.668	11017.58
866.989	10932.61
867.309	10937.58
867.63	10877.02
867.95	10867.75
868.27	10875.43
868.59	10891.25
868.91	10760.64
869.23	10818.26
869.55	10779.39
869.87	10822.33
870.19	10815.55
870.51	10830.01
870.83	10840.86
871.15	10735.55
871.469	10668.43
871.789	10733.29
872.109	10653.07
872.428	10631.37
872.748	10626.4
873.067	10611.94
873.386	10613.75
873.706	10616.46
874.025	10514.77
874.344	10477.93
874.663	10570.13
874.982	10498.5
875.301	10454.65
875.62	10451.94
875.939	10474.77
876.258	10459.63
876.577	10394.09
876.896	10375.56
877.214	10367.65
877.533	10472.51
877.852	10313.87
878.17	10303.02
878.489	10348.44
878.807	10322.45
879.125	10271.61
879.444	10264.6
879.762	10271.16
880.08	10174.66
880.398	10232.97
880.716	10222.57
881.034	10095.57
881.352	10212.85
881.67	10100.77
881.988	10091.05
882.306	10041.56
882.624	10075.91
882.941	10018.51
883.259	9955.01
883.577	9940.09
883.894	9976.47
884.212	9929.47
884.529	9921.79
884.846	9888.79
885.164	9846.53
885.481	9823.71
885.798	9789.14
886.115	9763.6
886.432	9818.74
886.75	9774.45
887.067	9646.09
887.383	9659.87
887.7	9649.7
888.017	9677.5
888.334	9710.72
888.651	9591.85
888.967	9621
889.284	9563.15
889.6	9634.11
889.917	9522.7
890.233	9523.15
890.55	9446.32
890.866	9513.89
891.182	9390.28
891.498	9450.84
891.815	9356.6
892.131	9382.14
892.447	9323.61
892.763	9268.25
893.079	9208.13
893.395	9225.99
893.71	9216.72
894.026	9120.68
894.342	9141.69
894.657	9096.72
894.973	9018.76
895.289	9067.12
895.604	9004.52
895.92	9017.63
896.235	8966.33
896.55	8992.55
896.865	8924.75
897.181	8830.29
897.496	8842.49
897.811	8839.78
898.126	8807.01
898.441	8770.4
898.756	8713.01
899.071	8681.82
899.386	8683.85
899.7	8654.48
900.015	8606.79
900.33	8612.22
900.644	8524.08
900.959	8546
901.273	8511.65
901.588	8438.44
901.902	8376.52
902.216	8373.13
902.531	8357.76
902.845	8315.95
903.159	8308.5
903.473	8276.63
903.787	8204.77
904.101	8200.48
904.415	8280.02
904.729	8128.16
905.042	8085.45
905.356	8138.78
905.67	8066.02
905.984	8033.25
906.297	7986.02
906.611	7917.32
906.924	8006.13
907.237	7981.95
907.551	7901.05
907.864	7877.1
908.177	7878.9
908.491	7841.84
908.804	7725.01
909.117	7779.92
909.43	7645.24
909.743	7685.69
910.056	7580.83
910.368	7541.74
910.681	7538.35
910.994	7509.87
911.307	7512.81
911.619	7481.63
911.932	7442.76
912.244	7380.84
912.557	7403.44
912.869	7327.05
913.181	7382.87
913.494	7315.53
913.806	7216.55
914.118	7252.7
914.43	7151.01
914.742	7163.89
915.054	7061.98
915.366	7137
915.678	7140.84
915.99	7066.04
916.302	7059.72
916.613	6986.5
916.925	7003.9
917.236	6921.41
917.548	6859.04
917.859	6913.28
918.171	6883.45
918.482	6779.72
918.794	6808.65
919.105	6782.66
919.416	6719.39
919.727	6704.47
920.038	6680.29
920.349	6671.25
920.66	6646.85
920.971	6553.06
921.282	6577.02
921.593	6527.98
921.903	6449.11
922.214	6509.22
922.525	6435.1
922.835	6459.05
923.146	6379.51
923.456	6387.42
923.767	6355.33
924.077	6318.94
924.387	6312.62
924.697	6245.05
925.008	6251.15
925.318	6240.53
925.628	6232.84
925.938	6204.6
926.248	6142
926.558	6109.01
926.867	6093.64
927.177	6098.16
927.487	6028.1
927.796	5996.47
928.106	5966.64
928.416	5960.54
928.725	5970.93
929.034	5922.57
929.344	5910.59
929.653	5897.26
929.962	5818.17
930.271	5793.99
930.581	5793.53
930.89	5758.05
931.199	5717.15
931.508	5715.12
931.817	5678.06
932.125	5673.31
932.434	5598.96
932.743	5547.44
933.051	5563.26
933.36	5563.71
933.669	5478.97
933.977	5462.92
934.286	5536.14
934.594	5496.82
934.902	5356.71
935.21	5446.88
935.519	5390.83
935.827	5401.68
936.135	5389.93
936.443	5326.88
936.751	5245.53
937.059	5301.12
937.367	5290.5
937.674	5266.77
937.982	5247.79
938.29	5212.31
938.597	5250.95
938.905	5151.52
939.213	5131.63
939.52	5086.43
939.827	5143.61
940.135	5093.67
940.442	5046.89
940.749	5005.98
941.056	5062.48
941.363	4970.5
941.67	4997.85
941.977	4952.88
942.284	4888.7
942.591	4880.11
942.898	4855.48
943.205	4860.23
943.511	4862.94
943.818	4858.42
944.125	4748.59
944.431	4749.27
944.738	4738.42
945.044	4740.23
945.35	4708.14
945.657	4699.1
945.963	4663.17
946.269	4662.49
946.575	4626.11
946.881	4597.41
947.187	4587.24
947.493	4546.56
947.799	4596.5
948.105	4527.8
948.41	4531.42
948.716	4492.33
949.022	4454.13
949.327	4445.32
949.633	4420.91
949.938	4397.64
950.244	4388.6
950.549	4369.39
950.854	4381.82
951.16	4353.57
951.465	4287.59
951.77	4284.42
952.075	4286.91
952.38	4228.15
952.685	4329.62
952.99	4229.96
953.294	4185.44
953.599	4221.15
953.904	4177.31
954.209	4118.32
954.513	4151.77
954.818	4118.1
955.122	4088.27
955.426	4051.66
955.731	4060.92
956.035	4036.29
956.339	4054.14
956.643	4025.67
956.948	3961.72
957.252	3975.95
957.556	3953.81
957.86	3921.94
958.163	3933.47
958.467	3875.39
958.771	3868.16
959.075	3881.27
959.378	3840.37
959.682	3844.88
959.985	3835.62
960.289	3807.82
960.592	3785.45
960.896	3759.69
961.199	3769.63
961.502	3735.96
961.805	3699.58
962.108	3756.53
962.411	3682.86
962.714	3696.64
963.017	3658.45
963.32	3651.9
963.623	3592.24
963.926	3632.46
964.228	3603.54
964.531	3558.34
964.833	3525.8
965.136	3519.7
965.438	3514.05
965.741	3517.44
966.043	3516.53
966.345	3487.61
966.648	3494.61
966.95	3416.87
967.252	3449.19
967.554	3434.5
967.856	3445.12
968.158	3389.98
968.46	3412.35
968.761	3394.28
969.063	3407.16
969.365	3358.34
969.666	3328.29
969.968	3308.63
970.269	3236.54
970.571	3284.67
970.872	3264.56
971.174	3316.54
971.475	3241.06
971.776	3231.34
972.077	3189.53
972.378	3193.38
972.679	3220.27
972.98	3161.74
973.281	3165.81
973.582	3152.25
973.883	3161.96
974.183	3156.54
974.484	3095.75
974.785	3065.7
975.085	3061.63
975.386	3026.15
975.686	3071.57
975.986	3048.75
976.287	3030.89
976.587	2995.19
976.887	2974.17
977.187	2995.42
977.487	2943.44
977.787	2964.91
978.087	2945.25
978.387	2927.17
978.687	2939.15
978.987	2916.32
979.286	2902.76
979.586	2895.08
979.885	2863.22
980.185	2851.24
980.484	2844.01
980.784	2852.14
981.083	2824.35
981.382	2755.2
981.682	2794.97
981.981	2768.75
982.28	2760.62
982.579	2782.99
982.878	2734.63
983.177	2731.24
983.475	2755.2
983.774	2721.52
984.073	2681.75
984.372	2698.93
984.67	2657.12
984.969	2694.63
985.267	2677.01
985.566	2622.32
985.864	2623.22
986.162	2594.52
986.461	2649.21
986.759	2589.32
987.057	2577.12
987.355	2566.05
987.653	2531.25
987.951	2579.61
988.249	2544.35
988.547	2529.21
988.844	2506.16
989.142	2518.59
989.44	2502.32
989.737	2463.68
990.035	2435.43
990.332	2459.16
990.63	2398.82
990.927	2421.87
991.224	2439.05
991.521	2408.76
991.819	2393.4
992.116	2372.38
992.413	2347.52
992.71	2378.48
993.006	2361.76
993.303	2311.82
993.6	2337.35
993.897	2332.61
994.193	2332.38
994.49	2304.81
994.787	2291.48
995.083	2289.45
995.379	2257.81
995.676	2251.25
995.972	2248.32
996.268	2254.42
996.565	2194.76
996.861	2187.3
997.157	2227.98
997.453	2200.63
997.749	2189.11
998.044	2164.93
998.34	2134.65
998.636	2184.14
998.932	2122.22
999.227	2091.71
999.523	2133.52
999.818	2097.13
1000.114	2106.63
1000.409	2059.4
1000.704	2088.77
1001	2075.44
1001.295	2061.43
1001.59	2051.03
1001.885	2046.06
1002.18	1990.02
1002.475	1999.96
1002.77	2011.49
1003.065	1978.72
1003.359	1997.7
1003.654	1963.58
1003.949	1973.3
1004.243	1952.96
1004.538	1918.83
1004.832	1924.94
1005.127	1910.92
1005.421	1900.3
1005.715	1856.69
1006.009	1896.01
1006.304	1890.81
1006.598	1854.88
1006.892	1804.26
1007.186	1825.73
1007.48	1820.08
1007.773	1844.26
1008.067	1785.5
1008.361	1775.79
1008.655	1795.67
1008.948	1769.01
1009.242	1779.63
1009.535	1754.09
1009.829	1757.71
1010.122	1752.74
1010.415	1732.4
1010.708	1730.14
1011.001	1701.66
1011.295	1705.73
1011.588	1698.05
1011.881	1667.31
1012.173	1674.09
1012.466	1651.04
1012.759	1675
1013.052	1665.51
1013.344	1615.79
1013.637	1612.18
1013.93	1611.27
1014.222	1598.39
1014.514	1611.72
1014.807	1587.32
1015.099	1560.43
1015.391	1539.63
1015.683	1572.18
1015.976	1555.68
1016.268	1565.17
1016.56	1536.47
1016.851	1544.83
1017.143	1510.03
1017.435	1518.17
1017.727	1498.73
1018.018	1484.27
1018.31	1468.45
1018.602	1452.18
1018.893	1456.25
1019.185	1439.07
1019.476	1424.61
1019.767	1435.91
1020.058	1406.98
1020.35	1441.33
1020.641	1399.53
1020.932	1357.72
1021.223	1392.52
1021.514	1377.61
1021.804	1355.23
1022.095	1352.97
1022.386	1341.67
1022.677	1345.74
1022.967	1335.12
1023.258	1341.45
1023.548	1314.78
1023.839	1305.97
1024.129	1307.1
1024.419	1303.48
1024.709	1306.65
1025	1277.72
1025.29	1256.93
1025.58	1256.48
1025.87	1236.59
1026.16	1220.32
1026.449	1223.94
1026.739	1230.26
1027.029	1218.74
1027.319	1216.25
1027.608	1210.38
1027.898	1208.8
1028.187	1194.33
1028.477	1170.83
1028.766	1175.35
1029.055	1161.57
1029.344	1142.81
1029.634	1145.07
1029.923	1136.48
1030.212	1130.61
1030.501	1125.41
1030.79	1096.93
1031.078	1086.77
1031.367	1085.64
1031.656	1100.55
1031.945	1071.62
1032.233	1075.69
1032.522	1085.18
1032.81	1088.35
1033.099	1080.66
1033.387	1061.46
1033.675	1068.46
1033.963	1055.81
1034.251	1051.29
1034.54	1030.27
1034.828	1025.3
1035.116	1011.06
1035.403	1003.15
1035.691	980.33
1035.979	997.05
1036.267	984.17
1036.554	981.23
1036.842	942.59
1037.129	971.51
1037.417	968.58
1037.704	959.99
1037.992	955.02
1038.279	960.67
1038.566	945.07
1038.853	945.07
1039.14	945.07
