Data from hue_40_FLMS001491_11.txt Node
Date: Mon Feb 06 15:07:30 GMT 2017
User: dcchb
Spectrometer: FLMS00149
Trigger mode: 0
Integration Time (sec): 2.000000E-2
Scans to average: 10
Electric dark correction enabled: true
Nonlinearity correction enabled: false
Boxcar width: 0
XAxis mode: Wavelengths
Number of Pixels in Spectrum: 2048
>>>>>Begin Spectral Data<<<<<
341.393	-14.55
341.776	-14.55
342.16	-14.55
342.543	-46.86
342.927	-63.13
343.31	-61.78
343.693	-79.18
344.077	-60.87
344.46	-65.17
344.843	-41.21
345.226	-16.13
345.61	-42.8
345.993	-15
346.376	-19.29
346.759	1.72
347.142	11.21
347.525	40.37
347.908	74.26
348.291	78.33
348.674	87.37
349.057	108.16
349.44	129.63
349.823	145
350.206	163.53
350.588	186.8
350.971	217.31
351.354	228.38
351.737	249.4
352.119	254.82
352.502	283.52
352.884	265.67
353.267	284.88
353.65	296.63
354.032	300.92
354.414	310.64
354.797	306.57
355.179	313.13
355.562	318.32
355.944	329.17
356.326	336.63
356.709	338.89
357.091	341.83
357.473	338.21
357.855	340.25
358.238	360.13
358.62	350.19
359.002	336.18
359.384	355.84
359.766	351.09
360.148	360.13
360.53	356.74
360.912	351.77
361.294	352.22
361.676	334.82
362.057	354.48
362.439	328.27
362.821	332.79
363.203	350.41
363.584	337.76
363.966	329.17
364.348	309.29
364.729	328.27
365.111	319.91
365.493	331.88
365.874	325.78
366.256	330.53
366.637	310.42
367.019	319.91
367.4	328.27
367.781	304.09
368.163	316.07
368.544	320.58
368.925	321.94
369.306	318.55
369.688	321.26
370.069	315.84
370.45	330.98
370.831	313.81
371.212	334.37
371.593	312.45
371.974	317.42
372.355	326.91
372.736	319.23
373.117	329.62
373.498	310.42
373.879	328.27
374.26	316.74
374.641	308.16
375.021	326.69
375.402	320.13
375.783	350.41
376.163	328.72
376.544	329.85
376.925	334.6
377.305	336.18
377.686	310.42
378.066	347.93
378.447	343.41
378.827	319.45
379.208	333.01
379.588	338.66
379.968	335.5
380.349	357.19
380.729	332.56
381.109	331.43
381.489	321.94
381.87	351.09
382.25	326.01
382.63	355.16
383.01	339.57
383.39	357.87
383.77	362.39
384.15	329.85
384.53	335.27
384.91	338.89
385.29	356.29
385.67	356.52
386.049	344.99
386.429	347.02
386.809	349.51
387.189	356.29
387.568	347.25
387.948	368.27
388.328	355.61
388.707	360.58
389.087	354.26
389.466	363.52
389.846	386.12
390.225	389.28
390.605	360.81
390.984	352.9
391.363	341.15
391.743	372.79
392.122	376.63
392.501	366.91
392.881	369.85
393.26	383.86
393.639	368.72
394.018	369.85
394.397	378.66
394.776	369.62
395.155	370.08
395.534	373.92
395.913	376.4
396.292	390.87
396.671	393.13
397.05	380.92
397.429	377.53
397.808	378.66
398.186	390.41
398.565	404.42
398.944	376.63
399.323	386.35
399.701	405.33
400.08	397.64
400.458	390.41
400.837	394.26
401.215	393.13
401.594	403.29
401.972	400.58
402.351	401.03
402.729	411.66
403.107	408.72
403.486	405.33
403.864	415.27
404.242	401.49
404.62	423.63
404.999	413.46
405.377	410.07
405.755	413.92
406.133	407.81
406.511	445.33
406.889	435.16
407.267	424.76
407.645	429.96
408.023	430.41
408.401	424.31
408.779	430.41
409.156	438.32
409.534	445.33
409.912	440.58
410.29	448.94
410.667	444.2
411.045	445.55
411.422	452.11
411.8	455.04
412.178	448.94
412.555	458.43
412.933	483.07
413.31	460.24
413.687	469.28
414.065	473.12
414.442	488.49
414.819	485.55
415.197	483.74
415.574	479.45
415.951	501.82
416.328	492.56
416.705	471.09
417.082	506.34
417.46	493.01
417.837	517.42
418.214	511.09
418.591	510.18
418.967	526.46
419.344	495.04
419.721	510.41
420.098	518.55
420.475	516.96
420.852	515.83
421.228	523.07
421.605	517.19
421.982	549.28
422.358	528.49
422.735	521.48
423.111	544.76
423.488	541.37
423.864	574.59
424.241	567.36
424.617	538.21
424.994	550.86
425.37	540.24
425.746	535.27
426.123	558.09
426.499	581.14
426.875	564.19
427.251	551.54
427.627	573.91
428.003	591.54
428.379	573.46
428.756	586.57
429.132	614.36
429.507	593.12
429.883	570.75
430.259	603.52
430.635	612.1
431.011	604.19
431.387	629.73
431.763	622.27
432.138	635.38
432.514	645.55
432.89	650.97
433.265	660.69
433.641	640.12
434.016	661.14
434.392	671.76
434.767	655.27
435.143	668.15
435.518	679.22
435.894	691.65
436.269	692.33
436.644	690.97
437.02	693.91
437.395	703.63
437.77	728.48
438.145	708.37
438.52	722.83
438.895	730.52
439.271	707.47
439.646	757.18
440.021	729.84
440.395	734.59
440.77	731.42
441.145	745.21
441.52	761.7
441.895	757.18
442.27	752.44
442.645	749.27
443.019	766.45
443.394	768.26
443.769	784.53
444.143	787.69
444.518	770.97
444.892	783.85
445.267	801.02
445.641	810.97
446.016	779.33
446.39	810.06
446.764	787.24
447.139	809.84
447.513	812.78
447.887	826.79
448.262	835.15
448.636	831.76
449.01	824.07
449.384	850.29
449.758	833.11
450.132	855.26
450.506	843.06
450.88	871.3
451.254	850.51
451.628	862.04
452.002	891.42
452.376	902.72
452.75	885.99
453.123	895.26
453.497	895.26
453.871	922.83
454.244	918.08
454.618	922.6
454.992	930.96
455.365	959.89
455.739	941.59
456.112	955.37
456.486	955.6
456.859	954.69
457.232	1006.22
457.606	998.31
457.979	1009.83
458.352	1022.94
458.725	1027.91
459.099	1023.62
459.472	1069.72
459.845	1057.29
460.218	1080.11
460.591	1096.84
460.964	1100.23
461.337	1104.97
461.71	1125.31
462.083	1143.39
462.456	1153.78
462.829	1136.61
463.201	1169.83
463.574	1184.97
463.947	1171.64
464.32	1188.36
464.692	1199.43
465.065	1226.32
465.438	1255.93
465.81	1274.91
466.183	1285.53
466.555	1283.27
466.928	1308.36
467.3	1335.93
467.672	1361.24
468.045	1369.14
468.417	1382.25
468.789	1400.33
469.161	1417.05
469.534	1436.04
469.906	1472.64
470.278	1462.02
470.65	1520.55
471.022	1528.24
471.394	1564.62
471.766	1594.68
472.138	1603.49
472.51	1640.78
472.882	1697.27
473.253	1700.89
473.625	1724.62
473.997	1764.16
474.369	1844.61
474.74	1838.51
475.112	1879.87
475.484	1899.07
475.855	1994.44
476.227	1990.82
476.598	2064.49
476.97	2083.02
477.341	2149.24
477.713	2202.57
478.084	2227.43
478.455	2290.48
478.827	2325.96
479.198	2399.63
479.569	2449.79
479.94	2555.55
480.311	2608.66
480.682	2661.54
481.053	2753.52
481.424	2810.24
481.795	2878.48
482.166	2939.72
482.537	3007.07
482.908	3135.88
483.279	3168.87
483.65	3257.68
484.021	3364.12
484.391	3426.72
484.762	3515.53
485.133	3584.68
485.503	3661.74
485.874	3778.35
486.244	3816.31
486.615	3953.26
486.985	4021.73
487.356	4192.57
487.726	4243.42
488.097	4365.22
488.467	4426.92
488.837	4580.13
489.207	4613.81
489.578	4799.11
489.948	4883.18
490.318	4965.43
490.688	5058.77
491.058	5240
491.428	5278.19
491.798	5390.96
492.168	5526.78
492.538	5580.79
492.908	5680.22
493.278	5797.05
493.648	5891.06
494.017	6038.63
494.387	6165.63
494.757	6270.26
495.126	6363.14
495.496	6415.57
495.866	6507.99
496.235	6637.25
496.605	6731.94
496.974	6810.36
497.344	6976.23
497.713	7025.27
498.082	7135.55
498.452	7300.74
498.821	7312.27
499.19	7384.58
499.559	7520.4
499.928	7612.6
500.298	7699.6
500.667	7856.43
501.036	7828.18
501.405	8002.19
501.774	8063.88
502.143	8137.33
502.512	8189.53
502.88	8276.53
503.249	8399.47
503.618	8446.47
503.987	8487.6
504.356	8585
504.724	8670.65
505.093	8776.86
505.462	8826.58
505.83	8915.16
506.199	9036.06
506.567	9152.44
506.936	9196.74
507.304	9320.12
507.672	9376.17
508.041	9428.82
508.409	9542.04
508.777	9625.88
509.145	9708.36
509.514	9712.65
509.882	9805.99
510.25	9898.64
510.618	9982.93
510.986	10032.19
511.354	10095.69
511.722	10203.04
512.09	10341.56
512.458	10320.1
512.826	10456.82
513.193	10503.82
513.561	10509.92
513.929	10643.93
514.297	10730.48
514.664	10789.91
515.032	10853.19
515.4	10918.05
515.767	10955.79
516.135	11122.33
516.502	11019.06
516.869	11221.77
517.237	11215.89
517.604	11226.74
517.972	11371.82
518.339	11480.52
518.706	11574.07
519.073	11587.86
519.44	11624.24
519.808	11749.44
520.175	11803.9
520.542	11949.43
520.909	12095.42
521.276	12054.51
521.643	12097
522.009	12188.75
522.376	12260.84
522.743	12325.01
523.11	12428.74
523.477	12549.87
523.843	12614.05
524.21	12740.37
524.577	12908.05
524.943	12888.16
525.31	12946.69
525.676	13086.58
526.043	13158.21
526.409	13221.26
526.776	13366.34
527.142	13416.74
527.508	13468.71
527.874	13596.17
528.241	13639.56
528.607	13741.47
528.973	13891.53
529.339	13848.59
529.705	14024.86
530.071	14123.84
530.437	14095.36
530.803	14161.8
531.169	14324.28
531.535	14272.08
531.901	14400.89
532.267	14489.03
532.632	14474.56
532.998	14614.22
533.364	14644.95
533.73	14755.91
534.095	14833.88
534.461	14838.4
534.826	14872.52
535.192	14929.47
535.557	14997.49
535.923	15174.21
536.288	15230.48
536.653	15260.98
537.019	15244.71
537.384	15406.06
537.749	15448.77
538.114	15491.71
538.479	15523.8
538.845	15533.29
539.21	15576.45
539.575	15672.05
539.94	15735.77
540.305	15880.63
540.67	15897.12
541.034	15891.25
541.399	15969.89
541.764	16096.22
542.129	16137.12
542.494	16154.29
542.858	16155.2
543.223	16161.75
543.587	16310.22
543.952	16379.15
544.316	16412.37
544.681	16487.39
545.045	16529.88
545.41	16615.07
545.774	16789.53
546.138	16744.33
546.503	16802.19
546.867	16687.61
547.231	16939.13
547.595	17055.51
547.959	16947.49
548.324	17081.73
548.688	17101.61
549.052	17174.83
549.416	17209.86
549.779	17219.35
550.143	17362.85
550.507	17530.53
550.871	17495.5
551.235	17453.47
551.599	17627.7
551.962	17614.82
552.326	17741.82
552.689	17916.51
553.053	17752.22
553.417	17811.42
553.78	18080.8
554.143	17988.14
554.507	18038.99
554.87	18120.57
555.234	18335.03
555.597	18206.89
555.96	18368.92
556.323	18447.34
556.686	18353.56
557.05	18577.28
557.413	18600.56
557.776	18632.65
558.139	18751.29
558.502	18848.23
558.865	18855.69
559.228	18896.14
559.59	18946.99
559.953	19072.18
560.316	19286.41
560.679	19240.77
561.041	19295.45
561.404	19291.84
561.767	19542.9
562.129	19459.52
562.492	19619.74
562.854	19669.68
563.217	19626.52
563.579	19728.21
563.941	19893.63
564.304	19981.76
564.666	20064.02
565.028	20179.05
565.39	20242.32
565.753	20362.77
566.115	20422.66
566.477	20504.01
566.839	20513.73
567.201	20647.96
567.563	20711.69
567.925	20747.62
568.287	20732.93
568.648	20725.47
569.01	20956.88
569.372	21084.33
569.734	21087.27
570.095	21160.71
570.457	21284.78
570.819	21255.4
571.18	21395.51
571.542	21599.12
571.903	21567.71
572.265	21666.01
572.626	21656.07
572.987	21833.92
573.349	21954.14
573.71	21965.21
574.071	22144.19
574.432	22174.93
574.794	22438.42
575.155	22473
575.516	22469.38
575.877	22663.27
576.238	22621.92
576.599	22923.61
576.96	22898.52
577.32	22927.22
577.681	23142.81
578.042	23271.39
578.403	23302.35
578.763	23440.43
579.124	23619.18
579.485	23821.21
579.845	23968.78
580.206	23972.17
580.566	24067.76
580.927	24109.34
581.287	24393.85
581.648	24506.62
582.008	24676.33
582.368	24908.19
582.728	25015.08
583.089	25040.16
583.449	25309.98
583.809	25395.86
584.169	25601.5
584.529	25643.76
584.889	25957.2
585.249	26050.76
585.609	26126.01
585.969	26341.6
586.329	26553.57
586.688	26683.96
587.048	26789.27
587.408	26990.17
587.768	27208.47
588.127	27319.65
588.487	27518.74
588.846	27919.86
589.206	27857.04
589.565	28067.65
589.925	28480.07
590.284	28511.48
590.643	28844.13
591.003	29042.09
591.362	29149.66
591.721	29267.39
592.08	29507.16
592.44	29734.27
592.799	29793.26
593.158	29978.56
593.517	30157.54
593.876	30285.67
594.235	30522.05
594.593	30717.75
594.952	30996.16
595.311	31015.37
595.67	31337.85
596.029	31640.67
596.387	31768.12
596.746	31963.14
597.104	32030.03
597.463	32126.98
597.822	32553.18
598.18	32538.04
598.538	32787.98
598.897	33036.79
599.255	32894.19
599.613	33558.81
599.972	33503.44
600.33	33674.06
600.688	33555.19
601.046	33894.84
601.404	34148.17
601.762	34125.57
602.12	34505.22
602.478	34485.79
602.836	34672.22
603.194	34726.23
603.552	35022.95
603.91	34931.2
604.268	35266.78
604.625	35260.46
604.983	35527.12
605.341	35415.71
605.698	35805.08
606.056	35810.73
606.413	35857.5
606.771	36108.12
607.128	36262.69
607.485	36167.55
607.843	36340.2
608.2	36624.49
608.557	36899.96
608.914	36768.44
609.272	37048.66
609.629	37153.97
609.986	37510.79
610.343	37224.93
610.7	37669.43
611.057	37721.18
611.414	37791.01
611.771	37826.49
612.127	37983.32
612.484	37971.8
612.841	38250.66
613.198	38148.06
613.554	38335.4
613.911	38570.2
614.267	38563.42
614.624	38696.3
614.98	38822.17
615.337	39057.65
615.693	38963.41
616.05	38981.94
616.406	39197.98
616.762	39131.54
617.118	39118.89
617.475	39386.68
617.831	39421.25
618.187	39551.19
618.543	39662.15
618.899	39931.52
619.255	39872.77
619.611	40002.93
619.967	40184.4
620.323	40328.12
620.678	40017.39
621.034	40085.19
621.39	40147.11
621.746	40090.39
622.101	40588
622.457	40335.13
622.812	40503.71
623.168	40546.19
623.523	40585.29
623.879	40772.63
624.234	40533.09
624.589	40744.38
624.945	40866.86
625.3	40845.85
625.655	40804.04
626.01	40846.3
626.365	40918.16
626.72	40831.61
627.075	40842.23
627.43	40998.39
627.785	40887.88
628.14	41072.73
628.495	41137.59
628.85	41167.65
629.205	40902.34
629.559	41359.28
629.914	40982.79
630.269	41237.93
630.623	41007.2
630.978	40946.64
631.332	41291.48
631.687	41241.54
632.041	41002
632.396	41066.63
632.75	40976.46
633.104	41146.63
633.459	40903.02
633.813	41051.04
634.167	41001.1
634.521	40914.32
634.875	41055.33
635.229	40933.98
635.583	40909.57
635.937	40870.03
636.291	40880.87
636.645	41017.82
636.999	40805.85
637.352	40983.24
637.706	40690.14
638.06	40929.91
638.413	40836.58
638.767	40723.14
639.121	40794.32
639.474	40629.36
639.828	40664.61
640.181	40771.72
640.534	40607.21
640.888	40462.81
641.241	40516.14
641.594	40539.64
641.947	40649.02
642.301	40564.05
642.654	40516.36
643.007	40570.6
643.36	40577.38
643.713	40437.95
644.066	40595.46
644.419	40339.65
644.771	40079.54
645.124	39683.84
645.477	39745.54
645.83	39392.33
646.182	39396.39
646.535	39219
646.888	39333.8
647.24	39153.69
647.593	39264.42
647.945	39222.16
648.298	39212.67
648.65	39015.84
649.002	38909.63
649.355	39112.56
649.707	39093.35
650.059	39198.66
650.411	39683.84
650.763	39665.76
651.115	40107.79
651.467	40012.87
651.819	39951.63
652.171	40034.34
652.523	39805.65
652.875	39829.6
653.227	39702.37
653.578	40019.2
653.93	39648.36
654.282	39572.89
654.633	39661.7
654.985	39695.37
655.337	39655.37
655.688	39724.29
656.039	39820.79
656.391	39519.1
656.742	39564.07
657.094	39451.99
657.445	39503.96
657.796	39514.36
658.147	39465.32
658.498	39368.37
658.849	39586.67
659.2	39426
659.551	39403.62
659.902	39545.54
660.253	39477.3
660.604	39523.62
660.955	39306.45
661.306	39487.24
661.656	39372.67
662.007	39310.52
662.358	39455.83
662.708	39323.85
663.059	39303.74
663.409	39045.67
663.76	39508.48
664.11	39372.89
664.461	39357.07
664.811	39332.89
665.161	39304.64
665.511	39246.57
665.862	39389.61
666.212	39426.45
666.562	39396.17
666.912	39353.68
667.262	39316.62
667.612	39288.15
667.962	39310.97
668.312	39235.04
668.662	39300.35
669.011	39241.6
669.361	39258.77
669.711	39053.58
670.06	39202.05
670.41	39067.59
670.76	38997.99
671.109	39193.46
671.459	39074.59
671.808	39008.83
672.157	39042.73
672.507	38815.62
672.856	38736.75
673.205	38959.34
673.554	38930.42
673.904	38833.7
674.253	39014.71
674.602	38844.54
674.951	38370.21
675.3	38136.99
675.649	38814.26
675.998	38779.01
676.346	38696.07
676.695	38821.95
677.044	38551.22
677.393	38592.57
677.741	38704.89
678.09	38699.69
678.438	38578.11
678.787	38647.26
679.135	38608.62
679.484	38315.07
679.832	38606.81
680.181	38271.68
680.529	38485.91
680.877	38411.56
681.225	38270.32
681.573	38569.75
681.922	38224.45
682.27	38157.78
682.618	38242.98
682.966	38074.17
683.314	38150.1
683.661	38114.17
684.009	37821.97
684.357	37757.79
684.705	37743.78
685.053	37797.11
685.4	37727.06
685.748	37532.04
686.095	37513.28
686.443	37293.4
686.79	37381.53
687.138	37517.35
687.485	37218.82
687.832	37234.64
688.18	37253.4
688.527	37069.45
688.874	37019.73
689.221	37018.15
689.568	36899.96
689.915	36840.75
690.262	36678.05
690.609	36596.47
690.956	36478.28
691.303	36482.35
691.65	36487.77
691.997	36358.96
692.344	36105.63
692.69	36128
693.037	36082.36
693.383	35901.34
693.73	35983.83
694.077	35783.38
694.423	35864.96
694.769	35702.25
695.116	35553.1
695.462	35618.19
695.808	35458.19
696.155	35589.04
696.501	35229.72
696.847	35285.32
697.193	35047.36
697.539	35083.96
697.885	34766.01
698.231	34752.9
698.577	34769.4
698.923	34824.54
699.269	34524.21
699.614	34443.08
699.96	34206.47
700.306	34378.45
700.651	34125.35
700.997	34172.35
701.342	34071.56
701.688	34119.7
702.033	33964.22
702.379	33993.82
702.724	33829.53
703.069	33937.78
703.415	33479.49
703.76	33597.22
704.105	33684.45
704.45	33437.23
704.795	33232.49
705.14	33113.62
705.485	33162.66
705.83	33015.54
706.175	32984.13
706.52	32943.68
706.865	32956.11
707.209	32845.83
707.554	32669.34
707.899	32865.49
708.243	32542.56
708.588	32570.81
708.932	32226.19
709.277	32350.7
709.621	32296.92
709.966	32192.29
710.31	32312.06
710.654	31957.04
710.998	31985.74
711.342	32017.83
711.687	31916.82
712.031	31776.25
712.375	31689.25
712.719	31704.17
713.063	31510.95
713.407	31777.84
713.75	31495.58
714.094	31445.42
714.438	31400.22
714.782	31341.69
715.125	31283.39
715.469	31253.33
715.812	31179.43
716.156	30835.49
716.499	30867.35
716.843	30982.15
717.186	30741.93
717.53	30977.86
717.873	30834.81
718.216	30784.42
718.559	30751.88
718.902	30351.43
719.246	30697.19
719.589	30381.04
719.932	30290.42
720.275	30244.54
720.617	30316.63
720.96	30287.71
721.303	30214.26
721.646	30189.18
721.989	30096.3
722.331	30094.49
722.674	30083.64
723.016	30022.85
723.359	29995.74
723.701	29875.97
724.044	29712.81
724.386	29644.33
724.729	29793.71
725.071	29651.56
725.413	29628.29
725.755	29646.82
726.097	29517.56
726.439	29503.77
726.782	29325.02
727.124	29591.91
727.465	29380.16
727.807	29259.71
728.149	29205.93
728.491	29143.78
728.833	29372.93
729.175	29094.52
729.516	29083.44
729.858	29029.43
730.199	29069.43
730.541	28918.48
730.882	28819.95
731.224	28984.92
731.565	28679.61
731.906	28814.52
732.248	28822.43
732.589	28627.86
732.93	28617.92
733.271	28546.74
733.612	28591.25
733.953	28487.75
734.294	28464.93
734.635	28443.01
734.976	28536.11
735.317	28360.75
735.658	28388.55
735.999	28279.17
736.339	28083.7
736.68	28274.88
737.021	28231.94
737.361	28034.66
737.702	28296.57
738.042	28080.31
738.383	28082.79
738.723	28248.89
739.063	28104.49
739.404	27959.63
739.744	27935.9
740.084	27654.78
740.424	27833.53
740.764	27805.51
741.104	27857.94
741.444	27800.54
741.784	27575.46
742.124	27735.91
742.464	27565.97
742.804	27475.8
743.143	27482.13
743.483	27394.9
743.823	27240.1
744.162	27174.79
744.502	27386.77
744.841	27307.22
745.181	27362.59
745.52	27086.66
745.86	27201.91
746.199	27140.44
746.538	27098.86
746.877	27158.98
747.216	27034.68
747.556	26888.47
747.895	26990.62
748.234	26827.23
748.573	26821.81
748.911	26716.27
749.25	26770.51
749.589	26624.07
749.928	26700.91
750.267	26602.61
750.605	26616.62
750.944	26432.67
751.283	26366.23
751.621	26493.46
751.96	26391.76
752.298	26314.25
752.636	26330.07
752.975	26205.1
753.313	26133.69
753.651	26256.85
753.989	26032
754.327	25974.6
754.666	25894.6
755.004	25849.18
755.342	25889.4
755.679	25870.65
756.017	25709.07
756.355	25813.7
756.693	25606.02
757.031	25607.83
757.368	25493.26
757.706	25505.23
758.044	25326.25
758.381	25536.42
758.719	25283.09
759.056	25204.22
759.394	25165.36
759.731	25098.24
760.068	25056.88
760.405	24936.89
760.743	24839.49
761.08	24892.14
761.417	24714.52
761.754	24758.81
762.091	24635.65
762.428	24519.5
762.765	24451.7
763.102	24462.32
763.438	24315.43
763.775	24293.97
764.112	24260.52
764.449	24267.53
764.785	24144.14
765.122	23949.79
765.458	23787.54
765.795	23948.21
766.131	23803.13
766.467	23731.04
766.804	23625.73
767.14	23498.28
767.476	23477.94
767.812	23338.51
768.148	23413.08
768.485	23219.19
768.821	23111.85
769.157	23038.86
769.492	23019.42
769.828	22966.99
770.164	22738.75
770.5	22746.89
770.836	22792.08
771.171	22687.91
771.507	22427.35
771.842	22407.24
772.178	22456.73
772.513	22317.97
772.849	22242.72
773.184	22096.96
773.519	22136.28
773.855	22048.38
774.19	21954.59
774.525	21838.44
774.86	21796.63
775.195	21800.02
775.53	21716.86
775.865	21499.46
776.2	21424.89
776.535	21304.89
776.87	21371.78
777.205	21223.76
777.539	21124.56
777.874	21085.69
778.209	20921.63
778.543	20991.45
778.878	20812.7
779.212	20751.01
779.547	20639.82
779.881	20775.19
780.215	20591.69
780.55	20553.27
780.884	20448.42
781.218	20321.41
781.552	20383.79
781.886	20222.43
782.22	20203.9
782.554	20137.46
782.888	19880.3
783.222	19879.17
783.556	19784.03
783.889	19714.2
784.223	19578.16
784.557	19540.87
784.89	19524.15
785.224	19470.82
785.557	19327.32
785.891	19369.8
786.224	19211.39
786.558	19251.39
786.891	19042.35
787.224	18976.37
787.557	18996.03
787.891	18938.17
788.224	18924.84
788.557	18904.95
788.89	18767.11
789.223	18789.7
789.556	18607.11
789.888	18520.78
790.221	18529.37
790.554	18423.39
790.887	18470.62
791.219	18370.05
791.552	18297.97
791.884	18178.19
792.217	18157.63
792.549	18077.63
792.882	17841.25
793.214	17849.39
793.546	17919.22
793.879	17738.88
794.211	17692.11
794.543	17673.8
794.875	17581.15
795.207	17701.14
795.539	17639.45
795.871	17492.34
796.203	17397.42
796.535	17276.52
796.867	17295.05
797.198	17253.02
797.53	17124.21
797.862	17034.95
798.193	17081.73
798.525	16949.98
798.856	16981.62
799.188	16843.99
799.519	16769.42
799.85	16668.4
800.182	16695.07
800.513	16645.13
800.844	16498.92
801.175	16618.24
801.506	16479.71
801.837	16340.95
802.168	16401.07
802.499	16341.41
802.83	16263.22
803.161	16269.32
803.491	16264.57
803.822	16264.12
804.153	16054.18
804.483	16020.74
804.814	15962.21
805.145	15951.59
805.475	15987.97
805.805	15853.51
806.136	15839.27
806.466	15851.48
806.796	15827.75
807.126	15637.7
807.457	15591.82
807.787	15648.54
808.117	15551.37
808.447	15479.96
808.777	15531.94
809.107	15450.81
809.436	15476.12
809.766	15384.14
810.096	15362
810.426	15233.86
810.755	15256.24
811.085	15269.34
811.414	15184.83
811.744	15089.24
812.073	14990.48
812.403	15009.92
812.732	14973.08
813.061	14884.04
813.39	14861.45
813.719	14834.55
814.049	14837.27
814.378	14825.97
814.707	14728.57
815.036	14751.62
815.365	14698.06
815.693	14440.21
816.022	14571.51
816.351	14493.09
816.68	14466.43
817.008	14425.98
817.337	14291.06
817.665	14253.78
817.994	14243.38
818.322	14275.02
818.651	14147.79
818.979	14197.51
819.307	14150.28
819.636	14172.42
819.964	14057.17
820.292	14178.98
820.62	14068.25
820.948	14044.74
821.276	14088.13
821.604	14045.2
821.932	14030.28
822.259	14109.37
822.587	13960.45
822.915	13976.27
823.243	14032.54
823.57	14078.64
823.898	14012.88
824.225	13978.98
824.553	13963.62
824.88	14001.81
825.207	13988.47
825.535	13929.49
825.862	14061.47
826.189	13934.92
826.516	14003.84
826.843	14094.01
827.17	14044.29
827.497	13979.21
827.824	14011.3
828.151	14057.85
828.478	13922.49
828.805	14063.05
829.131	14020.56
829.458	13964.52
829.785	13942.15
830.111	13920.91
830.438	13964.97
830.764	13927.23
831.09	14024.63
831.417	13895.6
831.743	13889.72
832.069	13909.15
832.395	13816.73
832.722	13937.18
833.048	13876.39
833.374	13851.3
833.7	13798.87
834.026	13814.47
834.351	13851.98
834.677	13862.6
835.003	13817.18
835.329	13798.65
835.654	13712.1
835.98	13655.15
836.306	13828.7
836.631	13628.26
836.956	13684.53
837.282	13681.36
837.607	13624.64
837.932	13622.38
838.258	13636.62
838.583	13559.78
838.908	13489.96
839.233	13541.25
839.558	13480.69
839.883	13525.21
840.208	13421.48
840.533	13411.54
840.858	13386.46
841.182	13443.86
841.507	13305.78
841.832	13327.25
842.156	13244.54
842.481	13292
842.805	13169.51
843.13	13156.63
843.454	13205.44
843.778	13080.25
844.103	13046.58
844.427	13108.5
844.751	13063.3
845.075	13016.52
845.399	13055.62
845.723	12893.59
846.047	13014.04
846.371	12839.58
846.695	12821.95
847.019	12648.85
847.343	12649.3
847.666	12619.47
847.99	12552.13
848.313	12521.62
848.637	12479.36
848.96	12426.03
849.284	12374.05
849.607	12339.48
849.931	12285.47
850.254	12194.4
850.577	12054.74
850.9	12048.41
851.223	12058.36
851.546	12018.13
851.869	11935.42
852.192	11942.2
852.515	11876.89
852.838	11762.77
853.161	11813.84
853.483	11713.73
853.806	11678.7
854.129	11702.43
854.451	11612.04
854.774	11678.48
855.096	11485.04
855.419	11566.16
855.741	11480.07
856.063	11447.52
856.385	11453.17
856.708	11322.56
857.03	11282.1
857.352	11327.08
857.674	11276.23
857.996	11241.65
858.318	11179.06
858.64	11234.65
858.961	11211.15
859.283	11111.26
859.605	10988.55
859.926	11056.57
860.248	11039.4
860.57	10911.04
860.891	11004.15
861.212	10886.86
861.534	10874.43
861.855	10833.08
862.176	10848.67
862.498	10886.86
862.819	10900.65
863.14	10805.28
863.461	10791.27
863.782	10709.69
864.103	10765.06
864.424	10667.43
864.745	10654.55
865.065	10600.31
865.386	10653.19
865.707	10557.6
866.027	10609.81
866.348	10579.3
866.668	10571.84
866.989	10573.42
867.309	10455.01
867.63	10524.84
867.95	10514.22
868.27	10491.39
868.59	10483.48
868.91	10440.77
869.23	10465.63
869.55	10325.07
869.87	10432.64
870.19	10304.5
870.51	10385.63
870.83	10375.24
871.15	10333.43
871.469	10356.03
871.789	10246.2
872.109	10321.45
872.428	10231.06
872.748	10278.06
873.067	10258.4
873.386	10301.11
873.706	10202.58
874.025	10230.61
874.344	10155.81
874.663	10158.97
874.982	10107.45
875.301	10125.75
875.62	10101.8
875.939	10091.4
876.258	10055.47
876.577	10029.93
876.896	10055.02
877.214	9922.82
877.533	10045.07
877.852	10013.89
878.17	9943.83
878.489	10041.23
878.807	9920.56
879.125	9868.58
879.444	9888.02
879.762	9891.63
880.08	9843.72
880.398	9867.9
880.716	9817.28
881.034	9764.63
881.352	9774.12
881.67	9733.9
881.988	9770.51
882.306	9785.87
882.624	9652.99
882.941	9625.42
883.259	9709.04
883.577	9583.17
883.894	9622.71
884.212	9606.89
884.529	9537.29
884.846	9482.83
885.164	9454.58
885.481	9481.7
885.798	9472.21
886.115	9380.91
886.432	9373
886.75	9335.04
887.067	9386.11
887.383	9398.54
887.7	9371.42
888.017	9344.98
888.334	9270.18
888.651	9245.77
888.967	9285.32
889.284	9173.23
889.6	9149.73
889.917	9090.52
890.233	9058.43
890.55	9106.57
890.866	9057.53
891.182	8995.61
891.498	9064.54
891.815	9055.5
892.131	8921.94
892.447	8957.19
892.763	8913.58
893.079	8838.33
893.395	8827.71
893.71	8859.8
894.026	8843.52
894.342	8753.58
894.657	8685.79
894.973	8752
895.289	8712.68
895.604	8715.84
895.92	8640.37
896.235	8567.37
896.55	8643.76
896.865	8582.97
897.181	8523.76
897.496	8558.33
897.811	8521.5
898.126	8476.75
898.441	8423.42
898.756	8399.69
899.071	8356.53
899.386	8417.77
899.7	8320.83
900.015	8307.27
900.33	8231.56
900.644	8254.39
900.959	8233.82
901.273	8216.87
901.588	8146.37
901.902	8078.35
902.216	8110.44
902.531	8063.88
902.845	8039.25
903.159	7965.81
903.473	7984.34
903.787	7935.75
904.101	7868.18
904.415	7877.45
904.729	7812.82
905.042	7852.59
905.356	7759.71
905.67	7776.89
905.984	7816.43
906.297	7742.99
906.611	7610.56
906.924	7646.49
907.237	7645.14
907.551	7575.99
907.864	7590.22
908.177	7568.98
908.491	7460.74
908.804	7476.1
909.117	7436.56
909.43	7461.87
909.743	7324.47
910.056	7351.81
910.368	7312.04
910.681	7234.75
910.994	7188.2
911.307	7194.3
911.619	7168.77
911.932	7213.28
912.244	7057.81
912.557	7149.56
912.869	7041.76
913.181	7040.86
913.494	7001.99
913.806	7002.44
914.118	6959.28
914.43	6909.56
914.742	6898.26
915.054	6872.05
915.366	6855.55
915.678	6764.03
915.99	6818.49
916.302	6772.17
916.613	6732.85
916.925	6690.36
917.236	6703.47
917.548	6620.76
917.859	6655.79
918.171	6579.63
918.482	6544.6
918.794	6596.35
919.105	6512.51
919.416	6467.99
919.727	6496.02
920.038	6416.02
920.349	6418.28
920.66	6336.7
920.971	6353.65
921.282	6333.76
921.593	6291.73
921.903	6262.58
922.214	6292.63
922.525	6182.58
922.835	6148.45
923.146	6170.15
923.456	6148.23
923.767	6120.43
924.077	6114.33
924.387	6093.09
924.697	6036.82
925.008	5994.56
925.318	5993.43
925.628	5922.47
925.938	5961.34
926.248	5913.43
926.558	5822.36
926.867	5874.11
927.177	5844.96
927.487	5785.07
927.796	5809.71
928.106	5787.56
928.416	5704.62
928.725	5705.08
929.034	5706.21
929.344	5671.63
929.653	5678.86
929.962	5626.21
930.271	5599.54
930.581	5545.76
930.89	5550.5
931.199	5533.1
931.508	5529.49
931.817	5485.19
932.125	5517.51
932.434	5426.89
932.743	5388.25
933.051	5326.1
933.36	5338.08
933.669	5317.06
933.977	5326.78
934.286	5309.15
934.594	5270.74
934.902	5237.07
935.21	5240.68
935.519	5208.37
935.827	5195.48
936.135	5136.73
936.443	5096.05
936.751	5105.09
937.059	5105.77
937.367	5067.8
937.674	5074.58
937.982	5055.83
938.29	5027.81
938.597	5012.21
938.905	4957.98
939.213	4914.81
939.52	4942.61
939.827	4913.68
940.135	4859
940.442	4858.09
940.749	4785.33
941.056	4801.82
941.363	4802.95
941.67	4750.07
941.977	4746.46
942.284	4667.59
942.591	4703.29
942.898	4729.96
943.205	4643.41
943.511	4630.98
943.818	4611.32
944.125	4549.85
944.431	4624.88
944.738	4590.53
945.044	4567.48
945.35	4563.19
945.657	4529.97
945.963	4495.39
946.269	4427.6
946.575	4506.24
946.881	4444.54
947.187	4427.6
947.493	4404.09
947.799	4419.23
948.105	4322.74
948.41	4334.04
948.716	4338.78
949.022	4320.71
949.327	4284.1
949.633	4304.43
949.938	4300.37
950.244	4234.61
950.549	4201.39
950.854	4216.53
951.16	4198.22
951.465	4178.11
951.77	4152.35
952.075	4166.13
952.38	4080.03
952.685	4096.98
952.99	4063.76
953.294	4072.58
953.599	4035.97
953.904	4041.16
954.209	4012.69
954.513	3982.41
954.818	3938.57
955.122	3944.44
955.426	3932.69
955.731	3933.37
956.035	3887.72
956.339	3894.28
956.643	3861.28
956.948	3837.1
957.252	3809.31
957.556	3881.85
957.86	3812.7
958.163	3800.49
958.467	3765.47
958.771	3774.51
959.075	3707.16
959.378	3712.81
959.682	3733.6
959.985	3717.33
960.289	3652.93
960.592	3651.12
960.896	3628.29
961.199	3657.67
961.502	3605.92
961.805	3624
962.108	3569.76
962.411	3548.75
962.714	3533.83
963.017	3525.02
963.32	3548.3
963.623	3524.12
963.926	3506.04
964.228	3464.23
964.531	3490.67
964.833	3471.91
965.136	3412.25
965.438	3402.31
965.741	3380.62
966.043	3373.39
966.345	3381.07
966.648	3400.05
966.95	3370.22
967.252	3352.6
967.554	3367.74
967.856	3312.37
968.158	3289.09
968.46	3301.98
968.761	3254.97
969.063	3201.64
969.365	3222.88
969.666	3181.98
969.968	3197.8
970.269	3170.91
970.571	3159.83
970.872	3201.86
971.174	3146.27
971.475	3136.56
971.776	3096.11
972.077	3075.54
972.378	3092.04
972.679	3062.21
972.98	3073.05
973.281	3033.73
973.582	3032.38
973.883	3003
974.183	2974.3
974.484	3017.01
974.785	2982.44
975.085	2997.35
975.386	2949.67
975.686	2941.76
975.986	2940.63
976.287	2946.73
976.587	2893.85
976.887	2873.29
977.187	2894.98
977.487	2885.94
977.787	2857.69
978.087	2859.5
978.387	2817.24
978.687	2852.72
978.987	2816.56
979.286	2808.2
979.586	2802.55
979.885	2785.6
980.185	2787.41
980.484	2730.92
980.784	2746.96
981.083	2725.04
981.382	2709.9
981.682	2702.9
981.981	2711.48
982.28	2688.43
982.579	2660.64
982.878	2675.1
983.177	2651.37
983.475	2636.91
983.774	2637.59
984.073	2627.19
984.372	2592.39
984.67	2583.8
984.969	2565.95
985.267	2552.84
985.566	2550.58
985.864	2538.83
986.162	2551.94
986.461	2530.47
986.759	2545.61
987.057	2471.26
987.355	2452.73
987.653	2483.24
987.951	2475.33
988.249	2447.76
988.547	2384.26
988.844	2422.9
989.142	2419.74
989.44	2399.4
989.737	2397.82
990.035	2374.54
990.332	2358.05
990.63	2362.34
990.927	2329.8
991.224	2342.23
991.521	2321.21
991.819	2346.52
992.116	2308.1
992.413	2301.55
992.71	2284.83
993.006	2294.54
993.303	2259.52
993.6	2264.26
993.897	2251.83
994.193	2257.71
994.49	2227.88
994.787	2234.66
995.083	2229.24
995.379	2170.48
995.676	2180.42
995.972	2179.29
996.268	2172.51
996.565	2154.66
996.861	2130.93
997.157	2146.3
997.453	2100.42
997.749	2080.99
998.044	2095.45
998.34	2089.58
998.636	2113.76
998.932	2075.79
999.227	2088.9
999.523	2052.06
999.818	2066.98
1000.114	2041.44
1000.409	1992.63
1000.704	2000.09
1001	1964.16
1001.295	1957.6
1001.59	1981.56
1001.885	1986.08
1002.18	1948.56
1002.475	1924.38
1002.77	1914.89
1003.065	1922.8
1003.359	1919.64
1003.654	1911.5
1003.949	1892.97
1004.243	1889.13
1004.538	1885.97
1004.832	1865.4
1005.127	1876.02
1005.421	1842.13
1005.715	1833.99
1006.009	1816.36
1006.304	1816.36
1006.598	1792.18
1006.892	1782.02
1007.186	1779.08
1007.48	1788.12
1007.773	1760.77
1008.067	1782.24
1008.361	1753.54
1008.655	1724.84
1008.948	1728.23
1009.242	1686.65
1009.535	1718.06
1009.829	1674.45
1010.122	1703.37
1010.415	1667.89
1010.708	1671.28
1011.001	1649.59
1011.295	1632.64
1011.588	1645.3
1011.881	1654.34
1012.173	1627.9
1012.466	1611.85
1012.759	1591.96
1013.052	1583.15
1013.344	1592.87
1013.637	1562.36
1013.93	1590.61
1014.222	1560.78
1014.514	1554.9
1014.807	1558.74
1015.099	1514.45
1015.391	1516.71
1015.683	1503.38
1015.976	1525.07
1016.268	1512.42
1016.56	1456.37
1016.851	1445.53
1017.143	1475.36
1017.435	1431.97
1017.727	1431.06
1018.018	1439.43
1018.31	1410.05
1018.602	1439.88
1018.893	1409.37
1019.185	1390.84
1019.476	1385.87
1019.767	1384.51
1020.058	1370.73
1020.35	1386.55
1020.641	1375.02
1020.932	1360.78
1021.223	1334.12
1021.514	1329.6
1021.804	1307.9
1022.095	1335.02
1022.386	1340.44
1022.677	1288.92
1022.967	1295.02
1023.258	1281.01
1023.548	1306.32
1023.839	1265.64
1024.129	1261.58
1024.419	1240.11
1024.709	1252.76
1025	1247.34
1025.29	1254.12
1025.58	1232.43
1025.87	1195.82
1026.16	1202.37
1026.449	1207.57
1026.739	1218.41
1027.029	1195.14
1027.319	1187.45
1027.608	1196.04
1027.898	1154.69
1028.187	1183.84
1028.477	1140.45
1028.766	1131.86
1029.055	1142.26
1029.344	1113.56
1029.634	1124.41
1029.923	1144.74
1030.212	1081.24
1030.501	1105.2
1030.79	1078.3
1031.078	1078.3
1031.367	1085.54
1031.656	1061.81
1031.945	1065.88
1032.233	1073.11
1032.522	1052.99
1032.81	1058.64
1033.099	1012.54
1033.387	1036.95
1033.675	1025.43
1033.963	1015.48
1034.251	1015.93
1034.54	998.08
1034.828	1009.38
1035.116	994.24
1035.403	1000.34
1035.691	987.91
1035.979	989.72
1036.267	981.13
1036.554	956.73
1036.842	940.46
1037.129	965.99
1037.417	958.99
1037.704	938.65
1037.992	960.79
1038.279	948.59
1038.566	915.6
1038.853	915.6
1039.14	915.6
