Data from hue_36_FLMS001491_00040.txt Node
Date: Tue Feb 07 17:29:44 GMT 2017
User: dcchb
Spectrometer: FLMS00149
Trigger mode: 0
Integration Time (sec): 2.000000E-2
Scans to average: 10
Electric dark correction enabled: true
Nonlinearity correction enabled: false
Boxcar width: 0
XAxis mode: Wavelengths
Number of Pixels in Spectrum: 2048
>>>>>Begin Spectral Data<<<<<
341.393	-19.43
341.776	-19.43
342.16	-19.43
342.543	-65.76
342.927	-63.5
343.31	-70.96
343.693	-79.55
344.077	-68.02
344.46	-73.67
344.843	-42.26
345.226	-45.65
345.61	-23.05
345.993	-15.82
346.376	-3.39
346.759	5.42
347.142	27.8
347.525	39.1
347.908	71.64
348.291	77.06
348.674	83.16
349.057	118.19
349.44	120.67
349.823	148.02
350.206	165.42
350.588	192.31
350.971	216.72
351.354	197.73
351.737	252.42
352.119	235.7
352.502	264.85
352.884	289.71
353.267	265.98
353.65	289.03
354.032	290.61
354.414	281.35
354.797	317.05
355.179	338.07
355.562	322.03
355.944	301.01
356.326	341.01
356.709	343.49
357.091	326.09
357.473	354.79
357.855	349.6
358.238	357.73
358.62	336.04
359.002	345.98
359.384	339.88
359.766	339.2
360.148	338.97
360.53	341.69
360.912	312.99
361.294	314.34
361.676	336.71
362.057	339.65
362.439	318.18
362.821	321.8
363.203	315.92
363.584	345.75
363.966	328.58
364.348	325.64
364.729	305.75
365.111	317.96
365.493	320.22
365.874	315.25
366.256	295.36
366.637	317.73
367.019	321.57
367.4	305.53
367.781	304.85
368.163	312.31
368.544	306.21
368.925	319.09
369.306	321.35
369.688	308.92
370.069	299.65
370.45	301.01
370.831	318.86
371.212	321.8
371.593	304.4
371.974	347.56
372.355	314.57
372.736	327
373.117	307.56
373.498	297.62
373.879	308.24
374.26	318.64
374.641	320.9
375.021	320.67
375.402	324.96
375.783	307.56
376.163	308.47
376.544	326.55
376.925	316.6
377.305	331.97
377.686	332.19
378.066	324.06
378.447	329.93
378.827	322.7
379.208	339.43
379.588	315.02
379.968	329.71
380.349	357.28
380.729	326.77
381.109	328.13
381.489	331.06
381.87	327.45
382.25	344.17
382.63	341.01
383.01	328.8
383.39	346.43
383.77	332.65
384.15	318.86
384.53	322.7
384.91	321.57
385.29	337.17
385.67	337.62
386.049	329.71
386.429	341.46
386.809	349.14
387.189	336.26
387.568	353.44
387.948	352.53
388.328	350.5
388.707	355.02
389.087	347.11
389.466	359.09
389.846	356.6
390.225	333.78
390.605	356.37
390.984	365.64
391.363	374.68
391.743	367.45
392.122	356.83
392.501	357.5
392.881	348.24
393.26	347.34
393.639	358.63
394.018	358.41
394.397	371.52
394.776	353.21
395.155	378.07
395.534	369.03
395.913	380.33
396.292	380.78
396.671	379.43
397.05	364.51
397.429	362.48
397.808	385.98
398.186	390.72
398.565	392.98
398.944	365.19
399.323	365.64
399.701	376.71
400.08	387.11
400.458	387.11
400.837	376.49
401.215	390.72
401.594	394.11
401.972	394.79
402.351	408.35
402.729	405.64
403.107	410.84
403.486	392.98
403.864	402.93
404.242	403.15
404.62	401.8
404.999	418.97
405.377	408.12
405.755	397.5
406.133	388.01
406.511	404.51
406.889	409.71
407.267	417.16
407.645	412.87
408.023	398.18
408.401	436.82
408.779	430.95
409.156	402.02
409.534	415.81
409.912	425.53
410.29	416.49
410.667	439.31
411.045	428.69
411.422	456.71
411.8	447.45
412.178	442.47
412.555	459.2
412.933	465.3
413.31	480.21
413.687	437.5
414.065	467.11
414.442	475.24
414.819	466.43
415.197	451.97
415.574	453.55
415.951	470.27
416.328	462.59
416.705	460.78
417.082	454.68
417.46	488.8
417.837	475.24
418.214	477.73
418.591	481.8
418.967	485.86
419.344	486.77
419.721	498.52
420.098	489.48
420.475	480.67
420.852	479.76
421.228	498.74
421.605	510.04
421.982	515.69
422.358	505.75
422.735	517.05
423.111	533.32
423.488	517.73
423.864	520.21
424.241	526.77
424.617	520.89
424.994	542.81
425.37	536.71
425.746	531.06
426.123	551.85
426.499	521.57
426.875	515.01
427.251	555.69
427.627	531.96
428.003	545.97
428.379	533.77
428.756	569.25
429.132	551.62
429.507	555.69
429.883	560.44
430.259	582.36
430.635	575.58
431.011	579.19
431.387	590.27
431.763	596.82
432.138	587.56
432.514	590.49
432.89	600.66
433.265	594.33
433.641	612.87
434.016	599.53
434.392	630.49
434.767	624.39
435.143	642.47
435.518	652.86
435.894	633.66
436.269	643.37
436.644	644.28
437.02	656.48
437.395	666.88
437.77	675.46
438.145	671.39
438.52	675.24
438.895	674.78
439.271	669.59
439.646	694.9
440.021	672.98
440.395	684.05
440.77	688.12
441.145	685.86
441.52	691.96
441.895	722.01
442.27	703.94
442.645	695.57
443.019	710.72
443.394	717.27
443.769	726.08
444.143	700.32
444.518	719.53
444.892	735.35
445.267	732.86
445.641	739.42
446.016	742.58
446.39	725.86
446.764	728.34
447.139	758.62
447.513	766.08
447.887	749.58
448.262	770.15
448.636	759.3
449.01	754.33
449.384	802.01
449.758	754.1
450.132	807.66
450.506	783.71
450.88	818.51
451.254	819.87
451.628	800.2
452.002	831.84
452.376	832.97
452.75	835.68
453.123	832.29
453.497	843.37
453.871	849.24
454.244	847.44
454.618	835.46
454.992	872.52
455.365	896.02
455.739	882.69
456.112	899.86
456.486	888.34
456.859	897.6
457.232	919.52
457.606	912.74
457.979	924.5
458.352	938.73
458.725	934.89
459.099	952.07
459.472	984.38
459.845	990.03
460.218	990.93
460.591	983.02
460.964	1022.57
461.337	1030.03
461.71	1018.28
462.083	1039.07
462.456	1054.21
462.829	1035.23
463.201	1070.03
463.574	1057.83
463.947	1091.27
464.32	1114.77
464.692	1116.35
465.065	1122.23
465.438	1149.12
465.81	1159.74
466.183	1190.25
466.555	1198.39
466.928	1187.31
467.3	1227.09
467.672	1244.26
468.045	1242.91
468.417	1246.07
468.789	1267.76
469.161	1306.18
469.534	1308.21
469.906	1349.12
470.278	1371.49
470.65	1371.94
471.022	1404.48
471.394	1433.86
471.766	1459.4
472.138	1487.87
472.51	1512.28
472.882	1545.5
473.253	1563.12
473.625	1606.29
473.997	1667.3
474.369	1651.71
474.74	1665.49
475.112	1719.73
475.484	1746.62
475.855	1803.12
476.227	1834.53
476.598	1891.02
476.97	1934.41
477.341	1934.86
477.713	2019.16
478.084	2051.02
478.455	2103.22
478.827	2135.54
479.198	2242.43
479.569	2228.19
479.94	2324.23
480.311	2400.61
480.682	2448.07
481.053	2488.3
481.424	2594.06
481.795	2635.41
482.166	2726.48
482.537	2764.67
482.908	2855.07
483.279	2908.85
483.65	2991.56
484.021	3040.15
484.391	3161.5
484.762	3185.23
485.133	3269.74
485.503	3385.22
485.874	3432
486.244	3524.43
486.615	3598.32
486.985	3691.88
487.356	3813.91
487.726	3897.98
488.097	3999.67
488.467	4063.17
488.837	4232.88
489.207	4267.01
489.578	4381.35
489.948	4464.29
490.318	4554.46
490.688	4630.16
491.058	4750.61
491.428	4912.19
491.798	4909.25
492.168	5053.65
492.538	5181.33
492.908	5290.03
493.278	5354.89
493.648	5401.89
494.017	5540.19
494.387	5619.97
494.757	5732.5
495.126	5825.84
495.496	5906.96
495.866	5983.57
496.235	6100.63
496.605	6220.18
496.974	6260.17
497.344	6377.91
497.713	6444.12
498.082	6566.16
498.452	6650.22
498.821	6743.55
499.19	6759.82
499.559	6882.3
499.928	7026.48
500.298	7068.97
500.667	7196.42
501.036	7130.89
501.405	7318
501.774	7352.12
502.143	7447.26
502.512	7473.02
502.88	7626.24
503.249	7553.7
503.618	7739.01
503.987	7778.1
504.356	7870.53
504.724	7963.18
505.093	8054.93
505.462	8084.99
505.83	8197.52
506.199	8292.21
506.567	8363.85
506.936	8406.33
507.304	8538.31
507.672	8509.38
508.041	8681.35
508.409	8697.17
508.777	8769.03
509.145	8816.49
509.514	8854
509.882	8943.27
510.25	9056.49
510.618	9070.04
510.986	9161.12
511.354	9211.74
511.722	9267.78
512.09	9386.42
512.458	9409.47
512.826	9497.15
513.193	9501.9
513.561	9596.36
513.929	9724.72
514.297	9747.54
514.664	9822.57
515.032	9807.65
515.4	9968.33
515.767	9977.59
516.135	10061.43
516.502	10007.19
516.869	10190.69
517.237	10188.21
517.604	10259.17
517.972	10339.39
518.339	10450.35
518.706	10466.62
519.073	10522.66
519.44	10526.05
519.808	10630
520.175	10654.86
520.542	10790.9
520.909	10865.93
521.276	10756.55
521.643	10905.7
522.009	11029.09
522.376	11114.06
522.743	11174.62
523.11	11304.79
523.477	11397.44
523.843	11375.97
524.21	11585.91
524.577	11589.3
524.943	11655.96
525.31	11700.26
525.676	11887.37
526.043	11897.09
526.409	11877.65
526.776	12027.25
527.142	12135.5
527.508	12157.19
527.874	12227.25
528.241	12326.23
528.607	12366.68
528.973	12482.38
529.339	12502.72
529.705	12561.93
530.071	12692.55
530.437	12695.71
530.803	12746.78
531.169	12833.11
531.535	12891.41
531.901	12933.22
532.267	13074.01
532.632	13100.9
532.998	13107.68
533.364	13177.51
533.73	13206.66
534.095	13440.32
534.461	13384.73
534.826	13451.17
535.192	13457.95
535.557	13615.24
535.923	13599.87
536.288	13666.08
536.653	13693.88
537.019	13684.39
537.384	13809.13
537.749	13853.2
538.114	13872.63
538.479	13935.45
538.845	14025.39
539.21	14065.62
539.575	14024.49
539.94	14121.44
540.305	14202.11
540.67	14216.35
541.034	14291.6
541.399	14374.31
541.764	14416.8
542.129	14507.64
542.494	14622.67
542.858	14542.89
543.223	14556.91
543.587	14673.96
543.952	14761.65
544.316	14840.06
544.681	14788.31
545.045	14920.29
545.41	14972.94
545.774	15051.58
546.138	14995.99
546.503	15168.64
546.867	15140.84
547.231	15263.78
547.595	15237.11
547.959	15328.64
548.324	15316.21
548.688	15472.81
549.052	15448.41
549.416	15540.83
549.779	15484.11
550.143	15648.85
550.507	15672.58
550.871	15758.68
551.235	15727.5
551.599	15772.01
551.962	15882.07
552.326	16027.83
552.689	16024.44
553.053	15990.99
553.417	15984.66
553.78	16231.66
554.143	16190.53
554.507	16243.64
554.87	16282.28
555.234	16462.62
555.597	16359.12
555.96	16430.08
556.323	16498.1
556.686	16613.12
557.05	16650.41
557.413	16784.19
557.776	16732.22
558.139	16963.85
558.502	16916.84
558.865	16951.64
559.228	17019.67
559.59	17043.17
559.953	17124.52
560.316	17338.08
560.679	17281.13
561.041	17343.72
561.404	17414.01
561.767	17568.13
562.129	17505.75
562.492	17676.37
562.854	17778.52
563.217	17701.23
563.579	17760.66
563.941	17977.83
564.304	17987.55
564.666	18052.86
565.028	18175.12
565.39	18173.53
565.753	18184.61
566.115	18247.43
566.477	18402.91
566.839	18410.14
567.201	18547.53
567.563	18595.9
567.925	18601.32
568.287	18698.94
568.648	18819.62
569.01	18860.97
569.372	19057.13
569.734	18936.45
570.095	19076.33
570.457	19094.41
570.819	19221.42
571.18	19289.21
571.542	19385.48
571.903	19429.55
572.265	19443.78
572.626	19627.28
572.987	19668.86
573.349	19757.9
573.71	19804.9
574.071	19888.29
574.432	19991.11
574.794	20232.69
575.155	20243.99
575.516	20284.21
575.877	20475.39
576.238	20394.04
576.599	20676.97
576.96	20689.85
577.32	20721.49
577.681	20969.62
578.042	21036.06
578.403	21093.91
578.763	21353.79
579.124	21481.02
579.485	21564.63
579.845	21769.6
580.206	21822.7
580.566	21927.11
580.927	22180.43
581.287	22248
581.648	22453.65
582.008	22654.09
582.368	22826.97
582.728	22964.59
583.089	23057.47
583.449	23187.86
583.809	23506.27
584.169	23604.8
584.529	23751.24
584.889	24023.1
585.249	24052.02
585.609	24243.66
585.969	24579.24
586.329	24713.02
586.688	24889.29
587.048	25097.42
587.408	25208.15
587.768	25490.4
588.127	25713.22
588.487	25878.19
588.846	26263.72
589.206	26193.66
589.565	26627.1
589.925	26824.61
590.284	27011.72
590.643	27332.84
591.003	27473.4
591.362	27846.73
591.721	27937.57
592.08	28185.93
592.44	28428.41
592.799	28498.46
593.158	28792.69
593.517	29026.36
593.876	29346.8
594.235	29469.28
594.593	29683.97
594.952	29928.48
595.311	30040.57
595.67	30397.39
596.029	30637.16
596.387	30972.97
596.746	31197.82
597.104	31189.24
597.463	31379.06
597.822	31688.66
598.18	31727.08
598.538	31986.28
598.897	32337.91
599.255	32276.89
599.613	32973.6
599.972	32888.4
600.33	33153.93
600.688	33102.41
601.046	33401.83
601.404	33678.21
601.762	33673.69
602.12	34130.63
602.478	34210.63
602.836	34395.03
603.194	34361.13
603.552	34741.46
603.91	34597.96
604.268	34998.85
604.625	35063.03
604.983	35237.27
605.341	35306.87
605.698	35595.45
606.056	35739.17
606.413	35855.55
606.771	36092.84
607.128	36155.66
607.485	36193.17
607.843	36272.49
608.2	36684.46
608.557	36888.07
608.914	36813.04
609.272	37134.39
609.629	37254.16
609.986	37445.57
610.343	37546.13
610.7	37689.4
611.057	37749.06
611.414	37856.41
611.771	38070.41
612.127	38197.41
612.484	38272.21
612.841	38528.03
613.198	38465.66
613.554	38679.21
613.911	38872.88
614.267	38904.74
614.624	39041.46
614.98	39135.02
615.337	39241
615.693	39434.22
616.05	39456.59
616.406	39797.15
616.762	39676.24
617.118	39734.32
617.475	39879.18
617.831	39953.07
618.187	40060.87
618.543	40233.07
618.899	40443.46
619.255	40443.46
619.611	40456.34
619.967	40498.37
620.323	40586.96
620.678	40541.98
621.034	40607.07
621.39	40710.12
621.746	40654.3
622.101	41165.25
622.457	40967.28
622.812	41010.45
623.168	41198.46
623.523	41240.95
623.879	41347.39
624.234	41162.53
624.589	41404.34
624.945	41436.42
625.3	41621.28
625.655	41502.86
626.01	41742.41
626.365	41665.8
626.72	41626.02
627.075	41614.95
627.43	41610.21
627.785	41692.69
628.14	41830.54
628.495	41860.37
628.85	41743.31
629.205	41710.77
629.559	41928.62
629.914	41774.72
630.269	41843.42
630.623	41932.46
630.978	41806.13
631.332	41953.47
631.687	42058.78
632.041	41799.35
632.396	41875.74
632.75	41769.3
633.104	41919.8
633.459	41800.93
633.813	41731.33
634.167	41774.49
634.521	41762.29
634.875	41861.05
635.229	41961.83
635.583	41715.74
635.937	41767.04
636.291	41610.43
636.645	41859.69
636.999	41740.37
637.352	41994.83
637.706	41593.26
638.06	41692.24
638.413	41613.14
638.767	41599.13
639.121	41623.54
639.474	41503.77
639.828	41548.29
640.181	41517.55
640.534	41587.38
640.888	41455.86
641.241	41427.39
641.594	41397.78
641.947	41597.32
642.301	41311.23
642.654	41485.01
643.007	41538.12
643.36	41356.65
643.713	41380.15
644.066	41575.18
644.419	41162.99
644.771	40903.33
645.124	40584.92
645.477	40663.56
645.83	40460.63
646.182	40179.51
646.535	39984.03
646.888	40090.7
647.24	40062.22
647.593	40234.65
647.945	40217.47
648.298	40045.5
648.65	40045.27
649.002	39949.01
649.355	40135.67
649.707	40192.39
650.059	40284.14
650.411	40672.83
650.763	40539.5
651.115	41070.78
651.467	41018.13
651.819	40843.67
652.171	40687.07
652.523	40848.19
652.875	40741.98
653.227	40652.94
653.578	40923.9
653.93	40822.43
654.282	40598.03
654.633	40688.87
654.985	40515.32
655.337	40619.72
655.688	40667.18
656.039	40747.86
656.391	40429.67
656.742	40436.45
657.094	40630.12
657.445	40693.39
657.796	40573.62
658.147	40566.84
658.498	40568.42
658.849	40596.67
659.2	40525.49
659.551	40393.97
659.902	40569.78
660.253	40437.35
660.604	40544.47
660.955	40339.5
661.306	40422.67
661.656	40455.43
662.007	40345.38
662.358	40369.56
662.708	40379.73
663.059	40329.34
663.409	40264.25
663.76	40297.47
664.11	40437.13
664.461	40421.76
664.811	40432.16
665.161	40462.89
665.511	40324.14
665.862	40438.26
666.212	40456.11
666.562	40425.15
666.912	40338.6
667.262	40272.39
667.612	40425.38
667.962	40385.38
668.312	40223.12
668.662	40535.66
669.011	40325.49
669.361	40260.64
669.711	40267.42
670.06	40268.09
670.41	40201.65
670.76	40229.68
671.109	40141.77
671.459	40163.01
671.808	39990.59
672.157	40240.52
672.507	39910.36
672.856	40001.21
673.205	39968.67
673.554	40125.27
673.904	40090.25
674.253	40199.85
674.602	40035.33
674.951	39460.43
675.3	39350.6
675.649	39951.27
675.998	39959.18
676.346	40006.18
676.695	40094.54
677.044	39774.77
677.393	39641.67
677.741	40021.09
678.09	39916.01
678.438	39790.37
678.787	39774.1
679.135	39842.34
679.484	39608
679.832	39631.73
680.181	39482.35
680.529	39560.77
680.877	39495.68
681.225	39360.1
681.573	39565.97
681.922	39325.75
682.27	39197.61
682.618	39229.03
682.966	39154.22
683.314	39243.71
683.661	39078.97
684.009	38848.02
684.357	38913.78
684.705	38899.77
685.053	38923.5
685.4	38918.98
685.748	38706.55
686.095	38595.6
686.443	38518.54
686.79	38526.44
687.138	38580
687.485	38557.18
687.832	38470.63
688.18	38541.59
688.527	38161.71
688.874	38280.35
689.221	38104.53
689.568	38062.28
689.915	37992
690.262	37974.82
690.609	37934.6
690.956	37734.15
691.303	37720.59
691.65	37524.66
691.997	37598.56
692.344	37228.63
692.69	37318.79
693.037	37369.64
693.383	36894.17
693.73	37126.93
694.077	36895.3
694.423	36905.92
694.769	36793.83
695.116	36773.04
695.462	36633.39
695.808	36525.59
696.155	36671.13
696.501	36336.67
696.847	36325.37
697.193	36048.32
697.539	36245.83
697.885	36070.46
698.231	35979.84
698.577	35989.34
698.923	35917.47
699.269	35683.58
699.614	35463.93
699.96	35572.17
700.306	35458.28
700.651	35377.37
700.997	35245.63
701.342	35178.51
701.688	35152.75
702.033	34934.67
702.379	34944.62
702.724	34941.68
703.069	34955.47
703.415	34525.87
703.76	34671.86
704.105	34635.7
704.45	34497.17
704.795	34415.82
705.14	34130.63
705.485	34259.44
705.83	34095.15
706.175	34054.47
706.52	34071.65
706.865	33970.86
707.209	33943.74
707.554	33718.44
707.899	33829.84
708.243	33721.83
708.588	33640.02
708.932	33303.08
709.277	33440.02
709.621	33442.74
709.966	33146.47
710.31	33307.15
710.654	33013.82
710.998	33087.72
711.342	32963.65
711.687	32930.43
712.031	32866.25
712.375	32816.09
712.719	32715.3
713.063	32602.08
713.407	32807.05
713.75	32600.5
714.094	32614.96
714.438	32458.81
714.782	32310.11
715.125	32328.87
715.469	32276.67
715.812	32137.91
716.156	31964.58
716.499	31925.71
716.843	32084.81
717.186	31825.83
717.53	31890.91
717.873	31990.12
718.216	31765.94
718.559	31573.86
718.902	31519.62
719.246	31576.8
719.589	31469
719.932	31347.65
720.275	31271.49
720.617	31272.17
720.96	31267.88
721.303	31247.09
721.646	31176.81
721.989	31048.9
722.331	31207.54
722.674	30982.69
723.016	30997.15
723.359	30929.81
723.701	30990.37
724.044	30763.71
724.386	30602.36
724.729	30816.82
725.071	30601.23
725.413	30636.26
725.755	30704.5
726.097	30558.07
726.439	30341.35
726.782	30417.96
727.124	30598.07
727.465	30396.71
727.807	30470.84
728.149	30244.4
728.491	30165.31
728.833	30177.29
729.175	30110.39
729.516	30061.81
729.858	30013.9
730.199	30063.62
730.541	30043.28
730.882	29889.16
731.224	30074.24
731.565	29870.18
731.906	29749.5
732.248	29772.78
732.589	29664.08
732.93	29630.86
733.271	29659.56
733.612	29503.63
733.953	29599
734.294	29514.7
734.635	29468.83
734.976	29532.1
735.317	29312.68
735.658	29286.24
735.999	29332.56
736.339	29196.29
736.68	29266.8
737.021	29233.58
737.361	29023.19
737.702	29277.65
738.042	29088.5
738.383	29122.85
738.723	29084.66
739.063	28971.89
739.404	29055.51
739.744	28915.4
740.084	28918.11
740.424	28831.11
740.764	28698.68
741.104	28876.53
741.444	28648.06
741.784	28608.29
742.124	28760.37
742.464	28634.28
742.804	28538.91
743.143	28440.38
743.483	28505.69
743.823	28333.04
744.162	28318.35
744.502	28288.97
744.841	28166.94
745.181	28335.53
745.52	28318.8
745.86	28300.05
746.199	28228.41
746.538	28166.04
746.877	28184.57
747.216	28189.32
747.556	27997.91
747.895	28007.63
748.234	27970.11
748.573	28002.88
748.911	27807.18
749.25	27832.94
749.589	27740.29
749.928	27726.95
750.267	27740.97
750.605	27583.91
750.944	27653.28
751.283	27433.18
751.621	27567.64
751.96	27402.44
752.298	27425.95
752.636	27366.06
752.975	27316.34
753.313	27159.74
753.651	27209.23
753.989	27129.68
754.327	27114.09
754.666	26923.36
755.004	26970.59
755.342	27030.48
755.679	27049.68
756.017	26777.6
756.355	26852.85
756.693	26711.39
757.031	26789.8
757.368	26540.09
757.706	26489.92
758.044	26511.85
758.381	26542.58
758.719	26374.45
759.056	26364.96
759.394	26263.26
759.731	26086.55
760.068	26062.59
760.405	26047.45
760.743	25869.6
761.08	25915.25
761.417	25880.45
761.754	25782.82
762.091	25737.85
762.428	25704.18
762.765	25480.46
763.102	25627.12
763.438	25396.85
763.775	25343.51
764.112	25411.99
764.449	25425.32
764.785	25178.55
765.122	25139.68
765.458	24989.63
765.795	24902.62
766.131	24922.51
766.467	24924.99
766.804	24617.21
767.14	24618.11
767.476	24617.66
767.812	24483.2
768.148	24456.76
768.485	24320.26
768.821	24176.31
769.157	24122.76
769.492	24213.37
769.828	24088.86
770.164	23930.22
770.5	23822.65
770.836	24039.59
771.171	23657.68
771.507	23642.32
771.842	23526.61
772.178	23356.67
772.513	23390.8
772.849	23363.45
773.184	23218.15
773.519	23111.48
773.855	23012.73
774.19	23046.4
774.525	22902.22
774.86	22875.78
775.195	22801.89
775.53	22843.69
775.865	22735.22
776.2	22466.3
776.535	22310.37
776.87	22351.28
777.205	22277.15
777.539	22086.65
777.874	22267.66
778.209	21994
778.543	21928.01
778.878	21852.08
779.212	21876.03
779.547	21700.67
779.881	21730.28
780.215	21630.62
780.55	21657.51
780.884	21425.43
781.218	21367.57
781.552	21340
781.886	21148.37
782.22	21147.01
782.554	21083.29
782.888	20953.8
783.222	20796.29
783.556	20803.75
783.889	20676.52
784.223	20485.11
784.557	20518.1
784.89	20556.3
785.224	20424.77
785.557	20268.62
785.891	20248.96
786.224	20156.53
786.558	20214.16
786.891	19989.08
787.224	19891.68
787.557	19966.48
787.891	19859.59
788.224	19872.25
788.557	19738.69
788.89	19756.09
789.223	19627.51
789.556	19463.44
789.888	19449.88
790.221	19407.63
790.554	19238.82
790.887	19247.18
791.219	19121.53
791.552	19135.54
791.884	19107.75
792.217	19114.07
792.549	18946.62
792.882	18769.68
793.214	18739.39
793.546	18755.89
793.879	18714.31
794.211	18544.6
794.543	18660.3
794.875	18526.07
795.207	18592.73
795.539	18463.24
795.871	18355.68
796.203	18286.98
796.535	18147.09
796.867	18178.05
797.198	18069.81
797.53	18063.03
797.862	17837.72
798.193	17933.77
798.525	17789.81
798.856	17856.93
799.188	17722.7
799.519	17656.26
799.85	17513.21
800.182	17517.28
800.513	17495.13
800.844	17368.13
801.175	17446.09
801.506	17497.84
801.837	17278.42
802.168	17202.94
802.499	17194.35
802.83	17102.38
803.161	17074.81
803.491	17043.39
803.822	16948.48
804.153	16983.06
804.483	16790.29
804.814	16713.68
805.145	16775.15
805.475	16683.86
805.805	16637.08
806.136	16638.88
806.466	16619.68
806.796	16509.62
807.126	16430.98
807.457	16412
807.787	16413.35
808.117	16339.91
808.447	16254.26
808.777	16284.77
809.107	16247.93
809.436	16127.94
809.766	16114.15
810.096	16068.5
810.426	15994.83
810.755	16038.45
811.085	15973.14
811.414	15934.5
811.744	15766.37
812.073	15810.43
812.403	15751.45
812.732	15664.45
813.061	15664.45
813.39	15532.92
813.719	15581.06
814.049	15614.05
814.378	15655.63
814.707	15572.25
815.036	15481.17
815.365	15347.17
815.693	15257.9
816.022	15232.82
816.351	15252.25
816.68	15191.69
817.008	15222.88
817.337	15089.32
817.665	15037.12
817.994	15128.42
818.322	15043.67
818.651	15025.82
818.979	14866.05
819.307	15031.47
819.636	14913.96
819.964	14807.97
820.292	14862.43
820.62	14836.9
820.948	14852.72
821.276	14939.95
821.604	14758.26
821.932	14772.27
822.259	14747.18
822.587	14839.16
822.915	14736.56
823.243	14771.36
823.57	14720.97
823.898	14762.78
824.225	14730.01
824.553	14627.64
824.88	14673.96
825.207	14763.45
825.535	14807.75
825.862	14678.94
826.189	14672.83
826.516	14721.87
826.843	14717.13
827.17	14726.17
827.497	14724.13
827.824	14724.81
828.151	14787.86
828.478	14714.87
828.805	14720.06
829.131	14658.6
829.458	14637.13
829.785	14628.77
830.111	14580.86
830.438	14706.28
830.764	14671.03
831.09	14620.18
831.417	14613.63
831.743	14638.94
832.069	14665.6
832.395	14543.35
832.722	14663.8
833.048	14574.53
833.374	14546.74
833.7	14460.18
834.026	14618.15
834.351	14515.78
834.677	14529.79
835.003	14504.03
835.329	14425.61
835.654	14497.92
835.98	14373.18
836.306	14489.11
836.631	14344.48
836.956	14433.97
837.282	14351.71
837.607	14346.29
837.932	14216.8
838.258	14296.12
838.583	14299.74
838.908	14177.71
839.233	14227.2
839.558	14196.46
839.883	14144.71
840.208	14065.84
840.533	14094.32
840.858	14006.19
841.182	14079.86
841.507	13985.85
841.832	13961.21
842.156	13946.07
842.481	13951.95
842.805	13936.13
843.13	13835.34
843.454	13823.59
843.778	13849.35
844.103	13772.52
844.427	13777.26
844.751	13803.03
845.075	13705.63
845.399	13591.06
845.723	13500.66
846.047	13589.02
846.371	13542.02
846.695	13439.42
847.019	13409.82
847.343	13303.6
847.666	13236.71
847.99	13253.21
848.313	13225.41
848.637	13113.78
848.96	13096.83
849.284	13045.98
849.607	13040.11
849.931	12962.15
850.254	12761.7
850.577	12788.82
850.9	12665.43
851.223	12660.01
851.546	12592.44
851.869	12502.04
852.192	12623.4
852.515	12534.81
852.838	12505.43
853.161	12403.74
853.483	12328.49
853.806	12323.07
854.129	12281.48
854.451	12263.41
854.774	12101.6
855.096	12162.62
855.419	12033.58
855.741	12086.91
856.063	12014.15
856.385	12000.59
856.708	12010.98
857.03	11903.87
857.352	12015.96
857.674	11823.42
857.996	11813.25
858.318	11753.82
858.64	11720.14
858.961	11617.55
859.283	11686.92
859.605	11604.89
859.926	11613.03
860.248	11533.71
860.57	11509.98
860.891	11551.11
861.212	11439.02
861.534	11433.82
861.855	11428.4
862.176	11383.66
862.498	11409.64
862.819	11326.48
863.14	11320.61
863.461	11394.95
863.782	11280.61
864.103	11313.15
864.424	11220.95
864.745	11305.01
865.065	11197.67
865.386	11117.9
865.707	11183.66
866.027	11128.75
866.348	11127.84
866.668	11166.26
866.989	11088.07
867.309	11007.17
867.63	11028.86
867.95	11051.01
868.27	10972.59
868.59	11047.17
868.91	10974.4
869.23	10905.25
869.55	10898.47
869.87	10950.45
870.19	10885.36
870.51	11001.52
870.83	10914.74
871.15	10833.39
871.469	10856.66
871.789	10882.43
872.109	10759.72
872.428	10782.09
872.748	10782.77
873.067	10682.43
873.386	10788.42
873.706	10743.9
874.025	10728.76
874.344	10636.56
874.663	10722.88
874.982	10618.03
875.301	10655.31
875.62	10631.81
875.939	10540.06
876.258	10585.48
876.577	10561.98
876.896	10558.37
877.214	10453.51
877.533	10506.84
877.852	10487.41
878.17	10497.35
878.489	10441.99
878.807	10457.8
879.125	10449.89
879.444	10385.26
879.762	10343.91
880.08	10364.02
880.398	10358.15
880.716	10359.05
881.034	10313.63
881.352	10239.28
881.67	10263.01
881.988	10289.45
882.306	10228.66
882.624	10205.61
882.941	10117.93
883.259	10021.21
883.577	10077.7
883.894	10065.95
884.212	10041.32
884.529	10005.16
884.846	9964.94
885.164	9980.3
885.481	9974.2
885.798	9980.53
886.115	9856.92
886.432	9868.89
886.75	9867.31
887.067	9879.97
887.383	9728.56
887.7	9837.71
888.017	9736.47
888.334	9815.79
888.651	9767.65
888.967	9712.06
889.284	9616.24
889.6	9672.06
889.917	9576.92
890.233	9600.2
890.55	9562.23
890.866	9608.79
891.182	9568.34
891.498	9433.2
891.815	9465.29
892.131	9471.84
892.447	9460.32
892.763	9341.9
893.079	9395.91
893.395	9278.85
893.71	9248.8
894.026	9244.05
894.342	9237.05
894.657	9247.44
894.973	9259.64
895.289	9244.95
895.604	9075.92
895.92	9113.43
896.235	9001.57
896.55	9082.02
896.865	9094
897.181	8977.62
897.496	8948.01
897.811	8908.47
898.126	8837.51
898.441	8898.07
898.756	8817.62
899.071	8855.13
899.386	8811.52
899.7	8732.88
900.015	8681.35
900.33	8658.98
900.644	8588.7
900.959	8651.07
901.273	8596.16
901.588	8490.62
901.902	8430.74
902.216	8524.3
902.531	8483.17
902.845	8435.71
903.159	8445.2
903.473	8338.54
903.787	8335.6
904.101	8303.96
904.415	8318.65
904.729	8245.43
905.042	8147.13
905.356	8151.42
905.67	8206.34
905.984	8104.19
906.297	8113.01
906.611	8086.34
906.924	8049.73
907.237	8010.41
907.551	8002.05
907.864	7907.59
908.177	7938.32
908.491	7919.79
908.804	7854.03
909.117	7811.32
909.43	7722.51
909.743	7741.27
910.056	7721.38
910.368	7734.94
910.681	7642.51
910.994	7658.78
911.307	7654.94
911.619	7544.43
911.932	7551.44
912.244	7423.08
912.557	7467.6
912.869	7461.95
913.181	7389.64
913.494	7387.15
913.806	7333.37
914.118	7343.08
914.43	7292.24
914.742	7268.74
915.054	7245.23
915.366	7226.02
915.678	7199.13
915.99	7160.94
916.302	7106.03
916.613	7054.96
916.925	7005.01
917.236	7001.62
917.548	6975.41
917.859	6989.87
918.171	6971.57
918.482	6868.52
918.794	6852.93
919.105	6847.28
919.416	6826.04
919.727	6787.62
920.038	6741.97
920.349	6726.6
920.66	6696.1
920.971	6671.01
921.282	6689.54
921.593	6612.26
921.903	6503.56
922.214	6548.3
922.525	6482.09
922.835	6510.34
923.146	6453.39
923.456	6431.92
923.767	6386.27
924.077	6402.54
924.387	6317.12
924.697	6320.06
925.008	6353.51
925.318	6315.54
925.628	6289.1
925.938	6257.91
926.248	6165.71
926.558	6208.42
926.867	6165.26
927.177	6160.29
927.487	6112.61
927.796	5999.39
928.106	6036.9
928.416	6013.18
928.725	6001.42
929.034	5967.98
929.344	6008.43
929.653	5979.5
929.962	5923.01
930.271	5860.64
930.581	5860.41
930.89	5787.64
931.199	5849.79
931.508	5765.05
931.817	5808.43
932.125	5763.69
932.434	5695.44
932.743	5618.61
933.051	5664.71
933.36	5565.73
933.669	5571.38
933.977	5583.58
934.286	5559.63
934.594	5557.37
934.902	5513.98
935.21	5499.52
935.519	5539.97
935.827	5463.13
936.135	5427.43
936.443	5340.65
936.751	5399.41
937.059	5351.72
937.367	5284.15
937.674	5306.75
937.982	5284.83
938.29	5255.46
938.597	5255
938.905	5184.27
939.213	5178.62
939.52	5152.86
939.827	5177.72
940.135	5113.54
940.442	5066.76
940.749	5062.69
941.056	5073.99
941.363	5077.83
941.67	5003.71
941.977	4939.53
942.284	4918.06
942.591	4929.36
942.898	4925.75
943.205	4931.4
943.511	4898.4
943.818	4879.65
944.125	4847.78
944.431	4830.16
944.738	4817.95
945.044	4768.91
945.35	4762.13
945.657	4743.15
945.963	4705.86
946.269	4684.17
946.575	4695.24
946.881	4689.14
947.187	4672.19
947.493	4611.18
947.799	4586.77
948.105	4573.21
948.41	4537.06
948.716	4559.65
949.022	4528.02
949.327	4490.05
949.633	4491.41
949.938	4480.56
950.244	4485.53
950.549	4431.07
950.854	4361.02
951.16	4393.56
951.465	4374.8
951.77	4335.48
952.075	4264.52
952.38	4329.15
952.685	4302.49
952.99	4255.93
953.294	4276.95
953.599	4197.4
953.904	4172.32
954.209	4192.88
954.513	4167.35
954.818	4170.74
955.122	4131.87
955.426	4153.56
955.731	4142.26
956.035	4099.78
956.339	4088.48
956.643	4077.63
956.948	3992.66
957.252	4029.5
957.556	4031.31
957.86	3994.7
958.163	3968.94
958.467	3940.46
958.771	3921.93
959.075	3942.95
959.378	3913.12
959.682	3905.43
959.985	3873.57
960.289	3856.85
960.592	3811.88
960.896	3858.43
961.199	3809.39
961.502	3790.41
961.805	3807.81
962.108	3770.52
962.411	3737.75
962.714	3701.6
963.017	3715.16
963.32	3669.51
963.623	3669.51
963.926	3667.02
964.228	3647.14
964.531	3650.75
964.833	3627.02
965.136	3589.51
965.438	3582.73
965.741	3536.4
966.043	3561.71
966.345	3516.52
966.648	3502.51
966.95	3499.79
967.252	3514.03
967.554	3447.82
967.856	3448.95
968.158	3427.03
968.46	3424.54
968.761	3376.18
969.063	3371.89
969.365	3368.05
969.666	3348.84
969.968	3345.45
970.269	3372.57
970.571	3336.18
970.872	3314.94
971.174	3261.16
971.475	3273.81
971.776	3249.41
972.077	3199.69
972.378	3205.11
972.679	3234.04
972.98	3204.21
973.281	3183.65
973.582	3169.63
973.883	3142.74
974.183	3153.82
974.484	3140.48
974.785	3102.07
975.085	3116.98
975.386	3134.38
975.686	3049.41
975.986	3080.6
976.287	3049.64
976.587	3017.1
976.887	3051.67
977.187	3019.13
977.487	3008.06
977.787	2961.5
978.087	2980.71
978.387	2918.34
978.687	2983.42
978.987	2955.4
979.286	2941.84
979.586	2905.69
979.885	2891
980.185	2868.85
980.484	2890.77
980.784	2840.6
981.083	2823.65
981.382	2795.41
981.682	2806.48
981.981	2828.17
982.28	2777.1
982.579	2783.43
982.878	2755.86
983.177	2750.89
983.475	2761.06
983.774	2712.47
984.073	2712.25
984.372	2680.83
984.67	2686.03
984.969	2697.1
985.267	2654.62
985.566	2657.56
985.864	2651.68
986.162	2654.85
986.461	2622.53
986.759	2625.69
987.057	2586.6
987.355	2588.18
987.653	2561.29
987.951	2571.68
988.249	2568.75
988.547	2540.05
988.844	2530.78
989.142	2521.97
989.44	2460.05
989.737	2502.08
990.035	2469.77
990.332	2461.4
990.63	2488.75
990.927	2450.33
991.224	2432.25
991.521	2428.18
991.819	2440.61
992.116	2404.91
992.413	2399.71
992.71	2382.08
993.006	2378.47
993.303	2369.88
993.6	2356.55
993.897	2347.96
994.193	2321.07
994.49	2305.02
994.787	2308.64
995.083	2290.56
995.379	2291.24
995.676	2303.89
995.972	2263.9
996.268	2270.9
996.565	2226.61
996.861	2220.05
997.157	2207.17
997.453	2199.26
997.749	2168.76
998.044	2189.32
998.34	2172.82
998.636	2165.14
998.932	2155.42
999.227	2155.2
999.523	2147.06
999.818	2134.18
1000.114	2157.46
1000.409	2111.36
1000.704	2087.63
1001	2097.57
1001.295	2058.25
1001.59	2078.36
1001.885	2072.49
1002.18	2005.6
1002.475	2024.35
1002.77	2014.86
1003.065	1984.13
1003.359	1982.77
1003.654	1964.24
1003.949	1945.94
1004.243	1945.49
1004.538	1959.04
1004.832	1943.23
1005.127	1924.92
1005.421	1881.08
1005.715	1910.91
1006.009	1870.69
1006.304	1863
1006.598	1893.28
1006.892	1863.45
1007.186	1858.48
1007.48	1841.08
1007.773	1855.09
1008.067	1832.04
1008.361	1805.38
1008.655	1799.95
1008.948	1799.95
1009.242	1793.17
1009.535	1760.18
1009.829	1749.56
1010.122	1755.43
1010.415	1753.85
1010.708	1768.32
1011.001	1700.07
1011.295	1704.36
1011.588	1702.33
1011.881	1675.66
1012.173	1669.33
1012.466	1684.93
1012.759	1665.49
1013.052	1664.14
1013.344	1664.14
1013.637	1614.87
1013.93	1638.6
1014.222	1639.5
1014.514	1603.35
1014.807	1587.3
1015.099	1589.11
1015.391	1604.03
1015.683	1552.95
1015.976	1576.91
1016.268	1540.98
1016.56	1550.02
1016.851	1524.48
1017.143	1517.02
1017.435	1522.9
1017.727	1488.55
1018.018	1526.29
1018.31	1462.11
1018.602	1503.92
1018.893	1465.95
1019.185	1468.66
1019.476	1453.3
1019.767	1432.28
1020.058	1450.36
1020.35	1404.03
1020.641	1408.1
1020.932	1413.52
1021.223	1382.34
1021.514	1374.65
1021.804	1366.97
1022.095	1379.85
1022.386	1352.73
1022.677	1317.71
1022.967	1345.73
1023.258	1319.29
1023.548	1326.07
1023.839	1316.58
1024.129	1340.76
1024.419	1310.47
1024.709	1258.95
1025	1260.08
1025.29	1265.73
1025.58	1265.73
1025.87	1257.37
1026.16	1249.46
1026.449	1230.93
1026.739	1218.5
1027.029	1214.66
1027.319	1198.39
1027.608	1217.6
1027.898	1195
1028.187	1193.64
1028.477	1201.1
1028.766	1184.83
1029.055	1191.83
1029.344	1165.85
1029.634	1150.25
1029.923	1167.65
1030.212	1151.83
1030.501	1133.76
1030.79	1114.77
1031.078	1118.39
1031.367	1123.36
1031.656	1074.32
1031.945	1073.42
1032.233	1091.95
1032.522	1080.65
1032.81	1088.33
1033.099	1057.15
1033.387	1047.66
1033.675	1048.11
1033.963	1020.54
1034.251	1057.83
1034.54	1064.6
1034.828	994.1
1035.116	1013.08
1035.403	1016.47
1035.691	1015.57
1035.979	1023.48
1036.267	1011.27
1036.554	989.8
1036.842	1006.3
1037.129	1002.01
1037.417	980.31
1037.704	970.37
1037.992	962.46
1038.279	959.3
1038.566	953.87
1038.853	953.87
1039.14	953.87
