Data from hue_230_FLMS001491_00019.txt Node
Date: Tue Feb 07 16:36:53 GMT 2017
User: dcchb
Spectrometer: FLMS00149
Trigger mode: 0
Integration Time (sec): 2.000000E-2
Scans to average: 10
Electric dark correction enabled: true
Nonlinearity correction enabled: false
Boxcar width: 0
XAxis mode: Wavelengths
Number of Pixels in Spectrum: 2048
>>>>>Begin Spectral Data<<<<<
341.393	-2.91
341.776	-2.91
342.16	-2.91
342.543	-65.96
342.927	-73.64
343.31	-87.43
343.693	-64.83
344.077	-55.11
344.46	-62.79
344.843	-45.39
345.226	-36.13
345.61	-14.66
345.993	-34.32
346.376	-1.1
346.759	11.78
347.142	31.21
347.525	31.21
347.908	77.77
348.291	58.11
348.674	87.94
349.057	103.75
349.44	124.09
349.823	134.04
350.206	170.19
350.588	163.64
350.971	204.77
351.354	250.87
351.737	217.88
352.119	238.67
352.502	256.52
352.884	277.08
353.267	287.25
353.65	289.51
354.032	281.6
354.414	319.57
354.797	299.68
355.179	322.73
355.562	296.74
355.944	307.82
356.326	324.77
356.709	325.44
357.091	332.22
357.473	334.48
357.855	342.84
358.238	343.75
358.62	348.27
359.002	329.06
359.384	337.19
359.766	329.96
360.148	336.97
360.53	329.29
360.912	323.18
361.294	304.88
361.676	306.01
362.057	319.34
362.439	322.51
362.821	307.82
363.203	303.75
363.584	315.73
363.966	306.46
364.348	307.14
364.729	299.68
365.111	318.21
365.493	312.11
365.874	329.06
366.256	308.72
366.637	274.82
367.019	294.71
367.4	304.2
367.781	300.59
368.163	306.46
368.544	288.38
368.925	292.9
369.306	325.22
369.688	296.29
370.069	320.47
370.45	314.6
370.831	315.27
371.212	295.39
371.593	288.38
371.974	308.49
372.355	326.57
372.736	331.77
373.117	321.38
373.498	294.03
373.879	306.23
374.26	302.17
374.641	322.51
375.021	293.81
375.402	308.95
375.783	321.6
376.163	315.73
376.544	305.33
376.925	310.75
377.305	326.12
377.686	321.83
378.066	320.92
378.447	331.54
378.827	320.47
379.208	339.23
379.588	342.62
379.968	323.86
380.349	333.35
380.729	317.08
381.109	321.15
381.489	339.45
381.87	357.76
382.25	324.54
382.63	332.67
383.01	317.08
383.39	331.32
383.77	347.36
384.15	335.16
384.53	334.03
384.91	326.57
385.29	353.69
385.67	334.71
386.049	353.92
386.429	346.69
386.809	341.04
387.189	343.75
387.568	343.97
387.948	357.08
388.328	347.59
388.707	351.88
389.087	339
389.466	351.43
389.846	350.3
390.225	351.88
390.605	350.3
390.984	370.87
391.363	365.89
391.743	332.9
392.122	360.7
392.501	378.1
392.881	370.87
393.26	382.17
393.639	369.51
394.018	366.57
394.397	368.38
394.776	389.17
395.155	370.87
395.534	393.24
395.913	377.65
396.292	399.11
396.671	368.38
397.05	374.26
397.429	389.4
397.808	377.42
398.186	369.28
398.565	401.83
398.944	379.68
399.323	409.51
399.701	401.15
400.08	414.48
400.458	395.5
400.837	404.31
401.215	418.77
401.594	416.29
401.972	411.09
402.351	412.22
402.729	413.58
403.107	406.35
403.486	418.1
403.864	419.23
404.242	423.97
404.62	429.4
404.999	448.6
405.377	449.73
405.755	441.15
406.133	454.48
406.511	442.28
406.889	464.65
407.267	468.94
407.645	478.43
408.023	467.36
408.401	492.44
408.779	473.46
409.156	474.82
409.534	491.31
409.912	502.39
410.29	497.42
410.667	506.68
411.045	492.44
411.422	513.91
411.8	526.79
412.178	527.47
412.555	555.27
412.933	564.76
413.31	546.23
413.687	586.45
414.065	560.24
414.442	562.5
414.819	586.23
415.197	600.92
415.574	580.13
415.951	596.85
416.328	617.19
416.705	609.96
417.082	617.19
417.46	607.47
417.837	623.74
418.214	654.7
418.591	649.28
418.967	655.15
419.344	638.88
419.721	666.68
420.098	654.47
420.475	682.95
420.852	671.65
421.228	703.06
421.605	713.23
421.982	705.77
422.358	719.33
422.735	743.74
423.111	757.52
423.488	760.91
423.864	768.6
424.241	767.47
424.617	793
424.994	808.82
425.37	816.05
425.746	820.35
426.123	820.35
426.499	827.35
426.875	833.45
427.251	860.12
427.627	876.62
428.003	882.26
428.379	876.39
428.756	894.47
429.132	890.63
429.507	918.42
429.883	955.71
430.259	940.57
430.635	937.18
431.011	978.53
431.387	993
431.763	996.84
432.138	988.7
432.514	1014.46
432.89	1021.7
433.265	1028.93
433.641	1037.29
434.016	1065.31
434.392	1118.64
434.767	1093.11
435.143	1106.67
435.518	1142.82
435.894	1146.44
436.269	1152.31
436.644	1197.96
437.02	1175.59
437.395	1200
437.77	1225.53
438.145	1263.27
438.52	1260.11
438.895	1291.29
439.271	1266.44
439.646	1308.69
440.021	1339.88
440.395	1360.44
440.77	1331.07
441.145	1348.92
441.52	1397.73
441.895	1418.75
442.27	1435.47
442.645	1440.44
443.019	1459.88
443.394	1468.01
443.769	1475.7
444.143	1457.84
444.518	1485.86
444.892	1462.36
445.267	1494.23
445.641	1510.5
446.016	1502.59
446.39	1525.19
446.764	1561.34
447.139	1534
447.513	1578.52
447.887	1579.65
448.262	1588.69
448.636	1602.92
449.01	1619.87
449.384	1655.35
449.758	1643.37
450.132	1633.21
450.506	1649.25
450.88	1709.81
451.254	1682.92
451.628	1706.88
452.002	1720.89
452.376	1753.2
452.75	1765.86
453.123	1778.06
453.497	1798.4
453.871	1809.25
454.244	1842.92
454.618	1832.75
454.992	1864.39
455.365	1867.1
455.739	1898.51
456.112	1904.61
456.486	1938.73
456.859	1933.76
457.232	1977.6
457.606	1980.54
457.979	2009.92
458.352	2038.39
458.725	2070.93
459.099	2096.47
459.472	2110.93
459.845	2135.11
460.218	2153.64
460.591	2109.8
460.964	2189.8
461.337	2206.52
461.71	2259.63
462.083	2279.52
462.456	2322.23
462.829	2285.84
463.201	2318.39
463.574	2311.38
463.947	2377.82
464.32	2403.81
464.692	2385.05
465.065	2453.07
465.438	2466.4
465.81	2486.74
466.183	2518.38
466.555	2572.62
466.928	2606.74
467.3	2599.73
467.672	2632.28
468.045	2652.39
468.417	2721.76
468.789	2685.61
469.161	2746.85
469.534	2771.25
469.906	2824.81
470.278	2837.47
470.65	2859.39
471.022	2950.69
471.394	2967.41
471.766	2971.02
472.138	3027.29
472.51	3101.64
472.882	3165.37
473.253	3155.2
473.625	3246.5
473.997	3206.5
474.369	3247.4
474.74	3305.03
475.112	3354.52
475.484	3348.41
475.855	3455.53
476.227	3432.48
476.598	3529.2
476.97	3559.03
477.341	3648.07
477.713	3666.82
478.084	3694.17
478.455	3785.24
478.827	3879.02
479.198	3907.27
479.569	3937.55
479.94	4020.94
480.311	4014.84
480.682	4120.82
481.053	4198.56
481.424	4267.26
481.795	4272.91
482.166	4346.35
482.537	4376.64
482.908	4501.6
483.279	4542.73
483.65	4567.59
484.021	4622.51
484.391	4654.37
484.762	4715.61
485.133	4785.21
485.503	4844.42
485.874	4920.12
486.244	4900.01
486.615	4997.86
486.985	5093.23
487.356	5136.16
487.726	5178.42
488.097	5282.83
488.467	5258.42
488.837	5382.49
489.207	5410.73
489.578	5467.91
489.948	5555.14
490.318	5594.23
490.688	5627.68
491.058	5678.75
491.428	5737.28
491.798	5818.63
492.168	5905.86
492.538	5878.97
492.908	5903.15
493.278	6030.83
493.648	6016.59
494.017	6089.36
494.387	6178.17
494.757	6149.92
495.126	6226.08
495.496	6248.45
495.866	6295
496.235	6389.46
496.605	6418.84
496.974	6394.89
497.344	6424.04
497.713	6488.45
498.082	6557.82
498.452	6636.01
498.821	6585.17
499.19	6610.93
499.559	6665.16
499.928	6730.25
500.298	6699.06
500.667	6769.57
501.036	6781.54
501.405	6805.27
501.774	6777.25
502.143	6826.74
502.512	6860.64
502.88	6907.64
503.249	6918.72
503.618	6929.11
503.987	6882.79
504.356	7010.47
504.724	7011.14
505.093	7076.23
505.462	7030.35
505.83	7106.06
506.199	7158.71
506.567	7131.82
506.936	7184.7
507.304	7256.79
507.672	7203
508.041	7271.02
508.409	7317.12
508.777	7326.62
509.145	7381.98
509.514	7355.99
509.882	7429.21
510.25	7440.96
510.618	7355.32
510.986	7436.22
511.354	7519.83
511.722	7498.14
512.09	7554.86
512.458	7545.82
512.826	7615.65
513.193	7653.39
513.561	7628.53
513.929	7722.99
514.297	7648.19
514.664	7721.86
515.032	7727.06
515.4	7812.93
515.767	7764.34
516.135	7813.38
516.502	7721.41
516.869	7837.56
517.237	7836.66
517.604	7826.04
517.972	7828.3
518.339	7885.92
518.706	7774.29
519.073	7880.95
519.44	7899.93
519.808	7906.49
520.175	7956.43
520.542	7980.38
520.909	7956.66
521.276	7993.72
521.643	8077.78
522.009	8067.16
522.376	8067.16
522.743	8079.82
523.11	8101.28
523.477	8172.92
523.843	8141.06
524.21	8268.96
524.577	8238
524.943	8257.21
525.31	8246.14
525.676	8318.91
526.043	8326.59
526.409	8334.95
526.776	8388.06
527.142	8330.66
527.508	8383.76
527.874	8432.8
528.241	8364.33
528.607	8387.83
528.973	8451.56
529.339	8443.65
529.705	8511.89
530.071	8441.84
530.437	8457.21
530.803	8512.8
531.169	8526.81
531.535	8463.31
531.901	8525
532.267	8505.79
532.632	8543.76
532.998	8470.99
533.364	8539.46
533.73	8507.15
534.095	8524.1
534.461	8525.45
534.826	8496.75
535.192	8565
535.557	8530.65
535.923	8541.05
536.288	8487.04
536.653	8533.36
537.019	8517.77
537.384	8478
537.749	8525
538.114	8481.16
538.479	8425.34
538.845	8423.54
539.21	8454.72
539.575	8453.59
539.94	8490.43
540.305	8424.21
540.67	8440.71
541.034	8397.1
541.399	8440.48
541.764	8416.76
542.129	8469.41
542.494	8387.38
542.858	8402.75
543.223	8396.19
543.587	8482.52
543.952	8347.15
544.316	8391.67
544.681	8339.92
545.045	8331.11
545.41	8387.83
545.774	8350.09
546.138	8328.62
546.503	8289.08
546.867	8283.2
547.231	8299.02
547.595	8299.92
547.959	8278.45
548.324	8253.37
548.688	8259.7
549.052	8282.75
549.416	8242.75
549.779	8230.09
550.143	8160.04
550.507	8237.55
550.871	8258.57
551.235	8230.09
551.599	8230.32
551.962	8240.04
552.326	8198
552.689	8206.37
553.053	8195.52
553.417	8156.65
553.78	8227.61
554.143	8251.11
554.507	8193.71
554.87	8209.76
555.234	8252.47
555.597	8152.81
555.96	8181.51
556.323	8170.43
556.686	8178.57
557.05	8165.69
557.413	8184.67
557.776	8174.73
558.139	8259.25
558.502	8115.52
558.865	8175.86
559.228	8179.93
559.59	8225.12
559.953	8202.07
560.316	8312.35
560.679	8278.91
561.041	8237.55
561.404	8298.12
561.767	8306.48
562.129	8234.16
562.492	8325.91
562.854	8265.57
563.217	8231.45
563.579	8342.86
563.941	8450.43
564.304	8387.15
564.666	8386.02
565.028	8399.13
565.39	8369.53
565.753	8385.34
566.115	8440.71
566.477	8490.43
566.839	8423.76
567.201	8465.79
567.563	8493.36
567.925	8555.96
568.287	8527.49
568.648	8547.83
569.01	8622.63
569.372	8653.81
569.734	8613.81
570.095	8645.68
570.457	8654.72
570.819	8651.55
571.18	8685.68
571.542	8697.2
571.903	8707.82
572.265	8726.58
572.626	8715.73
572.987	8810.64
573.349	8786.92
573.71	8796.63
574.071	8812.23
574.432	8805.22
574.794	8828.04
575.155	8835.95
575.516	8834.6
575.877	8901.94
576.238	8918.21
576.599	8940.36
576.96	8937.65
577.32	8976.97
577.681	9009.28
578.042	9021.03
578.403	8987.14
578.763	9130.18
579.124	9075.95
579.485	9034.59
579.845	9070.52
580.206	9070.52
580.566	9141.26
580.927	9152.33
581.287	9137.42
581.648	9131.31
582.008	9236.4
582.368	9173.57
582.728	9208.83
583.089	9213.35
583.449	9214.02
583.809	9213.35
584.169	9270.52
584.529	9258.77
584.889	9354.58
585.249	9273.68
585.609	9283.4
585.969	9302.38
586.329	9314.13
586.688	9323.62
587.048	9345.32
587.408	9331.08
587.768	9291.31
588.127	9360.46
588.487	9331.53
588.846	9381.25
589.206	9356.39
589.565	9381.7
589.925	9372.21
590.284	9416.96
590.643	9376.5
591.003	9440.01
591.362	9463.28
591.721	9478.42
592.08	9479.55
592.44	9471.19
592.799	9459.21
593.158	9418.76
593.517	9517.97
593.876	9492.66
594.235	9529.27
594.593	9501.93
594.952	9555.26
595.311	9505.32
595.67	9620.57
596.029	9598.42
596.387	9557.52
596.746	9612.66
597.104	9548.93
597.463	9573.34
597.822	9591.41
598.18	9669.6
598.538	9630.51
598.897	9609.49
599.255	9458.31
599.613	9629.61
599.972	9627.8
600.33	9718.19
600.688	9675.25
601.046	9644.52
601.404	9705.54
601.762	9615.82
602.12	9717.29
602.478	9658.08
602.836	9683.84
603.194	9699.89
603.552	9729.04
603.91	9658.53
604.268	9724.07
604.625	9677.51
604.983	9718.19
605.341	9683.16
605.698	9781.24
606.056	9725.65
606.413	9807.23
606.771	9867.11
607.128	9799.09
607.485	9740.56
607.843	9756.61
608.2	9827.79
608.557	9878.41
608.914	9814.69
609.272	9842.26
609.629	9835.7
609.986	9943.04
610.343	9828.24
610.7	9932.87
611.057	9928.35
611.414	9841.35
611.771	9904.63
612.127	9910.28
612.484	9953.89
612.841	9942.59
613.198	9967.22
613.554	9942.82
613.911	9956.83
614.267	9988.47
614.624	9926.77
614.98	9985.75
615.337	10005.64
615.693	10039.99
616.05	9967.68
616.406	10022.59
616.762	10047.22
617.118	10042.02
617.475	10009.71
617.831	10058.75
618.187	10070.5
618.543	10054.23
618.899	10176.94
619.255	10053.32
619.611	10073.44
619.967	10122.47
620.323	10105.75
620.678	10109.82
621.034	10050.16
621.39	10036.83
621.746	10016.49
622.101	10186.2
622.457	10078.41
622.812	10069.59
623.168	10030.27
623.523	10120.44
623.879	10135.13
624.234	10049.03
624.589	10135.58
624.945	10081.12
625.3	10088.8
625.655	10126.77
626.01	10145.52
626.365	10144.39
626.72	10139.87
627.075	10082.7
627.43	10054
627.785	10085.19
628.14	10061.46
628.495	10114.11
628.85	10083.6
629.205	10043.15
629.559	10096.03
629.914	10007.67
630.269	9997.28
630.623	9951.86
630.978	9968.35
631.332	10070.95
631.687	10009.93
632.041	9987.11
632.396	10030.5
632.75	9954.12
633.104	10003.16
633.459	9941.46
633.813	9952.76
634.167	9893.33
634.521	9927.68
634.875	9948.92
635.229	9888.36
635.583	9834.57
635.937	9848.58
636.291	9877.96
636.645	9907.11
636.999	9819.43
637.352	9773.1
637.706	9756.38
638.06	9855.14
638.413	9812.43
638.767	9820.11
639.121	9756.83
639.474	9710.51
639.828	9684.75
640.181	9737.17
640.534	9762.03
640.888	9685.2
641.241	9675.93
641.594	9716.61
641.947	9701.69
642.301	9703.28
642.654	9711.86
643.007	9679.1
643.36	9698.08
643.713	9680.45
644.066	9675.48
644.419	9626.44
644.771	9540.57
645.124	9414.7
645.477	9504.86
645.83	9384.41
646.182	9388.93
646.535	9317.07
646.888	9370.63
647.24	9220.58
647.593	9409.05
647.945	9374.25
648.298	9306.22
648.65	9325.66
649.002	9225.1
649.355	9274.36
649.707	9324.08
650.059	9386
650.411	9479.55
650.763	9465.32
651.115	9536.5
651.467	9510.74
651.819	9486.56
652.171	9444.75
652.523	9491.76
652.875	9463.51
653.227	9424.19
653.578	9491.3
653.93	9509.16
654.282	9479.1
654.633	9477.29
654.985	9415.37
655.337	9434.81
655.688	9476.62
656.039	9522.49
656.391	9438.88
656.742	9499.67
657.094	9460.57
657.445	9513
657.796	9454.47
658.147	9507.8
658.498	9502.15
658.849	9480.23
659.2	9480.68
659.551	9426
659.902	9491.08
660.253	9492.89
660.604	9413.79
660.955	9424.41
661.306	9463.06
661.656	9389.84
662.007	9436.16
662.358	9454.47
662.708	9414.02
663.059	9412.89
663.409	9384.19
663.76	9495.15
664.11	9498.31
664.461	9413.34
664.811	9468.93
665.161	9443.17
665.511	9463.51
665.862	9452.44
666.212	9504.19
666.562	9470.29
666.912	9462.6
667.262	9561.36
667.612	9468.48
667.962	9460.34
668.312	9455.82
668.662	9519.33
669.011	9414.7
669.361	9440.91
669.711	9468.03
670.06	9409.72
670.41	9510.74
670.76	9454.69
671.109	9454.24
671.459	9462.38
671.808	9370.86
672.157	9415.37
672.507	9363.62
672.856	9344.64
673.205	9345.09
673.554	9384.19
673.904	9367.24
674.253	9436.39
674.602	9324.53
674.951	9214.25
675.3	9171.54
675.649	9317.07
675.998	9272.1
676.346	9319.11
676.695	9311.2
677.044	9308.03
677.393	9317.3
677.741	9298.99
678.09	9346.68
678.438	9306.45
678.787	9280.24
679.135	9285.89
679.484	9238.2
679.832	9203.63
680.181	9116.17
680.529	9178.77
680.877	9116.62
681.225	9155.95
681.573	9223.97
681.922	9123.63
682.27	9095.61
682.618	9090.86
682.966	9065.33
683.314	9098.09
683.661	9080.69
684.009	8969.28
684.357	8997.53
684.705	8987.81
685.053	8921.15
685.4	8967.25
685.748	8948.04
686.095	8886.8
686.443	8878.89
686.79	8849.06
687.138	8938.32
687.485	8876.63
687.832	8807.48
688.18	8819.23
688.527	8831.43
688.874	8764.77
689.221	8762.96
689.568	8670.99
689.915	8715.73
690.262	8714.83
690.609	8655.85
690.956	8609.52
691.303	8568.39
691.65	8566.13
691.997	8550.76
692.344	8480.71
692.69	8519.13
693.037	8533.82
693.383	8452.91
693.73	8445.23
694.077	8405.68
694.423	8364.78
694.769	8329.98
695.116	8288.85
695.462	8306.02
695.808	8246.59
696.155	8281.17
696.501	8254.27
696.847	8239.81
697.193	8147.84
697.539	8138.57
697.885	8140.83
698.231	8115.97
698.577	8099.02
698.923	8062.87
699.269	8028.74
699.614	7986.94
699.96	7953.04
700.306	7968.41
700.651	7903.1
700.997	7886.37
701.342	7911.68
701.688	7850.67
702.033	7849.99
702.379	7813.83
702.724	7772.93
703.069	7759.15
703.415	7648.19
703.76	7724.8
704.105	7656.32
704.45	7738.36
704.795	7628.08
705.14	7584.69
705.485	7563.45
705.83	7593.5
706.175	7528.42
706.52	7466.5
706.865	7445.03
707.209	7454.97
707.554	7415.65
707.899	7440.74
708.243	7393.28
708.588	7410.91
708.932	7418.59
709.277	7335.65
709.621	7313.73
709.966	7225.6
710.31	7299.05
710.654	7213.62
710.998	7262.21
711.342	7257.69
711.687	7216.56
712.031	7191.25
712.375	7158.48
712.719	7139.28
713.063	7127.75
713.407	7119.39
713.75	7088.66
714.094	7095.89
714.438	7085.94
714.782	7137.02
715.125	7085.94
715.469	7061.54
715.812	7011.37
716.156	7016.79
716.499	6965.04
716.843	7017.7
717.186	6992.61
717.53	6994.42
717.873	6972.27
718.216	6957.13
718.559	6930.24
718.902	6920.98
719.246	6935.44
719.589	6865.61
719.932	6832.84
720.275	6890.02
720.617	6893.86
720.96	6883.01
721.303	6872.84
721.646	6881.66
721.989	6776.12
722.331	6858.38
722.674	6864.25
723.016	6792.84
723.359	6798.27
723.701	6791.04
724.044	6739.74
724.386	6762.56
724.729	6753.3
725.071	6812.28
725.413	6765.5
725.755	6722.56
726.097	6691.6
726.439	6665.16
726.782	6680.3
727.124	6745.39
727.465	6743.58
727.807	6730.7
728.149	6707.2
728.491	6711.04
728.833	6744.48
729.175	6699.29
729.516	6699.51
729.858	6644.6
730.199	6687.76
730.541	6685.73
730.882	6634.2
731.224	6682.11
731.565	6681.43
731.906	6624.71
732.248	6633.07
732.589	6619.06
732.93	6610.93
733.271	6645.96
733.612	6667.2
733.953	6625.62
734.294	6682.34
734.635	6681.21
734.976	6685.05
735.317	6641.21
735.658	6598.27
735.999	6687.08
736.339	6650.25
736.68	6648.44
737.021	6615.9
737.361	6643.7
737.702	6698.16
738.042	6670.14
738.383	6676.24
738.723	6689.12
739.063	6696.35
739.404	6676.69
739.744	6663.36
740.084	6653.19
740.424	6720.76
740.764	6685.05
741.104	6726.18
741.444	6677.82
741.784	6685.95
742.124	6696.12
742.464	6711.72
742.804	6777.48
743.143	6710.36
743.483	6760.08
743.823	6749.91
744.162	6772.96
744.502	6797.14
744.841	6839.17
745.181	6863.35
745.52	6862.9
745.86	6952.39
746.199	6928.43
746.538	6969.56
746.877	6990.35
747.216	7015.66
747.556	7053.4
747.895	7125.26
748.234	7096.11
748.573	7115.32
748.911	7182.89
749.25	7177.01
749.589	7208.88
749.928	7258.37
750.267	7377.46
750.605	7337.69
750.944	7416.56
751.283	7431.92
751.621	7518.47
751.96	7529.1
752.298	7663.56
752.636	7740.16
752.975	7776.55
753.313	7891.35
753.651	7947.62
753.989	8024.45
754.327	8064.67
754.666	8141.06
755.004	8233.03
755.342	8319.81
755.679	8422.63
756.017	8497.21
756.355	8609.52
756.693	8696.97
757.031	8863.75
757.368	8875.5
757.706	8972
758.044	9049.96
758.381	9207.24
758.719	9282.95
759.056	9439.1
759.394	9497.41
759.731	9558.65
760.068	9722.26
760.405	9807.23
760.743	10011.74
761.08	10051.06
761.417	10223.04
761.754	10285.86
762.091	10373.77
762.428	10529.92
762.765	10616.7
763.102	10715.45
763.438	10854.88
763.775	10969.46
764.112	11092.84
764.449	11211.71
764.785	11270.69
765.122	11364.7
765.458	11421.42
765.795	11608.54
766.131	11702.09
766.467	11834.52
766.804	11913.61
767.14	11929.43
767.476	12065.7
767.812	12120.84
768.148	12236.54
768.485	12255.98
768.821	12452.81
769.157	12453.03
769.492	12489.42
769.828	12641.28
770.164	12648.51
770.5	12690.54
770.836	12785.45
771.171	12818.22
771.507	12909.29
771.842	12906.36
772.178	13065
772.513	13079.01
772.849	13123.98
773.184	13137.31
773.519	13264.76
773.855	13156.97
774.19	13302.5
774.525	13291.66
774.86	13411.65
775.195	13397.19
775.53	13432.9
775.865	13456.17
776.2	13376.85
776.535	13395.16
776.87	13464.53
777.205	13473.35
777.539	13494.36
777.874	13505.44
778.209	13481.48
778.543	13488.94
778.878	13502.27
779.212	13641.7
779.547	13544.76
779.881	13558.99
780.215	13558.09
780.55	13666.79
780.884	13583.63
781.218	13637.86
781.552	13647.58
781.886	13692.78
782.22	13614.13
782.554	13582.04
782.888	13479
783.222	13516.06
783.556	13506.34
783.889	13460.92
784.223	13411.65
784.557	13437.87
784.89	13454.59
785.224	13402.61
785.557	13493.23
785.891	13420.92
786.224	13434.48
786.558	13428.83
786.891	13359.23
787.224	13377.76
787.557	13344.54
787.891	13217.08
788.224	13334.37
788.557	13311.32
788.89	13267.02
789.223	13356.51
789.556	13194.71
789.888	13234.71
790.221	13193.58
790.554	13140.25
790.887	13025.22
791.219	13085.11
791.552	13047.59
791.884	13030.19
792.217	13020.02
792.549	13027.71
792.882	12856.64
793.214	12797.88
793.546	12886.92
793.879	12848.5
794.211	12799.24
794.543	12832.23
794.875	12816.87
795.207	12843.98
795.539	12785.91
795.871	12771.22
796.203	12662.75
796.535	12598.34
796.867	12655.74
797.198	12665.46
797.53	12575.97
797.862	12508.63
798.193	12509.98
798.525	12386.37
798.856	12497.1
799.188	12338.01
799.519	12309.54
799.85	12237.67
800.182	12342.53
800.513	12340.49
800.844	12147.96
801.175	12258.46
801.506	12287.84
801.837	12121.07
802.168	12218.24
802.499	12164
802.83	12003.78
803.161	12069.99
803.491	12047.4
803.822	12023.44
804.153	11998.81
804.483	11878.81
804.814	11860.06
805.145	11839.26
805.475	11848.98
805.805	11779.15
806.136	11850.11
806.466	11801.75
806.796	11840.39
807.126	11695.77
807.457	11670
807.787	11709.1
808.117	11594.75
808.447	11570.57
808.777	11672.94
809.107	11584.36
809.436	11521.76
809.766	11518.6
810.096	11442.89
810.426	11420.52
810.755	11436.34
811.085	11488.54
811.414	11375.1
811.744	11341.88
812.073	11346.62
812.403	11383.01
812.732	11296.23
813.061	11340.52
813.39	11236.12
813.719	11211.03
814.049	11193.41
814.378	11181.2
814.707	11142.79
815.036	11179.85
815.365	11084.03
815.693	10971.27
816.022	11016.01
816.351	11039.51
816.68	10995.22
817.008	11034.77
817.337	10890.36
817.665	10855.11
817.994	10916.58
818.322	10959.51
818.651	10831.38
818.979	10899.4
819.307	10867.31
819.636	10915.9
819.964	10770.14
820.292	10761.78
820.62	10787.32
820.948	10723.36
821.276	10757.71
821.604	10753.64
821.932	10774.66
822.259	10742.57
822.587	10697.83
822.915	10731.05
823.243	10829.12
823.57	10722.01
823.898	10762.91
824.225	10721.55
824.553	10707.77
824.88	10714.1
825.207	10751.84
825.535	10737.6
825.862	10791.61
826.189	10714.1
826.516	10758.84
826.843	10776.02
827.17	10769.69
827.497	10728.33
827.824	10796.58
828.151	10781.67
828.478	10750.25
828.805	10812.85
829.131	10745.96
829.458	10679.97
829.785	10744.6
830.111	10695.79
830.438	10783.93
830.764	10788.9
831.09	10794.77
831.417	10718.16
831.743	10742.8
832.069	10777.82
832.395	10665.28
832.722	10733.08
833.048	10620.31
833.374	10713.87
833.7	10668.45
834.026	10597.26
834.351	10678.84
834.677	10615.79
835.003	10713.87
835.329	10646.53
835.654	10680.43
835.98	10597.94
836.306	10619.64
836.631	10545.29
836.956	10635.91
837.282	10566.76
837.607	10583.48
837.932	10552.29
838.258	10599.3
838.583	10574.67
838.908	10441.11
839.233	10456.25
839.558	10486.31
839.883	10393.43
840.208	10378.06
840.533	10431.84
840.858	10480.88
841.182	10403.6
841.507	10433.2
841.832	10308.46
842.156	10318.18
842.481	10277.27
842.805	10291.51
843.13	10315.24
843.454	10212.19
843.778	10187.56
844.103	10194.34
844.427	10188.91
844.751	10142.59
845.075	10149.14
845.399	10135.58
845.723	9996.15
846.047	10124.28
846.371	9965.42
846.695	9991.18
847.019	9912.54
847.343	9877.96
847.666	9843.39
847.99	9833.89
848.313	9795.93
848.637	9642.49
848.96	9692.43
849.284	9680.45
849.607	9637.06
849.931	9648.59
850.254	9576.27
850.577	9529.5
850.9	9440.01
851.223	9475.94
851.546	9383.28
851.869	9382.83
852.192	9323.85
852.515	9197.75
852.838	9276.39
853.161	9284.98
853.483	9202.05
853.806	9121.37
854.129	9131.09
854.451	9042.95
854.774	9042.28
855.096	9051.32
855.419	9011.32
855.741	8989.62
856.063	8882.28
856.385	8851.32
856.708	8894.94
857.03	8856.07
857.352	8860.36
857.674	8855.61
857.996	8786.69
858.318	8700.59
858.64	8781.72
858.961	8734.26
859.283	8662.4
859.605	8608.62
859.926	8728.39
860.248	8615.17
860.57	8587.83
860.891	8657.2
861.212	8572.01
861.534	8545.57
861.855	8534.27
862.176	8530.88
862.498	8560.48
862.819	8527.26
863.14	8434.38
863.461	8445.68
863.782	8410.65
864.103	8496.75
864.424	8463.31
864.745	8422.63
865.065	8344.67
865.386	8336.98
865.707	8368.62
866.027	8363.88
866.348	8364.1
866.668	8317.78
866.989	8325.46
867.309	8281.84
867.63	8301.5
867.95	8260.15
868.27	8186.03
868.59	8188.74
868.91	8192.13
869.23	8169.53
869.55	8132.47
869.87	8183.77
870.19	8190.55
870.51	8228.29
870.83	8180.38
871.15	8104.45
871.469	8089.53
871.789	8084.34
872.109	8071.68
872.428	8067.61
872.748	8099.7
873.067	8096.99
873.386	8065.13
873.706	8045.01
874.025	7989.2
874.344	8006.82
874.663	7957.56
874.982	7981.29
875.301	7987.84
875.62	7909.42
875.939	7935.19
876.258	7911.68
876.577	7936.99
876.896	7880.95
877.214	7848.86
877.533	7864
877.852	7873.72
878.17	7841.18
878.489	7817.45
878.807	7862.87
879.125	7791.01
879.444	7794.63
879.762	7802.08
880.08	7826.49
880.398	7726.38
880.716	7682.31
881.034	7701.07
881.352	7680.5
881.67	7714.18
881.988	7665.36
882.306	7624.01
882.624	7692.48
882.941	7546.72
883.259	7607.06
883.577	7600.05
883.894	7555.31
884.212	7587.4
884.529	7497.68
884.846	7487.97
885.164	7476.22
885.481	7478.02
885.798	7479.38
886.115	7475.76
886.432	7432.6
886.75	7386.5
887.067	7428.08
887.383	7422.88
887.7	7382.21
888.017	7365.26
888.334	7378.37
888.651	7325.03
888.967	7371.81
889.284	7340.17
889.6	7290.01
889.917	7212.95
890.233	7207.97
890.55	7195.32
890.866	7144.02
891.182	7110.8
891.498	7133.85
891.815	7097.47
892.131	7123.68
892.447	7070.12
892.763	7097.47
893.079	7076.23
893.395	7003.23
893.71	6968.43
894.026	6961.2
894.342	6930.47
894.657	6898.83
894.973	6933.41
895.289	6925.5
895.604	6868.55
895.92	6809.34
896.235	6751.49
896.55	6812.5
896.865	6719.85
897.181	6730.7
897.496	6773.18
897.811	6707.65
898.126	6659.51
898.441	6653.19
898.756	6643.24
899.071	6608.22
899.386	6592.17
899.7	6590.36
900.015	6542.91
900.33	6483.7
900.644	6458.16
900.959	6479.41
901.273	6467.43
901.588	6446.64
901.902	6418.84
902.216	6409.58
902.531	6361.67
902.845	6344.27
903.159	6339.52
903.473	6282.12
903.787	6271.73
904.101	6192.18
904.415	6270.82
904.729	6208.45
905.042	6167.1
905.356	6143.14
905.67	6158.06
905.984	6080.77
906.297	6068.8
906.611	6058.85
906.924	6075.8
907.237	6077.38
907.551	6008.91
907.864	6012.98
908.177	5947.22
908.491	5982.7
908.804	5933.66
909.117	5882.59
909.43	5830.61
909.743	5775.92
910.056	5829.71
910.368	5774.57
910.681	5735.47
910.994	5708.13
911.307	5746.09
911.619	5666.09
911.932	5698.86
912.244	5639.2
912.557	5627.9
912.869	5600.11
913.181	5541.58
913.494	5575.02
913.806	5524.18
914.118	5530.5
914.43	5477.4
914.742	5480.79
915.054	5465.42
915.366	5469.04
915.678	5436.27
915.99	5388.14
916.302	5317.85
916.613	5342.94
916.925	5345.2
917.236	5314.46
917.548	5272.21
917.859	5265.65
918.171	5256.16
918.482	5229.72
918.794	5245.99
919.105	5227.46
919.416	5167.8
919.727	5170.51
920.038	5103.4
920.349	5174.81
920.66	5106.56
920.971	5120.35
921.282	5032.89
921.593	5091.19
921.903	5017.98
922.214	4996.51
922.525	4987.92
922.835	4945.21
923.146	4922.84
923.456	4883.06
923.767	4886.91
924.077	4837.87
924.387	4844.19
924.697	4846.23
925.008	4762.16
925.318	4779.34
925.628	4832.9
925.938	4794.93
926.248	4709.73
926.558	4678.1
926.867	4705.89
927.177	4624.54
927.487	4649.85
927.796	4609.17
928.106	4642.84
928.416	4605.78
928.725	4569.4
929.034	4558.55
929.344	4539.57
929.653	4561.49
929.962	4531.21
930.271	4467.03
930.581	4481.49
930.89	4426.35
931.199	4434.94
931.508	4432.68
931.817	4382.74
932.125	4415.28
932.434	4409.86
932.743	4360.59
933.051	4315.17
933.36	4310.42
933.669	4315.17
933.977	4307.71
934.286	4314.04
934.594	4239.69
934.902	4185.23
935.21	4231.33
935.519	4238.79
935.827	4201.5
936.135	4207.38
936.443	4104.78
936.751	4134.61
937.059	4120.15
937.367	4086.47
937.674	4094.61
937.982	4039.02
938.29	4027.27
938.597	4032.46
938.905	4001.28
939.213	3946.59
939.52	3941.39
939.827	3967.38
940.135	3977.55
940.442	3931.22
940.749	3887.38
941.056	3932.81
941.363	3880.83
941.67	3797.67
941.977	3846.48
942.284	3853.26
942.591	3823.88
942.898	3807.61
943.205	3764
943.511	3770.55
943.818	3739.82
944.125	3751.79
944.431	3793.83
944.738	3707.5
945.044	3697.33
945.35	3633.38
945.657	3621.63
945.963	3639.71
946.269	3627.96
946.575	3606.94
946.881	3560.61
947.187	3580.05
947.493	3598.35
947.799	3545.47
948.105	3570.56
948.41	3534.85
948.716	3548.64
949.022	3505.25
949.327	3526.04
949.633	3440.62
949.938	3430.9
950.244	3441.52
950.549	3415.31
950.854	3443.78
951.16	3408.3
951.465	3374.4
951.77	3382.99
952.075	3333.95
952.38	3321.3
952.685	3349.09
952.99	3291.47
953.294	3293.95
953.599	3297.79
953.904	3241.75
954.209	3242.2
954.513	3235.2
954.818	3214.63
955.122	3250.56
955.426	3155.43
955.731	3160.17
956.035	3154.75
956.339	3128.31
956.643	3175.99
956.948	3133.28
957.252	3088.08
957.556	3119.95
957.86	3081.08
958.163	3080.17
958.467	3104.13
958.771	3100.06
959.075	3076.56
959.378	3062.77
959.682	3069.55
959.985	3011.47
960.289	2983
960.592	3006.73
960.896	2988.88
961.199	2977.13
961.502	2962.89
961.805	2936
962.108	2901.65
962.411	2903.45
962.714	2856.68
963.017	2894.64
963.32	2879.73
963.623	2868.65
963.926	2863.46
964.228	2849.9
964.531	2818.03
964.833	2805.38
965.136	2779.39
965.438	2798.82
965.741	2803.8
966.043	2778.71
966.345	2764.25
966.648	2757.7
966.95	2738.94
967.252	2745.04
967.554	2738.26
967.856	2687.64
968.158	2642.9
968.46	2682.67
968.761	2671.82
969.063	2638.15
969.365	2666.62
969.666	2629.56
969.968	2606.97
970.269	2606.51
970.571	2579.17
970.872	2595.89
971.174	2546.63
971.475	2579.85
971.776	2557.93
972.077	2564.93
972.378	2523.35
972.679	2525.61
972.98	2483.58
973.281	2511.37
973.582	2494.2
973.883	2488.1
974.183	2474.31
974.484	2463.69
974.785	2436.35
975.085	2448.55
975.386	2462.11
975.686	2443.35
975.986	2422.11
976.287	2406.29
976.587	2362.23
976.887	2386.63
977.187	2351.15
977.487	2369.23
977.787	2337.14
978.087	2346.63
978.387	2358.61
978.687	2350.7
978.987	2307.54
979.286	2300.08
979.586	2298.5
979.885	2298.27
980.185	2291.49
980.484	2256.92
980.784	2210.82
981.083	2216.47
981.382	2244.49
981.682	2234.32
981.981	2228.22
982.28	2230.48
982.579	2233.64
982.878	2171.72
983.177	2202
983.475	2177.6
983.774	2171.04
984.073	2153.64
984.372	2132.85
984.67	2137.15
984.969	2126.53
985.267	2113.64
985.566	2122.91
985.864	2089.01
986.162	2106.19
986.461	2055.57
986.759	2068.45
987.057	2059.41
987.355	2038.84
987.653	2039.07
987.951	2024.38
988.249	2022.35
988.547	1975.34
988.844	2011.5
989.142	2002.69
989.44	2008.79
989.737	2006.08
990.035	1985.29
990.332	1972.41
990.63	1965.85
990.927	1958.17
991.224	1952.75
991.521	1959.07
991.819	1969.69
992.116	1908.23
992.413	1937.38
992.71	1879.75
993.006	1854.22
993.303	1859.87
993.6	1874.33
993.897	1870.04
994.193	1845.63
994.49	1849.02
994.787	1844.5
995.083	1808.12
995.379	1823.26
995.676	1794.33
995.972	1836.14
996.268	1812.64
996.565	1775.8
996.861	1768.12
997.157	1753.88
997.453	1763.37
997.749	1755.91
998.044	1701.45
998.34	1746.87
998.636	1723.37
998.932	1729.93
999.227	1715.01
999.523	1680.89
999.818	1685.86
1000.114	1686.54
1000.409	1670.72
1000.704	1677.72
1001	1657.16
1001.295	1643.37
1001.59	1648.57
1001.885	1634.11
1002.18	1624.17
1002.475	1596.14
1002.77	1636.14
1003.065	1586.2
1003.359	1592.75
1003.654	1588.01
1003.949	1537.16
1004.243	1605.18
1004.538	1567.67
1004.832	1558.86
1005.127	1536.49
1005.421	1540.1
1005.715	1540.78
1006.009	1509.37
1006.304	1514.56
1006.598	1501.23
1006.892	1468.92
1007.186	1489.48
1007.48	1465.07
1007.773	1483.38
1008.067	1478.41
1008.361	1490.84
1008.655	1457.17
1008.948	1437.05
1009.242	1457.17
1009.535	1445.64
1009.829	1429.14
1010.122	1397.96
1010.415	1414.23
1010.708	1420.1
1011.001	1385.53
1011.295	1358.41
1011.588	1386.88
1011.881	1356.15
1012.173	1348.47
1012.466	1360.22
1012.759	1345.53
1013.052	1330.61
1013.344	1344.63
1013.637	1327.9
1013.93	1343.04
1014.222	1297.85
1014.514	1315.7
1014.807	1305.08
1015.099	1305.08
1015.391	1274.12
1015.683	1261.46
1015.976	1251.52
1016.268	1272.31
1016.56	1241.35
1016.851	1241.58
1017.143	1254.01
1017.435	1210.84
1017.727	1232.09
1018.018	1223.05
1018.31	1206.55
1018.602	1217.85
1018.893	1230.96
1019.185	1201.8
1019.476	1179.66
1019.767	1177.85
1020.058	1148.7
1020.35	1181.92
1020.641	1187.79
1020.932	1120.22
1021.223	1127.91
1021.514	1119.32
1021.804	1102.15
1022.095	1120.9
1022.386	1119.55
1022.677	1122.48
1022.967	1099.66
1023.258	1073.22
1023.548	1078.42
1023.839	1091.07
1024.129	1099.43
1024.419	1066.21
1024.709	1070.73
1025	1051.75
1025.29	1054.46
1025.58	1039.1
1025.87	1043.62
1026.16	1035.93
1026.449	1019.66
1026.739	1013.56
1027.029	1033.9
1027.319	983.73
1027.608	1007.01
1027.898	971.3
1028.187	972.88
1028.477	974.92
1028.766	966.33
1029.055	973.34
1029.344	977.4
1029.634	951.42
1029.923	956.84
1030.212	953.9
1030.501	933.56
1030.79	947.12
1031.078	926.33
1031.367	915.26
1031.656	929.95
1031.945	924.07
1032.233	891.53
1032.522	924.52
1032.81	897.86
1033.099	897.18
1033.387	887.69
1033.675	887.69
1033.963	903.06
1034.251	866.9
1034.54	875.26
1034.828	866.67
1035.116	861.25
1035.403	858.99
1035.691	839.78
1035.979	849.95
1036.267	839.33
1036.554	826.9
1036.842	819.44
1037.129	796.39
1037.417	807.01
1037.704	789.16
1037.992	793.91
1038.279	797.97
1038.566	792.32
1038.853	792.32
1039.14	792.32
