Data from hue_120_FLMS001491_00073.txt Node
Date: Tue Feb 07 16:59:57 GMT 2017
User: dcchb
Spectrometer: FLMS00149
Trigger mode: 0
Integration Time (sec): 2.000000E-2
Scans to average: 10
Electric dark correction enabled: true
Nonlinearity correction enabled: false
Boxcar width: 0
XAxis mode: Wavelengths
Number of Pixels in Spectrum: 2048
>>>>>Begin Spectral Data<<<<<
341.393	2.66
341.776	2.66
342.16	2.66
342.543	-63.78
342.927	-65.59
343.31	-64.24
343.693	-61.52
344.077	-71.92
344.46	-52.48
344.843	-63.33
345.226	-36.21
345.61	-31.47
345.993	-24.91
346.376	-23.33
346.759	4.69
347.142	5.37
347.525	41.52
347.908	69.55
348.291	77.91
348.674	102.54
349.057	127.85
349.44	121.07
349.823	150.67
350.206	165.59
350.588	216.89
350.971	197.9
351.354	220.5
351.737	268.86
352.119	258.47
352.502	271.12
352.884	250.33
353.267	297.34
353.65	299.6
354.032	315.64
354.414	306.83
354.797	326.04
355.179	326.71
355.562	317.22
355.944	341.86
356.326	332.36
356.709	321.07
357.091	357.9
357.473	359.26
357.855	346.83
358.238	340.5
358.62	350.89
359.002	360.61
359.384	363.1
359.766	348.18
360.148	347.5
360.53	336.66
360.912	345.25
361.294	339.37
361.676	327.62
362.057	331.23
362.439	339.14
362.821	325.81
363.203	324.23
363.584	318.81
363.966	333.49
364.348	338.92
364.729	323.78
365.111	321.07
365.493	342.31
365.874	318.35
366.256	297.34
366.637	328.3
367.019	313.83
367.4	311.12
367.781	310.44
368.163	328.07
368.544	327.17
368.925	327.39
369.306	335.08
369.688	314.51
370.069	300.95
370.45	317.68
370.831	333.72
371.212	316.77
371.593	312.48
371.974	345.7
372.355	304.57
372.736	326.04
373.117	338.92
373.498	325.13
373.879	329.65
374.26	324
374.641	323.32
375.021	327.17
375.402	310.44
375.783	343.21
376.163	349.09
376.544	331.46
376.925	353.61
377.305	344.12
377.686	331.91
378.066	338.01
378.447	335.08
378.827	327.84
379.208	342.31
379.588	335.75
379.968	345.47
380.349	336.88
380.729	340.27
381.109	336.21
381.489	349.76
381.87	355.87
382.25	369.65
382.63	376.88
383.01	351.57
383.39	354.06
383.77	365.58
384.15	350.22
384.53	363.1
384.91	356.77
385.29	354.28
385.67	366.94
386.049	367.84
386.429	383.89
386.809	356.09
387.189	365.58
387.568	361.74
387.948	351.8
388.328	365.58
388.707	373.27
389.087	382.76
389.466	374.85
389.846	354.51
390.225	392.93
390.605	396.32
390.984	408.07
391.363	378.46
391.743	408.29
392.122	389.54
392.501	365.13
392.881	383.21
393.26	402.42
393.639	390.44
394.018	394.28
394.397	383.44
394.776	411.01
395.155	404.9
395.534	400.38
395.913	416.66
396.292	420.5
396.671	384.11
397.05	406.03
397.429	404.68
397.808	411.91
398.186	404.23
398.565	403.32
398.944	406.03
399.323	435.86
399.701	384.11
400.08	414.62
400.458	423.89
400.837	420.5
401.215	397
401.594	421.85
401.972	419.82
402.351	445.36
402.729	426.6
403.107	430.89
403.486	438.12
403.864	433.15
404.242	430.44
404.62	425.47
404.999	456.43
405.377	457.11
405.755	476.32
406.133	472.02
406.511	475.41
406.889	448.75
407.267	455.98
407.645	465.47
408.023	461.17
408.401	457.78
408.779	477.9
409.156	448.52
409.534	498.46
409.912	469.31
410.29	498.69
410.667	498.01
411.045	505.92
411.422	489.2
411.8	498.01
412.178	512.25
412.555	516.54
412.933	494.85
413.31	494.62
413.687	528.74
414.065	516.77
414.442	514.05
414.819	525.81
415.197	554.51
415.574	521.74
415.951	534.17
416.328	545.24
416.705	553.15
417.082	540.27
417.46	539.59
417.837	555.86
418.214	565.8
418.591	553.6
418.967	554.51
419.344	549.99
419.721	573.94
420.098	562.19
420.475	601.96
420.852	579.14
421.228	583.43
421.605	614.16
421.982	570.78
422.358	583.66
422.735	593.37
423.111	592.7
423.488	613.03
423.864	616.42
424.241	607.16
424.617	611.68
424.994	638.8
425.37	619.36
425.746	628.4
426.123	630.89
426.499	637.44
426.875	647.61
427.251	675.63
427.627	662.07
428.003	634.96
428.379	682.41
428.756	676.54
429.132	663.65
429.507	692.81
429.883	684.67
430.259	711.11
430.635	715.63
431.011	720.83
431.387	721.96
431.763	714.95
432.138	731.68
432.514	728.96
432.89	751.11
433.265	740.49
433.641	764.67
434.016	792.24
434.392	782.07
434.767	768.28
435.143	778
435.518	801.73
435.894	808.74
436.269	808.06
436.644	811.67
437.02	812.58
437.395	829.07
437.77	844.67
438.145	862.29
438.52	842.41
438.895	880.15
439.271	863.65
439.646	886.7
440.021	838.57
440.395	870.88
440.77	894.16
441.145	875.4
441.52	896.42
441.895	875.4
442.27	924.66
442.645	909.75
443.019	900.71
443.394	932.57
443.769	955.62
444.143	911.33
444.518	961.5
444.892	959.92
445.267	947.94
445.641	970.09
446.016	962.18
446.39	958.56
446.764	969.64
447.139	961.05
447.513	979.8
447.887	992.91
448.262	994.72
448.636	991.56
449.01	994.49
449.384	1013.48
449.758	1022.06
450.132	1066.81
450.506	1030.88
450.88	1037.88
451.254	1062.97
451.628	1062.29
452.002	1060.93
452.376	1093.02
452.75	1110.42
453.123	1092.12
453.497	1117.65
453.871	1142.06
454.244	1158.78
454.618	1143.19
454.992	1156.98
455.365	1192
455.739	1199.46
456.112	1214.6
456.486	1232.23
456.859	1218.44
457.232	1289.18
457.606	1241.72
457.979	1248.95
458.352	1278.1
458.725	1316.75
459.099	1325.11
459.472	1365.56
459.845	1342.51
460.218	1350.87
460.591	1416.18
460.964	1400.81
461.337	1416.4
461.71	1440.13
462.083	1459.34
462.456	1448.27
462.829	1474.48
463.201	1507.7
463.574	1524.2
463.947	1531.88
464.32	1543.63
464.692	1584.53
465.065	1585.89
465.438	1620.69
465.81	1666.79
466.183	1680.13
466.555	1740.24
466.928	1711.54
467.3	1724.87
467.672	1766
468.045	1788.82
468.417	1824.53
468.789	1822.72
469.161	1885.09
469.534	1883.28
469.906	1937.07
470.278	1997.86
470.65	2000.12
471.022	2055.48
471.394	2098.87
471.766	2098.87
472.138	2185.65
472.51	2213.44
472.882	2223.84
473.253	2242.37
473.625	2315.59
473.997	2383.61
474.369	2405.08
474.74	2454.79
475.112	2545.87
475.484	2597.84
475.855	2643.49
476.227	2684.17
476.598	2790.6
476.97	2841.68
477.341	2892.52
477.713	2966.65
478.084	3042.12
478.455	3147.21
478.827	3186.53
479.198	3321.89
479.569	3353.75
479.94	3455.45
480.311	3510.81
480.682	3611.83
481.053	3770.01
481.424	3862.21
481.795	3938.37
482.166	4016.79
482.537	4146.73
482.908	4232.6
483.279	4356.89
483.65	4490.45
484.021	4599.37
484.391	4695.41
484.762	4811.34
485.133	4894.96
485.503	4992.81
485.874	5157.1
486.244	5333.36
486.615	5455.85
486.985	5569.29
487.356	5739
487.726	5799.11
488.097	6054.02
488.467	6074.36
488.837	6261.02
489.207	6390.28
489.578	6578.08
489.948	6725.42
490.318	6886.99
490.688	6951.4
491.058	7155.01
491.428	7292.18
491.798	7416.47
492.168	7667.76
492.538	7761.55
492.908	7981.2
493.278	8028.66
493.648	8175.55
494.017	8359.05
494.387	8491.92
494.757	8578.48
495.126	8689.43
495.496	8883.55
495.866	8976.66
496.235	9095.98
496.605	9245.8
496.974	9411.22
497.344	9554.49
497.713	9706.13
498.082	9778.44
498.452	9972.56
498.821	10016.4
499.19	10072.67
499.559	10244.42
499.928	10425.88
500.298	10495.26
500.667	10558.08
501.036	10687.8
501.405	10827
501.774	10877.4
502.143	11065.42
502.512	11154
502.88	11203.49
503.249	11288.23
503.618	11417.27
503.987	11450.04
504.356	11564.61
504.724	11706.53
505.093	11771.16
505.462	11797.37
505.83	11921.66
506.199	11969.57
506.567	12254.54
506.936	12146.29
507.304	12386.96
507.672	12372.27
508.041	12453.85
508.409	12633.74
508.777	12677.12
509.145	12754.18
509.514	12790.12
509.882	12870.79
510.25	12942.65
510.618	13015.42
510.986	13008.64
511.354	13145.81
511.722	13226.49
512.09	13294.28
512.458	13341.74
512.826	13444.56
513.193	13512.58
513.561	13636.2
513.929	13595.07
514.297	13692.69
514.664	13767.04
515.032	13816.53
515.4	13846.59
515.767	13926.58
516.135	13963.64
516.502	13769.98
516.869	14127.71
517.237	14132.68
517.604	14102.17
517.972	14167.93
518.339	14218.33
518.706	14293.13
519.073	14194.37
519.44	14421.94
519.808	14441.6
520.175	14483.18
520.542	14574.25
520.909	14548.04
521.276	14485.44
521.643	14607.7
522.009	14682.04
522.376	14858.99
522.743	14767.24
523.11	14886.78
523.477	14961.13
523.843	14974.01
524.21	15112.54
524.577	15155.03
524.943	15269.15
525.31	15185.53
525.676	15300.78
526.043	15314.34
526.409	15426.66
526.776	15323.61
527.142	15343.04
527.508	15472.76
527.874	15524.28
528.241	15473.43
528.607	15446.32
528.973	15563.15
529.339	15489.71
529.705	15558.4
530.071	15662.58
530.437	15627.33
530.803	15664.62
531.169	15736.03
531.535	15689.93
531.901	15550.5
532.267	15651.74
532.632	15635.24
532.998	15665.52
533.364	15697.84
533.73	15707.78
534.095	15784.84
534.461	15689.25
534.826	15717.27
535.192	15668.46
535.557	15734.22
535.923	15737.83
536.288	15695.58
536.653	15658.06
537.019	15499.65
537.384	15633.43
537.749	15611.28
538.114	15545.75
538.479	15537.84
538.845	15689.02
539.21	15446.99
539.575	15559.08
539.94	15471.85
540.305	15528.8
540.67	15443.15
541.034	15392.31
541.399	15466.2
541.764	15464.17
542.129	15376.71
542.494	15409.26
542.858	15407.45
543.223	15380.1
543.587	15330.39
543.952	15287
544.316	15249.26
544.681	15164.52
545.045	15162.93
545.41	15190.73
545.774	15202.93
546.138	15099.66
546.503	15115.7
546.867	15034.12
547.231	15103.05
547.595	15078.87
547.959	15142.37
548.324	14992.54
548.688	14905.09
549.052	14941.02
549.416	14938.08
549.779	14995.03
550.143	14731.53
550.507	14868.25
550.871	14873
551.235	14783.06
551.599	14944.86
551.962	14764.08
552.326	14761.36
552.689	14788.71
553.053	14676.39
553.417	14695.38
553.78	14744.87
554.143	14607.02
554.507	14617.86
554.87	14679.11
555.234	14722.95
555.597	14662.83
555.96	14657.41
556.323	14647.02
556.686	14551.65
557.05	14597.75
557.413	14638.43
557.776	14630.52
558.139	14647.92
558.502	14662.38
558.865	14584.42
559.228	14601.59
559.59	14600.92
559.953	14605.21
560.316	14745.77
560.679	14656.51
561.041	14655.83
561.404	14697.86
561.767	14715.49
562.129	14609.5
562.492	14771.76
562.854	14708.94
563.217	14616.73
563.579	14768.59
563.941	14887.24
564.304	14833.9
564.666	14843.85
565.028	14776.5
565.39	14826.22
565.753	14826.9
566.115	14911.64
566.477	14960
566.839	14886.33
567.201	14990.51
567.563	14902.6
567.925	15086.1
568.287	15035.48
568.648	14950.51
569.01	14997.52
569.372	15073.9
569.734	15040.68
570.095	15116.16
570.457	15115.7
570.819	15119.32
571.18	15163.84
571.542	15211.75
571.903	15146.89
572.265	15233.22
572.626	15239.54
572.987	15210.39
573.349	15201.35
573.71	15294.68
574.071	15245.19
574.432	15341.01
574.794	15328.58
575.155	15334
575.516	15327.9
575.877	15373.55
576.238	15377.84
576.599	15459.88
576.96	15358.64
577.32	15413.78
577.681	15485.41
578.042	15432.08
578.403	15432.08
578.763	15417.39
579.124	15463.72
579.485	15508.91
579.845	15476.6
580.206	15490.38
580.566	15437.5
580.927	15463.27
581.287	15488.58
581.648	15447.67
582.008	15447.67
582.368	15454.45
582.728	15405.19
583.089	15497.16
583.449	15442.25
583.809	15412.65
584.169	15461.23
584.529	15488.35
584.889	15512.3
585.249	15481.34
585.609	15428.92
585.969	15488.58
586.329	15368.35
586.688	15413.55
587.048	15363.16
587.408	15392.99
587.768	15347.79
588.127	15273.21
588.487	15302.59
588.846	15401.35
589.206	15302.14
589.565	15277.06
589.925	15348.47
590.284	15287.45
590.643	15323.38
591.003	15303.27
591.362	15305.3
591.721	15284.29
592.08	15310.05
592.44	15302.14
592.799	15261.69
593.158	15342.59
593.517	15279.77
593.876	15363.38
594.235	15235.25
594.593	15267.79
594.952	15253.55
595.311	15246.77
595.67	15285.19
596.029	15338.75
596.387	15372.19
596.746	15331.74
597.104	15241.58
597.463	15258.07
597.822	15265.53
598.18	15252.65
598.538	15178.08
598.897	15283.61
599.255	15084.97
599.613	15349.82
599.972	15214.91
600.33	15298.52
600.688	15204.52
601.046	15268.69
601.404	15369.26
601.762	15230.73
602.12	15250.39
602.478	15234.57
602.836	15246.1
603.194	15234.57
603.552	15283.38
603.91	15155.93
604.268	15191.63
604.625	15148.02
604.983	15195.48
605.341	15134.23
605.698	15262.14
606.056	15349.37
606.413	15307.56
606.771	15292.2
607.128	15308.92
607.485	15257.85
607.843	15235.7
608.2	15352.08
608.557	15380.1
608.914	15331.07
609.272	15470.5
609.629	15427.33
609.986	15491.29
610.343	15469.82
610.7	15567.9
611.057	15489.25
611.414	15472.08
611.771	15510.27
612.127	15493.32
612.484	15552.3
612.841	15530.61
613.198	15543.94
613.554	15395.47
613.911	15613.32
614.267	15530.61
614.624	15587.1
614.98	15522.47
615.337	15653.32
615.693	15642.47
616.05	15559.53
616.406	15689.7
616.762	15627.1
617.118	15683.6
617.475	15728.12
617.831	15644.05
618.187	15733.54
618.543	15667.78
618.899	15732.19
619.255	15703.03
619.611	15815.35
619.967	15746.87
620.323	15859.64
620.678	15744.16
621.034	15721.11
621.39	15655.58
621.746	15717.5
622.101	15869.13
622.457	15794.33
622.812	15809.7
623.168	15838.85
623.523	15772.41
623.879	15848.11
624.234	15702.36
624.589	15784.39
624.945	15822.13
625.3	15864.84
625.655	15867.77
626.01	15769.25
626.365	15837.04
626.72	15867.55
627.075	15768.34
627.43	15702.81
627.785	15748.91
628.14	15806.76
628.495	15772.41
628.85	15731.96
629.205	15630.94
629.559	15764.95
629.914	15732.19
630.269	15681.79
630.623	15595.92
630.978	15673.2
631.332	15676.14
631.687	15743.71
632.041	15630.72
632.396	15643.15
632.75	15634.56
633.104	15639.08
633.459	15488.58
633.813	15559.31
634.167	15552.3
634.521	15512.08
634.875	15582.81
635.229	15562.02
635.583	15453.77
635.937	15439.99
636.291	15454.9
636.645	15385.08
636.999	15386.21
637.352	15379.65
637.706	15256.27
638.06	15368.35
638.413	15362.7
638.767	15313.21
639.121	15331.29
639.474	15221.24
639.828	15262.82
640.181	15245.64
640.534	15268.92
640.888	15235.48
641.241	15157.96
641.594	15254.46
641.947	15132.2
642.301	15060.34
642.654	15103.28
643.007	15086.33
643.36	15155.7
643.713	15142.14
644.066	15196.38
644.419	15090.17
644.771	15020.11
645.124	14922.26
645.477	14819.44
645.83	14762.72
646.182	14746.45
646.535	14597.07
646.888	14649.95
647.24	14499.45
647.593	14599.11
647.945	14599.56
648.298	14480.24
648.65	14509.17
649.002	14465.1
649.355	14571.31
649.707	14444.08
650.059	14691.08
650.411	14797.52
650.763	14939.89
651.115	14998.87
651.467	14930.17
651.819	14892.43
652.171	14869.61
652.523	14818.99
652.875	14867.58
653.227	14845.2
653.578	14955.26
653.93	14947.8
654.282	14934.24
654.633	14751.87
654.985	14841.36
655.337	14876.16
655.688	14937.63
656.039	14955.71
656.391	14864.19
656.742	14863.96
657.094	14905.99
657.445	14856.05
657.796	14921.59
658.147	14848.14
658.498	14846.11
658.849	14949.61
659.2	14875.26
659.551	14841.59
659.902	14899.89
660.253	14913.9
660.604	14873.22
660.955	14850.17
661.306	14905.99
661.656	14968.36
662.007	14940.12
662.358	14880.91
662.708	14881.13
663.059	14905.09
663.409	14815.83
663.76	14936.5
664.11	14893.79
664.461	14970.85
664.811	14934.24
665.161	14908.03
665.511	14817.41
665.862	14851.98
666.212	14936.95
666.562	14953.22
666.912	14892.66
667.262	14917.07
667.612	14879.1
667.962	14869.38
668.312	14876.84
668.662	14944.18
669.011	14883.85
669.361	14856.28
669.711	14887.69
670.06	14847.24
670.41	14815.37
670.76	14797.52
671.109	14861.93
671.459	14844.07
671.808	14800.91
672.157	14855.6
672.507	14677.52
672.856	14763.62
673.205	14742.83
673.554	14816.28
673.904	14772.89
674.253	14841.36
674.602	14698.77
674.951	14505.78
675.3	14513.91
675.649	14682.72
675.998	14658.09
676.346	14631.42
676.695	14772.89
677.044	14531.76
677.393	14613.34
677.741	14625.1
678.09	14595.49
678.438	14561.14
678.787	14622.16
679.135	14595.49
679.484	14517.3
679.832	14521.14
680.181	14454.48
680.529	14471.65
680.877	14401.6
681.225	14394.14
681.573	14535.38
681.922	14405.44
682.27	14335.39
682.618	14433.91
682.966	14394.82
683.314	14327.02
683.661	14274.82
684.009	14164.99
684.357	14207.25
684.705	14160.25
685.053	14186.24
685.4	14074.15
685.748	14113.02
686.095	14006.13
686.443	14003.42
686.79	13957.09
687.138	14000.93
687.485	14054.94
687.832	13978.33
688.18	13928.62
688.527	13827.6
688.874	13826.25
689.221	13854.49
689.568	13736.31
689.915	13693.14
690.262	13701.05
690.609	13629.64
690.956	13654.05
691.303	13571.11
691.65	13556.88
691.997	13490.21
692.344	13433.04
692.69	13378.57
693.037	13447.95
693.383	13298.35
693.73	13283.89
694.077	13218.35
694.423	13187.39
694.769	13171.35
695.116	13158.02
695.462	13087.51
695.808	13054.52
696.155	12984.01
696.501	12955.76
696.847	12913.05
697.193	12823.56
697.539	12867.18
697.885	12744.24
698.231	12641.42
698.577	12690.01
698.923	12634.87
699.269	12621.08
699.614	12495.21
699.96	12517.81
700.306	12499.28
700.651	12392.16
700.997	12430.35
701.342	12395.78
701.688	12350.81
702.033	12306.29
702.379	12178.15
702.724	12223.12
703.069	12248.21
703.415	12084.37
703.76	12017.25
704.105	12044.6
704.45	12038.5
704.795	11927.31
705.14	11939.97
705.485	11903.59
705.83	11806.64
706.175	11820.65
706.52	11754.66
706.865	11770.48
707.209	11720.77
707.554	11667.89
707.899	11657.26
708.243	11570.71
708.588	11528.45
708.932	11515.12
709.277	11594.89
709.621	11468.34
709.966	11416.82
710.31	11458.4
710.654	11341.34
710.998	11311.06
711.342	11399.64
711.687	11326.88
712.031	11268.57
712.375	11196.49
712.719	11300.66
713.063	11274
713.407	11252.98
713.75	11194.68
714.094	11105.41
714.438	11078.52
714.782	11140.89
715.125	11094.34
715.469	11058.86
715.812	11026.09
716.156	11005.98
716.499	10945.87
716.843	10948.58
717.186	10881.01
717.53	10955.81
717.873	10959.66
718.216	10872.43
718.559	10795.14
718.902	10738.64
719.246	10903.16
719.589	10838.98
719.932	10737.06
720.275	10805.08
720.617	10844.86
720.96	10723.73
721.303	10680.57
721.646	10815.93
721.989	10643.73
722.331	10761.24
722.674	10644.41
723.016	10692.32
723.359	10657.29
723.701	10718.98
724.044	10682.6
724.386	10537.29
724.729	10645.31
725.071	10546.11
725.413	10554.92
725.755	10609.38
726.097	10488.48
726.439	10520.34
726.782	10558.31
727.124	10577.29
727.465	10503.4
727.807	10562.38
728.149	10557.86
728.491	10529.16
728.833	10477.18
729.175	10458.43
729.516	10529.38
729.858	10484.87
730.199	10419.78
730.541	10482.61
730.882	10487.8
731.224	10483.74
731.565	10379.11
731.906	10429.73
732.248	10424.98
732.589	10347.69
732.93	10324.64
733.271	10380.91
733.612	10336.62
733.953	10424.75
734.294	10292.1
734.635	10384.98
734.976	10378.65
735.317	10291.2
735.658	10329.16
735.999	10327.36
736.339	10337.07
736.68	10432.66
737.021	10381.82
737.361	10317.41
737.702	10403.96
738.042	10385.89
738.383	10340.24
738.723	10370.07
739.063	10308.37
739.404	10370.52
739.744	10384.76
740.084	10366.9
740.424	10411.65
740.764	10336.17
741.104	10474.92
741.444	10389.95
741.784	10405.32
742.124	10485.54
742.464	10422.27
742.804	10482.83
743.143	10465.43
743.483	10521.93
743.823	10433.79
744.162	10577.29
744.502	10565.32
744.841	10532.32
745.181	10659.32
745.52	10599.44
745.86	10683.73
746.199	10722.37
746.538	10713.11
746.877	10844.4
747.216	10818.87
747.556	10884.86
747.895	10977.73
748.234	10946.77
748.573	11045.08
748.911	11138.18
749.25	11161.68
749.589	11179.54
749.928	11296.6
750.267	11370.27
750.605	11442.13
750.944	11412.3
751.283	11521.22
751.621	11624.72
751.96	11645.29
752.298	11723.93
752.636	11871.5
752.975	11937.48
753.313	12120.75
753.651	12179.28
753.989	12256.57
754.327	12295.44
754.666	12470.8
755.004	12607.97
755.342	12699.27
755.679	12875.54
756.017	12937.23
756.355	13161.63
756.693	13200.73
757.031	13363.89
757.368	13406.82
757.706	13642.3
758.044	13727.49
758.381	13923.19
758.719	13990.08
759.056	14262.62
759.394	14336.06
759.731	14397.53
760.068	14605.66
760.405	14735.15
760.743	14864.64
761.08	15137.62
761.417	15222.14
761.754	15287.9
762.091	15557.5
762.428	15750.72
762.765	15879.98
763.102	16024.15
763.438	16104.15
763.775	16282
764.112	16496.01
764.449	16802.67
764.785	16853.51
765.122	16905.26
765.458	17082.21
765.795	17139.15
766.131	17297.79
766.467	17590.89
766.804	17613.72
767.14	17773.71
767.476	17928.06
767.812	17994.95
768.148	18162.86
768.485	18149.07
768.821	18314.72
769.157	18406.47
769.492	18639.45
769.828	18678.1
770.164	18670.64
770.5	18776.62
770.836	18974.81
771.171	18966
771.507	19128.03
771.842	19000.8
772.178	19238.99
772.513	19277.85
772.849	19427.91
773.184	19520.79
773.519	19560.79
773.855	19585.19
774.19	19651.86
774.525	19721.91
774.86	19810.04
775.195	19788.58
775.53	19868.35
775.865	19814.56
776.2	19836.94
776.535	19775.69
776.87	19879.19
777.205	19870.61
777.539	20000.1
777.874	20064.27
778.209	19885.3
778.543	20067.89
778.878	19980.21
779.212	20067.89
779.547	20049.13
779.881	20128
780.215	20058.63
780.55	20205.74
780.884	20052.75
781.218	20064.95
781.552	20124.16
781.886	20088.23
782.22	20007.78
782.554	19984.73
782.888	19899.99
783.222	19941.57
783.556	19858.86
783.889	19825.41
784.223	19919.87
784.557	19820.21
784.89	19845.52
785.224	19718.07
785.557	19812.98
785.891	19805.07
786.224	19769.37
786.558	19717.39
786.891	19709.93
787.224	19679.88
787.557	19693.66
787.891	19632.65
788.224	19608.69
788.557	19607.56
788.89	19605.08
789.223	19493.44
789.556	19454.57
789.888	19499.77
790.221	19415.7
790.554	19306.78
790.887	19324.86
791.219	19239.66
791.552	19268.59
791.884	19091.19
792.217	19282.37
792.549	19130.97
792.882	19055.26
793.214	18992.66
793.546	19008.03
793.879	18930.29
794.211	18810.07
794.543	19028.6
794.875	18826.34
795.207	18955.83
795.539	18809.62
795.871	18820.01
796.203	18663.41
796.535	18540.92
796.867	18564.2
797.198	18526.01
797.53	18535.5
797.862	18438.33
798.193	18446.46
798.525	18338.67
798.856	18400.59
799.188	18206.92
799.519	18223.87
799.85	18040.37
800.182	18108.17
800.513	18161.27
800.844	18146.81
801.175	18099.58
801.506	18103.87
801.837	17956.31
802.168	17909.53
802.499	17913.82
802.83	17809.42
803.161	17823.2
803.491	17774.84
803.822	17706.82
804.153	17632.47
804.483	17524.45
804.814	17539.82
805.145	17461.86
805.475	17405.59
805.805	17433.38
806.136	17440.16
806.466	17414.63
806.796	17367.62
807.126	17229.32
807.457	17230.45
807.787	17139.15
808.117	17121.98
808.447	17105.48
808.777	17118.14
809.107	16989.1
809.436	16998.59
809.766	16921.76
810.096	16963.11
810.426	16805.38
810.755	16849.44
811.085	16833.85
811.414	16764.25
811.744	16687.41
812.073	16706.17
812.403	16689.45
812.732	16555.44
813.061	16561.09
813.39	16470.02
813.719	16380.08
814.049	16556.57
814.378	16480.64
814.707	16366.74
815.036	16450.36
815.365	16313.86
815.693	16237.93
816.022	16253.75
816.351	16195.68
816.68	16152.06
817.008	16228.44
817.337	16022.35
817.665	15954.55
817.994	16086.3
818.322	16060.54
818.651	15877.04
818.979	15882.69
819.307	15989.81
819.636	15920.65
819.964	15850.83
820.292	15897.83
820.62	15877.27
820.948	15844.05
821.276	15848.57
821.604	15778.29
821.932	15809.92
822.259	15880.66
822.587	15825.52
822.915	15743.26
823.243	15857.15
823.57	15838.4
823.898	15863.03
824.225	15712.07
824.553	15808.57
824.88	15797.49
825.207	15806.76
825.535	15849.7
825.862	15749.81
826.189	15821.22
826.516	15802.24
826.843	15895.34
827.17	15848.34
827.497	15873.65
827.824	15769.47
828.151	15801.11
828.478	15745.07
828.805	15891.5
829.131	15756.14
829.458	15685.41
829.785	15680.66
830.111	15748.46
830.438	15806.53
830.764	15809.92
831.09	15854.89
831.417	15706.65
831.743	15689.93
832.069	15836.36
832.395	15675.69
832.722	15768.57
833.048	15648.57
833.374	15725.63
833.7	15650.15
834.026	15707.55
834.351	15671.4
834.677	15611.74
835.003	15655.8
835.329	15649.93
835.654	15591.62
835.98	15577.39
836.306	15485.86
836.631	15533.55
836.956	15656.26
837.282	15616.71
837.607	15491.97
837.932	15506.88
838.258	15578.52
838.583	15482.47
838.908	15307.79
839.233	15449.48
839.558	15323.16
839.883	15298.07
840.208	15260.79
840.533	15271.18
840.858	15203.61
841.182	15233.67
841.507	15200.45
841.832	15100.56
842.156	15149.6
842.481	15107.57
842.805	15054.69
843.13	15086.33
843.454	15011.53
843.778	14907.35
844.103	14892.89
844.427	14925.88
844.751	14873.22
845.075	14791.19
845.399	14761.82
845.723	14802.27
846.047	14699.44
846.371	14660.12
846.695	14601.37
847.019	14467.59
847.343	14482.05
847.666	14356.63
847.99	14296.52
848.313	14340.36
848.637	14152.57
848.96	14141.94
849.284	14160.93
849.607	14018.78
849.931	13996.64
850.254	13881.16
850.577	13819.92
850.9	13818.34
851.223	13775.85
851.546	13713.26
851.869	13572.24
852.192	13687.27
852.515	13525.01
852.838	13566.59
853.161	13438.69
853.483	13446.37
853.806	13388.29
854.129	13390.33
854.451	13300.84
854.774	13257.22
855.096	13175.87
855.419	13188.52
855.741	13085.02
856.063	13084.8
856.385	13048.64
856.708	12991.24
857.03	12958.02
857.352	12904.91
857.674	12897.68
857.996	12861.3
858.318	12744.92
858.64	12787.4
858.961	12705.82
859.283	12694.3
859.605	12572.95
859.926	12656.11
860.248	12584.02
860.57	12508.99
860.891	12573.4
861.212	12461.08
861.534	12437.58
861.855	12353.97
862.176	12413.85
862.498	12446.4
862.819	12406.85
863.14	12294.99
863.461	12291.82
863.782	12257.47
864.103	12252.5
864.424	12238.72
864.745	12289.34
865.065	12193.52
865.386	12153.3
865.707	12070.13
866.027	12089.57
866.348	12115.78
866.668	12067.65
866.989	12041.66
867.309	12013.64
867.63	12020.64
867.95	12000.08
868.27	11868.11
868.59	12023.13
868.91	11990.81
869.23	11982.68
869.55	11834.89
869.87	11898.39
870.19	11829.69
870.51	11925.51
870.83	11869.24
871.15	11812.51
871.469	11823.59
871.789	11788.79
872.109	11824.04
872.428	11701.33
872.748	11725.74
873.067	11661.11
873.386	11668.79
873.706	11674.44
874.025	11648.9
874.344	11574.78
874.663	11672.86
874.982	11674.21
875.301	11596.47
875.62	11513.09
875.939	11573.65
876.258	11501.34
876.577	11490.49
876.896	11473.31
877.214	11462.47
877.533	11383.82
877.852	11391.96
878.17	11405.75
878.489	11386.99
878.807	11415.69
879.125	11349.02
879.444	11251.85
879.762	11184.96
880.08	11290.72
880.398	11239.87
880.716	11313.77
881.034	11202.36
881.352	11233.09
881.67	11203.04
881.988	11186.99
882.306	11142.25
882.624	11069.26
882.941	11011.86
883.259	10969.82
883.577	11031.52
883.894	10951.07
884.212	10955.14
884.529	10954.68
884.846	10848.47
885.164	10845.53
885.481	10859.32
885.798	10905.65
886.115	10742.03
886.432	10736.38
886.75	10784.52
887.067	10763.95
887.383	10671.98
887.7	10685.31
888.017	10626.33
888.334	10633.79
888.651	10632.43
888.967	10579.1
889.284	10533.9
889.6	10504.98
889.917	10437.86
890.233	10459.1
890.55	10389.5
890.866	10392.21
891.182	10380.91
891.498	10372.1
891.815	10331.42
892.131	10316.28
892.447	10205.78
892.763	10137.76
893.079	10176.4
893.395	10111.32
893.71	10144.76
894.026	10064.09
894.342	10124.2
894.657	10013.47
894.973	10000.36
895.289	9945.67
895.604	10001.94
895.92	9878.33
896.235	9865.9
896.55	9788.61
896.865	9831.78
897.181	9818.67
897.496	9741.83
897.811	9743.87
898.126	9647.6
898.441	9582.74
898.756	9561.05
899.071	9489.86
899.386	9537.77
899.7	9519.47
900.015	9513.14
900.33	9295.07
900.644	9345.01
900.959	9343.2
901.273	9312.47
901.588	9283.54
901.902	9173.94
902.216	9253.49
902.531	9204.45
902.845	9164
903.159	9104.11
903.473	9087.16
903.787	9042.42
904.101	8966.26
904.415	9047.16
904.729	8917.9
905.042	8810.79
905.356	8853.95
905.67	8852.37
905.984	8870.22
906.297	8780.96
906.611	8744.57
906.924	8727.17
907.237	8747.74
907.551	8664.12
907.864	8617.12
908.177	8580.73
908.491	8506.84
908.804	8514.75
909.117	8475.88
909.43	8383.45
909.743	8324.7
910.056	8299.61
910.368	8277.92
910.681	8232.5
910.994	8274.53
911.307	8229.11
911.619	8174.42
911.932	8198.15
912.244	8055.1
912.557	8073.86
912.869	8020.75
913.181	8009.9
913.494	7973.75
913.806	7927.64
914.118	7922.67
914.43	7838.83
914.742	7874.31
915.054	7870.7
915.366	7745.28
915.678	7741.89
915.99	7777.37
916.302	7658.5
916.613	7663.24
916.925	7606.52
917.236	7626.64
917.548	7555.9
917.859	7585.05
918.171	7522.91
918.482	7493.76
918.794	7433.87
919.105	7391.39
919.416	7320.65
919.727	7382.12
920.038	7319.98
920.349	7268.68
920.66	7280.2
920.971	7258.06
921.282	7270.03
921.593	7176.25
921.903	7136.48
922.214	7101.68
922.525	7122.47
922.835	7119.53
923.146	6990.95
923.456	7014.9
923.767	6962.92
924.077	6896.26
924.387	6911.17
924.697	6846.09
925.008	6807.22
925.318	6809.93
925.628	6842.48
925.938	6820.1
926.248	6781.23
926.558	6719.54
926.867	6663.27
927.177	6623.95
927.487	6584.4
927.796	6535.82
928.106	6536.72
928.416	6530.85
928.725	6511.86
929.034	6537.85
929.344	6505.99
929.653	6459.66
929.962	6384.41
930.271	6396.61
930.581	6400
930.89	6322.26
931.199	6326.78
931.508	6293.34
931.817	6327.91
932.125	6254.69
932.434	6242.94
932.743	6176.73
933.051	6130.18
933.36	6091.53
933.669	6140.8
933.977	6088.82
934.286	6082.04
934.594	6018.77
934.902	5954.59
935.21	5961.59
935.519	5947.36
935.827	5890.64
936.135	5913.46
936.443	5825.1
936.751	5885.66
937.059	5844.31
937.367	5774.25
937.674	5782.62
937.982	5767.25
938.29	5724.09
938.597	5746.01
938.905	5660.13
939.213	5659.23
939.52	5643.41
939.827	5631.21
940.135	5586.24
940.442	5579.68
940.749	5533.13
941.056	5538.78
941.363	5528.84
941.67	5476.41
941.977	5459.91
942.284	5342.63
942.591	5345.57
942.898	5347.37
943.205	5371.78
943.511	5323.65
943.818	5267.6
944.125	5230.31
944.431	5279.8
944.738	5268.28
945.044	5202.07
945.35	5185.8
945.657	5127.49
945.963	5190.99
946.269	5125.23
946.575	5047.04
946.881	5021.05
947.187	5035.74
947.493	5037.55
947.799	5041.17
948.105	4969.53
948.41	4944.67
948.716	4947.38
949.022	4909.19
949.327	4920.27
949.633	4869.87
949.938	4868.74
950.244	4849.31
950.549	4854.73
950.854	4791.23
951.16	4752.81
951.465	4764.79
951.77	4728.18
952.075	4758.24
952.38	4732.7
952.685	4689.76
952.99	4612.7
953.294	4652.48
953.599	4592.37
953.904	4589.65
954.209	4592.37
954.513	4574.06
954.818	4514.85
955.122	4503.55
955.426	4505.36
955.731	4467.85
956.035	4477.57
956.339	4440.28
956.643	4391.01
956.948	4389.88
957.252	4381.52
957.556	4391.01
957.86	4355.76
958.163	4332.48
958.467	4254.07
958.771	4325.71
959.075	4267.4
959.378	4252.94
959.682	4260.62
959.985	4224.69
960.289	4237.8
960.592	4164.81
960.896	4162.09
961.199	4138.37
961.502	4115.77
961.805	4127.97
962.108	4099.72
962.411	4060.85
962.714	4072.83
963.017	3989.44
963.32	4027.86
963.623	4018.37
963.926	4026.96
964.228	3932.5
964.531	3977.92
964.833	3961.2
965.136	3939.73
965.438	3884.36
965.741	3876.9
966.043	3850.92
966.345	3830.35
966.648	3843.23
966.95	3801.65
967.252	3767.53
967.554	3774.53
967.856	3752.16
968.158	3697.7
968.46	3703.12
968.761	3718.04
969.063	3689.56
969.365	3665.84
969.666	3633.75
969.968	3623.8
970.269	3601.88
970.571	3593.97
970.872	3602.56
971.174	3600.53
971.475	3592.39
971.776	3515.33
972.077	3551.04
972.378	3578.38
972.679	3557.59
972.98	3468.55
973.281	3523.69
973.582	3524.82
973.883	3443.92
974.183	3429.01
974.484	3469.46
974.785	3381.32
975.085	3393.3
975.386	3395.33
975.686	3363.47
975.986	3324.83
976.287	3346.07
976.587	3248.9
976.887	3323.02
977.187	3320.08
977.487	3244.15
977.787	3286.64
978.087	3257.03
978.387	3220.65
978.687	3200.99
978.987	3201.67
979.286	3209.12
979.586	3174.78
979.885	3131.61
980.185	3140.88
980.484	3140.88
980.784	3144.04
981.083	3105.62
981.382	3119.64
981.682	3093.2
981.981	3081.9
982.28	3043.25
982.579	3033.31
982.878	3038.06
983.177	3009.36
983.475	3040.77
983.774	2969.58
984.073	2965.06
984.372	2934.33
984.67	2931.17
984.969	2954.89
985.267	2917.61
985.566	2898.17
985.864	2918.51
986.162	2890.71
986.461	2850.94
986.759	2865.4
987.057	2777.72
987.355	2830.38
987.653	2820.21
987.951	2791.28
988.249	2785.63
988.547	2794.22
988.844	2754.67
989.142	2763.03
989.44	2701.79
989.737	2742.02
990.035	2719.65
990.332	2696.14
990.63	2701.34
990.927	2657.73
991.224	2666.54
991.521	2651.85
991.819	2635.81
992.116	2627.67
992.413	2599.42
992.71	2590.38
993.006	2589.93
993.303	2583.15
993.6	2589.25
993.897	2559.2
994.193	2538.18
994.49	2516.04
994.787	2523.27
995.083	2499.54
995.379	2461.8
995.676	2486.21
995.972	2441.24
996.268	2465.87
996.565	2425.19
996.861	2439.43
997.157	2404.4
997.453	2383.16
997.749	2387.45
998.044	2345.42
998.34	2373.44
998.636	2354.23
998.932	2332.09
999.227	2361.69
999.523	2313.33
999.818	2322.14
1000.114	2326.89
1000.409	2296.83
1000.704	2260
1001	2247.12
1001.295	2209.38
1001.59	2232.43
1001.885	2228.59
1002.18	2205.99
1002.475	2194.24
1002.77	2202.37
1003.065	2186.55
1003.359	2154.92
1003.654	2169.83
1003.949	2167.12
1004.243	2148.14
1004.538	2098.19
1004.832	2110.4
1005.127	2116.27
1005.421	2088.25
1005.715	2094.8
1006.009	2056.61
1006.304	2056.84
1006.598	2035.6
1006.892	2042.6
1007.186	2000.12
1007.48	1976.16
1007.773	1972.55
1008.067	1978.65
1008.361	1937.97
1008.655	1927.35
1008.948	1940.46
1009.242	1928.03
1009.535	1924.86
1009.829	1886
1010.122	1904.07
1010.415	1889.61
1010.708	1858.88
1011.001	1889.39
1011.295	1865.88
1011.588	1862.72
1011.881	1823.17
1012.173	1832.89
1012.466	1830.4
1012.759	1813
1013.052	1779.33
1013.344	1758.09
1013.637	1794.92
1013.93	1764.19
1014.222	1725.55
1014.514	1753.8
1014.807	1728.94
1015.099	1734.59
1015.391	1682.84
1015.683	1669.5
1015.976	1693.23
1016.268	1693.23
1016.56	1667.7
1016.851	1650.97
1017.143	1678.09
1017.435	1621.37
1017.727	1614.14
1018.018	1646.68
1018.31	1591.09
1018.602	1574.14
1018.893	1596.96
1019.185	1596.06
1019.476	1571.65
1019.767	1560.13
1020.058	1556.51
1020.35	1540.02
1020.641	1510.86
1020.932	1475.16
1021.223	1523.97
1021.514	1490.98
1021.804	1468.38
1022.095	1435.61
1022.386	1476.74
1022.677	1454.37
1022.967	1454.82
1023.258	1439.68
1023.548	1448.27
1023.839	1440.13
1024.129	1416.63
1024.419	1380.92
1024.709	1386.57
1025	1398.1
1025.29	1374.82
1025.58	1358.1
1025.87	1352.9
1026.16	1342.51
1026.449	1363.3
1026.739	1319.68
1027.029	1332.34
1027.319	1298.44
1027.608	1314.03
1027.898	1278.55
1028.187	1263.19
1028.477	1272
1028.766	1267.48
1029.055	1262.28
1029.344	1255.28
1029.634	1236.07
1029.923	1228.16
1030.212	1260.7
1030.501	1199.01
1030.79	1241.04
1031.078	1229.97
1031.367	1200.82
1031.656	1185.68
1031.945	1162.4
1032.233	1176.41
1032.522	1178.9
1032.81	1170.76
1033.099	1139.12
1033.387	1156.75
1033.675	1140.93
1033.963	1135.05
1034.251	1133.47
1034.54	1112.68
1034.828	1108.61
1035.116	1116.07
1035.403	1075.62
1035.691	1102.29
1035.979	1085.79
1036.267	1078.11
1036.554	1070.65
1036.842	1055.28
1037.129	1045.11
1037.417	1040.37
1037.704	1027.26
1037.992	1032.91
1038.279	1015.74
1038.566	1006.47
1038.853	1006.47
1039.14	1006.47
