Data from hue_110_FLMS001491_00044.txt Node
Date: Tue Feb 07 17:01:22 GMT 2017
User: dcchb
Spectrometer: FLMS00149
Trigger mode: 0
Integration Time (sec): 2.000000E-2
Scans to average: 10
Electric dark correction enabled: true
Nonlinearity correction enabled: false
Boxcar width: 0
XAxis mode: Wavelengths
Number of Pixels in Spectrum: 2048
>>>>>Begin Spectral Data<<<<<
341.393	-2.18
341.776	-2.18
342.16	-2.18
342.543	-50.76
342.927	-57.09
343.31	-74.04
343.693	-79.01
344.077	-82.62
344.46	-64.32
344.843	-61.83
345.226	-61.83
345.61	-10.99
345.993	-31.55
346.376	1.21
346.759	17.94
347.142	35.79
347.525	44.6
347.908	64.26
348.291	90.93
348.674	96.35
349.057	115.11
349.44	132.96
349.823	149.23
350.206	176.35
350.588	193.3
350.971	246.86
351.354	242.79
351.737	232.85
352.119	253.64
352.502	270.81
352.884	284.82
353.267	266.97
353.65	307.65
354.032	302.22
354.414	331.15
354.797	329.57
355.179	329.34
355.562	323.47
355.944	349.68
356.326	361.66
356.709	340.64
357.091	344.03
357.473	353.52
357.855	344.71
358.238	360.53
358.62	353.07
359.002	334.54
359.384	344.26
359.766	339.28
360.148	358.04
360.53	355.56
360.912	364.14
361.294	364.14
361.676	331.38
362.057	359.85
362.439	363.01
362.821	327.53
363.203	340.41
363.584	329.34
363.966	323.47
364.348	330.92
364.729	354.43
365.111	340.19
365.493	326.86
365.874	340.64
366.256	333.41
366.637	341.77
367.019	308.55
367.4	349.45
367.781	321.21
368.163	328.66
368.544	324.82
368.925	322.11
369.306	337.48
369.688	330.47
370.069	344.93
370.45	316.91
370.831	308.33
371.212	339.96
371.593	326.63
371.974	320.08
372.355	331.15
372.736	345.16
373.117	343.58
373.498	307.2
373.879	326.63
374.26	321.43
374.641	323.01
375.021	323.47
375.402	310.36
375.783	336.35
376.163	331.83
376.544	324.14
376.925	335.44
377.305	341.09
377.686	352.17
378.066	331.38
378.447	350.81
378.827	346.74
379.208	352.84
379.588	369.57
379.968	349
380.349	348.32
380.729	340.87
381.109	354.2
381.489	367.31
381.87	341.54
382.25	359.17
382.63	357.82
383.01	362.34
383.39	370.92
383.77	367.53
384.15	342.67
384.53	351.26
384.91	361.66
385.29	381.77
385.67	372.96
386.049	374.99
386.429	372.28
386.809	370.24
387.189	356.01
387.568	375.67
387.948	367.53
388.328	378.61
388.707	362.79
389.087	379.74
389.466	373.86
389.846	408.89
390.225	365.27
390.605	372.28
390.984	389
391.363	403.92
391.743	387.65
392.122	396.91
392.501	406.4
392.881	407.31
393.26	404.82
393.639	396.91
394.018	384.93
394.397	396.46
394.776	416.12
395.155	426.97
395.534	398.49
395.913	386.97
396.292	395.78
396.671	423.35
397.05	431.71
397.429	417.47
397.808	411.83
398.186	406.18
398.565	415.22
398.944	417.7
399.323	424.25
399.701	430.36
400.08	414.31
400.458	421.32
400.837	411.83
401.215	432.16
401.594	436.23
401.972	435.55
402.351	433.07
402.729	424.93
403.107	426.29
403.486	447.3
403.864	443.46
404.242	457.93
404.62	440.98
404.999	441.43
405.377	462.67
405.755	443.24
406.133	452.95
406.511	433.97
406.889	473.52
407.267	473.97
407.645	456.8
408.023	458.38
408.401	467.42
408.779	470.58
409.156	502.9
409.534	506.29
409.912	488.89
410.29	497.25
410.667	471.71
411.045	500.18
411.422	480.07
411.8	502.22
412.178	516.46
412.555	525.95
412.933	509.22
413.31	520.3
413.687	521.65
414.065	528.21
414.442	534.31
414.819	535.66
415.197	533.63
415.574	542.9
415.951	541.99
416.328	524.82
416.705	546.96
417.082	556.91
417.46	563.69
417.837	563.91
418.214	573.18
418.591	564.14
418.967	563.23
419.344	581.54
419.721	593.74
420.098	570.92
420.475	576.11
420.852	564.14
421.228	590.35
421.605	598.04
421.982	594.42
422.358	625.83
422.735	608.66
423.111	597.36
423.488	605.94
423.864	633.51
424.241	630.35
424.617	629.67
424.994	644.81
425.37	643.01
425.746	657.02
426.123	644.59
426.499	669.22
426.875	654.76
427.251	647.75
427.627	702.89
428.003	686.62
428.379	662.44
428.756	690.01
429.132	710.57
429.507	698.6
429.883	686.62
430.259	717.13
430.635	711.93
431.011	715.09
431.387	716
431.763	729.78
432.138	753.74
432.514	753.29
432.89	771.14
433.265	765.49
433.641	767.75
434.016	780.63
434.392	772.04
434.767	779.95
435.143	787.63
435.518	810.23
435.894	810.46
436.269	834.41
436.644	854.3
437.02	835.77
437.395	856.79
437.77	837.35
438.145	843.45
438.52	841.64
438.895	894.52
439.271	864.02
439.646	875.99
440.021	869.21
440.395	894.52
440.77	921.19
441.145	911.7
441.52	910.12
441.895	923.22
442.27	929.1
442.645	928.87
443.019	951.7
443.394	947.4
443.769	957.8
444.143	945.14
444.518	984.47
444.892	957.35
445.267	952.6
445.641	988.99
446.016	981.3
446.39	990.12
446.764	1018.36
447.139	996.67
447.513	1001.64
447.887	998.7
448.262	1010.91
448.636	1009.32
449.01	1031.7
449.384	1052.03
449.758	1046.84
450.132	1054.07
450.506	1106.95
450.88	1101.98
451.254	1075.54
451.628	1101.07
452.002	1107.63
452.376	1121.41
452.75	1128.87
453.123	1152.37
453.497	1175.2
453.871	1163.22
454.244	1185.82
454.618	1174.52
454.992	1229.2
455.365	1200.28
455.739	1227.17
456.112	1234.4
456.486	1264.68
456.859	1254.52
457.232	1292.03
457.606	1308.3
457.979	1291.12
458.352	1319.82
458.725	1353.27
459.099	1362.08
459.472	1374.96
459.845	1379.71
460.218	1385.81
460.591	1405.25
460.964	1441.85
461.337	1443.44
461.71	1499.48
462.083	1494.51
462.456	1518.46
462.829	1559.82
463.201	1571.34
463.574	1552.81
463.947	1597.33
464.32	1611.34
464.692	1632.58
465.065	1640.27
465.438	1720.72
465.81	1712.13
466.183	1716.88
466.555	1798
466.928	1771.79
467.3	1786.93
467.672	1841.62
468.045	1893.82
468.417	1904.67
468.789	1938.79
469.161	1954.84
469.534	2017.21
469.906	2062.4
470.278	2056.53
470.65	2108.28
471.022	2177.2
471.394	2212.68
471.766	2259.23
472.138	2272.79
472.51	2323.64
472.882	2413.58
473.253	2406.58
473.625	2453.13
473.997	2565.22
474.369	2558.66
474.74	2620.35
475.112	2695.38
475.484	2774.48
475.855	2820.8
476.227	2876.17
476.598	3002.04
476.97	3031.64
477.341	3095.82
477.713	3192.54
478.084	3265.08
478.455	3402.71
478.827	3435.02
479.198	3581.23
479.569	3616.71
479.94	3742.13
480.311	3811.51
480.682	3898.29
481.053	4114.78
481.424	4190.03
481.795	4277.49
482.166	4389.12
482.537	4530.14
482.908	4640.64
483.279	4715.67
483.65	4848.32
484.021	5026.39
484.391	5104.36
484.762	5260.96
485.133	5354.52
485.503	5484.01
485.874	5702.99
486.244	5811.01
486.615	5950.89
486.985	6112.01
487.356	6238.56
487.726	6407.15
488.097	6566.69
488.467	6685.11
488.837	6915.38
489.207	7112.67
489.578	7239.22
489.948	7398.53
490.318	7549.94
490.688	7650.51
491.058	7881.46
491.428	8061.34
491.798	8192.19
492.168	8422.91
492.538	8550.14
492.908	8726.41
493.278	8929.34
493.648	9047.3
494.017	9266.51
494.387	9374.53
494.757	9540.85
495.126	9664.69
495.496	9829.2
495.866	9974.96
496.235	10143.77
496.605	10253.6
496.974	10450.88
497.344	10583.54
497.713	10680.26
498.082	10919.8
498.452	11011.32
498.821	11141.71
499.19	11245.89
499.559	11457.41
499.928	11607.46
500.298	11684.07
500.667	11808.59
501.036	11822.82
501.405	12116.83
501.774	12108.92
502.143	12242.25
502.512	12341.68
502.88	12566.76
503.249	12576.7
503.618	12703.71
503.987	12757.26
504.356	12877.26
504.724	12939.63
505.093	13096.92
505.462	13217.14
505.83	13293.97
506.199	13361.09
506.567	13593.85
506.936	13541.65
507.304	13742.1
507.672	13783.45
508.041	13879.95
508.409	13968.08
508.777	14071.35
509.145	14194.51
509.514	14224.34
509.882	14308.41
510.25	14332.14
510.618	14439.48
510.986	14519.7
511.354	14663.43
511.722	14738
512.09	14800.6
512.458	14863.65
512.826	14997.43
513.193	15065.9
513.561	15138.44
513.929	15099.57
514.297	15311.77
514.664	15360.58
515.032	15487.36
515.4	15467.93
515.767	15489.39
516.135	15604.65
516.502	15416.4
516.869	15699.78
517.237	15824.08
517.604	15704.3
517.972	15805.32
518.339	15901.59
518.706	15871.53
519.073	15879.89
519.44	16010.29
519.808	16226.1
520.175	16056.61
520.542	16211.41
520.909	16267
521.276	16201.47
521.643	16391.29
522.009	16456.38
522.376	16516.94
522.743	16443.49
523.11	16696.82
523.477	16640.1
523.843	16728.91
524.21	16905.4
524.577	17044.38
524.943	16912.63
525.31	16959.19
525.676	17008.23
526.043	17055
526.409	17033.31
526.776	17259.97
527.142	17262.23
527.508	17264.72
527.874	17236.24
528.241	17328.22
528.607	17247.77
528.973	17378.16
529.339	17361.44
529.705	17499.51
530.071	17521.21
530.437	17552.84
530.803	17607.76
531.169	17531.15
531.535	17453.19
531.901	17460.42
532.267	17440.53
532.632	17541.77
532.998	17402.57
533.364	17537.02
533.73	17556.46
534.095	17566.85
534.461	17468.78
534.826	17607.08
535.192	17543.58
535.557	17625.61
535.923	17531.83
536.288	17620.19
536.653	17552.17
537.019	17433.07
537.384	17405.28
537.749	17416.35
538.114	17440.98
538.479	17313.53
538.845	17303.58
539.21	17303.81
539.575	17420.64
539.94	17323.7
540.305	17404.82
540.67	17153.31
541.034	17290.7
541.399	17189.24
541.764	17216.36
542.129	17195.11
542.494	17119.41
542.858	17084.61
543.223	17079.86
543.587	17056.13
543.952	16977.27
544.316	17001.67
544.681	16965.06
545.045	16902.24
545.41	16927.1
545.774	16911.28
546.138	16824.05
546.503	16831.96
546.867	16688.46
547.231	16841.68
547.595	16812.07
547.959	16681.23
548.324	16584.51
548.688	16472.42
549.052	16552.19
549.416	16592.42
549.779	16500.44
550.143	16496.83
550.507	16494.57
550.871	16496.37
551.235	16371.41
551.599	16547.22
551.962	16433.55
552.326	16370.95
552.689	16389.26
553.053	16321.24
553.417	16245.76
553.78	16370.05
554.143	16281.46
554.507	16249.15
554.87	16306.77
555.234	16262.93
555.597	16196.95
555.96	16279.2
556.323	16234.46
556.686	16132.54
557.05	16104.97
557.413	16158.76
557.776	16102.94
558.139	16102.71
558.502	16099.1
558.865	16137.29
559.228	16166.89
559.59	16127.57
559.953	16114.69
560.316	16201.01
560.679	16221.58
561.041	16211.18
561.404	16284.63
561.767	16317.4
562.129	16133.22
562.492	16274.91
562.854	16229.04
563.217	16168.93
563.579	16276.27
563.941	16259.77
564.304	16221.35
564.666	16278.53
565.028	16292.99
565.39	16307
565.753	16361.24
566.115	16347
566.477	16430.16
566.839	16351.97
567.201	16431.97
567.563	16450.05
567.925	16438.3
568.287	16402.37
568.648	16390.39
569.01	16561.91
569.372	16568.91
569.734	16425.19
570.095	16530.72
570.457	16644.17
570.819	16546.09
571.18	16556.26
571.542	16610.5
571.903	16642.59
572.265	16549.93
572.626	16697.72
572.987	16728.68
573.349	16703.37
573.71	16751.51
574.071	16701.11
574.432	16812.3
574.794	16828.57
575.155	16779.53
575.516	16678.29
575.877	16741.11
576.238	16758.06
576.599	16790.83
576.96	16810.49
577.32	16828.57
577.681	16845.07
578.042	16784.05
578.403	16678.06
578.763	16816.37
579.124	16768.91
579.485	16843.03
579.845	16874.22
580.206	16852.75
580.566	16842.35
580.927	16828.12
581.287	16968.68
581.648	16822.92
582.008	16911.96
582.368	16787.67
582.728	16881.9
583.089	16787.89
583.449	16855.23
583.809	16858.4
584.169	16832.64
584.529	16789.47
584.889	16865.63
585.249	16642.59
585.609	16714
585.969	16829.02
586.329	16782.24
586.688	16750.83
587.048	16694.79
587.408	16643.04
587.768	16655.69
588.127	16668.12
588.487	16667.67
588.846	16669.7
589.206	16533.44
589.565	16714.45
589.925	16615.69
590.284	16558.29
590.643	16531.63
591.003	16648.23
591.362	16589.93
591.721	16585.19
592.08	16575.24
592.44	16615.24
592.799	16531.85
593.158	16584.96
593.517	16475.81
593.876	16554.9
594.235	16492.98
594.593	16459.76
594.952	16452.76
595.311	16422.03
595.67	16527.11
596.029	16577.95
596.387	16475.58
596.746	16568.01
597.104	16504.28
597.463	16434.91
597.822	16573.21
598.18	16441.01
598.538	16387.45
598.897	16530.95
599.255	16364.63
599.613	16583.6
599.972	16417.73
600.33	16551.29
600.688	16423.38
601.046	16501.35
601.404	16455.7
601.762	16462.25
602.12	16525.3
602.478	16529.37
602.836	16551.29
603.194	16475.36
603.552	16498.86
603.91	16402.14
604.268	16373.44
604.625	16334.57
604.983	16490.72
605.341	16445.53
605.698	16472.42
606.056	16415.7
606.413	16348.36
606.771	16569.59
607.128	16530.5
607.485	16383.61
607.843	16476.04
608.2	16488.92
608.557	16522.14
608.914	16469.48
609.272	16510.84
609.629	16590.16
609.986	16678.29
610.343	16497.96
610.7	16568.01
611.057	16567.78
611.414	16585.41
611.771	16650.27
612.127	16711.06
612.484	16669.93
612.841	16783.15
613.198	16708.8
613.554	16694.11
613.911	16742.47
614.267	16642.59
614.624	16666.99
614.98	16690.95
615.337	16823.37
615.693	16785.41
616.05	16757.84
616.406	16891.39
616.762	16751.73
617.118	16752.64
617.475	16760.77
617.831	16863.6
618.187	16905.85
618.543	16769.59
618.899	16895.01
619.255	16810.04
619.611	16932.75
619.967	16953.09
620.323	16996.47
620.678	16879.87
621.034	16765.52
621.39	16935.23
621.746	16794.9
622.101	17053.2
622.457	16847.33
622.812	16876.25
623.168	17039.86
623.523	16931.39
623.879	17009.13
624.234	16940.2
624.589	16898.17
624.945	17025.63
625.3	16948.57
625.655	16990.82
626.01	17001.9
626.365	16994.44
626.72	16918.96
627.075	16956.25
627.43	16917.83
627.785	16851.17
628.14	16960.99
628.495	16937.72
628.85	16902.92
629.205	16826.76
629.559	16918.28
629.914	16776.59
630.269	16835.35
630.623	16783.6
630.978	16765.29
631.332	16837.38
631.687	16819.3
632.041	16759.42
632.396	16793.32
632.75	16754.9
633.104	16715.13
633.459	16617.27
633.813	16749.02
634.167	16656.82
634.521	16544.06
634.875	16667.9
635.229	16604.85
635.583	16572.53
635.937	16570.04
636.291	16520.1
636.645	16457.96
636.999	16469.93
637.352	16444.17
637.706	16388.35
638.06	16517.39
638.413	16402.14
638.767	16363.72
639.121	16408.24
639.474	16279.66
639.828	16285.53
640.181	16329.15
640.534	16331.41
640.888	16292.31
641.241	16165.54
641.594	16304.06
641.947	16361.01
642.301	16285.08
642.654	16262.26
643.007	16159.89
643.36	16308.13
643.713	16232.43
644.066	16309.26
644.419	16163.28
644.771	16106.78
645.124	15851.65
645.477	15885.54
645.83	15814.58
646.182	15782.04
646.535	15666.57
646.888	15766.9
647.24	15674.02
647.593	15744.53
647.945	15757.64
648.298	15689.62
648.65	15652.33
649.002	15550.18
649.355	15636.74
649.707	15707.02
650.059	15720.8
650.411	15896.62
650.763	15999.89
651.115	15992.21
651.467	15980
651.819	15982.04
652.171	15907.92
652.523	15974.13
652.875	15909.72
653.227	15890.74
653.578	16083.73
653.93	15976.84
654.282	16032.21
654.633	15947.69
654.985	15919.44
655.337	15877.63
655.688	15976.61
656.039	16047.57
656.391	15918.54
656.742	15900.46
657.094	15953.34
657.445	16035.6
657.796	16102.71
658.147	15927.58
658.498	15957.41
658.849	15969.38
659.2	16060.23
659.551	15924.19
659.902	16015.48
660.253	15975.03
660.604	16057.29
660.955	15970.96
661.306	16012.77
661.656	16051.19
662.007	16069.04
662.358	15967.35
662.708	16048.7
663.059	16050.96
663.409	15989.49
663.76	16071.98
664.11	16127.57
664.461	16108.14
664.811	16081.92
665.161	16031.08
665.511	16004.18
665.862	16066.78
666.212	16022.49
666.562	16130.06
666.912	16110.85
667.262	15967.57
667.612	16127.34
667.962	16103.62
668.312	16110.4
668.662	16231.07
669.011	16076.5
669.361	16147.91
669.711	16103.84
670.06	16073.33
670.41	16029.04
670.76	16038.76
671.109	16047.8
671.459	16022.26
671.808	16054.35
672.157	16051.19
672.507	16017.97
672.856	15994.69
673.205	15954.24
673.554	15932.32
673.904	15911.3
674.253	15892.1
674.602	15907.01
674.951	15700.91
675.3	15581.37
675.649	15911.76
675.998	15933.9
676.346	15933.68
676.695	15829.5
677.044	15767.58
677.393	15784.53
677.741	15772.1
678.09	15697.53
678.438	15646
678.787	15782.72
679.135	15709.28
679.484	15676.06
679.832	15633.57
680.181	15568.04
680.529	15604.87
680.877	15516.51
681.225	15575.72
681.573	15564.42
681.922	15468.6
682.27	15424.09
682.618	15497.53
682.966	15431.09
683.314	15400.36
683.661	15422.96
684.009	15280.13
684.357	15258.67
684.705	15251.44
685.053	15229.74
685.4	15224.77
685.748	15057.99
686.095	15145.45
686.443	15139.57
686.79	15033.59
687.138	15096.18
687.485	15140.7
687.832	15013.93
688.18	15004.89
688.527	15006.92
688.874	14918.34
689.221	14770.32
689.568	14824.33
689.915	14725.57
690.262	14812.12
690.609	14682.41
690.956	14587.27
691.303	14613.26
691.65	14618.23
691.997	14517.22
692.344	14489.2
692.69	14404.68
693.037	14357.45
693.383	14201.52
693.73	14277.22
694.077	14235.19
694.423	14175.76
694.769	14094.86
695.116	14110.45
695.462	14062.09
695.808	13990.9
696.155	13972.37
696.501	13861.87
696.847	13824.58
697.193	13745.94
697.539	13798.14
697.885	13660.74
698.231	13636.11
698.577	13604.02
698.923	13552.04
699.269	13502.33
699.614	13449
699.96	13369.22
700.306	13370.13
700.651	13247.65
700.997	13221.88
701.342	13223.01
701.688	13163.13
702.033	13133.52
702.379	13092.62
702.724	13019.18
703.069	13094.88
703.415	12908.9
703.76	12896.47
704.105	12950.03
704.45	12855.11
704.795	12767.88
705.14	12776.02
705.485	12778.51
705.83	12608.79
706.175	12652.41
706.52	12585.06
706.865	12643.14
707.209	12555.91
707.554	12497.84
707.899	12552.98
708.243	12357.27
708.588	12322.25
708.932	12338.29
709.277	12242.25
709.621	12289.93
709.966	12268.69
710.31	12141.69
710.654	12146.66
710.998	12173.32
711.342	12200.89
711.687	12144.85
712.031	12133.33
712.375	11993.44
712.719	12096.26
713.063	11970.84
713.407	11990.5
713.75	11936.95
714.094	11924.52
714.438	11839.55
714.782	11938.3
715.125	11752.77
715.469	11799.55
715.812	11805.88
716.156	11709.61
716.499	11701.25
716.843	11684.3
717.186	11673.45
717.53	11751.87
717.873	11710.51
718.216	11681.81
718.559	11560.23
718.902	11515.04
719.246	11577.86
719.589	11537.41
719.932	11511.42
720.275	11491.76
720.617	11437.98
720.96	11471.87
721.303	11486.34
721.646	11525.21
721.989	11413.8
722.331	11432.78
722.674	11440.91
723.016	11437.98
723.359	11419.22
723.701	11374.7
724.044	11325.44
724.386	11308.04
724.729	11378.54
725.071	11327.92
725.413	11320.69
725.755	11255.38
726.097	11255.61
726.439	11211.99
726.782	11181.49
727.124	11256.74
727.465	11231.65
727.807	11234.14
728.149	11209.51
728.491	11196.17
728.833	11166.12
729.175	11120.47
729.516	11116.63
729.858	11168.6
730.199	11208.83
730.541	11095.84
730.882	11180.58
731.224	11208.38
731.565	11116.85
731.906	11203.18
732.248	11163.18
732.589	11113.46
732.93	11124.54
733.271	11095.39
733.612	11160.24
733.953	11103.07
734.294	11030.76
734.635	11101.26
734.976	11131.54
735.317	11117.53
735.658	11102.62
735.999	11157.31
736.339	11124.76
736.68	11174.71
737.021	11070.75
737.361	11109.4
737.702	11207.47
738.042	11132.22
738.383	11114.82
738.723	11231.2
739.063	11128.38
739.404	11215.38
739.744	11223.07
740.084	11166.34
740.424	11219.9
740.764	11181.49
741.104	11313.23
741.444	11194.82
741.784	11296.28
742.124	11221.94
742.464	11344.65
742.804	11323.85
743.143	11284.53
743.483	11368.6
743.823	11327.47
744.162	11500.35
744.502	11442.04
744.841	11471.65
745.181	11497.18
745.52	11509.61
745.86	11583.73
746.199	11598.88
746.538	11672.09
746.877	11757.52
747.216	11827.8
747.556	11838.64
747.895	11971.52
748.234	12016.72
748.573	12015.36
748.911	12143.95
749.25	12148.69
749.589	12277.05
749.928	12331.96
750.267	12423.94
750.605	12409.7
750.944	12567.66
751.283	12572.18
751.621	12840.88
751.96	12867.09
752.298	12947.31
752.636	13110.93
752.975	13184.82
753.313	13305.27
753.651	13438.15
753.989	13521.54
754.327	13638.6
754.666	13665.71
755.004	13934.63
755.342	14098.25
755.679	14223.21
756.017	14286.49
756.355	14497.78
756.693	14672.47
757.031	14860.48
757.368	14977.09
757.706	15161.04
758.044	15239.46
758.381	15481.26
758.719	15625.21
759.056	15860.68
759.394	16036.73
759.731	16187
760.068	16385.64
760.405	16445.08
760.743	16612.3
761.08	16855.46
761.417	16951.73
761.754	17255.22
762.091	17430.13
762.428	17569.11
762.765	17649.11
763.102	17852.72
763.438	18002.78
763.775	18167.06
764.112	18354.63
764.449	18648.86
764.785	18766.6
765.122	18862.19
765.458	19034.16
765.795	19134.04
766.131	19312.8
766.467	19491.55
766.804	19562.28
767.14	19700.58
767.476	19814.7
767.812	20057.41
768.148	20282.26
768.485	20227.35
768.821	20350.96
769.157	20585.31
769.492	20621.46
769.828	20717.51
770.164	20683.83
770.5	20859.88
770.836	21069.81
771.171	20968.8
771.507	21140.77
771.842	21160.66
772.178	21270.03
772.513	21402.23
772.849	21444.49
773.184	21462.8
773.519	21509.35
773.855	21638.16
774.19	21698.05
774.525	21758.38
774.86	21902.11
775.195	21891.94
775.53	21993.86
775.865	21894.88
776.2	21829.57
776.535	21840.41
776.87	22053.52
777.205	22017.36
777.539	21884.48
777.874	22083.57
778.209	21985.04
778.543	22001.31
778.878	22063.23
779.212	22038.15
779.547	22072.72
779.881	22074.98
780.215	21988.43
780.55	22165.38
780.884	22096.45
781.218	22042.44
781.552	22192.95
781.886	22127.19
782.22	22065.72
782.554	22025.95
782.888	21911.15
783.222	21789.12
783.556	21808.1
783.889	21877.02
784.223	21730.81
784.557	21868.44
784.89	21877.93
785.224	21797.48
785.557	21759.06
785.891	21705.28
786.224	21756.12
786.558	21775.78
786.891	21547.77
787.224	21569.01
787.557	21629.57
787.891	21589.35
788.224	21538.5
788.557	21634.77
788.89	21497.6
789.223	21521.1
789.556	21369.92
789.888	21298.06
790.221	21254.44
790.554	21275.68
790.887	21177.16
791.219	21114.56
791.552	21083.6
791.884	21006.99
792.217	21013.09
792.549	20926.54
792.882	20760.89
793.214	20771.29
793.546	20902.13
793.879	20714.34
794.211	20685.19
794.543	20742.82
794.875	20735.36
795.207	20773.1
795.539	20732.65
795.871	20608.81
796.203	20416.95
796.535	20269.83
796.867	20296.73
797.198	20271.19
797.53	20282.26
797.862	20160.91
798.193	20180.35
798.525	20035.72
798.856	20095.6
799.188	20040.69
799.519	19900.58
799.85	19880.69
800.182	19812.45
800.513	19853.35
800.844	19710.53
801.175	19751.2
801.506	19710.3
801.837	19613.58
802.168	19619.46
802.499	19499.69
802.83	19476.18
803.161	19354.38
803.491	19413.13
803.822	19304.21
804.153	19403.42
804.483	19082.52
804.814	19191.9
805.145	19138.56
805.475	19067.83
805.805	19030.09
806.136	19049.98
806.466	18976.53
806.796	19095.85
807.126	18796.43
807.457	18864.9
807.787	18861.06
808.117	18796.43
808.447	18717.33
808.777	18698.35
809.107	18639.59
809.436	18603.44
809.766	18477.11
810.096	18527.28
810.426	18438.92
810.755	18425.81
811.085	18489.09
811.414	18429.88
811.744	18183.56
812.073	18194.86
812.403	18219.94
812.732	18173.62
813.061	18163.45
813.39	18014.75
813.719	18013.4
814.049	18163.67
814.378	17948.77
814.707	17898.15
815.036	17885.72
815.365	17869.22
815.693	17722.1
816.022	17755.32
816.351	17667.19
816.68	17571.37
817.008	17620.41
817.337	17488.44
817.665	17424.03
817.994	17457.25
818.322	17431.94
818.651	17435.33
818.979	17405.5
819.307	17447.08
819.636	17393.53
819.964	17397.37
820.292	17324.37
820.62	17235.56
820.948	17253.42
821.276	17385.39
821.604	17257.71
821.932	17217.03
822.259	17245.06
822.587	17240.54
822.915	17192.4
823.243	17357.37
823.57	17159.63
823.898	17301.32
824.225	17191.95
824.553	17083.93
824.88	17234.66
825.207	17292.06
825.535	17137.04
825.862	17240.08
826.189	17212.29
826.516	17245.73
826.843	17342
827.17	17281.21
827.497	17239.41
827.824	17192.85
828.151	17330.7
828.478	17230.14
828.805	17314.66
829.131	17166.19
829.458	17218.16
829.785	17067.43
830.111	17103.82
830.438	17343.81
830.764	17118.96
831.09	17313.75
831.417	17121.22
831.743	17204.6
832.069	17251.16
832.395	17117.37
832.722	17141.33
833.048	17130.26
833.374	17161.67
833.7	17097.49
834.026	17112.4
834.351	17172.06
834.677	17067.43
835.003	16999.19
835.329	17101.1
835.654	16998.51
835.98	16902.24
836.306	16959.86
836.631	16873.31
836.956	17102.69
837.282	16917.38
837.607	16899.75
837.932	16820.66
838.258	16836.25
838.583	16819.98
838.908	16721.9
839.233	16768.46
839.558	16726.42
839.883	16565.75
840.208	16629.7
840.533	16646.65
840.858	16602.36
841.182	16544.28
841.507	16616.82
841.832	16429.48
842.156	16452.53
842.481	16418.86
842.805	16424.96
843.13	16313.33
843.454	16325.08
843.778	16304.97
844.103	16202.14
844.427	16241.24
844.751	16153.78
845.075	16170.73
845.399	16142.03
845.723	16106.78
846.047	16065.65
846.371	15905.43
846.695	15923.96
847.019	15766.9
847.343	15726
847.666	15652.55
847.99	15599.9
848.313	15537.98
848.637	15438.1
848.96	15426.57
849.284	15461.15
849.607	15289.85
849.931	15218.44
850.254	15149.29
850.577	15074.94
850.9	15044.66
851.223	14984.78
851.546	14994.04
851.869	14854.84
852.192	14845.34
852.515	14739.58
852.838	14768.28
853.161	14646.48
853.483	14582.3
853.806	14555.18
854.129	14496.65
854.451	14506.14
854.774	14352.7
855.096	14316.09
855.419	14253.5
855.741	14229.77
856.063	14110.45
856.385	14168.53
856.708	14150
857.03	14014.18
857.352	14125.59
857.674	14021.86
857.996	13939.15
858.318	13849.89
858.64	13919.04
858.961	13808.76
859.283	13834.75
859.605	13731.02
859.926	13703.68
860.248	13769.44
860.57	13596.79
860.891	13648.09
861.212	13604.25
861.534	13538.71
861.855	13447.64
862.176	13466.4
862.498	13562.89
862.819	13455.78
863.14	13448.09
863.461	13331.03
863.782	13315.89
864.103	13350.02
864.424	13443.12
864.745	13376
865.065	13213.97
865.386	13183.69
865.707	13235.44
866.027	13218.27
866.348	13164.48
866.668	13152.06
866.989	13081.77
867.309	13106.63
867.63	13070.25
867.95	13096.46
868.27	13116.12
868.59	12959.74
868.91	12967.88
869.23	12971.27
869.55	12854.89
869.87	12943.7
870.19	12909.58
870.51	12925.17
870.83	12920.42
871.15	12835.68
871.469	12773.31
871.789	12758.85
872.109	12830.26
872.428	12700.54
872.748	12730.37
873.067	12685.85
873.386	12769.92
873.706	12702.58
874.025	12595.23
874.344	12627.32
874.663	12541.9
874.982	12571.05
875.301	12595.69
875.62	12498.29
875.939	12476.14
876.258	12540.32
876.577	12489.02
876.896	12450.83
877.214	12450.38
877.533	12431.85
877.852	12392.53
878.17	12435.01
878.489	12418.52
878.807	12365.41
879.125	12261.23
879.444	12277.95
879.762	12296.03
880.08	12308.91
880.398	12268.24
880.716	12283.6
881.034	12228.46
881.352	12165.19
881.67	12139.88
881.988	12159.77
882.306	12021.69
882.624	12011.52
882.941	11960.67
883.259	11928.36
883.577	12056.72
883.894	11950.73
884.212	11963.39
884.529	11903.05
884.846	11856.72
885.164	11852.65
885.481	11776.05
885.798	11787.57
886.115	11697.4
886.432	11708.93
886.75	11642.72
887.067	11695.14
887.383	11640.91
887.7	11602.04
888.017	11599.1
888.334	11587.35
888.651	11459.9
888.967	11562.04
889.284	11437.98
889.6	11418.32
889.917	11366.57
890.233	11321.37
890.55	11362.27
890.866	11290.86
891.182	11206.57
891.498	11208.15
891.815	11227.59
892.131	11138.55
892.447	11160.24
892.763	11069.4
893.079	11072.34
893.395	11048.38
893.71	10961.6
894.026	11006.12
894.342	10972.45
894.657	10809.52
894.973	10853.13
895.289	10830.53
895.604	10759.12
895.92	10691.1
896.235	10647.49
896.55	10748.95
896.865	10646.13
897.181	10537.89
897.496	10621.5
897.811	10592.8
898.126	10423.99
898.441	10489.07
898.756	10491.79
899.071	10387.61
899.386	10380.6
899.7	10248.63
900.015	10240.72
900.33	10149.87
900.644	10126.37
900.959	10152.13
901.273	10152.36
901.588	10066.71
901.902	10024.68
902.216	10024.45
902.531	9975.87
902.845	9915.76
903.159	9856.77
903.473	9834.4
903.787	9831.69
904.101	9756.21
904.415	9737.91
904.729	9681.41
905.042	9593.28
905.356	9673.28
905.67	9617.01
905.984	9543.79
906.297	9565.71
906.611	9458.14
906.924	9474.41
907.237	9449.33
907.551	9440.29
907.864	9309.44
908.177	9309.67
908.491	9305.83
908.804	9238.49
909.117	9204.59
909.43	9092.05
909.743	9129.56
910.056	9069.9
910.368	9024.71
910.681	8962.79
910.994	8942.67
911.307	8948.1
911.619	8928.21
911.932	8915.56
912.244	8852.06
912.557	8792.62
912.869	8731.61
913.181	8676.24
913.494	8709.91
913.806	8619.52
914.118	8573.42
914.43	8513.76
914.742	8601.21
915.054	8512.18
915.366	8513.31
915.678	8442.12
915.99	8328.91
916.302	8362.58
916.613	8308.34
916.925	8280.32
917.236	8258.17
917.548	8241
917.859	8165.29
918.171	8139.08
918.482	8092.08
918.794	8091.4
919.105	8071.28
919.416	7999.65
919.727	7996.94
920.038	7970.27
920.349	7880.78
920.66	7878.07
920.971	7890.95
921.282	7914.23
921.593	7718.3
921.903	7714.68
922.214	7759.65
922.525	7633.1
922.835	7674.46
923.146	7604.4
923.456	7552.2
923.767	7550.17
924.077	7569.83
924.387	7477.18
924.697	7467.91
925.008	7448.93
925.318	7411.42
925.628	7377.07
925.938	7357.86
926.248	7250.52
926.558	7265.66
926.867	7221.59
927.177	7203.29
927.487	7187.92
927.796	7090.52
928.106	7093.91
928.416	7067.47
928.725	7083.51
929.034	7036.06
929.344	7050.75
929.653	6988.6
929.962	6917.87
930.271	6912.67
930.581	6855.27
930.89	6871.32
931.199	6815.05
931.508	6803.3
931.817	6758.33
932.125	6775.95
932.434	6724.65
932.743	6667.48
933.051	6711.09
933.36	6630.42
933.669	6602.85
933.977	6601.95
934.286	6528.05
934.594	6554.71
934.902	6514.94
935.21	6453.25
935.519	6485.79
935.827	6424.55
936.135	6418.22
936.443	6372.12
936.751	6306.81
937.059	6331.22
937.367	6279.92
937.674	6285.8
937.982	6194.95
938.29	6168.28
938.597	6210.77
938.905	6137.32
939.213	6039.47
939.52	6090.09
939.827	6117.89
940.135	6069.08
940.442	5987.95
940.749	5996.31
941.056	5976.42
941.363	5947.05
941.67	5875.18
941.977	5863.89
942.284	5810.55
942.591	5830.67
942.898	5794.28
943.205	5762.65
943.511	5759.93
943.818	5762.19
944.125	5691.91
944.431	5648.75
944.738	5707.51
945.044	5606.49
945.35	5633.16
945.657	5547.06
945.963	5528.75
946.269	5500.73
946.575	5518.36
946.881	5498.25
947.187	5448.3
947.493	5417.12
947.799	5380.51
948.105	5392.49
948.41	5350.68
948.716	5375.08
949.022	5314.52
949.327	5332.83
949.633	5248.99
949.938	5219.16
950.244	5262.77
950.549	5234.07
950.854	5168.76
951.16	5201.98
951.465	5144.13
951.77	5150.91
952.075	5138.93
952.38	5097.13
952.685	5039.27
952.99	5013.06
953.294	5049.44
953.599	4982.1
953.904	4925.38
954.209	4924.93
954.513	4931.03
954.818	4898.04
955.122	4890.13
955.426	4902.78
955.731	4867.75
956.035	4779.62
956.339	4786.63
956.643	4801.09
956.948	4716.12
957.252	4696.68
957.556	4700.07
957.86	4684.71
958.163	4686.29
958.467	4667.53
958.771	4606.97
959.075	4586.86
959.378	4584.6
959.682	4541.43
959.985	4583.47
960.289	4541.43
960.592	4525.84
960.896	4507.08
961.199	4516.8
961.502	4457.82
961.805	4447.2
962.108	4417.6
962.411	4407.88
962.714	4366.98
963.017	4293.98
963.32	4369.69
963.623	4314.55
963.926	4320.65
964.228	4271.61
964.531	4221.44
964.833	4265.06
965.136	4211.73
965.438	4196.36
965.741	4188.22
966.043	4190.26
966.345	4159.3
966.648	4134.21
966.95	4103.03
967.252	4078.17
967.554	4089.24
967.856	4069.58
968.158	4025.74
968.46	4027.1
968.761	4007.21
969.063	3990.49
969.365	3970.6
969.666	3982.8
969.968	3955.69
970.269	3885.41
970.571	3922.02
970.872	3874.56
971.174	3816.26
971.475	3852.41
971.776	3799.76
972.077	3838.18
972.378	3765.18
972.679	3802.92
972.98	3793.21
973.281	3786.65
973.582	3718.18
973.883	3719.76
974.183	3722.47
974.484	3664.85
974.785	3654.45
975.085	3625.3
975.386	3645.41
975.686	3627.79
975.986	3575.36
976.287	3641.34
976.587	3568.58
976.887	3590.05
977.187	3588.69
977.487	3503.72
977.787	3512.99
978.087	3498.07
978.387	3486.09
978.687	3473.44
978.987	3464.17
979.286	3426.66
979.586	3449.03
979.885	3430.5
980.185	3407.9
980.484	3377.62
980.784	3360.67
981.083	3368.81
981.382	3336.04
981.682	3330.39
981.981	3282.94
982.28	3309.6
982.579	3280
982.878	3255.82
983.177	3250.39
983.475	3244.75
983.774	3217.18
984.073	3198.64
984.372	3169.72
984.67	3154.8
984.969	3160.91
985.267	3146.67
985.566	3125.65
985.864	3115.48
986.162	3091.3
986.461	3053.11
986.759	3062.6
987.057	3032.1
987.355	3035.03
987.653	3015.6
987.951	2980.12
988.249	2958.88
988.547	2973.79
988.844	2948.26
989.142	2949.61
989.44	2932.66
989.737	2938.99
990.035	2928.6
990.332	2880.91
990.63	2896.73
990.927	2872.1
991.224	2865.77
991.521	2840.69
991.819	2856.28
992.116	2806.34
992.413	2820.35
992.71	2753.01
993.006	2756.17
993.303	2749.62
993.6	2780.8
993.897	2773.12
994.193	2710.75
994.49	2737.41
994.787	2721.37
995.083	2663.52
995.379	2664.42
995.676	2640.92
995.972	2619
996.268	2611.09
996.565	2606.12
996.861	2612.45
997.157	2587.59
997.453	2586.46
997.749	2558.66
998.044	2566.57
998.34	2508.27
998.636	2538.32
998.932	2519.11
999.227	2493.58
999.523	2509.17
999.818	2461.49
1000.114	2462.39
1000.409	2451.09
1000.704	2442.28
1001	2406.58
1001.295	2386.01
1001.59	2371.55
1001.885	2375.62
1002.18	2383.07
1002.475	2355.28
1002.77	2350.98
1003.065	2318.89
1003.359	2309.18
1003.654	2312.57
1003.949	2293.81
1004.243	2251.55
1004.538	2300.59
1004.832	2273.7
1005.127	2235.28
1005.421	2207.26
1005.715	2227.82
1006.009	2184.89
1006.304	2218.78
1006.598	2185.11
1006.892	2166.81
1007.186	2118
1007.48	2127.94
1007.773	2148.05
1008.067	2114.38
1008.361	2096.75
1008.655	2085.91
1008.948	2064.89
1009.242	2049.75
1009.535	2069.41
1009.829	2028.73
1010.122	2037.32
1010.415	1998.22
1010.708	2033.03
1011.001	1981.95
1011.295	1990.09
1011.588	1958.68
1011.881	1953.03
1012.173	1946.7
1012.466	1926.81
1012.759	1946.25
1013.052	1894.72
1013.344	1910.77
1013.637	1913.03
1013.93	1844.56
1014.222	1874.84
1014.514	1856.53
1014.807	1881.39
1015.099	1829.64
1015.391	1811.11
1015.683	1828.06
1015.976	1786.7
1016.268	1765.69
1016.56	1758.68
1016.851	1736.99
1017.143	1712.13
1017.435	1739.25
1017.727	1743.54
1018.018	1729.3
1018.31	1711
1018.602	1711.45
1018.893	1670.55
1019.185	1700.15
1019.476	1650.44
1019.767	1680.49
1020.058	1620.83
1020.35	1657.22
1020.641	1609.08
1020.932	1581.74
1021.223	1600.04
1021.514	1577.67
1021.804	1582.42
1022.095	1550.55
1022.386	1588.07
1022.677	1563.43
1022.967	1530.89
1023.258	1536.54
1023.548	1522.76
1023.839	1513.49
1024.129	1496.09
1024.419	1486.37
1024.709	1478.92
1025	1464.68
1025.29	1448.41
1025.58	1443.89
1025.87	1431.69
1026.16	1410.9
1026.449	1429.65
1026.739	1418.58
1027.029	1400.05
1027.319	1411.12
1027.608	1382.2
1027.898	1381.29
1028.187	1364.57
1028.477	1378.58
1028.766	1358.47
1029.055	1325.47
1029.344	1330.22
1029.634	1316.89
1029.923	1303.78
1030.212	1302.65
1030.501	1285.47
1030.79	1281.86
1031.078	1278.7
1031.367	1247.06
1031.656	1251.35
1031.945	1258.81
1032.233	1250.9
1032.522	1243.67
1032.81	1214.97
1033.099	1217.45
1033.387	1212.93
1033.675	1211.58
1033.963	1199.6
1034.251	1176.1
1034.54	1149.66
1034.828	1155.53
1035.116	1170.68
1035.403	1143.56
1035.691	1154.63
1035.979	1167.29
1036.267	1162.77
1036.554	1102.65
1036.842	1109.66
1037.129	1110.11
1037.417	1103.56
1037.704	1067.85
1037.992	1111.02
1038.279	1072.82
1038.566	1045.93
1038.853	1045.93
1039.14	1045.93
