Data from hue_310_FLMS001491_11.txt Node
Date: Mon Feb 06 15:48:53 GMT 2017
User: dcchb
Spectrometer: FLMS00149
Trigger mode: 0
Integration Time (sec): 2.000000E-2
Scans to average: 10
Electric dark correction enabled: true
Nonlinearity correction enabled: false
Boxcar width: 0
XAxis mode: Wavelengths
Number of Pixels in Spectrum: 2048
>>>>>Begin Spectral Data<<<<<
341.393	-7.87
341.776	-7.87
342.16	-7.87
342.543	-79.5
342.927	-59.84
343.31	-95.1
343.693	-85.38
344.077	-59.39
344.46	-53.97
344.843	-57.58
345.226	-44.93
345.61	-25.95
345.993	-18.71
346.376	-20.75
346.759	10.21
347.142	44.56
347.525	49.53
347.908	78.23
348.291	57.67
348.674	99.25
349.057	122.3
349.44	120.72
349.823	145.12
350.206	170.21
350.588	190.09
350.971	187.61
351.354	210.21
351.737	232.58
352.119	240.26
352.502	271.45
352.884	280.49
353.267	286.14
353.65	288.62
354.032	292.69
354.414	292.69
354.797	305.57
355.179	318
355.562	280.04
355.944	334.5
356.326	317.32
356.709	334.72
357.091	325.23
357.473	356.19
357.855	332.69
358.238	344.89
358.62	337.43
359.002	322.29
359.384	322.07
359.766	332.69
360.148	312.12
360.53	344.44
360.912	323.2
361.294	324.78
361.676	316.42
362.057	320.26
362.439	340.6
362.821	329.07
363.203	324.55
363.584	328.85
363.966	326.59
364.348	317.55
364.729	325.01
365.111	305.8
365.493	329.53
365.874	316.64
366.256	306.93
366.637	308.73
367.019	336.76
367.4	300.83
367.781	309.64
368.163	295.63
368.544	297.44
368.925	319.58
369.306	323.42
369.688	309.41
370.069	314.84
370.45	302.86
370.831	293.14
371.212	301.73
371.593	324.55
371.974	319.36
372.355	319.58
372.736	308.28
373.117	292.92
373.498	310.32
373.879	324.1
374.26	301.96
374.641	307.38
375.021	303.09
375.402	318.23
375.783	331.79
376.163	321.16
376.544	325.68
376.925	326.36
377.305	328.85
377.686	307.83
378.066	301.96
378.447	333.14
378.827	318.23
379.208	313.03
379.588	328.4
379.968	334.27
380.349	347.38
380.729	308.73
381.109	327.04
381.489	327.72
381.87	320.94
382.25	317.55
382.63	335.17
383.01	325.01
383.39	324.55
383.77	336.53
384.15	353.71
384.53	320.26
384.91	333.59
385.29	332.91
385.67	324.33
386.049	376.53
386.429	340.6
386.809	336.3
387.189	344.21
387.568	321.39
387.948	339.47
388.328	348.51
388.707	342.41
389.087	329.07
389.466	338.34
389.846	373.37
390.225	378.11
390.605	360.03
390.984	353.03
391.363	365.91
391.743	364.33
392.122	372.69
392.501	364.78
392.881	374.72
393.26	347.15
393.639	350.54
394.018	361.84
394.397	376.76
394.776	365.46
395.155	376.08
395.534	373.82
395.913	391.44
396.292	367.26
396.671	369.75
397.05	382.41
397.429	376.3
397.808	374.27
398.186	388.28
398.565	376.98
398.944	386.7
399.323	382.18
399.701	392.57
400.08	393.25
400.458	403.65
400.837	406.36
401.215	404.78
401.594	423.53
401.972	410.43
402.351	419.47
402.729	397.32
403.107	393.93
403.486	412.69
403.864	393.25
404.242	405
404.62	418.11
404.999	433.7
405.377	424.21
405.755	432.8
406.133	437.77
406.511	432.8
406.889	428.51
407.267	438
407.645	439.8
408.023	468.28
408.401	452.91
408.779	454.72
409.156	463.31
409.534	448.39
409.912	459.47
410.29	476.64
410.667	487.26
411.045	509.18
411.422	488.62
411.8	490.65
412.178	518.67
412.555	522.06
412.933	531.33
413.31	532.01
413.687	524.77
414.065	531.1
414.442	549.86
414.819	545.34
415.197	551.89
415.574	563.64
415.951	564.1
416.328	572.46
416.705	590.54
417.082	604.09
417.46	603.64
417.837	606.81
418.214	644.55
418.591	635.96
418.967	641.16
419.344	626.69
419.721	668.5
420.098	635.51
420.475	663.3
420.852	658.33
421.228	688.61
421.605	671.66
421.982	694.94
422.358	711.44
422.735	698.78
423.111	699.23
423.488	727.48
423.864	733.58
424.241	723.19
424.617	747.59
424.994	756.18
425.37	771.55
425.746	741.04
426.123	755.05
426.499	786.46
426.875	795.95
427.251	788.95
427.627	778.78
428.003	809.29
428.379	812.68
428.756	815.16
429.132	844.77
429.507	862.84
429.883	880.02
430.259	863.07
430.635	853.81
431.011	892
431.387	922.96
431.763	917.08
432.138	906.01
432.514	940.36
432.89	950.53
433.265	960.7
433.641	973.35
434.016	963.63
434.392	983.97
434.767	995.04
435.143	981.26
435.518	1009.51
435.894	1022.61
436.269	1014.7
436.644	1041.82
437.02	1042.27
437.395	1069.39
437.77	1075.04
438.145	1089.73
438.52	1088.38
438.895	1110.3
439.271	1095.15
439.646	1130.41
440.021	1141.03
440.395	1146
440.77	1113.23
441.145	1131.09
441.52	1151.88
441.895	1151.42
442.27	1173.57
442.645	1159.33
443.019	1171.31
443.394	1177.64
443.769	1199.11
444.143	1186.68
444.518	1193.01
444.892	1171.99
445.267	1193.23
445.641	1235.94
446.016	1189.62
446.39	1227.81
446.764	1233.23
447.139	1221.93
447.513	1258.09
447.887	1235.04
448.262	1250.4
448.636	1238.88
449.01	1242.72
449.384	1267.58
449.758	1270.29
450.132	1253.79
450.506	1287.92
450.88	1266
451.254	1271.2
451.628	1297.41
452.002	1310.06
452.376	1306.45
452.75	1312.32
453.123	1318.2
453.497	1331.53
453.871	1341.25
454.244	1353.91
454.618	1346
454.992	1379.67
455.365	1388.03
455.739	1381.93
456.112	1386.45
456.486	1412.66
456.859	1419.67
457.232	1408.59
457.606	1420.8
457.979	1430.97
458.352	1464.41
458.725	1481.36
459.099	1447.24
459.472	1495.14
459.845	1501.7
460.218	1509.16
460.591	1532.88
460.964	1498.53
461.337	1548.25
461.71	1541.24
462.083	1565.42
462.456	1561.81
462.829	1571.75
463.201	1605.65
463.574	1590.06
463.947	1615.82
464.32	1646.33
464.692	1632.54
465.065	1641.58
465.438	1660.79
465.81	1686.1
466.183	1695.14
466.555	1709.83
466.928	1696.04
467.3	1750.28
467.672	1721.81
468.045	1758.87
468.417	1749.37
468.789	1772.65
469.161	1799.54
469.534	1798.87
469.906	1840.45
470.278	1842.93
470.65	1853.78
471.022	1894.23
471.394	1890.39
471.766	1888.35
472.138	1948.47
472.51	1985.3
472.882	2001.57
473.253	1987.56
473.625	2018.29
473.997	2056.49
474.369	2045.64
474.74	2041.12
475.112	2088.8
475.484	2086.99
475.855	2136.03
476.227	2138.07
476.598	2186.88
476.97	2179.42
477.341	2254.22
477.713	2241.79
478.084	2285.41
478.455	2278.63
478.827	2277.95
479.198	2345.52
479.569	2387.55
479.94	2383.26
480.311	2365.86
480.682	2435.01
481.053	2479.98
481.424	2516.59
481.795	2540.77
482.166	2555
482.537	2573.53
482.908	2599.3
483.279	2625.96
483.65	2659.86
484.021	2698.5
484.391	2722
484.762	2730.14
485.133	2737.82
485.503	2776.69
485.874	2790.03
486.244	2839.74
486.615	2864.37
486.985	2891.04
487.356	2918.61
487.726	2898.27
488.097	2970.59
488.467	2954.31
488.837	3042.45
489.207	3056.91
489.578	3082.9
489.948	3103.46
490.318	3127.87
490.688	3155.44
491.058	3152.95
491.428	3200.18
491.798	3256.68
492.168	3285.83
492.538	3262.33
492.908	3278.6
493.278	3358.82
493.648	3363.8
494.017	3336
494.387	3457.13
494.757	3395.43
495.126	3465.71
495.496	3467.07
495.866	3471.36
496.235	3486.28
496.605	3516.11
496.974	3526.05
497.344	3568.54
497.713	3577.35
498.082	3573.96
498.452	3609.66
498.821	3643.79
499.19	3637.01
499.559	3681.98
499.928	3675.65
500.298	3686.05
500.667	3731.02
501.036	3697.57
501.405	3709.78
501.774	3745.48
502.143	3763.79
502.512	3787.06
502.88	3821.64
503.249	3774.18
503.618	3802.2
503.987	3823.9
504.356	3883.33
504.724	3853.05
505.093	3861.86
505.462	3884.91
505.83	3884.69
506.199	3912.48
506.567	3954.51
506.936	3955.42
507.304	3998.13
507.672	3962.2
508.041	3993.16
508.409	4010.33
508.777	4021.63
509.145	4061.4
509.514	4076.32
509.882	4071.12
510.25	4083.1
510.618	4048.07
510.986	4080.84
511.354	4046.26
511.722	4127.84
512.09	4161.97
512.458	4118.8
512.826	4157.22
513.193	4194.06
513.561	4206.94
513.929	4203.55
514.297	4199.03
514.664	4184.11
515.032	4224.11
515.4	4262.53
515.767	4290.33
516.135	4318.57
516.502	4258.24
516.869	4288.74
517.237	4289.87
517.604	4299.82
517.972	4362.41
518.339	4349.53
518.706	4299.14
519.073	4377.78
519.44	4383.66
519.808	4394.96
520.175	4400.83
520.542	4440.15
520.909	4442.19
521.276	4430.43
521.643	4452.13
522.009	4491.68
522.376	4531.22
522.743	4498
523.11	4536.87
523.477	4531.9
523.843	4579.58
524.21	4598.11
524.577	4604.67
524.943	4663.87
525.31	4668.39
525.676	4665.46
526.043	4722.4
526.409	4708.85
526.776	4732.57
527.142	4748.17
527.508	4765.57
527.874	4827.26
528.241	4831.33
528.607	4821.84
528.973	4894.38
529.339	4898.44
529.705	4954.94
530.071	4969.4
530.437	4944.32
530.803	5007.37
531.169	5036.52
531.535	5028.16
531.901	5029.51
532.267	5112.68
532.632	5085.33
532.998	5117.65
533.364	5126.69
533.73	5151.09
534.095	5202.62
534.461	5197.19
534.826	5210.75
535.192	5219.57
535.557	5283.07
535.923	5278.55
536.288	5276.51
536.653	5330.07
537.019	5306.57
537.384	5301.6
537.749	5349.51
538.114	5409.84
538.479	5438.54
538.845	5399
539.21	5432.67
539.575	5473.8
539.94	5480.35
540.305	5530.29
540.67	5549.73
541.034	5558.54
541.399	5596.05
541.764	5616.17
542.129	5600.12
542.494	5635.37
542.858	5669.27
543.223	5675.37
543.587	5708.14
543.952	5732.55
544.316	5764.18
544.681	5742.49
545.045	5825.65
545.41	5844.86
545.774	5822.94
546.138	5889.15
546.503	5889.38
546.867	5901.36
547.231	5947.46
547.595	5935.03
547.959	5975.7
548.324	5959.43
548.688	6042.14
549.052	6025.42
549.416	6084.4
549.779	6071.97
550.143	6036.27
550.507	6144.74
550.871	6110.16
551.235	6176.6
551.599	6188.13
551.962	6177.73
552.326	6217.73
552.689	6250.95
553.053	6225.64
553.417	6230.39
553.78	6315.58
554.143	6274.68
554.507	6323.49
554.87	6351.97
555.234	6384.28
555.597	6387.45
555.96	6423.83
556.323	6389.48
556.686	6447.56
557.05	6433.55
557.413	6472.64
557.776	6544.73
558.139	6505.41
558.502	6575.24
558.865	6508.35
559.228	6599.19
559.59	6659.08
559.953	6622.69
560.316	6641.9
560.679	6656.82
561.041	6715.12
561.404	6751.73
561.767	6787.89
562.129	6766.42
562.492	6724.16
562.854	6784.5
563.217	6841.44
563.579	6838.73
563.941	6819.52
564.304	6842.8
564.666	6855.23
565.028	6938.62
565.39	6921.67
565.753	6964.61
566.115	6999.41
566.477	6948.79
566.839	7024.94
567.201	7105.39
567.563	7087.77
567.925	7112.85
568.287	7168.67
568.648	7172.06
569.01	7174.09
569.372	7244.82
569.734	7210.47
570.095	7287.08
570.457	7304.48
570.819	7363.01
571.18	7393.07
571.542	7372.5
571.903	7439.85
572.265	7454.08
572.626	7561.88
572.987	7567.3
573.349	7599.39
573.71	7693.17
574.071	7675.32
574.432	7771.36
574.794	7817.24
575.155	7870.12
575.516	7810.46
575.877	7946.95
576.238	8003.67
576.599	8071.69
576.96	8106.95
577.32	8163.44
577.681	8274.4
578.042	8313.27
578.403	8450.67
578.763	8505.58
579.124	8613.15
579.485	8734.73
579.845	8807.72
580.206	8890.88
580.566	8985.79
580.927	9092.46
581.287	9278.89
581.648	9320.02
582.008	9548.94
582.368	9637.76
582.728	9747.13
583.089	9932.21
583.449	10013.34
583.809	10209.72
584.169	10456.72
584.529	10539.2
584.889	10790.95
585.249	10955.23
585.609	11137.38
585.969	11399.97
586.329	11531.49
586.688	11732.62
587.048	11977.13
587.408	12203.56
587.768	12375.31
588.127	12618.92
588.487	12835.41
588.846	13163.31
589.206	13267.49
589.565	13523.75
589.925	13844.42
590.284	14120.58
590.643	14361.02
591.003	14671.07
591.362	14988.8
591.721	15105.18
592.08	15468.11
592.44	15824.26
592.799	16079.85
593.158	16259.28
593.517	16697.46
593.876	16951.91
594.235	17146.94
594.593	17462.86
594.952	17786.02
595.311	18006.12
595.67	18395.72
596.029	18846.78
596.387	19143.27
596.746	19335.58
597.104	19602.01
597.463	19851.5
597.822	20274.09
598.18	20442.44
598.538	20759.27
598.897	21098.47
599.255	21237.68
599.613	21848.96
599.972	21975.96
600.33	22393.58
600.688	22527.36
601.046	22928.71
601.404	23252.54
601.762	23465.64
602.12	23720.77
602.478	24050.94
602.836	24343.36
603.194	24513.07
603.552	24882.78
603.91	24965.94
604.268	25435.98
604.625	25605.7
604.983	25889.76
605.341	25997.78
605.698	26337.88
606.056	26810.18
606.413	26987.81
606.771	27297.18
607.128	27531.07
607.485	27504.18
607.843	27892.64
608.2	28218.51
608.557	28439.29
608.914	28537.37
609.272	28953.41
609.629	29255.54
609.986	29532.37
610.343	29532.37
610.7	30009.42
611.057	30023.89
611.414	30198.12
611.771	30302.07
612.127	30601.95
612.484	30787.48
612.841	31067.02
613.198	31160.13
613.554	31283.97
613.911	31566.67
614.267	31741.13
614.624	31899.77
614.98	32169.82
615.337	32399.64
615.693	32510.83
616.05	32408.91
616.406	32985.62
616.762	32937.93
617.118	33125.27
617.475	33285.72
617.831	33497.47
618.187	33607.07
618.543	33741.3
618.899	33989.66
619.255	34048.64
619.611	34099.94
619.967	34313.49
620.323	34508.74
620.678	34489.98
621.034	34538.12
621.39	34724.55
621.746	34759.35
622.101	35223.97
622.457	35041.38
622.812	35261.49
623.168	35384.2
623.523	35409.96
623.879	35505.78
624.234	35581.48
624.589	35657.18
624.945	35735.83
625.3	35797.75
625.655	35912.09
626.01	36096.04
626.365	36177.4
626.72	36162.48
627.075	36222.14
627.43	36202.93
627.785	36230.95
628.14	36464.85
628.495	36448.12
628.85	36448.58
629.205	36474.56
629.559	36685.41
629.914	36559.08
630.269	36708
630.623	36667.78
630.978	36541.45
631.332	36718.17
631.687	37029.13
632.041	36765.18
632.396	37002.23
632.75	36684.95
633.104	36941.9
633.459	36790.26
633.813	36852.18
634.167	36910.03
634.521	36961.1
634.875	37005.85
635.229	36963.14
635.583	36770.15
635.937	36945.29
636.291	36788.23
636.645	36874.1
636.999	36857.83
637.352	36989.13
637.706	36851.05
638.06	37048.11
638.413	36982.35
638.767	36935.34
639.121	36997.04
639.474	36875
639.828	36815.57
640.181	36849.69
640.534	36886.76
640.888	36948
641.241	36736.93
641.594	36918.17
641.947	36946.42
642.301	36844.95
642.654	36740.55
643.007	36944.61
643.36	36888.11
643.713	36782.58
644.066	37015.34
644.419	36759.08
644.771	36386.88
645.124	36125.19
645.477	36096.95
645.83	35951.41
646.182	35934.69
646.535	35875.26
646.888	35806.33
647.24	35664.19
647.593	35823.51
647.945	35684.3
648.298	35612.44
648.65	35586.23
649.002	35498.32
649.355	35642.95
649.707	35698.09
650.059	35648.14
650.411	36117.74
650.763	36209.94
651.115	36491.29
651.467	36431.85
651.819	36545.07
652.171	36360.22
652.523	36346.66
652.875	36392.31
653.227	36293.55
653.578	36483.6
653.93	36389.59
654.282	36223.27
654.633	36133.56
654.985	36361.12
655.337	36231.86
655.688	36196.38
656.039	36277.05
656.391	36095.14
656.742	36187.57
657.094	36207
657.445	36229.6
657.796	36146.89
658.147	36249.48
658.498	36132.43
658.849	36224.17
659.2	36143.5
659.551	36013.11
659.902	36120.9
660.253	36144.63
660.604	36256.04
660.955	35990.06
661.306	36049.04
661.656	35951.87
662.007	36028.93
662.358	35990.51
662.708	36085.2
663.059	36040.9
663.409	35751.19
663.76	36027.34
664.11	36039.77
664.461	36140.11
664.811	36025.99
665.161	35948.93
665.511	35944.18
665.862	35997.51
666.212	36152.99
666.562	36033.22
666.912	35945.76
667.262	35812.66
667.612	35931.75
667.962	35970.62
668.312	35868.03
668.662	35973.33
669.011	35966.55
669.361	35932.43
669.711	35961.81
670.06	35767.24
670.41	35878.65
670.76	35901.47
671.109	35906.89
671.459	35932.88
671.808	35791.64
672.157	35839.1
672.507	35572.21
672.856	35633.68
673.205	35774.47
673.554	35778.76
673.904	35684.98
674.253	35814.92
674.602	35681.36
674.951	35155.05
675.3	34984.43
675.649	35646.34
675.998	35543.06
676.346	35522.05
676.695	35663.51
677.044	35364.54
677.393	35496.06
677.741	35609.73
678.09	35404.08
678.438	35379
678.787	35489.05
679.135	35530.18
679.484	35365.67
679.832	35396.85
680.181	35100.81
680.529	35328.83
680.877	35204.31
681.225	35334.93
681.573	35330.19
681.922	35141.27
682.27	35101.94
682.618	35025.56
682.966	34896.3
683.314	34917.54
683.661	34852.46
684.009	34760.26
684.357	34684.1
684.705	34629.87
685.053	34780.6
685.4	34624.44
685.748	34386.93
686.095	34492.02
686.443	34336.09
686.79	34240.72
687.138	34355.3
687.485	34524.56
687.832	34083.44
688.18	34113.95
688.527	34082.54
688.874	33982.2
689.221	33977.68
689.568	33749.66
689.915	33864.46
690.262	33783.33
690.609	33797.8
690.956	33434.87
691.303	33506.73
691.65	33424.02
691.997	33335.66
692.344	33258.83
692.69	33180.86
693.037	33253.63
693.383	32972.73
693.73	33094.31
694.077	32914.21
694.423	32986.29
694.769	32725.51
695.116	32723.93
695.462	32774.1
695.808	32643.03
696.155	32509.24
696.501	32423.82
696.847	32450.71
697.193	32116.26
697.539	32276.26
697.885	31971.86
698.231	31905.64
698.577	32041.69
698.923	31909.03
699.269	31691.64
699.614	31555.37
699.96	31636.72
700.306	31580.91
700.651	31380.91
700.997	31457.52
701.342	31292.78
701.688	31222.5
702.033	31114.48
702.379	31089.62
702.724	31154.7
703.069	31128.72
703.415	30759.91
703.76	30831.1
704.105	30754.26
704.45	30690.76
704.795	30608.96
705.14	30527.6
705.485	30451.67
705.83	30318.57
706.175	30326.25
706.52	30277.44
706.865	30074.28
707.209	30090.78
707.554	29996.09
707.899	30109.76
708.243	29884.68
708.588	29986.6
708.932	29773.72
709.277	29696.44
709.621	29673.16
709.966	29540.96
710.31	29708.41
710.654	29296.9
710.998	29438.36
711.342	29338.71
711.687	29237.69
712.031	29117.24
712.375	29009
712.719	29079.05
713.063	29021.88
713.407	29082.67
713.75	28903.69
714.094	28896.46
714.438	28766.29
714.782	28941.43
715.125	28686.75
715.469	28675.9
715.812	28646.29
716.156	28354.78
716.499	28402.01
716.843	28455.79
717.186	28327.89
717.53	28378.73
717.873	28482.01
718.216	28291.28
718.559	28182.13
718.902	27992.75
719.246	28088.12
719.589	27941.91
719.932	27890.83
720.275	27892.87
720.617	27839.99
720.96	27806.99
721.303	27776.71
721.646	27792.31
721.989	27679.54
722.331	27622.37
722.674	27580.11
723.016	27659.65
723.359	27538.08
723.701	27612.88
724.044	27388.02
724.386	27300.12
724.729	27475.93
725.071	27235.94
725.413	27305.31
725.755	27364.97
726.097	27203.62
726.439	27122.49
726.782	27049.73
727.124	27230.06
727.465	26990.97
727.807	26934.25
728.149	26948.94
728.491	26883.86
728.833	26894.48
729.175	26754.14
729.516	26670.3
729.858	26788.94
730.199	26657.87
730.541	26565.9
730.882	26575.16
731.224	26618.1
731.565	26335.4
731.906	26414.26
732.248	26426.24
732.589	26261.05
732.93	26320.25
733.271	26302.63
733.612	26281.84
733.953	26428.27
734.294	26153.93
734.635	26016.53
734.976	26133.82
735.317	26028.74
735.658	26021.28
735.999	26033.48
736.339	25994.16
736.68	25971.11
737.021	25874.16
737.361	25797.33
737.702	25949.42
738.042	25865.8
738.383	25752.81
738.723	25753.72
739.063	25712.59
739.404	25705.36
739.744	25629.2
740.084	25478.69
740.424	25573.38
740.764	25500.84
741.104	25636.66
741.444	25513.72
741.784	25380.39
742.124	25440.05
742.464	25407.28
742.804	25364.57
743.143	25276.67
743.483	25319.38
743.823	25049.78
744.162	25009.78
744.502	25133.39
744.841	25048.88
745.181	25089.78
745.52	24981.98
745.86	25139.72
746.199	24971.36
746.538	25045.94
746.877	25040.06
747.216	24884.81
747.556	24820.63
747.895	24855.66
748.234	24756.23
748.573	24708.55
748.911	24653.63
749.25	24609.11
749.589	24620.64
749.928	24602.33
750.267	24577.7
750.605	24438.72
750.944	24403.92
751.283	24425.61
751.621	24507.87
751.96	24317.6
752.298	24240.08
752.636	24222.91
752.975	24140.65
753.313	24003.25
753.651	24152.85
753.989	24008.45
754.327	23899.53
754.666	23890.94
755.004	23867.44
755.342	23931.84
755.679	23804.61
756.017	23673.77
756.355	23704.05
756.693	23654.56
757.031	23608.91
757.368	23542.47
757.706	23385.19
758.044	23453.44
758.381	23429.71
758.719	23349.48
759.056	23382.7
759.394	23301.35
759.731	23076.5
760.068	23014.58
760.405	22963.51
760.743	22950.17
761.08	22946.11
761.417	22771.87
761.754	22802.15
762.091	22819.33
762.428	22730.97
762.765	22555.38
763.102	22573.69
763.438	22518.77
763.775	22333.69
764.112	22304.31
764.449	22334.37
764.785	22330.3
765.122	22113.59
765.458	22041.72
765.795	22047.37
766.131	21963.08
766.467	21843.54
766.804	21771.45
767.14	21722.64
767.476	21711.11
767.812	21525.35
768.148	21625.24
768.485	21491
768.821	21306.83
769.157	21273.16
769.492	21284
769.828	21232.93
770.164	21060.51
770.5	21045.82
770.836	21033.61
771.171	20910.23
771.507	20905.03
771.842	20616.68
772.178	20654.87
772.513	20571.93
772.849	20521.54
773.184	20541.65
773.519	20407.87
773.855	20318.15
774.19	20199.74
774.525	20147.99
774.86	20122.68
775.195	20105.28
775.53	19954.77
775.865	19874.1
776.2	19891.5
776.535	19636.81
776.87	19771.95
777.205	19632.52
777.539	19517.27
777.874	19512.07
778.209	19274.79
778.543	19395.24
778.878	19151.63
779.212	19206.77
779.547	19148.69
779.881	19080.9
780.215	19016.49
780.55	19047.23
780.884	18977.4
781.218	18867.57
781.552	18812.66
781.886	18768.14
782.22	18623.73
782.554	18542.15
782.888	18394.13
783.222	18270.52
783.556	18345.55
783.889	18259.9
784.223	18176.97
784.557	18046.35
784.89	18067.36
785.224	18015.16
785.557	17867.6
785.891	17865.11
786.224	17842.74
786.558	17757.32
786.891	17631.67
787.224	17591.44
787.557	17584.89
787.891	17519.13
788.224	17515.74
788.557	17431.45
788.89	17362.07
789.223	17421.73
789.556	17200.49
789.888	17094.73
790.221	17145.81
790.554	17001.63
790.887	17055.64
791.219	16913.27
791.552	16840.96
791.884	16852.25
792.217	16668.3
792.549	16668.76
792.882	16577.23
793.214	16519.38
793.546	16541.08
793.879	16402.55
794.211	16376.11
794.543	16389.44
794.875	16215.21
795.207	16342.44
795.539	16202.1
795.871	16167.3
796.203	16114.42
796.535	15948.78
796.867	15947.42
797.198	15832.85
797.53	15898.83
797.862	15721.89
798.193	15840.08
798.525	15678.73
798.856	15714.43
799.188	15583.14
799.519	15531.61
799.85	15419.07
800.182	15494.78
800.513	15422.01
800.844	15243.94
801.175	15299.08
801.506	15279.41
801.837	15223.14
802.168	15176.59
802.499	15149.02
802.83	15060.89
803.161	15030.38
803.491	15038.74
803.822	15013.43
804.153	14884.62
804.483	14861.35
804.814	14815.92
805.145	14827.45
805.475	14715.36
805.805	14608.7
806.136	14645.53
806.466	14611.18
806.796	14540.68
807.126	14485.99
807.457	14442.15
807.787	14350.85
808.117	14370.74
808.447	14359.21
808.777	14350.85
809.107	14314.02
809.436	14298.2
809.766	14135.72
810.096	14165.32
810.426	14130.29
810.755	14126.45
811.085	14030.63
811.414	13926
811.744	13925.1
812.073	13931.2
812.403	13884.42
812.732	13816.85
813.061	13726.69
813.39	13696.41
813.719	13632.23
814.049	13761.04
814.378	13728.72
814.707	13619.35
815.036	13613.92
815.365	13578.67
815.693	13469.52
816.022	13412.8
816.351	13385
816.68	13305.23
817.008	13357.21
817.337	13227.04
817.665	13217.32
817.994	13187.04
818.322	13132.13
818.651	13206.25
818.979	13141.39
819.307	13219.81
819.636	13119.02
819.964	13050.09
820.292	13117.44
820.62	13175.52
820.948	12995.41
821.276	13027.72
821.604	13039.25
821.932	12985.46
822.259	13004.45
822.587	12988.4
822.915	12978.23
823.243	13108.17
823.57	12926.71
823.898	13049.64
824.225	12953.6
824.553	12881.06
824.88	12896.43
825.207	12966.03
825.535	12882.64
825.862	12934.84
826.189	12947.27
826.516	12968.51
826.843	12940.49
827.17	12961.28
827.497	12975.07
827.824	12932.36
828.151	12958.57
828.478	12984.56
828.805	13006.71
829.131	12891.23
829.458	12876.99
829.785	12819.14
830.111	12867.27
830.438	12967.39
830.764	12919.93
831.09	12926.93
831.417	12799.93
831.743	12861.4
832.069	12808.97
832.395	12797.9
832.722	12864.34
833.048	12856.43
833.374	12807.39
833.7	12798.12
834.026	12818.24
834.351	12790.44
834.677	12757.22
835.003	12824.79
835.329	12833.38
835.654	12757.9
835.98	12712.48
836.306	12666.15
836.631	12608.3
836.956	12723.55
837.282	12681.52
837.607	12676.55
837.932	12556.77
838.258	12657.56
838.583	12604.91
838.908	12537.57
839.233	12574.85
839.558	12519.49
839.883	12434.07
840.208	12429.32
840.533	12413.95
840.858	12388.87
841.182	12404.24
841.507	12293.96
841.832	12347.29
842.156	12289.44
842.481	12252.15
842.805	12213.96
843.13	12231.59
843.454	12178.03
843.778	12121.98
844.103	12116.79
844.427	12101.65
844.751	12097.58
845.075	12068.2
845.399	12041.99
845.723	11991.59
846.047	11972.16
846.371	11863.46
846.695	11910.92
847.019	11870.69
847.343	11700.3
847.666	11678.38
847.99	11611.71
848.313	11608.78
848.637	11522.9
848.96	11489.23
849.284	11523.58
849.607	11379.18
849.931	11293.98
850.254	11297.6
850.577	11253.76
850.9	11190.71
851.223	11145.29
851.546	11129.92
851.869	11005.63
852.192	11093.99
852.515	10926.99
852.838	10922.69
853.161	10960.66
853.483	10880.89
853.806	10826.88
854.129	10830.49
854.451	10804.5
854.774	10723.83
855.096	10703.72
855.419	10693.09
855.741	10678.41
856.063	10633.66
856.385	10590.5
856.708	10534.23
857.03	10519.77
857.352	10492.2
857.674	10523.16
857.996	10436.38
858.318	10367
858.64	10380.56
858.961	10331.97
859.283	10252.88
859.605	10209.27
859.926	10291.3
860.248	10170.85
860.57	10228.7
860.891	10191.64
861.212	10141.02
861.534	10067.8
861.855	10082.72
862.176	10082.49
862.498	10095.14
862.819	10048.59
863.14	9994.13
863.461	9905.09
863.782	9923.17
864.103	9952.1
864.424	9904.41
864.745	9902.61
865.065	9858.77
865.386	9822.83
865.707	9831.2
866.027	9900.57
866.348	9752.1
866.668	9819.22
866.989	9765.44
867.309	9691.54
867.63	9715.72
867.95	9724.98
868.27	9656.51
868.59	9737.41
868.91	9678.66
869.23	9680.24
869.55	9637.76
869.87	9640.01
870.19	9678.43
870.51	9669.39
870.83	9562.73
871.15	9570.64
871.469	9578.55
871.789	9600.69
872.109	9529.28
872.428	9445.67
872.748	9595.5
873.067	9502.62
873.386	9535.61
873.706	9500.36
874.025	9391.21
874.344	9425.11
874.663	9399.8
874.982	9401.38
875.301	9378.78
875.62	9394.37
875.939	9309.63
876.258	9306.92
876.577	9271.66
876.896	9231.89
877.214	9238.44
877.533	9307.14
877.852	9324.77
878.17	9225.11
878.489	9215.39
878.807	9185.56
879.125	9214.72
879.444	9134.94
879.762	9159.12
880.08	9122.29
880.398	9136.75
880.716	9090.88
881.034	9118.9
881.352	9023.08
881.67	9051.56
881.988	8999.13
882.306	9108.05
882.624	8942.86
882.941	8974.04
883.259	8927.94
883.577	8891.11
883.894	8871.45
884.212	8900.15
884.529	8873.93
884.846	8812.01
885.164	8807.95
885.481	8751.68
885.798	8751.68
886.115	8678.91
886.432	8725.46
886.75	8685.92
887.067	8670.1
887.383	8620.15
887.7	8619.25
888.017	8707.16
888.334	8632.58
888.651	8600.72
888.967	8529.31
889.284	8495.41
889.6	8509.65
889.917	8488.86
890.233	8498.35
890.55	8434.62
890.866	8431.69
891.182	8390.33
891.498	8368.86
891.815	8313.5
892.131	8328.64
892.447	8313.5
892.763	8272.82
893.079	8297.68
893.395	8190.34
893.71	8211.35
894.026	8141.3
894.342	8141.52
894.657	8093.39
894.973	8118.02
895.289	8092.48
895.604	8096.78
895.92	8008.42
896.235	7926.16
896.55	8008.42
896.865	7988.53
897.181	7939.27
897.496	7939.04
897.811	7878.25
898.126	7807.07
898.441	7877.8
898.756	7777.01
899.071	7765.71
899.386	7694.3
899.7	7695.43
900.015	7699.27
900.33	7647.75
900.644	7585.15
900.959	7608.2
901.273	7573.85
901.588	7465.38
901.902	7516.68
902.216	7431.26
902.531	7471.94
902.845	7422.67
903.159	7329.34
903.473	7344.93
903.787	7287.31
904.101	7299.06
904.415	7278.95
904.729	7236.69
905.042	7255.44
905.356	7193.07
905.67	7151.27
905.984	7152.4
906.297	7186.52
906.611	7116.24
906.924	7086.64
907.237	7067.2
907.551	7010.71
907.864	6977.49
908.177	7008.22
908.491	6965.06
908.804	6896.58
909.117	6845.96
909.43	6849.13
909.743	6873.31
910.056	6810.71
910.368	6764.38
910.681	6729.81
910.994	6739.07
911.307	6708.79
911.619	6659.98
911.932	6662.92
912.244	6616.14
912.557	6556.93
912.869	6547.89
913.181	6552.64
913.494	6501.11
913.806	6464.96
914.118	6487.33
914.43	6492.08
914.742	6436.03
915.054	6361.01
915.366	6397.84
915.678	6363.94
915.99	6322.36
916.302	6286.43
916.613	6260.67
916.925	6267.67
917.236	6176.15
917.548	6179.77
917.859	6207.34
918.171	6124.4
918.482	6092.54
918.794	6111.97
919.105	6049.37
919.416	6012.77
919.727	6009.83
920.038	6032.88
920.349	5914.92
920.66	5975.93
920.971	5909.49
921.282	5902.03
921.593	5863.17
921.903	5858.42
922.214	5853
922.525	5793.34
922.835	5761.7
923.146	5762.6
923.456	5706.11
923.767	5662.04
924.077	5664.75
924.387	5651.65
924.697	5621.14
925.008	5601.25
925.318	5580.23
925.628	5566.22
925.938	5536.85
926.248	5477.86
926.558	5462.27
926.867	5450.75
927.177	5419.11
927.487	5413.46
927.796	5388.15
928.106	5344.08
928.416	5356.29
928.725	5290.98
929.034	5288.04
929.344	5247.36
929.653	5295.95
929.962	5234.48
930.271	5220.92
930.581	5143.41
930.89	5171.43
931.199	5128.5
931.508	5121.72
931.817	5098.67
932.125	5093.92
932.434	5113.13
932.743	4995.62
933.051	4984.32
933.36	4971.44
933.669	4889.41
933.977	4981.38
934.286	4920.36
934.594	4874.94
934.902	4889.18
935.21	4880.82
935.519	4848.95
935.827	4792.46
936.135	4810.54
936.443	4773.93
936.751	4748.39
937.059	4723.53
937.367	4744.32
937.674	4686.47
937.982	4715.85
938.29	4667.26
938.597	4648.28
938.905	4589.75
939.213	4604.89
939.52	4595.85
939.827	4557.66
940.135	4508.4
940.442	4526.25
940.749	4537.78
941.056	4481.96
941.363	4420.94
941.67	4425.46
941.977	4409.87
942.284	4392.7
942.591	4387.05
942.898	4399.93
943.205	4343.66
943.511	4299.59
943.818	4310.89
944.125	4321.74
944.431	4285.81
944.738	4292.13
945.044	4225.02
945.35	4214.17
945.657	4217.11
945.963	4187.28
946.269	4164.23
946.575	4157.9
946.881	4152.25
947.187	4096.43
947.493	4086.04
947.799	4088.07
948.105	4030.44
948.41	4053.27
948.716	4053.72
949.022	4006.26
949.327	3960.84
949.633	3992.93
949.938	3952.48
950.244	3941.18
950.549	3926.49
950.854	3886.04
951.16	3899.6
951.465	3914.97
951.77	3827.51
952.075	3874.74
952.38	3852.82
952.685	3815.08
952.99	3801.52
953.294	3785.03
953.599	3741.86
953.904	3753.39
954.209	3742.54
954.513	3736.67
954.818	3682.43
955.122	3703.45
955.426	3686.05
955.731	3647.86
956.035	3617.12
956.339	3607.63
956.643	3604.69
956.948	3601.76
957.252	3554.53
957.556	3572.15
957.86	3524.24
958.163	3532.15
958.467	3513.62
958.771	3521.53
959.075	3464.81
959.378	3493.74
959.682	3455.54
959.985	3457.8
960.289	3426.17
960.592	3442.21
960.896	3416.22
961.199	3393.4
961.502	3362.44
961.805	3310.69
962.108	3318.15
962.411	3325.15
962.714	3322.67
963.017	3297.58
963.32	3278.6
963.623	3240.41
963.926	3269.11
964.228	3234.08
964.531	3232.5
964.833	3201.31
965.136	3194.99
965.438	3179.85
965.741	3176.23
966.043	3143.24
966.345	3134.2
966.648	3169.68
966.95	3106.85
967.252	3106.4
967.554	3095.33
967.856	3058.94
968.158	3033.18
968.46	3015.56
968.761	3002.45
969.063	2987.08
969.365	3009.68
969.666	2988.44
969.968	2970.59
970.269	2962
970.571	2986.4
970.872	2953.19
971.174	2933.3
971.475	2957.48
971.776	2903.47
972.077	2900.76
972.378	2851.94
972.679	2876.8
972.98	2838.61
973.281	2809.01
973.582	2833.41
973.883	2821.21
974.183	2803.13
974.484	2784.38
974.785	2783.02
975.085	2787.31
975.386	2783.47
975.686	2757.71
975.986	2725.17
976.287	2753.19
976.587	2715.9
976.887	2714.1
977.187	2680.2
977.487	2669.35
977.787	2638.62
978.087	2653.76
978.387	2636.58
978.687	2620.31
978.987	2595.23
979.286	2580.09
979.586	2588
979.885	2572.86
980.185	2584.16
980.484	2564.49
980.784	2556.13
981.083	2542.8
981.382	2537.38
981.682	2504.61
981.981	2502.8
982.28	2473.42
982.579	2505.74
982.878	2449.47
983.177	2485.4
983.475	2448.79
983.774	2423.03
984.073	2430.49
984.372	2406.08
984.67	2417.15
984.969	2423.93
985.267	2408.11
985.566	2416.7
985.864	2360.43
986.162	2381.45
986.461	2366.99
986.759	2316.14
987.057	2286.31
987.355	2312.98
987.653	2323.6
987.951	2284.05
988.249	2265.52
988.547	2293.32
988.844	2293.32
989.142	2253.54
989.44	2287.21
989.737	2249.02
990.035	2253.77
990.332	2217.39
990.63	2198.85
990.927	2224.16
991.224	2200.44
991.521	2202.92
991.819	2166.31
992.116	2160.66
992.413	2130.61
992.71	2141.23
993.006	2138.07
993.303	2078.41
993.6	2126.99
993.897	2103.04
994.193	2139.65
994.49	2069.82
994.787	2065.3
995.083	2045.86
995.379	2037.5
995.676	2066.88
995.972	2047.45
996.268	2035.02
996.565	2003.15
996.861	1991.85
997.157	1999.31
997.453	1981.01
997.749	1960.67
998.044	1957.28
998.34	1970.84
998.636	1944.62
998.932	1957.73
999.227	1898.75
999.523	1910.73
999.818	1876.15
1000.114	1896.04
1000.409	1899.65
1000.704	1878.86
1001	1864.4
1001.295	1859.88
1001.59	1815.14
1001.885	1829.15
1002.18	1820.11
1002.475	1814.68
1002.77	1784.4
1003.065	1796.38
1003.359	1784.18
1003.654	1757.96
1003.949	1780.56
1004.243	1762.03
1004.538	1751.18
1004.832	1741.92
1005.127	1742.37
1005.421	1730.84
1005.715	1715.7
1006.009	1715.03
1006.304	1665.99
1006.598	1697.4
1006.892	1699.43
1007.186	1645.87
1007.48	1681.58
1007.773	1692.88
1008.067	1623.73
1008.361	1635.93
1008.655	1615.14
1008.948	1625.08
1009.242	1605.2
1009.535	1606.33
1009.829	1571.98
1010.122	1597.74
1010.415	1573.11
1010.708	1580.79
1011.001	1579.89
1011.295	1559.78
1011.588	1520.91
1011.881	1522.49
1012.173	1536.5
1012.466	1513.67
1012.759	1479.33
1013.052	1492.43
1013.344	1489.27
1013.637	1489.27
1013.93	1470.06
1014.222	1434.58
1014.514	1463.73
1014.807	1434.35
1015.099	1423.96
1015.391	1429.84
1015.683	1425.32
1015.976	1397.97
1016.268	1397.07
1016.56	1397.97
1016.851	1383.51
1017.143	1369.95
1017.435	1389.84
1017.727	1386.67
1018.018	1352.78
1018.31	1342.61
1018.602	1350.52
1018.893	1332.66
1019.185	1306.67
1019.476	1329.27
1019.767	1323.17
1020.058	1309.16
1020.35	1301.7
1020.641	1280.23
1020.932	1264.19
1021.223	1263.51
1021.514	1263.74
1021.804	1250.86
1022.095	1257.18
1022.386	1219.45
1022.677	1202.27
1022.967	1214.47
1023.258	1188.94
1023.548	1205.66
1023.839	1184.42
1024.129	1224.64
1024.419	1202.95
1024.709	1181.93
1025	1190.75
1025.29	1185.1
1025.58	1145.32
1025.87	1095.83
1026.16	1140.13
1026.449	1108.26
1026.739	1146.45
1027.029	1131.99
1027.319	1108.71
1027.608	1092.89
1027.898	1096.06
1028.187	1098.77
1028.477	1085.44
1028.766	1064.2
1029.055	1062.61
1029.344	1072.56
1029.634	1041.37
1029.923	1035.04
1030.212	1013.35
1030.501	992.33
1030.79	1037.08
1031.078	1016.06
1031.367	1045.21
1031.656	1002.5
1031.945	1008.15
1032.233	994.14
1032.522	979.45
1032.81	997.3
1033.099	971.54
1033.387	967.47
1033.675	946.68
1033.963	969.96
1034.251	956.4
1034.54	933.13
1034.828	944.65
1035.116	959.57
1035.403	939.45
1035.691	938.77
1035.979	933.8
1036.267	903.3
1036.554	912.79
1036.842	916.18
1037.129	932.9
1037.417	892
1037.704	896.97
1037.992	902.17
1038.279	878.66
1038.566	877.53
1038.853	877.53
1039.14	877.53
