Data from hue_38_FLMS001491_00031.txt Node
Date: Tue Feb 07 17:31:24 GMT 2017
User: dcchb
Spectrometer: FLMS00149
Trigger mode: 0
Integration Time (sec): 2.000000E-2
Scans to average: 10
Electric dark correction enabled: true
Nonlinearity correction enabled: false
Boxcar width: 0
XAxis mode: Wavelengths
Number of Pixels in Spectrum: 2048
>>>>>Begin Spectral Data<<<<<
341.393	-12.94
341.776	-12.94
342.16	-12.94
342.543	-72.6
342.927	-55.42
343.31	-76.21
343.693	-78.92
344.077	-40.28
344.46	-71.02
344.843	-58.13
345.226	-33.5
345.61	-37.57
345.993	-17.23
346.376	-2.54
346.759	20.51
347.142	41.98
347.525	17.57
347.908	44.46
348.291	72.94
348.674	87.62
349.057	130.34
349.44	124.01
349.823	148.87
350.206	171.69
350.588	223.44
350.971	227.06
351.354	241.97
351.737	233.16
352.119	246.04
352.502	275.64
352.884	275.19
353.267	280.39
353.65	293.04
354.032	284
354.414	316.32
354.797	320.39
355.179	310.44
355.562	317
355.944	319.48
356.326	340.95
356.709	337.11
357.091	358.58
357.473	325.13
357.855	338.24
358.238	336.66
358.62	356.54
359.002	353.15
359.384	336.88
359.766	359.26
360.148	366.94
360.53	346.38
360.912	344.34
361.294	339.14
361.676	334.17
362.057	342.53
362.439	337.11
362.821	323.55
363.203	335.75
363.584	317.68
363.966	323.55
364.348	315.19
364.729	320.39
365.111	315.42
365.493	308.64
365.874	327.39
366.256	325.81
366.637	304.57
367.019	295.53
367.4	334.62
367.781	335.75
368.163	326.49
368.544	316.77
368.925	327.84
369.306	325.58
369.688	319.03
370.069	316.09
370.45	316.09
370.831	332.59
371.212	323.55
371.593	317
371.974	306.6
372.355	292.59
372.736	331.23
373.117	336.43
373.498	317
373.879	330.33
374.26	322.65
374.641	312.03
375.021	317.9
375.402	314.51
375.783	345.25
376.163	325.58
376.544	315.87
376.925	320.84
377.305	305.92
377.686	359.93
378.066	328.75
378.447	348.63
378.827	320.16
379.208	344.12
379.588	345.7
379.968	343.21
380.349	341.18
380.729	349.76
381.109	333.95
381.489	331.46
381.87	344.12
382.25	353.15
382.63	345.7
383.01	345.92
383.39	337.11
383.77	337.79
384.15	347.96
384.53	343.66
384.91	362.65
385.29	345.92
385.67	340.27
386.049	363.78
386.429	360.61
386.809	354.74
387.189	351.8
387.568	368.07
387.948	364.23
388.328	365.81
388.707	366.94
389.087	365.81
389.466	374.17
389.846	357
390.225	371.01
390.605	346.6
390.984	372.82
391.363	361.74
391.743	376.43
392.122	371.01
392.501	365.13
392.881	365.58
393.26	376.2
393.639	364.68
394.018	380.5
394.397	377.79
394.776	393.61
395.155	384.79
395.534	381.85
395.913	352.02
396.292	394.28
396.671	383.44
397.05	391.8
397.429	385.92
397.808	389.09
398.186	387.05
398.565	399.03
398.944	382.08
399.323	401.51
399.701	413.04
400.08	397
400.458	400.61
400.837	415.75
401.215	401.51
401.594	424.79
401.972	404.23
402.351	419.59
402.729	381.85
403.107	417.33
403.486	418.01
403.864	391.57
404.242	413.27
404.62	412.36
404.999	416.66
405.377	410.55
405.755	429.76
406.133	407.16
406.511	419.82
406.889	442.64
407.267	440.16
407.645	423.66
408.023	435.86
408.401	433.15
408.779	444.45
409.156	457.56
409.534	454.85
409.912	448.29
410.29	457.33
410.667	475.64
411.045	453.49
411.422	468.86
411.8	477.22
412.178	469.99
412.555	469.31
412.933	477.67
413.31	491.23
413.687	477.45
414.065	477.67
414.442	471.57
414.819	461.85
415.197	500.72
415.574	485.13
415.951	487.16
416.328	500.5
416.705	483.55
417.082	509.99
417.46	511.34
417.837	508.63
418.214	507.05
418.591	521.96
418.967	487.39
419.344	504.79
419.721	514.73
420.098	521.51
420.475	521.96
420.852	527.16
421.228	504.56
421.605	558.35
421.982	508.63
422.358	541.62
422.735	558.12
423.111	528.29
423.488	551.12
423.864	533.94
424.241	572.36
424.617	570.78
424.994	547.73
425.37	573.94
425.746	568.74
426.123	583.43
426.499	559.93
426.875	582.08
427.251	578.69
427.627	589.08
428.003	596.31
428.379	598.35
428.756	627.5
429.132	617.78
429.507	619.14
429.883	589.76
430.259	616.2
430.635	634.28
431.011	615.52
431.387	614.62
431.763	647.38
432.138	633.6
432.514	654.84
432.89	669.3
433.265	666.14
433.641	671.56
434.016	668.4
434.392	677.67
434.767	688.06
435.143	673.37
435.518	711.34
435.894	681.96
436.269	688.74
436.644	727.61
437.02	715.18
437.395	722.64
437.77	723.31
438.145	717.21
438.52	725.35
438.895	729.87
439.271	735.97
439.646	764.67
440.021	744.56
440.395	732.35
440.77	753.14
441.145	766.93
441.52	782.97
441.895	790.66
442.27	783.43
442.645	807.61
443.019	792.24
443.394	789.75
443.769	814.39
444.143	779.13
444.518	791.56
444.892	813.26
445.267	801.28
445.641	799.24
446.016	815.29
446.39	816.65
446.764	808.74
447.139	808.06
447.513	833.82
447.887	826.36
448.262	830.2
448.636	842.18
449.01	840.6
449.384	874.95
449.758	862.07
450.132	863.88
450.506	878.11
450.88	868.17
451.254	890.77
451.628	884.21
452.002	896.42
452.376	920.82
452.75	911.78
453.123	906.59
453.497	968.28
453.871	921.73
454.244	950.43
454.618	972.8
454.992	956.98
455.365	976.87
455.739	973.25
456.112	999.92
456.486	980.48
456.859	1006.02
457.232	1029.52
457.606	1035.17
457.979	1017.54
458.352	1070.65
458.725	1044.66
459.099	1067.03
459.472	1069.29
459.845	1072.01
460.218	1110.42
460.591	1095.96
460.964	1101.16
461.337	1166.01
461.71	1180.7
462.083	1191.55
462.456	1159.01
462.829	1174.38
463.201	1198.33
463.574	1213.02
463.947	1215.5
464.32	1235.84
464.692	1246.69
465.065	1282.17
465.438	1290.76
465.81	1309.97
466.183	1330.98
466.555	1350.19
466.928	1362.39
467.3	1353.13
467.672	1378.66
468.045	1446.23
468.417	1427.02
468.789	1455.05
469.161	1488.27
469.534	1493.92
469.906	1535.27
470.278	1526.46
470.65	1565.1
471.022	1578.43
471.394	1623.63
471.766	1649.17
472.138	1667.47
472.51	1705.44
472.882	1749.5
473.253	1794.7
473.625	1805.55
473.997	1833.79
474.369	1874.92
474.74	1911.31
475.112	1943.17
475.484	1991.53
475.855	2041.7
476.227	2030.62
476.598	2145.88
476.97	2167.34
477.341	2211.64
477.713	2265.87
478.084	2316.72
478.455	2370.5
478.827	2398.52
479.198	2493.89
479.569	2538.86
479.94	2611.17
480.311	2641.91
480.682	2772.53
481.053	2845.29
481.424	2890.26
481.795	2980.2
482.166	2976.14
482.537	3094.55
482.908	3192.4
483.279	3243.47
483.65	3319.86
484.021	3407.76
484.391	3475.56
484.762	3503.58
485.133	3639.4
485.503	3705.61
485.874	3823.12
486.244	3896.34
486.615	4024.24
486.985	4127.74
487.356	4235.99
487.726	4304.92
488.097	4404.35
488.467	4466.27
488.837	4565.02
489.207	4684.34
489.578	4835.07
489.948	4913.26
490.318	5043.43
490.688	5093.37
491.058	5166.36
491.428	5262.18
491.798	5441.61
492.168	5569.97
492.538	5611.1
492.908	5732.22
493.278	5893.12
493.648	5964.76
494.017	6061.03
494.387	6156.17
494.757	6286.56
495.126	6340.79
495.496	6436.38
495.866	6502.6
496.235	6661.24
496.605	6771.29
496.974	6823.72
497.344	6918.18
497.713	6971.74
498.082	7066.88
498.452	7131.51
498.821	7317.27
499.19	7392.52
499.559	7439.97
499.928	7512.06
500.298	7600.87
500.667	7687.2
501.036	7760.87
501.405	7862.11
501.774	7885.84
502.143	8066.17
502.512	7994.08
502.88	8191.14
503.249	8245.38
503.618	8345.71
503.987	8414.86
504.356	8508.87
504.724	8535.09
505.093	8665.03
505.462	8702.99
505.83	8815.53
506.199	8919.26
506.567	8972.59
506.936	9063.66
507.304	9146.82
507.672	9160.38
508.041	9269.53
508.409	9335.97
508.777	9438.11
509.145	9488.06
509.514	9540.26
509.882	9667.94
510.25	9724.43
510.618	9737.77
510.986	9808.05
511.354	9876.29
511.722	9955.16
512.09	10055.5
512.458	10064.09
512.826	10187.92
513.193	10250.97
513.561	10316.06
513.929	10465.21
514.297	10479.67
514.664	10571.42
515.032	10655.71
515.4	10669.04
515.767	10737.29
516.135	10812.77
516.502	10779.77
516.869	10906.32
517.237	10925.31
517.604	10986.1
517.972	11073.55
518.339	11185.41
518.706	11187.22
519.073	11223.38
519.44	11303.38
519.808	11445.74
520.175	11386.31
520.542	11576.14
520.909	11697.49
521.276	11702.69
521.643	11777.71
522.009	11883.02
522.376	11912.62
522.743	11994.88
523.11	12058.84
523.477	12218.15
523.843	12300.41
524.21	12413.63
524.577	12418.83
524.943	12553.96
525.31	12634.41
525.676	12767.07
526.043	12816.1
526.409	12888.64
526.776	12995.53
527.142	13024.23
527.508	13069.2
527.874	13121.18
528.241	13220.84
528.607	13252.02
528.973	13453.38
529.339	13425.35
529.705	13479.14
530.071	13612.69
530.437	13705.8
530.803	13752.35
531.169	13810.88
531.535	13828.51
531.901	13950.09
532.267	13911.67
532.632	14082.96
532.998	14105.56
533.364	14249.96
533.73	14246.8
534.095	14318.44
534.461	14440.69
534.826	14526.57
535.192	14551.43
535.557	14626.9
535.923	14616.28
536.288	14699.44
536.653	14733.57
537.019	14704.42
537.384	14774.24
537.749	14919.33
538.114	14882.26
538.479	14958.19
538.845	15055.37
539.21	15023.73
539.575	15105.54
539.94	15216.72
540.305	15314.12
540.67	15340.33
541.034	15363.83
541.399	15420.1
541.764	15421.46
542.129	15568.12
542.494	15669.36
542.858	15665.75
543.223	15705.29
543.587	15769.7
543.952	15781.68
544.316	15896.93
544.681	15837.04
545.045	16016.47
545.41	16041.56
545.774	16164.72
546.138	16163.13
546.503	16254.66
546.867	16219.86
547.231	16427.31
547.595	16417.36
547.959	16455.33
548.324	16465.95
548.688	16526.97
549.052	16682.89
549.416	16769.67
549.779	16591.6
550.143	16704.36
550.507	16898.48
550.871	16907.97
551.235	16904.36
551.599	17088.99
551.962	17092.38
552.326	17165.82
552.689	17177.12
553.053	17182.32
553.417	17280.17
553.78	17459.6
554.143	17399.26
554.507	17500.05
554.87	17543.21
555.234	17782.53
555.597	17593.38
555.96	17669.76
556.323	17819.59
556.686	17793.37
557.05	17897.78
557.413	17935.97
557.776	17988.4
558.139	18172.12
558.502	18104.1
558.865	18172.35
559.228	18304.09
559.59	18329.41
559.953	18399.23
560.316	18595.61
560.679	18590.42
561.041	18617.99
561.404	18827.7
561.767	18886.9
562.129	18636.52
562.492	19026.79
562.854	18971.87
563.217	19004.42
563.579	19118.08
563.941	19184.3
564.304	19272.43
564.666	19446.66
565.028	19485.98
565.39	19533.89
565.753	19572.31
566.115	19666.09
566.477	19686.88
566.839	19701.35
567.201	19848.69
567.563	19879.19
567.925	19965.29
568.287	20054.33
568.648	20034.22
569.01	20219.3
569.372	20315.34
569.734	20249.13
570.095	20474.66
570.457	20528.67
570.819	20604.83
571.18	20667.2
571.542	20768.44
571.903	20801.88
572.265	20883.24
572.626	20994.87
572.987	21057.47
573.349	21148.77
573.71	21267.41
574.071	21406.84
574.432	21563.22
574.794	21571.81
575.155	21689.09
575.516	21691.12
575.877	21802.99
576.238	21878.46
576.599	22094.05
576.96	22111.68
577.32	22259.25
577.681	22281.39
578.042	22521.61
578.403	22532.91
578.763	22601.61
579.124	22860.59
579.485	23134.25
579.845	23286.79
580.206	23365.88
580.566	23421.47
580.927	23593
581.287	23920.67
581.648	23805.19
582.008	24170.38
582.368	24183.49
582.728	24378.06
583.089	24447.21
583.449	24745.28
583.809	24978.72
584.169	25176
584.529	25273.4
584.889	25419.16
585.249	25600.63
585.609	25639.95
585.969	26052.82
586.329	26216.2
586.688	26475.18
587.048	26596.53
587.408	26702.07
587.768	26984.32
588.127	27123.98
588.487	27224.99
588.846	27702.72
589.206	27584.3
589.565	27932.54
589.925	28241.91
590.284	28305.64
590.643	28504.05
591.003	28854.33
591.362	29079.63
591.721	29232.85
592.08	29265.16
592.44	29663.8
592.799	29911.93
593.158	29930
593.517	30224.46
593.876	30497.45
594.235	30548.52
594.593	30862.63
594.952	31024.44
595.311	31137.43
595.67	31444.54
596.029	31798.2
596.387	31947.8
596.746	32174.01
597.104	32276.16
597.463	32357.96
597.822	32704.39
598.18	32892.41
598.538	32938.29
598.897	33415.79
599.255	33263.25
599.613	33782.56
599.972	33793.18
600.33	34001.76
600.688	33995.43
601.046	34247.4
601.404	34593.84
601.762	34683.33
602.12	34931.45
602.478	35165.8
602.836	35221.39
603.194	35204.22
603.552	35415.96
603.91	35558.1
604.268	35665.22
604.625	35875.38
604.983	36159.44
605.341	36079.45
605.698	36392.21
606.056	36569.38
606.413	36629.26
606.771	36902.25
607.128	37024.05
607.485	36889.14
607.843	37042.36
608.2	37377.72
608.557	37596.02
608.914	37410.71
609.272	37680.99
609.629	37932.28
609.986	38197.36
610.343	38045.04
610.7	38442.32
611.057	38401.65
611.414	38478.93
611.771	38583.11
612.127	38890.45
612.484	39009.99
612.841	39181.29
613.198	39178.12
613.554	39231.91
613.911	39491.56
614.267	39544.67
614.624	39587.15
614.98	39785.79
615.337	39896.07
615.693	39922.28
616.05	39899.46
616.406	40279.34
616.762	40225.1
617.118	40319.56
617.475	40353.46
617.831	40553.45
618.187	40549.39
618.543	40659.67
618.899	41013.33
619.255	40872.77
619.611	41091.29
619.967	41041.58
620.323	41275.47
620.678	41107.56
621.034	41135.13
621.39	41185.53
621.746	41143.72
622.101	41738.28
622.457	41376.26
622.812	41449.93
623.168	41678.85
623.523	41636.81
623.879	41844.27
624.234	41641.56
624.589	41863.48
624.945	41742.57
625.3	42016.69
625.655	41920.2
626.01	41903.93
626.365	42124.49
626.72	41887.2
627.075	41922.91
627.43	42071.38
627.785	42139.85
628.14	42255.33
628.495	42310.47
628.85	42153.64
629.205	42089.91
629.559	42456
629.914	42310.7
630.269	42278.38
630.623	42173.75
630.978	42087.88
631.332	42468.43
631.687	42538.94
632.041	42162.9
632.396	42358.15
632.75	42193.41
633.104	42214.2
633.459	42213.52
633.813	42166.74
634.167	42259.62
634.521	42196.12
634.875	42337.59
635.229	42310.7
635.583	42144.15
635.937	42153.41
636.291	42147.31
636.645	42194.09
636.999	42004.49
637.352	42202.9
637.706	41961.78
638.06	42107.99
638.413	41902.12
638.767	41841.78
639.121	42076.13
639.474	41999.07
639.828	41951.61
640.181	41944.83
640.534	42037.26
640.888	41866.41
641.241	41705.29
641.594	41843.14
641.947	41961.33
642.301	41748.45
642.654	41843.14
643.007	41865.28
643.36	41856.24
643.713	41626.42
644.066	41911.16
644.419	41597.49
644.771	41407.22
645.124	41080.67
645.477	41047.68
645.83	40819.89
646.182	40683.17
646.535	40435.49
646.888	40750.96
647.24	40534.92
647.593	40627.35
647.945	40534.47
648.298	40311.65
648.65	40341.93
649.002	40314.59
649.355	40439.11
649.707	40386.45
650.059	40645.2
650.411	40965.87
650.763	41143.72
651.115	41390.49
651.467	41244.51
651.819	41349.82
652.171	41324.96
652.523	41132.2
652.875	41099.88
653.227	41089.48
653.578	41295.13
653.93	41094
654.282	41005.87
654.633	41000
654.985	41056.72
655.337	41052.42
655.688	40958.64
656.039	41154.34
656.391	40806.55
656.742	40923.61
657.094	40901.69
657.445	41157.28
657.796	40980.56
658.147	41013.1
658.498	40865.31
658.849	40997.96
659.2	40957.06
659.551	40771.53
659.902	40988.02
660.253	40859.89
660.604	40980.33
660.955	40874.57
661.306	40920.45
661.656	40919.32
662.007	40887.23
662.358	40762.94
662.708	40984.63
663.059	40900.34
663.409	40568.82
663.76	40891.3
664.11	40741.7
664.461	40731.08
664.811	40705.54
665.161	40737.63
665.511	40659.44
665.862	40518.2
666.212	40827.12
666.562	40815.14
666.912	40632.77
667.262	40739.21
667.612	40637.75
667.962	40611.53
668.312	40756.61
668.662	40913.9
669.011	40711.42
669.361	40619.21
669.711	40638.65
670.06	40518.65
670.41	40398.43
670.76	40395.49
671.109	40510.52
671.459	40440.91
671.808	40345.32
672.157	40531.99
672.507	40363.4
672.856	40359.79
673.205	40473.91
673.554	40436.39
673.904	40319.56
674.253	40494.7
674.602	40341.93
674.951	39948.27
675.3	39672.12
675.649	40322.27
675.998	40367.7
676.346	40381.48
676.695	40371.54
677.044	40024.88
677.393	40216.51
677.741	40311.65
678.09	40281.82
678.438	40020.81
678.787	40209.28
679.135	40150.98
679.484	39932.68
679.832	40045.9
680.181	39812.68
680.529	40061.49
680.877	39817.65
681.225	39847.03
681.573	39962.96
681.922	39644.78
682.27	39538.56
682.618	39773.36
682.966	39438.68
683.314	39626.47
683.661	39539.47
684.009	39146.94
684.357	39202.3
684.705	39202.98
685.053	39049.99
685.4	39074.62
685.748	38897.45
686.095	39078.46
686.443	38845.48
686.79	38705.82
687.138	38807.28
687.485	38807.06
687.832	38697.68
688.18	38689.32
688.527	38626.5
688.874	38484.13
689.221	38414.53
689.568	38280.52
689.915	38276
690.262	38436
690.609	38289.33
690.956	37951.04
691.303	37946.06
691.65	37962.34
691.997	37932.05
692.344	37667.65
692.69	37673.98
693.037	37749.91
693.383	37452.74
693.73	37544.04
694.077	37286.42
694.423	37219.08
694.769	37088.46
695.116	37155.8
695.462	37055.92
695.808	36961.46
696.155	36974.34
696.501	36543.62
696.847	36682.59
697.193	36484.86
697.539	36507.91
697.885	36394.47
698.231	36269.27
698.577	36271.31
698.923	36094.59
699.269	36006.23
699.614	35869.96
699.96	35782.28
700.306	35880.36
700.651	35655.73
700.997	35506.81
701.342	35471.55
701.688	35415.51
702.033	35352.01
702.379	35409.86
702.724	35224.55
703.069	35241.73
703.415	34910.89
703.76	34939.59
704.105	34944.56
704.45	34779.37
704.795	34649.65
705.14	34440.85
705.485	34573.5
705.83	34378.93
706.175	34440.62
706.52	34383.22
706.865	34238.37
707.209	34283.11
707.554	34152.04
707.899	34047.41
708.243	33931.48
708.588	33951.14
708.932	33745.04
709.277	33667.31
709.621	33706.18
709.966	33424.15
710.31	33552.06
710.654	33269.35
710.998	33347.99
711.342	33270.48
711.687	33299.41
712.031	33045.63
712.375	32872.3
712.719	32934.67
713.063	33015.12
713.407	32889.25
713.75	32957.27
714.094	32767.67
714.438	32573.78
714.782	32633.66
715.125	32393.67
715.469	32610.16
715.812	32343.73
716.156	32342.14
716.499	32256.95
716.843	32350.28
717.186	32159.32
717.53	32157.06
717.873	32215.37
718.216	32040.23
718.559	31968.82
718.902	31783.74
719.246	31820.58
719.589	31663.07
719.932	31702.39
720.275	31656.74
720.617	31576.97
720.96	31495.61
721.303	31342.62
721.646	31598.21
721.989	31369.74
722.331	31428.5
722.674	31306.24
723.016	31360.47
723.359	31323.87
723.701	31367.48
724.044	31107.37
724.386	30836.65
724.729	31048.62
725.071	30988.73
725.413	31003.42
725.755	30926.59
726.097	30814.95
726.439	30681.85
726.782	30697.67
727.124	30725.92
727.465	30553.49
727.807	30700.15
728.149	30642.3
728.491	30421.74
728.833	30521.85
729.175	30396.66
729.516	30344
729.858	30294.06
730.199	30398.01
730.541	30150.11
730.882	30212.03
731.224	30245.93
731.565	30070.79
731.906	30078.02
732.248	30033.96
732.589	29942.66
732.93	29815.88
733.271	29797.8
733.612	29940.4
733.953	29850.46
734.294	29808.43
734.635	29706.51
734.976	29741.76
735.317	29569.79
735.658	29482.33
735.999	29584.25
736.339	29506.51
736.68	29609.56
737.021	29469.23
737.361	29386.97
737.702	29582.22
738.042	29273.07
738.383	29308.55
738.723	29388.1
739.063	29249.8
739.404	29283.24
739.744	29280.76
740.084	28983.59
740.424	29077.82
740.764	29036.92
741.104	29132.51
741.444	28863.37
741.784	28837.15
742.124	28913.08
742.464	28803.25
742.804	28754.67
743.143	28790.82
743.483	28778.85
743.823	28591.51
744.162	28578.18
744.502	28667.66
744.841	28363.49
745.181	28555.58
745.52	28398.52
745.86	28569.14
746.199	28368.92
746.538	28328.24
746.877	28426.54
747.216	28241.01
747.556	28203.72
747.895	28219.77
748.234	28017.74
748.573	28135.7
748.911	28007.79
749.25	28084.85
749.589	27782.26
749.928	27845.31
750.267	27882.6
750.605	27873.56
750.944	27796.5
751.283	27582.27
751.621	27748.37
751.96	27621.59
752.298	27711.31
752.636	27581.82
752.975	27549.5
753.313	27291.66
753.651	27444.42
753.989	27225.89
754.327	27298.66
754.666	27106.8
755.004	27253.01
755.342	27227.7
755.679	27125.78
756.017	26969.63
756.355	27010.08
756.693	26851.67
757.031	26937.31
757.368	26724.66
757.706	26691.67
758.044	26685.12
758.381	26602.41
758.719	26582.75
759.056	26535.07
759.394	26535.07
759.731	26312.02
760.068	26241.06
760.405	26119.03
760.743	26100.5
761.08	26173.04
761.417	25980.96
761.754	25931.92
762.091	25845.82
762.428	25856.66
762.765	25643.79
763.102	25703.45
763.438	25534.41
763.775	25436.56
764.112	25466.84
764.449	25436.11
764.785	25434.3
765.122	25182.78
765.458	25019.17
765.795	24988.21
766.131	24935.11
766.467	24971.72
766.804	24823.92
767.14	24706.41
767.476	24744.15
767.812	24682.68
768.148	24626.41
768.485	24459.87
768.821	24303.03
769.157	24309.13
769.492	24153.66
769.828	24200.21
770.164	23963.61
770.5	23976.94
770.836	23992.31
771.171	23781.92
771.507	23744.86
771.842	23534.24
772.178	23553.45
772.513	23517.07
772.849	23534.69
773.184	23493.79
773.519	23264.64
773.855	23182.84
774.19	23131.09
774.525	22968.15
774.86	23051.09
775.195	22896.97
775.53	22857.42
775.865	22689.74
776.2	22580.82
776.535	22456.98
776.87	22494.72
777.205	22313.48
777.539	22219.47
777.874	22268.96
778.209	22034.84
778.543	22020.38
778.878	21790.11
779.212	21817.67
779.547	21733.16
779.881	21807.05
780.215	21607.28
780.55	21569.32
780.884	21372.49
781.218	21428.98
781.552	21409.55
781.886	21224.47
782.22	21215.2
782.554	21123.23
782.888	20968.66
783.222	20838.72
783.556	20753.75
783.889	20767.08
784.223	20563.02
784.557	20577.03
784.89	20455.45
785.224	20458.16
785.557	20313.53
785.891	20360.09
786.224	20291.84
786.558	20338.39
786.891	19984.5
787.224	19980.44
787.557	19863.83
787.891	19893.66
788.224	19828.12
788.557	19876.93
788.89	19775.69
789.223	19754
789.556	19607.79
789.888	19544.29
790.221	19572.99
790.554	19234.01
790.887	19379.32
791.219	19224.52
791.552	19187.91
791.884	19124.19
792.217	18964.87
792.549	19107.01
792.882	18837.64
793.214	18768.49
793.546	18909.5
793.879	18740.92
794.211	18620.24
794.543	18655.5
794.875	18554.71
795.207	18550.19
795.539	18477.88
795.871	18488.27
796.203	18237.88
796.535	18286.69
796.867	18129.64
797.198	18144.78
797.53	18012.13
797.862	17948.17
798.193	17996.53
798.525	17837.89
798.856	17876.31
799.188	17659.14
799.519	17618.92
799.85	17533.27
800.182	17609.2
800.513	17570.55
800.844	17409.88
801.175	17442.87
801.506	17470.9
801.837	17328.08
802.168	17366.49
802.499	17272.48
802.83	17124.24
803.161	17066.39
803.491	17135.99
803.822	17054.18
804.153	16923.79
804.483	16836.34
804.814	16750.69
805.145	16767.41
805.475	16712.5
805.805	16600.64
806.136	16666.4
806.466	16637.7
806.796	16636.34
807.126	16465.27
807.457	16455.1
807.787	16463.47
808.117	16310.25
808.447	16334.66
808.777	16339.4
809.107	16242.45
809.436	16135.34
809.766	16188.22
810.096	16169.69
810.426	16040.88
810.755	16063.02
811.085	16011.95
811.414	15942.58
811.744	15920.65
812.073	15783.94
812.403	15789.58
812.732	15721.34
813.061	15752.07
813.39	15671.4
813.719	15629.82
814.049	15672.98
814.378	15625.52
814.707	15498.97
815.036	15502.81
815.365	15474.11
815.693	15275.93
816.022	15328.35
816.351	15231.86
816.68	15246.77
817.008	15270.95
817.337	15183.05
817.665	15117.06
817.994	15096.72
818.322	15047.01
818.651	15021.47
818.979	15000
819.307	15072.99
819.636	14947.35
819.964	14767.69
820.292	14880.91
820.62	14819.89
820.948	14783.74
821.276	14790.29
821.604	14870.51
821.932	14803.62
822.259	14818.99
822.587	14816.96
822.915	14766.11
823.243	14774.47
823.57	14742.38
823.898	14807.24
824.225	14723.4
824.553	14660.57
824.88	14754.13
825.207	14836.16
825.535	14768.14
825.862	14792.77
826.189	14769.05
826.516	14825.77
826.843	14789.39
827.17	14731.08
827.497	14868.03
827.824	14780.35
828.151	14693.34
828.478	14752.55
828.805	14841.81
829.131	14599.56
829.458	14727.24
829.785	14652.21
830.111	14661.03
830.438	14764.75
830.764	14687.24
831.09	14720.23
831.417	14641.14
831.743	14646.11
832.069	14552.78
832.395	14632.78
832.722	14617.19
833.048	14614.25
833.374	14584.87
833.7	14603.85
834.026	14646.79
834.351	14567.92
834.677	14615.6
835.003	14548.04
835.329	14596.62
835.654	14481.82
835.98	14467.59
836.306	14407.25
836.631	14405.21
836.956	14373.8
837.282	14380.36
837.607	14360.92
837.932	14311.88
838.258	14321.15
838.583	14278.89
838.908	14204.99
839.233	14231.89
839.558	14191.21
839.883	14095.62
840.208	14033.25
840.533	14111.89
840.858	14076.86
841.182	14122.74
841.507	14042.51
841.832	14022.85
842.156	13945.79
842.481	13967.03
842.805	13983.98
843.13	13873.7
843.454	13875.51
843.778	13833.25
844.103	13824.66
844.427	13743.31
844.751	13765.68
845.075	13706.02
845.399	13713.71
845.723	13648.4
846.047	13647.49
846.371	13502.87
846.695	13504.45
847.019	13406.37
847.343	13294.51
847.666	13253.38
847.99	13148.98
848.313	13216.55
848.637	13128.64
848.96	13168.86
849.284	13038.7
849.607	13080.05
849.931	12922.32
850.254	12859.72
850.577	12796.44
850.9	12710.57
851.223	12657.69
851.546	12700.17
851.869	12534.3
852.192	12650.01
852.515	12399.62
852.838	12454.31
853.161	12401.43
853.483	12450.69
853.806	12308.77
854.129	12365.27
854.451	12318.49
854.774	12134.77
855.096	12131.15
855.419	12155.56
855.741	12102.45
856.063	11978.16
856.385	12038.5
856.708	11996.01
857.03	11902
857.352	11954.66
857.674	11879.86
857.996	11782.23
858.318	11800.99
858.64	11781.1
858.961	11679.41
859.283	11621.11
859.605	11601.67
859.926	11643.71
860.248	11636.47
860.57	11612.07
860.891	11581.79
861.212	11491.39
861.534	11479.87
861.855	11476.03
862.176	11455.69
862.498	11447.33
862.819	11406.65
863.14	11346.09
863.461	11345.86
863.782	11386.76
864.103	11390.83
864.424	11280.55
864.745	11315.13
865.065	11288.91
865.386	11208.46
865.707	11211.85
866.027	11221.8
866.348	11202.13
866.668	11156.94
866.989	11150.16
867.309	11054.34
867.63	11127.11
867.95	11089.14
868.27	11013.21
868.59	11008.02
868.91	10996.94
869.23	10963.95
869.55	10919.66
869.87	10970.05
870.19	10938.86
870.51	10994
870.83	10908.36
871.15	10841.92
871.469	10953.78
871.789	10942.03
872.109	10884.18
872.428	10821.81
872.748	10808.25
873.067	10768.02
873.386	10764.63
873.706	10820
874.025	10764.86
874.344	10662.49
874.663	10677.85
874.982	10605.54
875.301	10673.79
875.62	10627.01
875.939	10609.61
876.258	10654.35
876.577	10583.17
876.896	10594.47
877.214	10605.31
877.533	10495.94
877.852	10544.3
878.17	10499.55
878.489	10468.59
878.807	10491.42
879.125	10423.17
879.444	10457.3
879.762	10353.8
880.08	10452.32
880.398	10363.06
880.716	10424.3
881.034	10332.55
881.352	10272.44
881.67	10333.23
881.988	10267.24
882.306	10245.78
882.624	10237.41
882.941	10196.06
883.259	10111.09
883.577	10126
883.894	10171.88
884.212	10015.5
884.529	10013.92
884.846	10001.26
885.164	9986.35
885.481	10001.94
885.798	10016.18
886.115	9927.59
886.432	9962.85
886.75	9930.08
887.067	9842.85
887.383	9873.13
887.7	9848.05
888.017	9783.87
888.334	9863.19
888.651	9766.01
888.967	9769.18
889.284	9715.17
889.6	9660.48
889.917	9582.06
890.233	9602.63
890.55	9582.97
890.866	9542.29
891.182	9530.09
891.498	9507.26
891.815	9477.21
892.131	9488.06
892.447	9463.65
892.763	9340.04
893.079	9453.03
893.395	9358.79
893.71	9342.52
894.026	9300.04
894.342	9219.14
894.657	9175.75
894.973	9252.58
895.289	9185.01
895.604	9192.47
895.92	9133.26
896.235	9047.39
896.55	9031.57
896.865	9022.31
897.181	8991.12
897.496	9033.38
897.811	8900.27
898.126	8931.69
898.441	8828.19
898.756	8853.72
899.071	8792.25
899.386	8811.92
899.7	8736.89
900.015	8690.34
900.33	8664.8
900.644	8707.51
900.959	8645.14
901.273	8570.79
901.588	8573.05
901.902	8531.92
902.216	8513.62
902.531	8432.94
902.845	8437.01
903.159	8410.57
903.473	8357.46
903.787	8424.58
904.101	8291.7
904.415	8311.82
904.729	8263.91
905.042	8179.16
905.356	8231.37
905.67	8154.53
905.984	8223
906.297	8095.78
906.611	8064.82
906.924	8074.31
907.237	8035.89
907.551	7970.13
907.864	7898.27
908.177	8033.4
908.491	7942.33
908.804	7856.91
909.117	7837.03
909.43	7758.16
909.743	7816.01
910.056	7701.21
910.368	7679.52
910.681	7619.63
910.994	7659.18
911.307	7592.29
911.619	7547.77
911.932	7511.84
912.244	7482.91
912.557	7452.18
912.869	7428.67
913.181	7398.39
913.494	7419.86
913.806	7371.73
914.118	7292.86
914.43	7283.82
914.742	7308.68
915.054	7221.9
915.366	7200.66
915.678	7162.24
915.99	7143.26
916.302	7094.45
916.613	7107.55
916.925	7032.07
917.236	7030.04
917.548	7023.94
917.859	6976.26
918.171	6967.22
918.482	6944.62
918.794	6879.99
919.105	6898.07
919.416	6864.4
919.727	6826.66
920.038	6804.96
920.349	6730.61
920.66	6717.73
920.971	6739.2
921.282	6699.2
921.593	6655.59
921.903	6587.11
922.214	6569.04
922.525	6539.66
922.835	6485.42
923.146	6456.5
923.456	6499.89
923.767	6447.46
924.077	6410.62
924.387	6361.13
924.697	6360
925.008	6339.89
925.318	6354.13
925.628	6309.16
925.938	6255.37
926.248	6204.53
926.558	6167.69
926.867	6196.62
927.177	6163.17
927.487	6110.29
927.796	6055.38
928.106	6052.67
928.416	6019.67
928.725	6017.41
929.034	5953.01
929.344	5962.27
929.653	5960.69
929.962	5924.53
930.271	5877.08
930.581	5906.45
930.89	5790.07
931.199	5793.01
931.508	5806.34
931.817	5779.23
932.125	5767.48
932.434	5699.68
932.743	5624.43
933.051	5662.85
933.36	5619.91
933.669	5654.71
933.977	5591.21
934.286	5595.5
934.594	5549.63
934.902	5477.77
935.21	5430.31
935.519	5467.14
935.827	5477.31
936.135	5439.12
936.443	5334.94
936.751	5359.12
937.059	5356.64
937.367	5360.48
937.674	5339.46
937.982	5302.63
938.29	5241.84
938.597	5275.06
938.905	5191.22
939.213	5194.16
939.52	5182.63
939.827	5166.81
940.135	5110.77
940.442	5094.27
940.749	5121.62
941.056	5055.4
941.363	5062.41
941.67	5026.48
941.977	4995.07
942.284	4958.46
942.591	4970.43
942.898	4929.98
943.205	4947.16
943.511	4911.45
943.818	4869.87
944.125	4835.07
944.431	4844.56
944.738	4838.23
945.044	4776.32
945.35	4803.43
945.657	4736.54
945.963	4745.58
946.269	4695.87
946.575	4731.34
946.881	4694.06
947.187	4622.65
947.493	4618.81
947.799	4645.25
948.105	4585.59
948.41	4577.9
948.716	4522.31
949.022	4549.65
949.327	4512.14
949.633	4438.92
949.938	4492.71
950.244	4439.6
950.549	4443.89
950.854	4395.53
951.16	4402.31
951.465	4341.3
951.77	4337.68
952.075	4277.57
952.38	4361.64
952.685	4341.3
952.99	4296.1
953.294	4252.94
953.599	4198.03
953.904	4201.64
954.209	4207.97
954.513	4168.65
954.818	4129.78
955.122	4144.47
955.426	4151.92
955.731	4139.04
956.035	4071.7
956.339	4097.46
956.643	4054.75
956.948	4042.32
957.252	3999.16
957.556	3999.61
957.86	3964.13
958.163	3967.97
958.467	3973.4
958.771	3944.92
959.075	3937.69
959.378	3886.62
959.682	3911.48
959.985	3887.3
960.289	3844.14
960.592	3864.47
960.896	3820.86
961.199	3818.37
961.502	3779.96
961.805	3764.36
962.108	3740.64
962.411	3703.35
962.714	3701.32
963.017	3725.5
963.32	3681.65
963.623	3674.2
963.926	3664.48
964.228	3679.62
964.531	3648.44
964.833	3627.64
965.136	3592.39
965.438	3542.9
965.741	3573.86
966.043	3543.58
966.345	3545.39
966.648	3550.58
966.95	3517.82
967.252	3495.67
967.554	3501.55
967.856	3491.6
968.158	3436.46
968.46	3401.21
968.761	3443.69
969.063	3410.48
969.365	3356.24
969.666	3396.01
969.968	3318.05
970.269	3336.58
970.571	3328.44
970.872	3355.34
971.174	3297.26
971.475	3291.61
971.776	3269.24
972.077	3249.58
972.378	3254.77
972.679	3200.09
972.98	3226.53
973.281	3156.02
973.582	3158.5
973.883	3167.54
974.183	3143.82
974.484	3165.28
974.785	3147.21
975.085	3129.58
975.386	3145.85
975.686	3111.27
975.986	3057.94
976.287	3029.92
976.587	3027.21
976.887	3018.17
977.187	3057.49
977.487	3034.44
977.787	3003.48
978.087	2992.86
978.387	2972.97
978.687	2943.59
978.987	2974.78
979.286	2912.64
979.586	2913.54
979.885	2911.05
980.185	2883.71
980.484	2821.11
980.784	2857.04
981.083	2836.25
981.382	2832.19
981.682	2840.09
981.981	2840.77
982.28	2811.62
982.579	2784.05
982.878	2792.19
983.177	2725.52
983.475	2775.24
983.774	2730.49
984.073	2750.83
984.372	2688.69
984.67	2735.01
984.969	2697.95
985.267	2703.15
985.566	2668.12
985.864	2652.98
986.162	2652.98
986.461	2630.61
986.759	2619.76
987.057	2625.41
987.355	2581.57
987.653	2604.85
987.951	2575.69
988.249	2562.14
988.547	2586.32
988.844	2539.09
989.142	2499.09
989.44	2502.02
989.737	2510.61
990.035	2510.61
990.332	2484.4
990.63	2448.92
990.927	2455.47
991.224	2471.97
991.521	2455.7
991.819	2431.29
992.116	2415.93
992.413	2395.36
992.71	2420.44
993.006	2410.5
993.303	2383.16
993.6	2371.63
993.897	2336.15
994.193	2346.77
994.49	2329.15
994.787	2323.27
995.083	2315.14
995.379	2326.44
995.676	2309.04
995.972	2275.59
996.268	2246.89
996.565	2250.28
996.861	2232.43
997.157	2231.75
997.453	2222.03
997.749	2196.95
998.044	2187.68
998.34	2177.51
998.636	2178.19
998.932	2128.25
999.227	2115.82
999.523	2111.75
999.818	2118.98
1000.114	2097.74
1000.409	2083.96
1000.704	2115.14
1001	2084.63
1001.295	2040.57
1001.59	2041.7
1001.885	2066.56
1002.18	2031.08
1002.475	1996.73
1002.77	2032.21
1003.065	1984.75
1003.359	1989.04
1003.654	1971.87
1003.949	1957.86
1004.243	1983.17
1004.538	1947.91
1004.832	1926.67
1005.127	1952.89
1005.421	1901.81
1005.715	1915.37
1006.009	1934.13
1006.304	1895.03
1006.598	1859.1
1006.892	1857.07
1007.186	1850.74
1007.48	1869.5
1007.773	1836.05
1008.067	1836.73
1008.361	1803.51
1008.655	1794.92
1008.948	1815.04
1009.242	1801.25
1009.535	1776.62
1009.829	1775.04
1010.122	1727.81
1010.415	1762.16
1010.708	1735.72
1011.001	1752.44
1011.295	1714.93
1011.588	1704.53
1011.881	1701.82
1012.173	1687.81
1012.466	1694.81
1012.759	1712.21
1013.052	1659.56
1013.344	1660.92
1013.637	1642.16
1013.93	1638.54
1014.222	1653.23
1014.514	1634.48
1014.807	1608.26
1015.099	1578.43
1015.391	1601.48
1015.683	1581.14
1015.976	1600.35
1016.268	1530.75
1016.56	1572.78
1016.851	1530.52
1017.143	1519.68
1017.435	1535.72
1017.727	1494.59
1018.018	1507.47
1018.31	1497.08
1018.602	1472.22
1018.893	1446.69
1019.185	1459.11
1019.476	1472.45
1019.767	1449.62
1020.058	1439.68
1020.35	1393.35
1020.641	1419.79
1020.932	1416.63
1021.223	1384.54
1021.514	1392.9
1021.804	1372.79
1022.095	1364.2
1022.386	1376.63
1022.677	1342.73
1022.967	1350.87
1023.258	1335.95
1023.548	1342.28
1023.839	1335.73
1024.129	1317.87
1024.419	1298.21
1024.709	1310.64
1025	1287.59
1025.29	1284.43
1025.58	1252.57
1025.87	1249.63
1026.16	1248.27
1026.449	1238.1
1026.739	1233.58
1027.029	1240.36
1027.319	1216.86
1027.608	1252.79
1027.898	1217.99
1028.187	1215.05
1028.477	1192
1028.766	1207.37
1029.055	1162.85
1029.344	1150.2
1029.634	1163.53
1029.923	1164.88
1030.212	1138.44
1030.501	1143.64
1030.79	1126.24
1031.078	1082.4
1031.367	1137.31
1031.656	1091.89
1031.945	1107.26
1032.233	1117.88
1032.522	1082.63
1032.81	1061.84
1033.099	1074.27
1033.387	1068.84
1033.675	1051.44
1033.963	1068.39
1034.251	1062.51
1034.54	1060.93
1034.828	1039.46
1035.116	1039.46
1035.403	1007.83
1035.691	1007.83
1035.979	1003.08
1036.267	1003.76
1036.554	987.71
1036.842	968.73
1037.129	984.32
1037.417	974.61
1037.704	982.74
1037.992	977.77
1038.279	945.68
1038.566	930.31
1038.853	930.31
1039.14	930.31
