Data from hue_200_FLMS001491_00014.txt Node
Date: Tue Feb 07 16:42:53 GMT 2017
User: dcchb
Spectrometer: FLMS00149
Trigger mode: 0
Integration Time (sec): 2.000000E-2
Scans to average: 10
Electric dark correction enabled: true
Nonlinearity correction enabled: false
Boxcar width: 0
XAxis mode: Wavelengths
Number of Pixels in Spectrum: 2048
>>>>>Begin Spectral Data<<<<<
341.393	-13.94
341.776	-13.94
342.16	-13.94
342.543	-48.97
342.927	-62.3
343.31	-53.26
343.693	-52.36
344.077	-71.34
344.46	-87.61
344.843	-48.06
345.226	-39.48
345.61	-32.02
345.993	-13.49
346.376	2.1
346.759	10.01
347.142	21.76
347.525	40.75
347.908	58.15
348.291	76.68
348.674	85.72
349.057	102.44
349.44	144.7
349.823	152.16
350.206	144.7
350.588	192.38
350.971	206.17
351.354	228.54
351.737	241.19
352.119	246.84
352.502	260.63
352.884	273.74
353.267	295.2
353.65	300.18
354.032	314.86
354.414	307.86
354.797	325.71
355.179	320.74
355.562	315.77
355.944	334.53
356.326	353.51
356.709	325.94
357.091	340.4
357.473	345.6
357.855	334.53
358.238	330.23
358.62	333.17
359.002	349.89
359.384	328.2
359.766	338.14
360.148	330.23
360.53	346.95
360.912	346.95
361.294	320.29
361.676	327.52
362.057	343.11
362.439	317.12
362.821	304.47
363.203	313.73
363.584	338.82
363.966	313.28
364.348	344.47
364.729	330.01
365.111	312.38
365.493	327.97
365.874	304.7
366.256	317.58
366.637	312.38
367.019	329.1
367.4	344.24
367.781	327.29
368.163	328.88
368.544	299.72
368.925	301.53
369.306	329.55
369.688	308.54
370.069	324.81
370.45	304.7
370.831	306.73
371.212	299.5
371.593	315.77
371.974	332.49
372.355	312.38
372.736	329.78
373.117	318.25
373.498	313.51
373.879	306.5
374.26	294.07
374.641	312.83
375.021	303.34
375.402	313.06
375.783	310.8
376.163	293.62
376.544	325.94
376.925	334.53
377.305	305.83
377.686	330.01
378.066	323.23
378.447	338.59
378.827	332.04
379.208	316.67
379.588	330.68
379.968	327.29
380.349	333.85
380.729	341.3
381.109	351.47
381.489	333.62
381.87	332.27
382.25	358.93
382.63	334.98
383.01	334.07
383.39	351.93
383.77	332.94
384.15	335.88
384.53	351.7
384.91	345.37
385.29	345.82
385.67	359.16
386.049	362.32
386.429	363.68
386.809	348.54
387.189	342.66
387.568	347.63
387.948	354.86
388.328	361.64
388.707	365.94
389.087	379.72
389.466	347.18
389.846	358.93
390.225	365.94
390.605	352.15
390.984	350.57
391.363	377.69
391.743	383.34
392.122	387.41
392.501	372.26
392.881	390.57
393.26	367.07
393.639	384.92
394.018	392.83
394.397	394.18
394.776	381.98
395.155	393.73
395.534	391.02
395.913	402.77
396.292	395.77
396.671	428.76
397.05	380.17
397.429	388.53
397.808	415.65
398.186	397.8
398.565	411.81
398.944	410.23
399.323	406.84
399.701	393.05
400.08	401.19
400.458	427.18
400.837	406.61
401.215	416.1
401.594	420.17
401.972	434.64
402.351	447.29
402.729	430.12
403.107	400.96
403.486	430.12
403.864	440.06
404.242	438.7
404.62	455.2
404.999	427.63
405.377	451.36
405.755	451.36
406.133	464.47
406.511	456.33
406.889	484.13
407.267	473.05
407.645	451.81
408.023	512.15
408.401	521.41
408.779	502.88
409.156	498.36
409.534	486.61
409.912	509.44
410.29	537.68
410.667	521.86
411.045	549.43
411.422	573.16
411.8	558.93
412.178	572.03
412.555	586.27
412.933	580.39
413.31	590.34
413.687	618.59
414.065	613.39
414.442	626.95
414.819	636.21
415.197	639.6
415.574	646.16
415.951	668.75
416.328	663.78
416.705	656.55
417.082	675.08
417.46	684.8
417.837	713.95
418.214	720.96
418.591	729.32
418.967	734.74
419.344	748.98
419.721	781.52
420.098	751.92
420.475	785.36
420.852	804.34
421.228	789.65
421.605	797.79
421.982	835.75
422.358	853.61
422.735	887.5
423.111	841.4
423.488	879.82
423.864	901.74
424.241	919.59
424.617	924.79
424.994	954.4
425.37	965.69
425.746	972.7
426.123	988.75
426.499	1011.57
426.875	1032.36
427.251	1038.01
427.627	1043.88
428.003	1092.92
428.379	1082.3
428.756	1086.14
429.132	1104.67
429.507	1148.51
429.883	1146.26
430.259	1159.36
430.635	1167.5
431.011	1167.95
431.387	1187.84
431.763	1221.06
432.138	1214.5
432.514	1257.21
432.89	1252.92
433.265	1318.45
433.641	1304.22
434.016	1348.51
434.392	1363.42
434.767	1368.17
435.143	1411.78
435.518	1448.85
435.894	1427.83
436.269	1507.6
436.644	1523.42
437.02	1541.27
437.395	1550.54
437.77	1594.6
438.145	1621.04
438.52	1628.73
438.895	1658.56
439.271	1674.83
439.646	1726.35
440.021	1753.7
440.395	1776.97
440.77	1750.99
441.145	1794.37
441.52	1840.7
441.895	1845.22
442.27	1884.31
442.645	1911.88
443.019	1943.97
443.394	1919.34
443.769	1959.12
444.143	1946.01
444.518	2009.28
444.892	2013.35
445.267	2054.03
445.641	2037.31
446.016	2063.29
446.39	2099
446.764	2114.59
447.139	2103.07
447.513	2127.25
447.887	2122.27
448.262	2166.79
448.636	2171.54
449.01	2227.36
449.384	2225.32
449.758	2226.68
450.132	2308.26
450.506	2282.27
450.88	2316.39
451.254	2292.89
451.628	2348.94
452.002	2369.73
452.376	2395.94
452.75	2381.25
453.123	2441.36
453.497	2439.55
453.871	2510.97
454.244	2531.98
454.618	2550.96
454.992	2534.02
455.365	2565.65
455.739	2625.99
456.112	2647.91
456.486	2694.92
456.859	2699.89
457.232	2755.25
457.606	2802.71
457.979	2785.31
458.352	2868.02
458.725	2913.67
459.099	2913.44
459.472	2950.73
459.845	2981.24
460.218	3004.06
460.591	3016.26
460.964	3009.26
461.337	3120.44
461.71	3131.74
462.083	3236.82
462.456	3199.99
462.829	3234.79
463.201	3286.99
463.574	3275.46
463.947	3371.06
464.32	3408.57
464.692	3453.77
465.065	3458.51
465.438	3517.72
465.81	3561.56
466.183	3589.81
466.555	3655.12
466.928	3655.57
467.3	3682.69
467.672	3744.83
468.045	3805.17
468.417	3848.11
468.789	3905.73
469.161	3917.03
469.534	3972.4
469.906	4103.47
470.278	4098.95
470.65	4104.14
471.022	4202.67
471.394	4295.32
471.766	4301.2
472.138	4375.1
472.51	4461.65
472.882	4492.16
473.253	4553.62
473.625	4587.52
473.997	4747.06
474.369	4724.01
474.74	4790.68
475.112	4887.4
475.484	4947.74
475.855	5001.97
476.227	5048.3
476.598	5174.85
476.97	5203.78
477.341	5303.43
477.713	5368.29
478.084	5406.03
478.455	5519.02
478.827	5537.1
479.198	5709.75
479.569	5756.76
479.94	5838.34
480.311	5951.55
480.682	6050.76
481.053	6240.36
481.424	6242.39
481.795	6295.05
482.166	6413.24
482.537	6457.08
482.908	6603.29
483.279	6654.81
483.65	6712.89
484.021	6915.59
484.391	6835.82
484.762	6996.5
485.133	7076.49
485.503	7071.52
485.874	7253.89
486.244	7339.09
486.615	7483.49
486.985	7495.92
487.356	7593.32
487.726	7661.11
488.097	7764.39
488.467	7808.9
488.837	8054.1
489.207	8098.39
489.578	8146.75
489.948	8187.88
490.318	8347.42
490.688	8352.62
491.058	8492.73
491.428	8498.38
491.798	8532.05
492.168	8796
492.538	8732.04
492.908	8888.42
493.278	8903.11
493.648	8976.11
494.017	9047.06
494.387	9040.51
494.757	9178.13
495.126	9256.32
495.496	9287.96
495.866	9345.59
496.235	9370.45
496.605	9434.62
496.974	9471.46
497.344	9588.75
497.713	9565.47
498.082	9680.49
498.452	9694.05
498.821	9777.89
499.19	9798.68
499.559	9849.53
499.928	9856.76
500.298	9896.08
500.667	9961.16
501.036	9919.81
501.405	10042.97
501.774	9984.67
502.143	10087.71
502.512	10072.35
502.88	10224.21
503.249	10179.01
503.618	10200.48
503.987	10246.58
504.356	10242.97
504.724	10285
505.093	10328.39
505.462	10352.11
505.83	10384.43
506.199	10413.81
506.567	10560.47
506.936	10476.86
507.304	10634.82
507.672	10644.08
508.041	10557.08
508.409	10739.68
508.777	10631.43
509.145	10819.22
509.514	10717.75
509.882	10745.32
510.25	10734.25
510.618	10778.77
510.986	10797.3
511.354	10786
511.722	10951.65
512.09	10974.7
512.458	10877.52
512.826	10921.14
513.193	10927.92
513.561	10998.2
513.929	11003.85
514.297	11079.78
514.664	11065.77
515.032	11094.92
515.4	11167.01
515.767	11146.22
516.135	11108.03
516.502	11088.37
516.869	11294.01
517.237	11169.27
517.604	11131.08
517.972	11245.2
518.339	11159.78
518.706	11211.3
519.073	11239.32
519.44	11260.34
519.808	11328.13
520.175	11212.88
520.542	11310.06
520.909	11323.61
521.276	11327.68
521.643	11368.59
522.009	11387.57
522.376	11390.73
522.743	11416.27
523.11	11447.91
523.477	11450.39
523.843	11457.17
524.21	11591.4
524.577	11499.66
524.943	11510.95
525.31	11539.65
525.676	11550.5
526.043	11575.13
526.409	11591.86
526.776	11630.5
527.142	11628.92
527.508	11619.65
527.874	11639.99
528.241	11586.21
528.607	11626.21
528.973	11632.53
529.339	11534
529.705	11594.79
530.071	11586.66
530.437	11514.8
530.803	11589.82
531.169	11616.49
531.535	11473.44
531.901	11517.06
532.267	11456.04
532.632	11524.51
532.998	11477.96
533.364	11397.29
533.73	11496.72
534.095	11511.86
534.461	11409.04
534.826	11403.84
535.192	11392.54
535.557	11360.68
535.923	11328.81
536.288	11274.8
536.653	11274.35
537.019	11160.46
537.384	11218.31
537.749	11169.04
538.114	11033.45
538.479	11120.23
538.845	11108.25
539.21	11026.9
539.575	11055.15
539.94	10975.38
540.305	10958.2
540.67	10927.47
541.034	10834.59
541.399	10839.79
541.764	10748.26
542.129	10721.82
542.494	10712.78
542.858	10685.89
543.223	10621.94
543.587	10609.28
543.952	10551.88
544.316	10563.86
544.681	10400.02
545.045	10502.39
545.41	10447.03
545.774	10387.82
546.138	10306.92
546.503	10309.63
546.867	10226.69
547.231	10298.56
547.595	10193.02
547.959	10148.28
548.324	10105.34
548.688	10043.2
549.052	10060.82
549.416	10026.7
549.779	9988.51
550.143	9943.31
550.507	9944.89
550.871	9867.61
551.235	9809.76
551.599	9778.57
551.962	9743.54
552.326	9737.67
552.689	9714.39
553.053	9677.1
553.417	9593.04
553.78	9652.02
554.143	9550.55
554.507	9641.63
554.87	9593.49
555.234	9616.99
555.597	9476.21
555.96	9526.6
556.323	9384.68
556.686	9372.93
557.05	9429.43
557.413	9426.04
557.776	9373.16
558.139	9403.89
558.502	9287.74
558.865	9309.2
559.228	9303.78
559.59	9298.58
559.953	9244.12
560.316	9300.17
560.679	9306.72
561.041	9248.87
561.404	9287.28
561.767	9238.47
562.129	9217.68
562.492	9246.38
562.854	9203.9
563.217	9158.93
563.579	9186.04
563.941	9175.2
564.304	9213.61
564.666	9260.84
565.028	9182.43
565.39	9180.85
565.753	9216.55
566.115	9209.32
566.477	9188.3
566.839	9189.43
567.201	9243.22
567.563	9240.73
567.925	9206.38
568.287	9155.31
568.648	9183.78
569.01	9186.27
569.372	9207.51
569.734	9177
570.095	9239.83
570.457	9180.39
570.819	9194.41
571.18	9209.09
571.542	9235.99
571.903	9183.11
572.265	9209.09
572.626	9255.87
572.987	9240.28
573.349	9259.94
573.71	9217.68
574.071	9227.85
574.432	9271.69
574.794	9276.89
575.155	9215.87
575.516	9205.03
575.877	9216.1
576.238	9223.78
576.599	9247.96
576.96	9277.57
577.32	9186.27
577.681	9291.8
578.042	9257.68
578.403	9275.53
578.763	9231.92
579.124	9251.58
579.485	9322.54
579.845	9281.86
580.206	9282.31
580.566	9228.53
580.927	9252.26
581.287	9222.88
581.648	9193.05
582.008	9341.29
582.368	9256.1
582.728	9261.52
583.089	9219.26
583.449	9217
583.809	9238.25
584.169	9207.96
584.529	9202.77
584.889	9250.22
585.249	9176.55
585.609	9220.39
585.969	9222.2
586.329	9215.2
586.688	9198.02
587.048	9175.87
587.408	9187.85
587.768	9171.35
588.127	9151.69
588.487	9162.54
588.846	9177.68
589.206	9152.37
589.565	9155.99
589.925	9092.49
590.284	9142.88
590.643	9101.3
591.003	9147.63
591.362	9134.75
591.721	9133.39
592.08	9074.86
592.44	9130.68
592.799	9156.89
593.158	9059.72
593.517	9003
593.876	9105.59
594.235	9021.3
594.593	9072.37
594.952	9073.28
595.311	9038.48
595.67	9040.06
596.029	9104.46
596.387	9052.71
596.746	9068.98
597.104	8995.99
597.463	9030.79
597.822	8984.24
598.18	9014.3
598.538	8966.39
598.897	9040.96
599.255	8975.43
599.613	9038.7
599.972	9046.39
600.33	8985.37
600.688	8938.82
601.046	8955.32
601.404	9060.17
601.762	9029.89
602.12	9066.72
602.478	9058.36
602.836	9001.42
603.194	8950.12
603.552	9008.65
603.91	8942.43
604.268	8978.82
604.625	8948.31
604.983	9043.22
605.341	8964.81
605.698	8990.57
606.056	9010.46
606.413	9021.75
606.771	9061.98
607.128	9010.23
607.485	8955.99
607.843	8997.12
608.2	8998.48
608.557	9045.03
608.914	9024.92
609.272	9143.78
609.629	9049.78
609.986	9066.5
610.343	9027.86
610.7	9142.2
611.057	9078.48
611.414	9057.69
611.771	9075.54
612.127	9084.58
612.484	9129.77
612.841	9114.63
613.198	9078.02
613.554	9005.48
613.911	9106.72
614.267	9098.36
614.624	9137.23
614.98	9053.39
615.337	9111.24
615.693	9167.29
616.05	9135.42
616.406	9186.04
616.762	9171.35
617.118	9126.16
617.475	9170
617.831	9160.28
618.187	9130.23
618.543	9136.55
618.899	9223.78
619.255	9162.09
619.611	9195.31
619.967	9139.72
620.323	9216.1
620.678	9173.16
621.034	9174.07
621.39	9152.6
621.746	9104.46
622.101	9254.29
622.457	9206.16
622.812	9162.09
623.168	9210.22
623.523	9141.98
623.879	9186.27
624.234	9064.24
624.589	9249.77
624.945	9134.29
625.3	9220.62
625.655	9121.19
626.01	9149.89
626.365	9203.22
626.72	9210.22
627.075	9149.21
627.43	9167.97
627.785	9119.6
628.14	9137.91
628.495	9144.46
628.85	9130
629.205	9112.6
629.559	9111.47
629.914	9090
630.269	9121.64
630.623	9155.08
630.978	9093.16
631.332	9101.98
631.687	9120.28
632.041	9019.27
632.396	9110.34
632.75	8993.96
633.104	9051.81
633.459	8974.75
633.813	8972.94
634.167	8995.54
634.521	8946.5
634.875	8970.68
635.229	8981.76
635.583	8885.71
635.937	8946.05
636.291	8903.11
636.645	8904.02
636.999	8887.29
637.352	8899.95
637.706	8922.77
638.06	8882.77
638.413	8839.16
638.767	8866.05
639.121	8797.13
639.474	8807.3
639.828	8737.47
640.181	8825.6
640.534	8729.78
640.888	8765.26
641.241	8701.08
641.594	8743.8
641.947	8774.98
642.301	8737.47
642.654	8707.41
643.007	8782.21
643.36	8711.25
643.713	8689.56
644.066	8764.36
644.419	8666.51
644.771	8632.84
645.124	8565.5
645.477	8568.43
645.83	8493.18
646.182	8402.56
646.535	8402.11
646.888	8389
647.24	8450.47
647.593	8439.17
647.945	8443.01
648.298	8401.66
648.65	8359.17
649.002	8414.76
649.355	8457.48
649.707	8362.79
650.059	8476.68
650.411	8538.6
650.763	8561.88
651.115	8618.83
651.467	8654.76
651.819	8647.07
652.171	8583.57
652.523	8613.63
652.875	8591.71
653.227	8617.47
653.578	8617.47
653.93	8591.94
654.282	8630.13
654.633	8578.38
654.985	8601.2
655.337	8598.94
655.688	8626.74
656.039	8673.97
656.391	8551.48
656.742	8567.53
657.094	8553.52
657.445	8636.91
657.796	8573.63
658.147	8590.58
658.498	8652.95
658.849	8651.59
659.2	8614.31
659.551	8592.39
659.902	8739.05
660.253	8693.4
660.604	8642.56
660.955	8604.36
661.306	8680.07
661.656	8639.39
662.007	8706.96
662.358	8725.26
662.708	8666.96
663.059	8607.98
663.409	8564.59
663.76	8710.12
664.11	8713.29
664.461	8706.06
664.811	8683.68
665.161	8785.6
665.511	8678.71
665.862	8732.72
666.212	8680.07
666.562	8742.44
666.912	8703.12
667.262	8650.01
667.612	8746.06
667.962	8687.98
668.312	8762.1
668.662	8718.71
669.011	8727.52
669.361	8740.41
669.711	8716.9
670.06	8736.34
670.41	8711.03
670.76	8648.2
671.109	8721.2
671.459	8623.12
671.808	8650.92
672.157	8683.01
672.507	8605.49
672.856	8583.12
673.205	8652.95
673.554	8611.82
673.904	8546.74
674.253	8604.36
674.602	8598.26
674.951	8508.32
675.3	8474.2
675.649	8589.22
675.998	8609.79
676.346	8574.31
676.695	8581.54
677.044	8579.05
677.393	8549.68
677.741	8527.76
678.09	8495.44
678.438	8457.48
678.787	8440.53
679.135	8532.73
679.484	8457.48
679.832	8490.24
680.181	8429.91
680.529	8374.77
680.877	8427.42
681.225	8389.68
681.573	8476.23
681.922	8342.45
682.27	8353.52
682.618	8413.18
682.966	8322.34
683.314	8293.86
683.661	8324.82
684.009	8219.06
684.357	8285.28
684.705	8220.65
685.053	8254.32
685.4	8226.97
685.748	8182.23
686.095	8165.96
686.443	8151.95
686.79	8117.82
687.138	8170.03
687.485	8170.48
687.832	8069.01
688.18	8046.19
688.527	8016.36
688.874	8043.02
689.221	7971.39
689.568	7970.71
689.915	7952.18
690.262	7970.48
690.609	7919.86
690.956	7920.09
691.303	7771.17
691.65	7809.13
691.997	7791.28
692.344	7736.82
692.69	7703.6
693.037	7724.39
693.383	7723.94
693.73	7642.36
694.077	7619.53
694.423	7595.8
694.769	7581.11
695.116	7539.53
695.462	7604.62
695.808	7490.27
696.155	7488.01
696.501	7438.07
696.847	7419.54
697.193	7407.56
697.539	7428.8
697.885	7296.38
698.231	7310.16
698.577	7327.56
698.923	7297.28
699.269	7223.16
699.614	7228.13
699.96	7182.48
700.306	7164.63
700.651	7122.82
700.997	7116.27
701.342	7076.49
701.688	7059.55
702.033	7054.35
702.379	7017.29
702.724	6976.84
703.069	7014.12
703.415	6904.52
703.76	6874.24
704.105	6921.47
704.45	6842.83
704.795	6880.12
705.14	6796.28
705.485	6841.92
705.83	6722.61
706.175	6725.54
706.52	6777.07
706.865	6667.47
707.209	6672.21
707.554	6693
707.899	6619.11
708.243	6576.39
708.588	6640.8
708.932	6552.89
709.277	6597.64
709.621	6629.27
709.966	6533.91
710.31	6556.06
710.654	6479.22
710.998	6480.8
711.342	6448.49
711.687	6455.72
712.031	6435.61
712.375	6402.39
712.719	6431.31
713.063	6424.53
713.407	6423.4
713.75	6374.14
714.094	6404.42
714.438	6364.42
714.782	6328.27
715.125	6311.54
715.469	6367.13
715.812	6264.09
716.156	6306.35
716.499	6227.25
716.843	6264.54
717.186	6238.1
717.53	6257.31
717.873	6298.44
718.216	6289.4
718.559	6173.92
718.902	6166.91
719.246	6176.41
719.589	6162.85
719.932	6125.33
720.275	6172.34
720.617	6141.38
720.96	6093.92
721.303	6131.43
721.646	6145.45
721.989	6044.66
722.331	6116.97
722.674	6069.97
723.016	6143.86
723.359	6131.21
723.701	6127.82
724.044	6106.58
724.386	6087.82
724.729	6127.14
725.071	6063.19
725.413	6062.06
725.755	6045.56
726.097	6042.4
726.439	6100.48
726.782	6073.81
727.124	6057.31
727.465	6052.11
727.807	6003.75
728.149	6060.48
728.491	6038.33
728.833	6027.93
729.175	6032.23
729.516	5995.17
729.858	5992.91
730.199	6022.74
730.541	6006.69
730.882	5988.16
731.224	6062.96
731.565	6022.96
731.906	6014.6
732.248	6057.76
732.589	6025.45
732.93	5986.13
733.271	6039.69
733.612	5963.53
733.953	5989.29
734.294	5984.55
734.635	6037.2
734.976	6048.05
735.317	5991.1
735.658	6031.32
735.999	6048.73
736.339	6018.44
736.68	6035.62
737.021	6052.79
737.361	6013.92
737.702	6026.35
738.042	6042.4
738.383	6066.35
738.723	6105.45
739.063	6074.71
739.404	6086.24
739.744	6045.11
740.084	6038.33
740.424	6111.32
740.764	6126.69
741.104	6124.43
741.444	6161.04
741.784	6155.16
742.124	6175.5
742.464	6236.06
742.804	6217.76
743.143	6199.46
743.483	6260.24
743.823	6221.83
744.162	6254.82
744.502	6330.07
744.841	6382.95
745.181	6445.55
745.52	6429.51
745.86	6429.05
746.199	6497.75
746.538	6468.6
746.877	6571.88
747.216	6632.66
747.556	6620.01
747.895	6657.97
748.234	6745.2
748.573	6818.42
748.911	6815.48
749.25	6902.26
749.589	6876.95
749.928	6994.91
750.267	7064.74
750.605	7139.09
750.944	7234.68
751.283	7230.39
751.621	7343.61
751.96	7423.15
752.298	7537.05
752.636	7608.68
752.975	7697.27
753.313	7809.36
753.651	7894.55
753.989	8005.28
754.327	8057.94
754.666	8194.66
755.004	8317.82
755.342	8438.27
755.679	8609.79
756.017	8677.13
756.355	8872.15
756.693	8922.32
757.031	9156.44
757.368	9250.22
757.706	9380.16
758.044	9464.91
758.381	9645.92
758.719	9775.63
759.056	9986.25
759.394	10131.1
759.731	10212.23
760.068	10491.55
760.405	10583.3
760.743	10747.81
761.08	11010.4
761.417	11064.64
761.754	11227.57
762.091	11360.45
762.428	11565.42
762.765	11689.25
763.102	11989.81
763.438	12073.65
763.775	12235
764.112	12373.08
764.449	12620.3
764.785	12813.74
765.122	12847.87
765.458	12996.79
765.795	13234.52
766.131	13375.76
766.467	13550.9
766.804	13607.85
767.14	13763.55
767.476	14019.81
767.812	14055.29
768.148	14272.46
768.485	14332.58
768.821	14497.09
769.157	14514.94
769.492	14778.89
769.828	14791.77
770.164	14929.85
770.5	15085.78
770.836	15225.88
771.171	15317.63
771.507	15407.35
771.842	15425.2
772.178	15540
772.513	15663.84
772.849	15725.08
773.184	15857.96
773.519	15928.01
773.855	15996.26
774.19	16051.4
774.525	16162.13
774.86	16285.29
775.195	16351.05
775.53	16396.25
775.865	16407.1
776.2	16426.76
776.535	16405.97
776.87	16565.96
777.205	16529.13
777.539	16624.49
777.874	16741.55
778.209	16631.95
778.543	16765.05
778.878	16700.2
779.212	16840.08
779.547	16683.7
779.881	17012.05
780.215	16916.24
780.55	16898.61
780.884	16837.59
781.218	16955.78
781.552	17007.76
781.886	17052.5
782.22	16989
782.554	16954.88
782.888	16854.54
783.222	16960.98
783.556	16891.83
783.889	16918.5
784.223	16874.2
784.557	16914.88
784.89	16977.7
785.224	16923.02
785.557	16894.99
785.891	16912.85
786.224	16888.67
786.558	16918.04
786.891	16759.63
787.224	16812.96
787.557	16819.97
787.891	16874.2
788.224	16834.2
788.557	16838.05
788.89	16819.52
789.223	16874.2
789.556	16747.65
789.888	16738.84
790.221	16754.66
790.554	16673.76
790.887	16654.1
791.219	16581.78
791.552	16573.87
791.884	16588.34
792.217	16518.73
792.549	16586.53
792.882	16436.47
793.214	16363.03
793.546	16487.09
793.879	16334.78
794.211	16313.09
794.543	16427.66
794.875	16339.75
795.207	16384.72
795.539	16291.85
795.871	16326.65
796.203	16174.79
796.535	16087.78
796.867	16074.9
797.198	16137.05
797.53	16180.89
797.862	15990.16
798.193	16132.98
798.525	15912.87
798.856	16020.67
799.188	15827.45
799.519	15825.64
799.85	15772.99
800.182	15793.78
800.513	15736.61
800.844	15675.82
801.175	15758.07
801.506	15675.14
801.837	15644.41
802.168	15679.88
802.499	15587.91
802.83	15530.96
803.161	15498.65
803.491	15583.39
803.822	15455.48
804.153	15443.96
804.483	15332.1
804.814	15259.1
805.145	15238.54
805.475	15186.34
805.805	15219.78
806.136	15247.13
806.466	15214.36
806.796	15108.15
807.126	15095.94
807.457	15001.71
807.787	15091.43
808.117	15057.53
808.447	14871.77
808.777	14993.8
809.107	14855.27
809.436	14829.29
809.766	14815.73
810.096	14730.3
810.426	14763.75
810.755	14752
811.085	14754.71
811.414	14722.62
811.744	14611.44
812.073	14708.84
812.403	14645.11
812.732	14494.15
813.061	14497.54
813.39	14406.25
813.719	14515.17
814.049	14529.18
814.378	14501.38
814.707	14471.1
815.036	14479.92
815.365	14350.2
815.693	14278.57
816.022	14303.2
816.351	14279.47
816.68	14174.84
817.008	14178.45
817.337	14075.63
817.665	14108.4
817.994	14094.84
818.322	14099.36
818.651	14054.16
818.979	13874.73
819.307	14112.24
819.636	14049.87
819.964	14016.43
820.292	14063.88
820.62	14006.03
820.948	13870.89
821.276	13993.15
821.604	13886.71
821.932	13920.61
822.259	13838.12
822.587	13921.51
822.915	13849.88
823.243	13966.94
823.57	13923.32
823.898	13929.2
824.225	13905.47
824.553	13856.2
824.88	13912.25
825.207	13908.18
825.535	13921.06
825.862	13942.98
826.189	13908.63
826.516	13983.88
826.843	13945.01
827.17	13982.98
827.497	13980.95
827.824	13915.41
828.151	13943.88
828.478	13957.22
828.805	13987.27
829.131	13942.98
829.458	13922.19
829.785	13905.92
830.111	13929.2
830.438	14022.07
830.764	13883.32
831.09	14000.61
831.417	13945.69
831.743	13944.11
832.069	13971.68
832.395	13959.7
832.722	13934.17
833.048	13955.64
833.374	13944.79
833.7	13777.56
834.026	13823.44
834.351	13951.79
834.677	13897.11
835.003	13875.86
835.329	13826.15
835.654	13801.74
835.98	13803.32
836.306	13820.95
836.631	13741.18
836.956	13778.01
837.282	13779.14
837.607	13676.77
837.932	13677.68
838.258	13691.24
838.583	13678.13
838.908	13555.42
839.233	13627.06
839.558	13592.71
839.883	13554.74
840.208	13512.48
840.533	13556.1
840.858	13516.55
841.182	13493.95
841.507	13470
841.832	13359.72
842.156	13364.92
842.481	13383.45
842.805	13411.47
843.13	13304.58
843.454	13286.05
843.778	13253.28
844.103	13255.09
844.427	13211.93
844.751	13170.35
845.075	13122.66
845.399	13069.11
845.723	13005.15
846.047	13101.2
846.371	12877.7
846.695	12925.61
847.019	12893.74
847.343	12759.96
847.666	12696.46
847.99	12759.51
848.313	12656.69
848.637	12564.71
848.96	12552.73
849.284	12549.35
849.607	12427.31
849.931	12427.31
850.254	12328.33
850.577	12291.27
850.9	12167.21
851.223	12167.89
851.546	12198.85
851.869	12105.52
852.192	12114.78
852.515	11981.45
852.838	11880.89
853.161	11992.98
853.483	11869.14
853.806	11813.77
854.129	11740.1
854.451	11753.43
854.774	11718.41
855.096	11688.12
855.419	11665.3
855.741	11642.25
856.063	11595.7
856.385	11569.94
856.708	11476.61
857.03	11482.25
857.352	11504.17
857.674	11421.01
857.996	11374.23
858.318	11291.75
858.64	11353.44
858.961	11342.6
859.283	11189.38
859.605	11183.73
859.926	11240.68
860.248	11231.41
860.57	11108.93
860.891	11174.47
861.212	11106.22
861.534	11021.02
861.855	10973.12
862.176	11089.27
862.498	11001.59
862.819	11007.69
863.14	10961.59
863.461	10938.77
863.782	10916.39
864.103	10818.54
864.424	10856.73
864.745	10933.34
865.065	10840.69
865.386	10759.79
865.707	10792.1
866.027	10842.95
866.348	10734.25
866.668	10727.47
866.989	10722.05
867.309	10713.24
867.63	10672.78
867.95	10699.9
868.27	10599.79
868.59	10619.9
868.91	10604.99
869.23	10612.67
869.55	10556.86
869.87	10602.73
870.19	10539.45
870.51	10590.3
870.83	10491.77
871.15	10509.17
871.469	10549.4
871.789	10540.36
872.109	10555.05
872.428	10424.66
872.748	10421.94
873.067	10416.75
873.386	10422.4
873.706	10369.74
874.025	10346.47
874.344	10352.34
874.663	10388.72
874.982	10409.51
875.301	10344.43
875.62	10259.46
875.939	10213.81
876.258	10258.78
876.577	10209.07
876.896	10178.11
877.214	10208.39
877.533	10210.2
877.852	10118.22
878.17	10071.9
878.489	10141.27
878.807	10111.44
879.125	10096.08
879.444	10110.31
879.762	10070.99
880.08	10101.27
880.398	10059.24
880.716	10021.05
881.034	9908.96
881.352	9979.7
881.67	9935.85
881.988	9927.95
882.306	9913.48
882.624	9896.53
882.941	9850.89
883.259	9798.23
883.577	9807.72
883.894	9793.03
884.212	9713.26
884.529	9782.86
884.846	9609.76
885.164	9730.66
885.481	9691.57
885.798	9663.77
886.115	9635.07
886.432	9625.13
886.75	9615.19
887.067	9570.44
887.383	9503.32
887.7	9526.15
888.017	9474.62
888.334	9538.58
888.651	9472.82
888.967	9516.43
889.284	9375.19
889.6	9347.4
889.917	9280.73
890.233	9286.38
890.55	9207.51
890.866	9252.93
891.182	9285.02
891.498	9150.34
891.815	9203.9
892.131	9146.95
892.447	9147.17
892.763	9064.69
893.079	9136.1
893.395	9030.57
893.71	9027.18
894.026	9041.41
894.342	8971.13
894.657	9015.65
894.973	8897.24
895.289	8854.75
895.604	8848.43
895.92	8807.97
896.235	8695.44
896.55	8725.72
896.865	8729.78
897.181	8678.26
897.496	8661.09
897.811	8652.05
898.126	8677.58
898.441	8539.51
898.756	8553.97
899.071	8545.38
899.386	8519.85
899.7	8408.66
900.015	8375.22
900.33	8331.83
900.644	8296.12
900.959	8342
901.273	8299.97
901.588	8260.19
901.902	8217.48
902.216	8136.81
902.531	8153.75
902.845	8158.05
903.159	8052.74
903.473	8080.76
903.787	8059.75
904.101	8010.93
904.415	7944.95
904.729	7962.57
905.042	7923.93
905.356	7878.96
905.67	7925.06
905.984	7805.06
906.297	7793.76
906.611	7760.32
906.924	7764.84
907.237	7726.2
907.551	7662.92
907.864	7655.01
908.177	7615.24
908.491	7614.33
908.804	7541.57
909.117	7519.19
909.43	7464.28
909.743	7476.03
910.056	7475.81
910.368	7433.55
910.681	7411.4
910.994	7339.09
911.307	7312.87
911.619	7224.51
911.932	7243.72
912.244	7270.16
912.557	7189.71
912.869	7183.38
913.181	7186.77
913.494	7119.88
913.806	7076.72
914.118	6988.81
914.43	7002.37
914.742	7024.74
915.054	6980.68
915.366	6953.11
915.678	6890.51
915.99	6905.65
916.302	6862.49
916.613	6864.3
916.925	6821.81
917.236	6764.41
917.548	6718.76
917.859	6810.29
918.171	6699.33
918.482	6643.06
918.794	6607.58
919.105	6628.14
919.416	6606.68
919.727	6602.83
920.038	6526.45
920.349	6478.54
920.66	6438.55
920.971	6481.03
921.282	6442.16
921.593	6376.63
921.903	6315.16
922.214	6319.23
922.525	6291.2
922.835	6280.81
923.146	6215.95
923.456	6263.63
923.767	6157.65
924.077	6231.09
924.387	6175.95
924.697	6147.25
925.008	6157.87
925.318	6043.3
925.628	6063.19
925.938	6035.17
926.248	5992.23
926.558	6004.43
926.867	6021.38
927.177	5938.45
927.487	5923.53
927.796	5834.95
928.106	5875.17
928.416	5875.4
928.725	5803.08
929.034	5785.91
929.344	5836.08
929.653	5766.47
929.962	5707.94
930.271	5677.44
930.581	5697.1
930.89	5697.55
931.199	5598.34
931.508	5614.16
931.817	5597.89
932.125	5582.3
932.434	5555.4
932.743	5509.53
933.051	5490.32
933.36	5442.41
933.669	5443.54
933.977	5429.31
934.286	5421.17
934.594	5414.62
934.902	5393.6
935.21	5273.15
935.519	5302.53
935.827	5291.68
936.135	5274.73
936.443	5247.16
936.751	5220.27
937.059	5245.36
937.367	5209.43
937.674	5214.17
937.982	5147.73
938.29	5092.82
938.597	5101.86
938.905	5086.04
939.213	5059.6
939.52	5041.75
939.827	5025.48
940.135	4978.7
940.442	4944.35
940.749	4947.51
941.056	4958.36
941.363	4908.19
941.67	4888.3
941.977	4853.73
942.284	4857.57
942.591	4840.17
942.898	4799.94
943.205	4777.8
943.511	4750
943.818	4771.24
944.125	4772.37
944.431	4733.51
944.738	4702.09
945.044	4651.47
945.35	4638.14
945.657	4634.07
945.963	4612.38
946.269	4578.26
946.575	4582.77
946.881	4571.48
947.187	4506.62
947.493	4524.25
947.799	4486.05
948.105	4467.07
948.41	4413.74
948.716	4428.43
949.022	4409.67
949.327	4394.53
949.633	4375.32
949.938	4375.1
950.244	4356.57
950.549	4305.04
950.854	4294.87
951.16	4294.19
951.465	4260.07
951.77	4279.28
952.075	4217.59
952.38	4248.55
952.685	4174.42
952.99	4165.38
953.294	4173.52
953.599	4134.65
953.904	4130.58
954.209	4102.56
954.513	4138.49
954.818	4112.96
955.122	4045.16
955.426	4086.74
955.731	4026.41
956.035	3970.59
956.339	4004.94
956.643	4026.63
956.948	3973.53
957.252	3909.12
957.556	3939.85
957.86	3888.56
958.163	3897.82
958.467	3890.14
958.771	3859.4
959.075	3844.04
959.378	3782.8
959.682	3845.85
959.985	3804.94
960.289	3772.4
960.592	3780.99
960.896	3769.69
961.199	3734.66
961.502	3729.01
961.805	3668.45
962.108	3647.88
962.411	3660.54
962.714	3657.6
963.017	3638.17
963.32	3615.34
963.623	3633.87
963.926	3578.51
964.228	3543.25
964.531	3536.02
964.833	3529.24
965.136	3531.96
965.438	3538.96
965.741	3498.06
966.043	3508.23
966.345	3453.77
966.648	3453.09
966.95	3469.58
967.252	3447.21
967.554	3355.24
967.856	3415.12
968.158	3344.39
968.46	3356.14
968.761	3343.03
969.063	3334.22
969.365	3329.02
969.666	3285.86
969.968	3305.52
970.269	3286.76
970.571	3290.61
970.872	3270.95
971.174	3231.17
971.475	3210.16
971.776	3203.83
972.077	3210.38
972.378	3188.01
972.679	3172.87
972.98	3168.8
973.281	3141.68
973.582	3106.43
973.883	3126.32
974.183	3070.27
974.484	3094.68
974.785	3042.7
975.085	3071.4
975.386	3076.6
975.686	3013.78
975.986	3001.8
976.287	3039.99
976.587	2966.77
976.887	2955.02
977.187	2953.21
977.487	2957.28
977.787	2964.29
978.087	2901.46
978.387	2911.63
978.687	2894.68
978.987	2926.32
979.286	2859.2
979.586	2864.4
979.885	2850.62
980.185	2847.68
980.484	2770.85
980.784	2803.84
981.083	2835.02
981.382	2806.1
981.682	2747.57
981.981	2778.08
982.28	2746.44
982.579	2727.91
982.878	2744.18
983.177	2707.12
983.475	2717.74
983.774	2661.92
984.073	2651.07
984.372	2655.37
984.67	2649.04
984.969	2644.29
985.267	2627.57
985.566	2620.79
985.864	2587.8
986.162	2581.02
986.461	2583.51
986.759	2562.26
987.057	2548.03
987.355	2545.54
987.653	2532.66
987.951	2504.19
988.249	2503.96
988.547	2531.3
988.844	2489.27
989.142	2498.99
989.44	2446.79
989.737	2449.5
990.035	2430.74
990.332	2421.93
990.63	2383.96
990.927	2403.85
991.224	2395.49
991.521	2408.82
991.819	2415.83
992.116	2372.44
992.413	2352.78
992.71	2340.12
993.006	2335.83
993.303	2323.63
993.6	2318.43
993.897	2322.95
994.193	2290.18
994.49	2269.16
994.787	2240.69
995.083	2253.34
995.379	2220.8
995.676	2229.84
995.972	2205.44
996.268	2221.26
996.565	2162.95
996.861	2207.7
997.157	2165.21
997.453	2172.22
997.749	2154.14
998.044	2116.4
998.34	2139.22
998.636	2127.25
998.932	2106.91
999.227	2096.29
999.523	2093.35
999.818	2056.06
1000.114	2077.98
1000.409	2075.95
1000.704	2025.1
1001	2041.82
1001.295	2039.11
1001.59	2020.81
1001.885	2004.31
1002.18	1997.98
1002.475	2003.86
1002.77	2007.93
1003.065	1966.8
1003.359	1917.53
1003.654	1938.32
1003.949	1900.13
1004.243	1923.64
1004.538	1918.89
1004.832	1934.26
1005.127	1872.56
1005.421	1902.17
1005.715	1894.03
1006.009	1863.3
1006.304	1843.64
1006.598	1789.4
1006.892	1822.4
1007.186	1828.72
1007.48	1826.24
1007.773	1803.86
1008.067	1793.92
1008.361	1762.51
1008.655	1785.11
1008.948	1776.75
1009.242	1752.11
1009.535	1753.92
1009.829	1702.85
1010.122	1703.3
1010.415	1718.9
1010.708	1700.36
1011.001	1682.06
1011.295	1681.83
1011.588	1686.58
1011.881	1641.84
1012.173	1661.27
1012.466	1642.06
1012.759	1624.43
1013.052	1612.68
1013.344	1611.78
1013.637	1607.49
1013.93	1576.98
1014.222	1605.68
1014.514	1583.98
1014.807	1555.51
1015.099	1525.91
1015.391	1555.06
1015.683	1519.8
1015.976	1522.06
1016.268	1525
1016.56	1489.52
1016.851	1485.23
1017.143	1478.45
1017.435	1489.52
1017.727	1499.92
1018.018	1476.64
1018.31	1462.41
1018.602	1431.9
1018.893	1433.25
1019.185	1426.47
1019.476	1437.77
1019.767	1460.15
1020.058	1402.52
1020.35	1407.72
1020.641	1397.1
1020.932	1377.44
1021.223	1384.89
1021.514	1364.1
1021.804	1351.67
1022.095	1345.35
1022.386	1342.86
1022.677	1329.75
1022.967	1323.2
1023.258	1327.49
1023.548	1300.15
1023.839	1252.24
1024.129	1318
1024.419	1285.69
1024.709	1241.39
1025	1266.93
1025.29	1240.94
1025.58	1249.3
1025.87	1231.9
1026.16	1227.16
1026.449	1232.35
1026.739	1195.97
1027.029	1217.21
1027.319	1190.1
1027.608	1187.38
1027.898	1193.03
1028.187	1188.51
1028.477	1193.71
1028.766	1165.01
1029.055	1142.19
1029.344	1140.15
1029.634	1138.35
1029.923	1151.68
1030.212	1111.23
1030.501	1135.63
1030.79	1120.27
1031.078	1119.36
1031.367	1085.01
1031.656	1108.52
1031.945	1105.58
1032.233	1067.16
1032.522	1043.66
1032.81	1066.71
1033.099	1044.56
1033.387	1052.47
1033.675	1010.67
1033.963	1041.63
1034.251	1030.55
1034.54	1035.98
1034.828	1005.92
1035.116	1005.47
1035.403	1019.7
1035.691	993.49
1035.979	978.8
1036.267	983.77
1036.554	986.03
1036.842	926.83
1037.129	956.88
1037.417	967.05
1037.704	981.51
1037.992	937.67
1038.279	924.79
1038.566	922.98
1038.853	922.98
1039.14	922.98
