Data from hue_200_FLMS001491_00080.txt Node
Date: Tue Feb 07 16:43:56 GMT 2017
User: dcchb
Spectrometer: FLMS00149
Trigger mode: 0
Integration Time (sec): 2.000000E-2
Scans to average: 10
Electric dark correction enabled: true
Nonlinearity correction enabled: false
Boxcar width: 0
XAxis mode: Wavelengths
Number of Pixels in Spectrum: 2048
>>>>>Begin Spectral Data<<<<<
341.393	-0.54
341.776	-0.54
342.16	-0.54
342.543	-79.63
342.927	-66.07
343.31	-75.34
343.693	-68.11
344.077	-71.27
344.46	-62.68
344.843	-45.06
345.226	-39.41
345.61	-33.53
345.993	-32.63
346.376	7.37
346.759	17.77
347.142	29.52
347.525	26.13
347.908	40.37
348.291	86.92
348.674	101.16
349.057	118.78
349.44	118.33
349.823	143.41
350.206	173.47
350.588	198.55
350.971	219.34
351.354	246.24
351.737	237.42
352.119	252.56
352.502	252.11
352.884	263.64
353.267	278.55
353.65	284.2
354.032	298.21
354.414	310.42
354.797	321.71
355.179	328.04
355.562	335.27
355.944	334.37
356.326	319.23
356.709	363.52
357.091	320.13
357.473	343.86
357.855	333.47
358.238	352
358.62	344.54
359.002	355.16
359.384	348.15
359.766	322.39
360.148	320.58
360.53	349.74
360.912	347.7
361.294	320.13
361.676	327.14
362.057	337.31
362.439	332.11
362.821	315.84
363.203	317.87
363.584	330.53
363.966	326.46
364.348	367.14
364.729	312.22
365.111	323.97
365.493	316.29
365.874	332.11
366.256	317.2
366.637	305.9
367.019	321.71
367.4	303.86
367.781	327.59
368.163	307.03
368.544	309.06
368.925	316.74
369.306	326.46
369.688	315.61
370.069	309.29
370.45	315.16
370.831	324.88
371.212	317.87
371.593	314.26
371.974	342.05
372.355	309.06
372.736	313.35
373.117	309.51
373.498	332.11
373.879	311.32
374.26	301.15
374.641	320.58
375.021	332.34
375.402	328.72
375.783	333.47
376.163	322.84
376.544	297.76
376.925	328.95
377.305	329.62
377.686	333.24
378.066	321.26
378.447	304.99
378.827	343.64
379.208	337.99
379.588	319.68
379.968	340.47
380.349	319.23
380.729	325.78
381.109	315.16
381.489	340.47
381.87	322.84
382.25	334.82
382.63	343.41
383.01	342.51
383.39	343.41
383.77	331.88
384.15	344.31
384.53	325.56
384.91	333.01
385.29	340.02
385.67	339.12
386.049	329.85
386.429	365.78
386.809	322.17
387.189	347.25
387.568	343.18
387.948	350.19
388.328	344.99
388.707	337.99
389.087	345.22
389.466	366.69
389.846	368.95
390.225	363.3
390.605	355.61
390.984	376.4
391.363	370.98
391.743	367.14
392.122	354.26
392.501	364.88
392.881	371.88
393.26	376.85
393.639	358.78
394.018	382.05
394.397	371.2
394.776	373.46
395.155	376.85
395.534	398.1
395.913	382.05
396.292	400.58
396.671	370.3
397.05	399
397.429	411.88
397.808	412.33
398.186	406.23
398.565	387.93
398.944	386.8
399.323	380.02
399.701	432.22
400.08	408.04
400.458	415.5
400.837	421.15
401.215	427.02
401.594	429.51
401.972	431.09
402.351	405.78
402.729	421.15
403.107	428.83
403.486	416.18
403.864	435.61
404.242	446.68
404.62	434.25
404.999	467.25
405.377	460.47
405.755	451.65
406.133	444.42
406.511	463.86
406.889	472.9
407.267	474.03
407.645	468.83
408.023	490.07
408.401	495.04
408.779	494.37
409.156	507.02
409.534	521.71
409.912	524.42
410.29	543.4
410.667	533.91
411.045	553.12
411.422	550.64
411.8	554.7
412.178	593.57
412.555	583.4
412.933	598.54
413.31	606.68
413.687	620.92
414.065	630.41
414.442	629.96
414.819	630.41
415.197	633.8
415.574	655.72
415.951	663.63
416.328	667.24
416.705	680.58
417.082	676.96
417.46	701.82
417.837	734.13
418.214	692.33
418.591	715.38
418.967	731.42
419.344	756.96
419.721	767.13
420.098	763.51
420.475	810.74
420.852	812.1
421.228	801.93
421.605	828.59
421.982	849.84
422.358	853.68
422.735	852.77
423.111	881.93
423.488	898.87
423.864	895.94
424.241	934.13
424.617	944.75
424.994	955.14
425.37	964.86
425.746	1001.47
426.123	1016.39
426.499	1003.05
426.875	1029.27
427.251	1039.21
427.627	1091.64
428.003	1073.79
428.379	1091.19
428.756	1111.52
429.132	1116.72
429.507	1146.78
429.883	1149.26
430.259	1143.39
430.635	1189.04
431.011	1202.14
431.387	1206.89
431.763	1229.94
432.138	1254.57
432.514	1282.59
432.89	1290.28
433.265	1314.46
433.641	1353.78
434.016	1392.87
434.392	1397.39
434.767	1396.94
435.143	1444.85
435.518	1463.38
435.894	1516.94
436.269	1529.82
436.644	1534.56
437.02	1562.59
437.395	1570.72
437.77	1613.21
438.145	1635.58
438.52	1697.27
438.895	1726.42
439.271	1717.61
439.646	1744.05
440.021	1782.92
440.395	1826.53
440.77	1803.26
441.145	1820.88
441.52	1900.88
441.895	1904.95
442.27	1938.17
442.645	1919.86
443.019	1929.81
443.394	2013.2
443.769	2006.42
444.143	1987.66
444.518	2061.56
444.892	2057.71
445.267	2086.41
445.641	2104.27
446.016	2076.02
446.39	2147.2
446.764	2178.16
447.139	2126.41
447.513	2219.07
447.887	2198.73
448.262	2191.72
448.636	2248.22
449.01	2250.03
449.384	2311.49
449.758	2317.59
450.132	2300.19
450.506	2338.84
450.88	2333.64
451.254	2358.95
451.628	2404.6
452.002	2428.78
452.376	2462
452.75	2454.77
453.123	2496.57
453.497	2564.82
453.871	2542.22
454.244	2584.71
454.618	2607.76
454.992	2663.8
455.365	2661.54
455.739	2720.97
456.112	2745.15
456.486	2804.36
456.859	2806.17
457.232	2853.17
457.606	2842.55
457.979	2871.25
458.352	2909.9
458.725	2983.79
459.099	2988.31
459.472	3026.5
459.845	3066.5
460.218	3081.87
460.591	3113.28
460.964	3120.51
461.337	3216.33
461.71	3217.01
462.083	3318.7
462.456	3322.09
462.829	3322.99
463.201	3408.41
463.574	3357.79
463.947	3433.5
464.32	3530.9
464.692	3555.75
465.065	3574.51
465.438	3637.56
465.81	3663.55
466.183	3726.14
466.555	3790.1
466.928	3798.69
467.3	3791.68
467.672	3890.21
468.045	3980.6
468.417	3979.25
468.789	4007.27
469.161	4041.84
469.534	4106.93
469.906	4151.22
470.278	4185.57
470.65	4277.54
471.022	4286.36
471.394	4408.39
471.766	4461.49
472.138	4518.21
472.51	4589.4
472.882	4657.19
473.253	4692
473.625	4756.17
473.997	4831.43
474.369	4874.82
474.74	4961.59
475.112	4993.46
475.484	5065.32
475.855	5168.59
476.227	5189.38
476.598	5368.59
476.97	5370.85
477.341	5432.99
477.713	5534.68
478.084	5609.26
478.455	5761.8
478.827	5756.15
479.198	5909.14
479.569	5936.71
479.94	6106.2
480.311	6120.66
480.682	6224.38
481.053	6329.01
481.424	6461.21
481.795	6559.97
482.166	6594.54
482.537	6674.09
482.908	6731.94
483.279	6799.74
483.65	6927.19
484.021	7081.54
484.391	7189.33
484.762	7166.51
485.133	7246.73
485.503	7345.03
485.874	7499.38
486.244	7579.83
486.615	7728.98
486.985	7789.77
487.356	7902.53
487.726	7964.68
488.097	8117.67
488.467	8123.32
488.837	8245.12
489.207	8392.24
489.578	8434.04
489.948	8520.82
490.318	8555.17
490.688	8707.26
491.058	8718.33
491.428	8850.08
491.798	8865.44
492.168	9041.03
492.538	9115.83
492.908	9135.04
493.278	9205.1
493.648	9254.81
494.017	9352.44
494.387	9391.98
494.757	9478.08
495.126	9611.41
495.496	9581.36
495.866	9579.78
496.235	9692.32
496.605	9789.04
496.974	9843.27
497.344	9887.11
497.713	9912.87
498.082	9931.63
498.452	10035.36
498.821	10095.47
499.19	10055.92
499.559	10200.33
499.928	10182.92
500.298	10213.66
500.667	10324.39
501.036	10264.96
501.405	10332.52
501.774	10352.64
502.143	10400.32
502.512	10389.7
502.88	10565.29
503.249	10503.37
503.618	10539.07
503.987	10569.81
504.356	10569.81
504.724	10686.64
505.093	10679.63
505.462	10593.76
505.83	10678.28
506.199	10798.28
506.567	10880.31
506.936	10807.99
507.304	10942.23
507.672	10886.18
508.041	10903.58
508.409	10951.27
508.777	11029.23
509.145	11054.99
509.514	11023.13
509.882	11152.62
510.25	11110.13
510.618	11056.8
510.986	11142.67
511.354	11156.46
511.722	11215.89
512.09	11273.52
512.458	11250.47
512.826	11258.83
513.193	11350.8
513.561	11316
513.929	11363.68
514.297	11392.16
514.664	11467.41
515.032	11417.69
515.4	11409.78
515.767	11461.99
516.135	11470.8
516.502	11399.16
516.869	11534.53
517.237	11570.01
517.604	11333.63
517.972	11540.63
518.339	11551.02
518.706	11490.23
519.073	11471.48
519.44	11516
519.808	11556.45
520.175	11472.16
520.542	11621.53
520.909	11620.17
521.276	11561.42
521.643	11653.17
522.009	11661.3
522.376	11695.43
522.743	11672.6
523.11	11622.21
523.477	11726.84
523.843	11711.47
524.21	11714.86
524.577	11813.84
524.943	11820.17
525.31	11822.88
525.676	11859.26
526.043	11816.55
526.409	11809.55
526.776	11893.39
527.142	11853.39
527.508	11850.9
527.874	11898.81
528.241	11824.24
528.607	11790.34
528.973	11864.69
529.339	11766.39
529.705	11795.99
530.071	11852.48
530.437	11755.09
530.803	11777.46
531.169	11678.7
531.535	11681.42
531.901	11721.41
532.267	11705.14
532.632	11646.61
532.998	11584.7
533.364	11595.77
533.73	11575.2
534.095	11638.25
534.461	11625.82
534.826	11539.5
535.192	11506.51
535.557	11544.02
535.923	11485.04
536.288	11413.85
536.653	11437.58
537.019	11281.88
537.384	11238.72
537.749	11274.65
538.114	11262.22
538.479	11154.65
538.845	11217.47
539.21	11147.64
539.575	11109.91
539.94	11056.12
540.305	10998.04
540.67	10996.01
541.034	10935.67
541.399	10917.37
541.764	10859.06
542.129	10810.48
542.494	10735.45
542.858	10696.36
543.223	10664.95
543.587	10706.3
543.952	10618.39
544.316	10566.19
544.681	10540.66
545.045	10478.74
545.41	10424.05
545.774	10431.73
546.138	10372.07
546.503	10334.78
546.867	10262.24
547.231	10248.23
547.595	10205.52
547.959	10142.7
548.324	10091.18
548.688	10130.5
549.052	10045.75
549.416	9975.25
549.779	9937.51
550.143	9893.67
550.507	9876.72
550.871	9838.07
551.235	9729.6
551.599	9763.27
551.962	9664.75
552.326	9663.84
552.689	9672.43
553.053	9609.83
553.417	9545.43
553.78	9564.18
554.143	9553.79
554.507	9453.68
554.87	9442.15
555.234	9498.65
555.597	9379.33
555.96	9319.44
556.323	9337.97
556.686	9273.12
557.05	9332.55
557.413	9248.03
557.776	9249.16
558.139	9272.44
558.502	9207.13
558.865	9210.29
559.228	9147.02
559.59	9178.66
559.953	9100.24
560.316	9184.31
560.679	9186.79
561.041	9112.44
561.404	9099.11
561.767	9104.76
562.129	9017.76
562.492	9123.07
562.854	9081.94
563.217	8974.37
563.579	8956.97
563.941	9041.03
564.304	8996.29
564.666	9082.84
565.028	9006.46
565.39	8992
565.753	9003.75
566.115	8982.5
566.477	8943.86
566.839	8955.84
567.201	9023.86
567.563	8932.34
567.925	9039.23
568.287	8958.32
568.648	8948.15
569.01	8988.38
569.372	8971.43
569.734	8933.01
570.095	8990.87
570.457	8982.05
570.819	8967.36
571.18	8897.99
571.542	9019.34
571.903	8964.2
572.265	9024.31
572.626	9035.16
572.987	9048.26
573.349	9041.49
573.71	8954.48
574.071	8991.54
574.432	9021.15
574.794	9056.63
575.155	8981.83
575.516	8928.95
575.877	8976.4
576.238	9005.1
576.599	9019.11
576.96	9005.78
577.32	8992.9
577.681	9060.47
578.042	9052.78
578.403	9047.81
578.763	9031.32
579.124	8979.11
579.485	9035.61
579.845	9039.9
580.206	8982.73
580.566	8958.1
580.927	8954.48
581.287	8977.98
581.648	8923.07
582.008	8992.22
582.368	8959.91
582.728	9017.31
583.089	8976.4
583.449	8933.69
583.809	8954.71
584.169	8980.92
584.529	8904.09
584.889	8978.44
585.249	8926.91
585.609	8842.17
585.969	8946.8
586.329	8876.52
586.688	8918.55
587.048	8923.3
587.408	8923.75
587.768	8921.49
588.127	8940.92
588.487	8862.06
588.846	8929.17
589.206	8866.57
589.565	8837.2
589.925	8886.01
590.284	8869.51
590.643	8816.41
591.003	8872.22
591.362	8841.04
591.721	8844.88
592.08	8850.53
592.44	8866.57
592.799	8759.01
593.158	8778.89
593.517	8755.62
593.876	8812.56
594.235	8842.17
594.593	8790.87
594.952	8767.82
595.311	8752.23
595.67	8699.8
596.029	8838.78
596.387	8790.19
596.746	8807.59
597.104	8782.96
597.463	8729.4
597.822	8745.9
598.18	8781.15
598.538	8721.27
598.897	8759.46
599.255	8683.3
599.613	8805.79
599.972	8785.45
600.33	8759.01
600.688	8724.88
601.046	8764.43
601.404	8740.48
601.762	8709.74
602.12	8754.71
602.478	8728.05
602.836	8739.8
603.194	8663.42
603.552	8744.09
603.91	8646.69
604.268	8648.95
604.625	8646.47
604.983	8683.08
605.341	8651.89
605.698	8746.8
606.056	8727.6
606.413	8696.41
606.771	8694.15
607.128	8669.07
607.485	8654.38
607.843	8685.79
608.2	8731.44
608.557	8711.32
608.914	8762.17
609.272	8731.21
609.629	8687.14
609.986	8744.54
610.343	8698.9
610.7	8807.37
611.057	8690.53
611.414	8725.56
611.771	8752
612.127	8763.75
612.484	8748.84
612.841	8802.85
613.198	8744.54
613.554	8696.41
613.911	8778.89
614.267	8815.5
614.624	8793.36
614.98	8792.9
615.337	8801.72
615.693	8799.68
616.05	8798.55
616.406	8902.51
616.762	8810.76
617.118	8824.99
617.475	8866.12
617.831	8823.41
618.187	8811.43
618.543	8842.39
618.899	8824.54
619.255	8851.43
619.611	8796.07
619.967	8839.23
620.323	8891.88
620.678	8854.37
621.034	8825.45
621.39	8839.68
621.746	8775.96
622.101	8952.22
622.457	8805.56
622.812	8850.98
623.168	8905.9
623.523	8875.39
623.879	8886.91
624.234	8812.56
624.589	8803.75
624.945	8844.88
625.3	8843.07
625.655	8911.55
626.01	8833.36
626.365	8877.42
626.72	8835.84
627.075	8802.85
627.43	8830.42
627.785	8826.8
628.14	8822.28
628.495	8888.5
628.85	8793.81
629.205	8781.15
629.559	8806.01
629.914	8803.3
630.269	8803.75
630.623	8775.05
630.978	8731.89
631.332	8741.83
631.687	8782.96
632.041	8800.14
632.396	8764.43
632.75	8717.65
633.104	8749.97
633.459	8738.22
633.813	8664.09
634.167	8734.37
634.521	8688.05
634.875	8613.93
635.229	8691.89
635.583	8633.13
635.937	8587.94
636.291	8584.55
636.645	8615.96
636.999	8537.77
637.352	8601.72
637.706	8548.62
638.06	8599.69
638.413	8570.99
638.767	8506.58
639.121	8492.57
639.474	8451.22
639.828	8509.3
640.181	8534.61
640.534	8509.97
640.888	8430.2
641.241	8465.91
641.594	8449.86
641.947	8456.19
642.301	8435.63
642.654	8444.21
643.007	8497.54
643.36	8420.48
643.713	8376.19
644.066	8441.73
644.419	8394.95
644.771	8356.53
645.124	8281.05
645.477	8238.12
645.83	8202.86
646.182	8196.54
646.535	8215.52
646.888	8174.84
647.24	8106.59
647.593	8140.49
647.945	8098.01
648.298	8106.14
648.65	8090.32
649.002	8021.63
649.355	8152.7
649.707	8183.65
650.059	8172.13
650.411	8227.04
650.763	8269.98
651.115	8313.82
651.467	8326.93
651.819	8369.86
652.171	8340.94
652.523	8267.72
652.875	8278.57
653.227	8232.69
653.578	8310.43
653.93	8319.47
654.282	8297.32
654.633	8237.21
654.985	8328.06
655.337	8321.73
655.688	8331.67
656.039	8361.05
656.391	8302.75
656.742	8303.65
657.094	8300.04
657.445	8335.97
657.796	8370.54
658.147	8318.79
658.498	8314.05
658.849	8375.29
659.2	8383.2
659.551	8295.52
659.902	8394.95
660.253	8383.65
660.604	8361.05
660.955	8356.31
661.306	8365.35
661.656	8378.45
662.007	8391.33
662.358	8403.54
662.708	8429.3
663.059	8384.1
663.409	8378.68
663.76	8490.31
664.11	8369.64
664.461	8440.6
664.811	8449.18
665.161	8419.13
665.511	8391.78
665.862	8385.68
666.212	8401.5
666.562	8463.42
666.912	8381.62
667.262	8393.59
667.612	8419.58
667.962	8419.35
668.312	8399.92
668.662	8394.72
669.011	8426.81
669.361	8414.16
669.711	8398.79
670.06	8372.12
670.41	8361.28
670.76	8371.45
671.109	8368.28
671.459	8389.07
671.808	8329.41
672.157	8426.59
672.507	8301.84
672.856	8363.99
673.205	8269.3
673.554	8345.01
673.904	8369.64
674.253	8359.92
674.602	8331.22
674.951	8239.25
675.3	8213.71
675.649	8290.32
675.998	8241.28
676.346	8249.87
676.695	8283.09
677.044	8198.57
677.393	8250.32
677.741	8276.08
678.09	8211
678.438	8199.47
678.787	8227.95
679.135	8186.82
679.484	8213.26
679.832	8145.46
680.181	8181.17
680.529	8155.63
680.877	8143.2
681.225	8147.95
681.573	8154.73
681.922	8099.14
682.27	8091
682.618	8062.98
682.966	8048.07
683.314	8039.03
683.661	8001.06
684.009	7979.14
684.357	7976.43
684.705	7938.69
685.053	7956.54
685.4	7951.8
685.748	7914.28
686.095	7931.01
686.443	7869.99
686.79	7810.78
687.138	7776.89
687.485	7785.47
687.832	7794.06
688.18	7822.99
688.527	7768.52
688.874	7746.6
689.221	7669.09
689.568	7651.69
689.915	7626.61
690.262	7631.13
690.609	7583.67
690.956	7604.91
691.303	7589.55
691.65	7581.18
691.997	7548.64
692.344	7481.07
692.69	7452.6
693.037	7465.48
693.383	7399.27
693.73	7381.87
694.077	7404.24
694.423	7357.69
694.769	7324.24
695.116	7258.26
695.462	7241.08
695.808	7234.3
696.155	7288.31
696.501	7152.04
696.847	7172.61
697.193	7136
697.539	7128.77
697.885	7119.5
698.231	7099.84
698.577	7069.33
698.923	6997.02
699.269	7015.32
699.614	6930.35
699.96	6902.56
700.306	6901.88
700.651	6866.85
700.997	6812.62
701.342	6863.01
701.688	6802.9
702.033	6787.76
702.379	6809.23
702.724	6736.69
703.069	6755.67
703.415	6702.34
703.76	6637.48
704.105	6644.03
704.45	6636.12
704.795	6599.29
705.14	6604.04
705.485	6585.96
705.83	6588.44
706.175	6579.18
706.52	6503.47
706.865	6470.48
707.209	6521.78
707.554	6496.69
707.899	6446.07
708.243	6373.08
708.588	6405.85
708.932	6357.04
709.277	6278.62
709.621	6328.56
709.966	6264.38
710.31	6344.16
710.654	6258.96
710.998	6258.73
711.342	6283.59
711.687	6214.67
712.031	6167.44
712.375	6191.84
712.719	6172.41
713.063	6156.36
713.407	6176.7
713.75	6192.97
714.094	6133.54
714.438	6068.68
714.782	6152.3
715.125	6121.11
715.469	6067.78
715.812	6055.58
716.156	6044.73
716.499	6030.72
716.843	6077.27
717.186	6010.83
717.53	6058.29
717.873	6039.76
718.216	6023.94
718.559	5992.98
718.902	5927.22
719.246	5998.63
719.589	5945.3
719.932	5885.18
720.275	5954.11
720.617	5968.12
720.96	5885.41
721.303	5937.39
721.646	5952.3
721.989	5887.44
722.331	5884.73
722.674	5880.89
723.016	5939.42
723.359	5887.9
723.701	5964.73
724.044	5876.6
724.386	5799.76
724.729	5864.85
725.071	5843.6
725.413	5826.43
725.755	5890.16
726.097	5796.82
726.439	5853.09
726.782	5831.85
727.124	5827.11
727.465	5850.83
727.807	5812.64
728.149	5805.86
728.491	5804.06
728.833	5858.07
729.175	5820.55
729.516	5779.2
729.858	5809.03
730.199	5811.97
730.541	5796.6
730.882	5819.2
731.224	5834.79
731.565	5788.92
731.906	5840.89
732.248	5830.95
732.589	5776.71
732.93	5803.38
733.271	5780.78
733.612	5838.41
733.953	5778.52
734.294	5804.28
734.635	5860.78
734.976	5797.95
735.317	5830.27
735.658	5760.89
735.999	5861
736.339	5840.67
736.68	5860.1
737.021	5849.93
737.361	5865.07
737.702	5896.48
738.042	5892.64
738.383	5838.86
738.723	5924.73
739.063	5877.5
739.404	5914.11
739.744	5918.4
740.084	5964.73
740.424	5953.88
740.764	5949.82
741.104	5971.28
741.444	5934
741.784	5949.82
742.124	6040.89
742.464	6003.6
742.804	6004.73
743.143	6067.78
743.483	6099.19
743.823	6084.5
744.162	6131.28
744.502	6148.45
744.841	6206.98
745.181	6235.23
745.52	6234.78
745.86	6260.32
746.199	6282.24
746.538	6378.05
746.877	6385.74
747.216	6437.03
747.556	6469.58
747.895	6503.93
748.234	6541.66
748.573	6598.16
748.911	6678.84
749.25	6751.6
749.589	6763.35
749.928	6864.59
750.267	6920.41
750.605	6971.48
750.944	7077.7
751.283	7131.03
751.621	7234.98
751.96	7304.36
752.298	7429.55
752.636	7477.91
752.975	7555.2
753.313	7683.1
753.651	7744.57
753.989	7927.16
754.327	7980.72
754.666	8137.1
755.004	8275.86
755.342	8378.9
755.679	8476.98
756.017	8608.5
756.355	8820.7
756.693	8887.82
757.031	9054.59
757.368	9111.31
757.706	9360.12
758.044	9462.27
758.381	9668.81
758.719	9805.99
759.056	10002.14
759.394	10169.14
759.731	10275.8
760.068	10438.51
760.405	10620.43
760.743	10729.8
761.08	11018.16
761.417	11188.1
761.754	11342.44
762.091	11472.16
762.428	11680.51
762.765	11763.9
763.102	12109.65
763.438	12260.16
763.775	12369.76
764.112	12560.71
764.449	12759.13
764.785	12932.68
765.122	12986.92
765.458	13164.09
765.795	13342.84
766.131	13637.97
766.467	13739.67
766.804	13815.82
767.14	14056.04
767.476	14207.9
767.812	14279.31
768.148	14541.91
768.485	14598.4
768.821	14693.99
769.157	14819.41
769.492	15011.05
769.828	15158.84
770.164	15201.32
770.5	15281.32
770.836	15543.91
771.171	15513.18
771.507	15651.71
771.842	15661.65
772.178	15903.68
772.513	15994.75
772.849	16074.29
773.184	16121.53
773.519	16296.89
773.855	16307.74
774.19	16473.61
774.525	16539.37
774.86	16596.32
775.195	16693.71
775.53	16744.56
775.865	16714.28
776.2	16770.1
776.535	16791.11
776.87	16977.32
777.205	16933.71
777.539	17037.89
777.874	17125.57
778.209	17035.63
778.543	17004.44
778.878	17117.66
779.212	17187.71
779.547	17219.12
779.881	17333.47
780.215	17267.48
780.55	17392.23
780.884	17293.47
781.218	17397.42
781.552	17462.28
781.886	17431.77
782.22	17389.29
782.554	17325.34
782.888	17350.65
783.222	17297.31
783.556	17307.26
783.889	17309.52
784.223	17248.5
784.557	17219.12
784.89	17392.68
785.224	17320.36
785.557	17361.72
785.891	17327.6
786.224	17282.17
786.558	17369.4
786.891	17293.25
787.224	17203.53
787.557	17190.42
787.891	17208.28
788.224	17291.21
788.557	17256.41
788.89	17214.6
789.223	17299.57
789.556	17074.49
789.888	17203.3
790.221	17179.58
790.554	17038.56
790.887	17060.48
791.219	16989.53
791.552	16960.6
791.884	16973.71
792.217	16901.39
792.549	16911.79
792.882	16964.89
793.214	16778.91
793.546	16865.46
793.879	16828.63
794.211	16726.48
794.543	16894.16
794.875	16783.43
795.207	16727.39
795.539	16674.05
795.871	16657.33
796.203	16541.18
796.535	16544.11
796.867	16551.34
797.198	16470.67
797.53	16441.97
797.862	16402.2
798.193	16533.94
798.525	16300.96
798.856	16285.14
799.188	16148.42
799.519	16114.97
799.85	16175.99
800.182	16184.35
800.513	16205.82
800.844	15991.36
801.175	16104.8
801.506	16102.77
801.837	16008.08
802.168	16023.67
802.499	15954.52
802.83	15992.49
803.161	15940.06
803.491	15877.24
803.822	15813.28
804.153	15786.17
804.483	15761.53
804.814	15609.67
805.145	15622.78
805.475	15639.05
805.805	15618.71
806.136	15539.62
806.466	15456.01
806.796	15602.67
807.126	15360.42
807.457	15515.89
807.787	15434.31
808.117	15333.75
808.447	15392.28
808.777	15357.48
809.107	15229.12
809.436	15169.69
809.766	15277.48
810.096	15138.5
810.426	15101.21
810.755	15205.62
811.085	15122.68
811.414	15135.79
811.744	15000.42
812.073	15031.38
812.403	15051.72
812.732	14828.23
813.061	14915
813.39	14808.79
813.719	14824.61
814.049	14903.03
814.378	14815.34
814.707	14740.32
815.036	14716.82
815.365	14656.03
815.693	14607.89
816.022	14604.05
816.351	14606.54
816.68	14533.32
817.008	14540.32
817.337	14379.65
817.665	14370.16
817.994	14443.6
818.322	14452.19
818.651	14376.94
818.979	14289.48
819.307	14428.69
819.636	14315.25
819.964	14294
820.292	14314.57
820.62	14296.04
820.948	14374
821.276	14304.17
821.604	14294.23
821.932	14229.15
822.259	14302.59
822.587	14252.65
822.915	14242.93
823.243	14353.44
823.57	14292.42
823.898	14273.21
824.225	14240.22
824.553	14263.27
824.88	14218.52
825.207	14227.11
825.535	14318.18
825.862	14383.94
826.189	14246.09
826.516	14273.66
826.843	14293.32
827.17	14271.86
827.497	14380.55
827.824	14294.68
828.151	14349.59
828.478	14336.04
828.805	14345.98
829.131	14213.78
829.458	14287.9
829.785	14153.89
830.111	14403.15
830.438	14343.94
830.764	14361.8
831.09	14310.27
831.417	14211.07
831.743	14381.46
832.069	14240.22
832.395	14231.18
832.722	14300.1
833.048	14220.33
833.374	14236.15
833.7	14210.62
834.026	14226.43
834.351	14232.54
834.677	14215.13
835.003	14157.06
835.329	14236.15
835.654	14170.84
835.98	14100.34
836.306	14135.59
836.631	14104.86
836.956	14117.28
837.282	14115.48
837.607	14109.15
837.932	14049.04
838.258	14010.39
838.583	13951.41
838.908	13933.11
839.233	13990.73
839.558	13933.56
839.883	13903.05
840.208	13736.28
840.533	13860.12
840.858	13872.32
841.182	13848.59
841.507	13776.95
841.832	13743.51
842.156	13747.35
842.481	13724.53
842.805	13715.49
843.13	13663.28
843.454	13651.08
843.778	13588.03
844.103	13524.98
844.427	13485.66
844.751	13496.96
845.075	13495.83
845.399	13451.76
845.723	13370.19
846.047	13374.03
846.371	13219.91
846.695	13360.92
847.019	13163.86
847.343	13104.43
847.666	13024.66
847.99	13000.48
848.313	13007.48
848.637	12988.27
848.96	12901.04
849.284	12926.36
849.607	12808.39
849.931	12754.16
850.254	12729.3
850.577	12633.26
850.9	12572.01
851.223	12494.73
851.546	12420.15
851.869	12401.4
852.192	12446.59
852.515	12285.47
852.838	12304.22
853.161	12302.87
853.483	12163.44
853.806	12127.05
854.129	12160.27
854.451	12023.55
854.774	12009.32
855.096	11996.89
855.419	11974.29
855.741	11902.88
856.063	11860.62
856.385	11836.89
856.708	11756.67
857.03	11767.06
857.352	11744.92
857.674	11707.18
857.996	11714.64
858.318	11593.06
858.64	11636.22
858.961	11513.74
859.283	11553.96
859.605	11411.82
859.926	11522.1
860.248	11512.15
860.57	11398.26
860.891	11401.88
861.212	11332.5
861.534	11258.83
861.855	11316.68
862.176	11366.85
862.498	11306.06
862.819	11188.77
863.14	11236.68
863.461	11241.43
863.782	11135.44
864.103	11182.67
864.424	11179.28
864.745	11134.99
865.065	11091.38
865.386	11008.67
865.707	11119.4
866.027	11097.48
866.348	11034.65
866.668	11036.91
866.989	11077.14
867.309	10888.67
867.63	10940.42
867.95	10914.2
868.27	10905.39
868.59	10893.19
868.91	10883.24
869.23	10812.06
869.55	10863.81
869.87	10853.19
870.19	10836.47
870.51	10867.2
870.83	10833.3
871.15	10795.56
871.469	10729.12
871.789	10754.66
872.109	10732.51
872.428	10701.1
872.748	10735
873.067	10692.52
873.386	10665.85
873.706	10664.49
874.025	10599.64
874.344	10533.2
874.663	10626.08
874.982	10593.08
875.301	10568.9
875.62	10526.64
875.939	10467.89
876.258	10539.3
876.577	10487.55
876.896	10490.94
877.214	10461.34
877.533	10386.99
877.852	10406.65
878.17	10457.04
878.489	10380.66
878.807	10403.94
879.125	10318.74
879.444	10379.08
879.762	10284.84
880.08	10402.81
880.398	10243.04
880.716	10269.25
881.034	10223.38
881.352	10252.75
881.67	10165.3
881.988	10128.46
882.306	10171.17
882.624	10116.49
882.941	10075.36
883.259	9977.05
883.577	9997.84
883.894	10017.05
884.212	9969.37
884.529	9992.42
884.846	9944.51
885.164	9963.5
885.481	9832.2
885.798	9875.14
886.115	9837.62
886.432	9810.28
886.75	9793.56
887.067	9768.47
887.383	9780.68
887.7	9787.68
888.017	9689.83
888.334	9733.44
888.651	9715.14
888.967	9651.86
889.284	9624.97
889.6	9523.51
889.917	9507.01
890.233	9545.88
890.55	9486.22
890.866	9569.61
891.182	9436.73
891.498	9403.74
891.815	9392.66
892.131	9340.46
892.447	9309.95
892.763	9267.47
893.079	9301.37
893.395	9290.97
893.71	9233.57
894.026	9221.14
894.342	9180.24
894.657	9039.9
894.973	9142.5
895.289	9064.54
895.604	9082.61
895.92	8966.69
896.235	8976.63
896.55	8963.07
896.865	8928.95
897.181	8912.45
897.496	8885.11
897.811	8870.64
898.126	8788.38
898.441	8767.14
898.756	8796.07
899.071	8681.95
899.386	8750.42
899.7	8680.14
900.015	8636.98
900.33	8578.45
900.644	8543.65
900.959	8543.42
901.273	8503.87
901.588	8463.87
901.902	8465
902.216	8439.24
902.531	8366.7
902.845	8333.48
903.159	8360.83
903.473	8272.69
903.787	8235.18
904.101	8189.76
904.415	8228.4
904.729	8188.85
905.042	8142.98
905.356	8096.2
905.67	8049.65
905.984	8057.1
906.297	8019.82
906.611	8025.01
906.924	7949.54
907.237	7929.65
907.551	7912.25
907.864	7854.85
908.177	7818.24
908.491	7821.63
908.804	7771.46
909.117	7628.42
909.43	7698.47
909.743	7684.01
910.056	7630.45
910.368	7630.68
910.681	7585.25
910.994	7528.3
911.307	7519.94
911.619	7446.05
911.932	7501.64
912.244	7390.46
912.557	7363.11
912.869	7336.45
913.181	7286.28
913.494	7369.21
913.806	7239.27
914.118	7179.84
914.43	7159.95
914.742	7186.62
915.054	7132.38
915.366	7175.32
915.678	7102.1
915.99	7080.18
916.302	7013.06
916.613	6957.47
916.925	6982.78
917.236	6920.19
917.548	6898.26
917.859	6889
918.171	6825.72
918.482	6808.55
918.794	6777.36
919.105	6812.84
919.416	6703.47
919.727	6707.54
920.038	6652.4
920.349	6624.37
920.66	6573.98
920.971	6633.87
921.282	6624.6
921.593	6548.9
921.903	6497.15
922.214	6513.87
922.525	6456.92
922.835	6463.47
923.146	6407.66
923.456	6351.16
923.767	6336.92
924.077	6329.24
924.387	6320.88
924.697	6279.52
925.008	6254.89
925.318	6245.17
925.628	6264.84
925.938	6190.03
926.248	6159.3
926.558	6157.04
926.867	6078.63
927.177	6129.7
927.487	6056.71
927.796	5957.05
928.106	6012.86
928.416	5969.48
928.725	5957.72
929.034	5917.27
929.344	5967.22
929.653	5919.76
929.962	5893.32
930.271	5824.17
930.581	5847.67
930.89	5809.03
931.199	5781.68
931.508	5696.26
931.817	5711.86
932.125	5731.74
932.434	5689.26
932.743	5637.73
933.051	5631.63
933.36	5609.26
933.669	5607.45
933.977	5564.51
934.286	5561.58
934.594	5489.26
934.902	5487.68
935.21	5497.85
935.519	5484.52
935.827	5453.78
936.135	5410.62
936.443	5351.86
936.751	5372.2
937.059	5371.53
937.367	5285.65
937.674	5307.35
937.982	5289.49
938.29	5265.99
938.597	5237.07
938.905	5193.9
939.213	5187.58
939.52	5179.21
939.827	5156.84
940.135	5080.23
940.442	5100.12
940.749	5113.91
941.056	5084.53
941.363	5028.94
941.67	4988.94
941.977	5010.63
942.284	4918.66
942.591	4955.04
942.898	4880.46
943.205	4887.02
943.511	4849.05
943.818	4918.2
944.125	4824.65
944.431	4797.53
944.738	4836.85
945.044	4780.81
945.35	4774.48
945.657	4675.95
945.963	4750.07
946.269	4690.64
946.575	4644.09
946.881	4623.07
947.187	4644.09
947.493	4620.13
947.799	4615.84
948.105	4574.26
948.41	4550.3
948.716	4562.06
949.022	4526.58
949.327	4508.05
949.633	4479.12
949.938	4461.04
950.244	4449.06
950.549	4402.96
950.854	4429.4
951.16	4405
951.465	4355.73
951.77	4336.3
952.075	4331.33
952.38	4281.16
952.685	4306.92
952.99	4288.16
953.294	4268.28
953.599	4212.46
953.904	4199.8
954.209	4200.71
954.513	4166.81
954.818	4172.01
955.122	4166.13
955.426	4134.72
955.731	4157.55
956.035	4095.17
956.339	4132.69
956.643	4104.89
956.948	4041.84
957.252	4040.94
957.556	3988.74
957.86	3954.61
958.163	3965.01
958.467	3961.62
958.771	3945.8
959.075	3940.38
959.378	3872.58
959.682	3887.27
959.985	3871.45
960.289	3883.43
960.592	3824.45
960.896	3847.95
961.199	3799.36
961.502	3814.5
961.805	3771.57
962.108	3763.21
962.411	3754.17
962.714	3746.94
963.017	3689.76
963.32	3728.18
963.623	3684.11
963.926	3692.25
964.228	3653.38
964.531	3654.28
964.833	3654.28
965.136	3608.18
965.438	3559.6
965.741	3563.21
966.043	3543.55
966.345	3526.15
966.648	3531.57
966.95	3515.08
967.252	3449.54
967.554	3482.99
967.856	3495.64
968.158	3472.59
968.46	3431.92
968.761	3425.14
969.063	3400.96
969.365	3383.78
969.666	3342.65
969.968	3373.39
970.269	3402.54
970.571	3340.84
970.872	3302.88
971.174	3312.14
971.475	3294.07
971.776	3242.09
972.077	3241.41
972.378	3208.42
972.679	3260.62
972.98	3254.74
973.281	3165.26
973.582	3200.51
973.883	3174.52
974.183	3172.26
974.484	3115.99
974.785	3191.92
975.085	3161.64
975.386	3155.76
975.686	3091.81
975.986	3037.12
976.287	3049.78
976.587	3039.61
976.887	3020.4
977.187	3012.94
977.487	3034.19
977.787	3024.69
978.087	2981.98
978.387	2964.36
978.687	2955.77
978.987	2962.1
979.286	2981.76
979.586	2921.87
979.885	2913.74
980.185	2901.76
980.484	2872.16
980.784	2860.41
981.083	2863.79
981.382	2839.61
981.682	2838.71
981.981	2835.77
982.28	2801.65
982.579	2783.57
982.878	2790.8
983.177	2782.67
983.475	2780.18
983.774	2732.5
984.073	2718.26
984.372	2727.53
984.67	2728.88
984.969	2704.48
985.267	2690.47
985.566	2697.02
985.864	2651.14
986.162	2655.44
986.461	2661.31
986.759	2631.48
987.057	2610.69
987.355	2577.25
987.653	2572.73
987.951	2612.95
988.249	2556.01
988.547	2576.8
988.844	2536.12
989.142	2542
989.44	2534.99
989.737	2504.48
990.035	2535.89
990.332	2479.17
990.63	2476.69
990.927	2445.05
991.224	2443.47
991.521	2437.82
991.819	2417.25
992.116	2430.13
992.413	2410.93
992.71	2349.68
993.006	2386.07
993.303	2379.51
993.6	2363.47
993.897	2361.21
994.193	2332.28
994.49	2313.75
994.787	2304.71
995.083	2319.18
995.379	2295.67
995.676	2320.08
995.972	2252.51
996.268	2275.34
996.565	2226.75
996.861	2249.35
997.157	2223.59
997.453	2239.18
997.749	2217.48
998.044	2191.72
998.34	2198.73
998.636	2183.36
998.932	2204.15
999.227	2149.46
999.523	2137.26
999.818	2137.71
1000.114	2113.31
1000.409	2096.81
1000.704	2081.67
1001	2097.26
1001.295	2049.35
1001.59	2090.03
1001.885	2082.35
1002.18	2067.43
1002.475	2014.78
1002.77	2019.52
1003.065	1992.18
1003.359	1984.27
1003.654	1989.47
1003.949	1979.07
1004.243	1942.92
1004.538	1958.73
1004.832	1956.02
1005.127	1910.83
1005.421	1928
1005.715	1886.19
1006.009	1888.91
1006.304	1878.51
1006.598	1866.76
1006.892	1860.66
1007.186	1869.92
1007.48	1846.19
1007.773	1849.13
1008.067	1795.57
1008.361	1826.08
1008.655	1788.57
1008.948	1789.25
1009.242	1820.21
1009.535	1794.22
1009.829	1778.85
1010.122	1770.26
1010.415	1734.33
1010.708	1736.37
1011.001	1734.78
1011.295	1675.13
1011.588	1688.68
1011.881	1708.12
1012.173	1667.22
1012.466	1680.32
1012.759	1691.17
1013.052	1640.78
1013.344	1665.41
1013.637	1628.57
1013.93	1624.73
1014.222	1647.33
1014.514	1588.57
1014.807	1600.33
1015.099	1593.32
1015.391	1579.76
1015.683	1590.61
1015.976	1564.17
1016.268	1553.55
1016.56	1556.48
1016.851	1520.33
1017.143	1544.06
1017.435	1508.58
1017.727	1518.75
1018.018	1503.15
1018.31	1474.45
1018.602	1458.41
1018.893	1462.02
1019.185	1443.04
1019.476	1446.2
1019.767	1438.75
1020.058	1408.24
1020.35	1396.94
1020.641	1422.93
1020.932	1400.1
1021.223	1385.87
1021.514	1397.84
1021.804	1391.97
1022.095	1369.82
1022.386	1374.34
1022.677	1337.51
1022.967	1335.47
1023.258	1333.44
1023.548	1351.97
1023.839	1309.94
1024.129	1319.65
1024.419	1318.3
1024.709	1274.91
1025	1305.64
1025.29	1267.9
1025.58	1283.5
1025.87	1258.41
1026.16	1253.67
1026.449	1261.58
1026.739	1244.85
1027.029	1215.93
1027.319	1203.27
1027.608	1177.74
1027.898	1176.83
1028.187	1187.91
1028.477	1166.44
1028.766	1201.47
1029.055	1165.53
1029.344	1168.47
1029.634	1173.67
1029.923	1140
1030.212	1148.36
1030.501	1135.7
1030.79	1103.16
1031.078	1132.99
1031.367	1113.78
1031.656	1096.38
1031.945	1121.02
1032.233	1103.16
1032.522	1090.96
1032.81	1095.03
1033.099	1058.64
1033.387	1033.56
1033.675	1063.16
1033.963	1047.57
1034.251	1047.12
1034.54	1042.83
1034.828	1009.38
1035.116	987.46
1035.403	1017.74
1035.691	1028.14
1035.979	1029.94
1036.267	1007.8
1036.554	1001.02
1036.842	972.77
1037.129	964.86
1037.417	967.8
1037.704	954.92
1037.992	957.86
1038.279	953.11
1038.566	922.83
1038.853	922.83
1039.14	922.83
