Data from hue_220_FLMS001491_00044.txt Node
Date: Tue Feb 07 16:39:31 GMT 2017
User: dcchb
Spectrometer: FLMS00149
Trigger mode: 0
Integration Time (sec): 2.000000E-2
Scans to average: 10
Electric dark correction enabled: true
Nonlinearity correction enabled: false
Boxcar width: 0
XAxis mode: Wavelengths
Number of Pixels in Spectrum: 2048
>>>>>Begin Spectral Data<<<<<
341.393	10.07
341.776	10.07
342.16	10.07
342.543	-77.61
342.927	-56.59
343.31	-63.15
343.693	-70.38
344.077	-75.35
344.46	-78.97
344.843	-62.47
345.226	-46.43
345.61	-34.22
345.993	-4.84
346.376	-7.56
346.759	20.24
347.142	26.57
347.525	50.75
347.908	81.48
348.291	65.89
348.674	86.23
349.057	112.21
349.44	139.33
349.823	140.69
350.206	178.43
350.588	199.22
350.971	214.81
351.354	210.52
351.737	246
352.119	239.22
352.502	253
352.884	259.1
353.267	275.6
353.65	292.1
354.032	280.35
354.414	305.88
354.797	307.01
355.179	337.07
355.562	314.92
355.944	332.77
356.326	331.64
356.709	357.63
357.091	324.41
357.473	325.99
357.855	339.78
358.238	337.52
358.62	337.07
359.002	336.16
359.384	359.89
359.766	340.01
360.148	343.39
360.53	344.52
360.912	338.65
361.294	322.38
361.676	331.64
362.057	332.1
362.439	318.31
362.821	344.98
363.203	312.44
363.584	337.52
363.966	337.75
364.348	314.7
364.729	325.54
365.111	318.99
365.493	342.49
365.874	323.06
366.256	338.88
366.637	326.9
367.019	297.75
367.4	315.6
367.781	323.96
368.163	327.12
368.544	337.75
368.925	300.68
369.306	313.79
369.688	336.16
370.069	320.8
370.45	293.23
370.831	304.75
371.212	320.34
371.593	300.46
371.974	304.98
372.355	307.46
372.736	311.08
373.117	308.59
373.498	316.73
373.879	327.58
374.26	317.63
374.641	314.7
375.021	296.39
375.402	304.3
375.783	320.8
376.163	328.48
376.544	336.84
376.925	308.37
377.305	333
377.686	325.77
378.066	339.78
378.447	333
378.827	338.88
379.208	341.59
379.588	334.58
379.968	355.37
380.349	342.94
380.729	356.95
381.109	326.67
381.489	333.68
381.87	344.75
382.25	340.68
382.63	321.47
383.01	337.52
383.39	342.27
383.77	336.16
384.15	341.59
384.53	358.54
384.91	354.47
385.29	368.7
385.67	344.98
386.049	355.15
386.429	350.17
386.809	373
387.189	356.28
387.568	358.54
387.948	351.98
388.328	378.2
388.707	356.73
389.087	375.48
389.466	373.68
389.846	357.41
390.225	362.15
390.605	369.38
390.984	369.38
391.363	376.61
391.743	388.14
392.122	370.06
392.501	367.12
392.881	383.39
393.26	400.79
393.639	376.61
394.018	387.91
394.397	383.62
394.776	392.89
395.155	368.03
395.534	398.53
395.913	391.3
396.292	389.5
396.671	388.59
397.05	384.3
397.429	393.34
397.808	398.76
398.186	395.82
398.565	406.67
398.944	403.05
399.323	417.07
399.701	415.03
400.08	422.94
400.458	423.39
400.837	405.54
401.215	427.91
401.594	412.32
401.972	429.49
402.351	427.69
402.729	447.57
403.107	434.92
403.486	467.46
403.864	437.18
404.242	443.28
404.62	441.92
404.999	449.38
405.377	484.86
405.755	481.24
406.133	470.85
406.511	471.75
406.889	475.82
407.267	468.14
407.645	486.89
408.023	499.77
408.401	497.74
408.779	487.8
409.156	543.84
409.534	520.79
409.912	509.27
410.29	515.37
410.667	534.58
411.045	537.06
411.422	564.18
411.8	550.62
412.178	568.25
412.555	578.87
412.933	580.22
413.31	603.5
413.687	618.87
414.065	603.95
414.442	645.31
414.819	650.51
415.197	644.18
415.574	636.95
415.951	669.71
416.328	657.28
416.705	673.78
417.082	685.31
417.46	679.66
417.837	692.54
418.214	701.8
418.591	696.15
418.967	722.59
419.344	735.25
419.721	764.85
420.098	747
420.475	750.84
420.852	778.64
421.228	753.33
421.605	765.76
421.982	812.54
422.358	798.07
422.735	833.78
423.111	837.17
423.488	875.58
423.864	869.03
424.241	884.4
424.617	903.15
424.994	921.91
425.37	935.02
425.746	947.22
426.123	933.21
426.499	931.85
426.875	968.92
427.251	976.15
427.627	991.29
428.003	1008.91
428.379	1024.28
428.756	1048.91
429.132	1067.9
429.507	1075.81
429.883	1067.22
430.259	1088.91
430.635	1086.65
431.011	1125.75
431.387	1143.83
431.763	1155.58
432.138	1167.55
432.514	1204.39
432.89	1193.32
433.265	1224.95
433.641	1225.86
434.016	1258.63
434.392	1296.82
434.767	1313.09
435.143	1311.28
435.518	1347.44
435.894	1369.81
436.269	1384.27
436.644	1409.13
437.02	1452.52
437.395	1449.35
437.77	1491.61
438.145	1511.73
438.52	1515.34
438.895	1567.54
439.271	1562.35
439.646	1608.45
440.021	1615.68
440.395	1615.68
440.77	1644.38
441.145	1636.47
441.52	1680.53
441.895	1699.29
442.27	1707.88
442.645	1728.9
443.019	1748.78
443.394	1740.87
443.769	1784.04
444.143	1819.06
444.518	1828.1
444.892	1808.22
445.267	1843.24
445.641	1823.36
446.016	1877.37
446.39	1873.98
446.764	1908.78
447.139	1912.85
447.513	1932.28
447.887	1931.83
448.262	1923.92
448.636	1937.7
449.01	1988.55
449.384	1989.23
449.758	2009.34
450.132	2049.11
450.506	2053.86
450.88	2038.49
451.254	2053.18
451.628	2100.86
452.002	2104.48
452.376	2122.78
452.75	2140.18
453.123	2158.04
453.497	2205.94
453.871	2207.75
454.244	2245.04
454.618	2256.34
454.992	2291.14
455.365	2285.94
455.739	2319.61
456.112	2329.56
456.486	2406.62
456.859	2428.09
457.232	2450.46
457.606	2448.65
457.979	2472.15
458.352	2517.12
458.725	2553.28
459.099	2562.55
459.472	2633.28
459.845	2621.98
460.218	2675.31
460.591	2628.76
460.964	2691.58
461.337	2754.18
461.71	2792.37
462.083	2792.6
462.456	2801.18
462.829	2830.11
463.201	2912.37
463.574	2904.23
463.947	2935.19
464.32	2995.3
464.692	2955.53
465.065	3017
465.438	3075.07
465.81	3108.75
466.183	3132.93
466.555	3186.26
466.928	3179.93
467.3	3219.03
467.672	3247.5
468.045	3371.79
468.417	3321.4
468.789	3359.59
469.161	3380.38
469.534	3437.1
469.906	3482.97
470.278	3511.67
470.65	3561.16
471.022	3614.72
471.394	3647.04
471.766	3689.07
472.138	3761.61
472.51	3821.72
472.882	3847.03
473.253	3924.54
473.625	3933.81
473.997	4017.65
474.369	3997.54
474.74	4094.93
475.112	4138.55
475.484	4198.66
475.855	4318.43
476.227	4273.24
476.598	4408.37
476.97	4436.17
477.341	4561.36
477.713	4568.59
478.084	4604.3
478.455	4699.89
478.827	4742.83
479.198	4876.61
479.569	4852.65
479.94	4996.61
480.311	5030.5
480.682	5126.55
481.053	5206.09
481.424	5270.72
481.795	5331.06
482.166	5375.58
482.537	5415.8
482.908	5543.26
483.279	5559.98
483.65	5671.84
484.021	5743.93
484.391	5773.53
484.762	5859.41
485.133	5892.18
485.503	5957.26
485.874	6069.35
486.244	6093.98
486.615	6236.12
486.985	6280.87
487.356	6343.24
487.726	6401.31
488.097	6538.49
488.467	6577.36
488.837	6674.75
489.207	6748.65
489.578	6813.73
489.948	6898.7
490.318	6939.15
490.688	6941.41
491.058	6993.16
491.428	7102.77
491.798	7174.4
492.168	7326.49
492.538	7288.3
492.908	7344.11
493.278	7407.39
493.648	7474.05
494.017	7513.83
494.387	7582.07
494.757	7596.76
495.126	7724.22
495.496	7737.55
495.866	7798.57
496.235	7836.76
496.605	7858.45
496.974	7914.95
497.344	8050.08
497.713	8049.18
498.082	8039.92
498.452	8137.99
498.821	8081.95
499.19	8059.58
499.559	8185.22
499.928	8209.85
500.298	8266.8
500.667	8359.91
501.036	8247.37
501.405	8376.86
501.774	8349.74
502.143	8470.64
502.512	8372.11
502.88	8538.89
503.249	8462.96
503.618	8528.72
503.987	8543.41
504.356	8596.06
504.724	8611.65
505.093	8595.83
505.462	8685.55
505.83	8676.96
506.199	8678.99
506.567	8840.8
506.936	8810.52
507.304	8867.01
507.672	8927.58
508.041	8976.61
508.409	9003.05
508.777	8998.08
509.145	9015.03
509.514	9023.39
509.882	9033.34
510.25	9014.13
510.618	9076.72
510.986	9029.27
511.354	9137.97
511.722	9200.56
512.09	9211.18
512.458	9197.85
512.826	9234.01
513.193	9269.94
513.561	9250.51
513.929	9308.58
514.297	9319.66
514.664	9338.41
515.032	9334.8
515.4	9447.11
515.767	9402.82
516.135	9434.68
516.502	9321.46
516.869	9430.39
517.237	9485.98
517.604	9417.28
517.972	9489.6
518.339	9454.34
518.706	9462.03
519.073	9471.97
519.44	9485.98
519.808	9536.15
520.175	9538.18
520.542	9659.31
520.909	9576.37
521.276	9529.37
521.643	9637.61
522.009	9664.96
522.376	9666.77
522.743	9627.67
523.11	9690.72
523.477	9748.12
523.843	9707.22
524.21	9787.44
524.577	9796.93
524.943	9848
525.31	9890.26
525.676	9850.26
526.043	9839.87
526.409	9823.15
526.776	9951.5
527.142	9905.4
527.508	9931.17
527.874	9967.32
528.241	9935.91
528.607	9972.52
528.973	9997.6
529.339	9924.61
529.705	10035.57
530.071	10062.24
530.437	9983.14
530.803	10050.94
531.169	10059.52
531.535	9953.76
531.901	9974.55
532.267	10005.29
532.632	10051.39
532.998	10019.98
533.364	9980.2
533.73	9970.03
534.095	9989.02
534.461	10050.26
534.826	9989.47
535.192	9978.17
535.557	10065.4
535.923	9956.93
536.288	9960.77
536.653	9980.66
537.019	9864.73
537.384	9900.88
537.749	9878.06
538.114	9849.81
538.479	9882.58
538.845	9858.4
539.21	9784.28
539.575	9867.44
539.94	9843.94
540.305	9819.98
540.67	9693.88
541.034	9764.62
541.399	9722.58
541.764	9760.32
542.129	9727.1
542.494	9688.46
542.858	9756.25
543.223	9653.21
543.587	9719.87
543.952	9646.88
544.316	9638.97
544.681	9580.67
545.045	9622.47
545.41	9603.72
545.774	9593.1
546.138	9642.36
546.503	9559.42
546.867	9510.61
547.231	9584.51
547.595	9521.01
547.959	9543.83
548.324	9479.2
548.688	9465.64
549.052	9429.71
549.416	9358.75
549.779	9334.57
550.143	9440.33
550.507	9388.58
550.871	9283.05
551.235	9347.9
551.599	9343.38
551.962	9342.25
552.326	9317.62
552.689	9344.51
553.053	9279.88
553.417	9291.63
553.78	9337.51
554.143	9281.69
554.507	9280.79
554.87	9242.14
555.234	9301.58
555.597	9198.08
555.96	9234.46
556.323	9212.54
556.686	9150.85
557.05	9235.36
557.413	9257.51
557.776	9212.54
558.139	9202.37
558.502	9244.63
558.865	9141.13
559.228	9232.65
559.59	9252.31
559.953	9159.21
560.316	9261.8
560.679	9233.1
561.041	9241.01
561.404	9255.7
561.767	9259.32
562.129	9231.97
562.492	9256.83
562.854	9272.65
563.217	9280.34
563.579	9235.14
563.941	9220.22
564.304	9272.65
564.666	9275.59
565.028	9270.39
565.39	9264.74
565.753	9340.67
566.115	9354.46
566.477	9350.16
566.839	9392.87
567.201	9409.15
567.563	9411.86
567.925	9375.7
568.287	9454.57
568.648	9461.8
569.01	9506.32
569.372	9511.06
569.734	9539.31
570.095	9515.81
570.457	9538.18
570.819	9463.61
571.18	9546.09
571.542	9524.4
571.903	9588.12
572.265	9641.91
572.626	9664.28
572.987	9613.43
573.349	9663.38
573.71	9643.26
574.071	9651.4
574.432	9714.22
574.794	9809.81
575.155	9744.5
575.516	9749.25
575.877	9740.44
576.238	9789.47
576.599	9813.43
576.96	9883.71
577.32	9873.31
577.681	9897.04
578.042	9846.2
578.403	9885.97
578.763	9913.76
579.124	9926.65
579.485	9918.74
579.845	10074.21
580.206	9968.68
580.566	9994.67
580.927	9993.99
581.287	10084.16
581.648	9986.98
582.008	10131.39
582.368	10129.8
582.728	10207.54
583.089	10132.74
583.449	10142.91
583.809	10042.12
584.169	10183.59
584.529	10153.08
584.889	10273.76
585.249	10155.57
585.609	10202.8
585.969	10276.47
586.329	10210.93
586.688	10327.54
587.048	10324.38
587.408	10280.76
587.768	10323.47
588.127	10292.29
588.487	10316.69
588.846	10381.1
589.206	10337.26
589.565	10316.69
589.925	10362.79
590.284	10367.31
590.643	10433.3
591.003	10401.66
591.362	10526.86
591.721	10408.89
592.08	10441.21
592.44	10405.05
592.799	10459.74
593.158	10505.61
593.517	10459.51
593.876	10468.55
594.235	10484.15
594.593	10499.29
594.952	10530.92
595.311	10556.91
595.67	10539.51
596.029	10547.19
596.387	10607.53
596.746	10551.49
597.104	10578.61
597.463	10520.08
597.822	10640.07
598.18	10506.29
598.538	10540.41
598.897	10556.23
599.255	10574.31
599.613	10678.72
599.972	10690.69
600.33	10574.54
600.688	10594.42
601.046	10716.91
601.404	10697.02
601.762	10709.22
602.12	10716.91
602.478	10712.16
602.836	10733.4
603.194	10671.03
603.552	10695.89
603.91	10617.7
604.268	10685.95
604.625	10623.8
604.983	10723.69
605.341	10675.78
605.698	10746.06
606.056	10714.42
606.413	10716.23
606.771	10797.81
607.128	10795.55
607.485	10761.43
607.843	10819.96
608.2	10775.66
608.557	10830.8
608.914	10777.24
609.272	10859.05
609.629	10884.81
609.986	10904.25
610.343	10810.46
610.7	10890.01
611.057	10880.52
611.414	10937.69
611.771	10901.54
612.127	10916.9
612.484	10999.84
612.841	11002.55
613.198	10983.12
613.554	10899.95
613.911	10925.26
614.267	11000.29
614.624	11021.98
614.98	11057.24
615.337	10999.16
615.693	11040.74
616.05	11050.68
616.406	11106.05
616.762	11064.47
617.118	11003.45
617.475	11099.27
617.831	11100.4
618.187	11105.6
618.543	11125.03
618.899	11152.6
619.255	11170.68
619.611	11171.58
619.967	11151.7
620.323	11191.47
620.678	11134.52
621.034	11115.09
621.39	11155.99
621.746	11053.4
622.101	11223.33
622.457	11113.51
622.812	11106.73
623.168	11171.13
623.523	11190.57
623.879	11225.37
624.234	11125.48
624.589	11167.52
624.945	11108.31
625.3	11192.6
625.655	11191.47
626.01	11214.75
626.365	11115.77
626.72	11100.17
627.075	11123.45
627.43	11141.98
627.785	11146.05
628.14	11146.05
628.495	11138.82
628.85	11158.7
629.205	11078.93
629.559	11162.09
629.914	11097.01
630.269	11115.32
630.623	11147.86
630.978	11069.44
631.332	11087.07
631.687	11072.15
632.041	11028.54
632.396	10998.71
632.75	10958.94
633.104	10958.71
633.459	11007.75
633.813	10947.41
634.167	10948.54
634.521	10963.91
634.875	10947.18
635.229	10941.31
635.583	10937.92
635.937	10808.88
636.291	10840.52
636.645	10884.36
636.999	10849.79
637.352	10895.43
637.706	10841.2
638.06	10937.92
638.413	10777.47
638.767	10778.15
639.121	10816.79
639.474	10719.62
639.828	10786.96
640.181	10719.62
640.534	10807.75
640.888	10720.52
641.241	10708.55
641.594	10736.79
641.947	10778.37
642.301	10645.27
642.654	10709.68
643.007	10732.95
643.36	10636.91
643.713	10624.48
644.066	10690.47
644.419	10645.5
644.771	10571.37
645.124	10546.52
645.477	10537.48
645.83	10403.02
646.182	10408.44
646.535	10219.29
646.888	10359.63
647.24	10239.41
647.593	10305.17
647.945	10349.23
648.298	10186.07
648.65	10204.15
649.002	10205.28
649.355	10284.6
649.707	10281.44
650.059	10325.73
650.411	10461.77
650.763	10483.24
651.115	10598.94
651.467	10507.2
651.819	10516.91
652.171	10589.23
652.523	10537.03
652.875	10504.48
653.227	10477.59
653.578	10568.66
653.93	10503.13
654.282	10412.51
654.633	10502.9
654.985	10467.2
655.337	10556.23
655.688	10563.92
656.039	10493.86
656.391	10473.75
656.742	10494.99
657.094	10527.31
657.445	10552.62
657.796	10506.74
658.147	10465.39
658.498	10473.3
658.849	10586.29
659.2	10528.44
659.551	10454.32
659.902	10485.5
660.253	10485.73
660.604	10519.4
660.955	10480.76
661.306	10558.49
661.656	10522.79
662.007	10514.65
662.358	10567.76
662.708	10554.65
663.059	10535.9
663.409	10538.61
663.76	10606.4
664.11	10537.48
664.461	10568.21
664.811	10593.29
665.161	10574.54
665.511	10465.39
665.862	10484.37
666.212	10619.73
666.562	10552.62
666.912	10575.44
667.262	10596.91
667.612	10496.57
667.962	10513.97
668.312	10567.53
668.662	10559.17
669.011	10534.99
669.361	10477.37
669.711	10512.39
670.06	10529.34
670.41	10467.87
670.76	10467.65
671.109	10487.76
671.459	10549.23
671.808	10460.19
672.157	10518.04
672.507	10469
672.856	10395.33
673.205	10490.02
673.554	10430.14
673.904	10409.34
674.253	10463.13
674.602	10410.47
674.951	10290.25
675.3	10228.56
675.649	10408.44
675.998	10385.84
676.346	10363.92
676.695	10429.46
677.044	10270.37
677.393	10301.1
677.741	10329.57
678.09	10323.47
678.438	10309.01
678.787	10324.38
679.135	10262.46
679.484	10184.04
679.832	10311.72
680.181	10163.7
680.529	10245.96
680.877	10225.39
681.225	10104.72
681.573	10179.29
681.922	10178.16
682.27	10171.84
682.618	10076.92
682.966	10106.08
683.314	10106.75
683.661	10070.14
684.009	9986.98
684.357	9992.86
684.705	9983.82
685.053	10056.36
685.4	9956.93
685.748	9895.23
686.095	9937.27
686.443	9873.09
686.79	9880.09
687.138	9929.58
687.485	9823.15
687.832	9845.97
688.18	9796.03
688.527	9749.02
688.874	9692.3
689.221	9704.5
689.568	9727.1
689.915	9634.9
690.262	9598.29
690.609	9562.59
690.956	9486.43
691.303	9557.39
691.65	9471.29
691.997	9479.65
692.344	9404.17
692.69	9408.92
693.037	9361.91
693.383	9269.49
693.73	9346.1
694.077	9263.84
694.423	9259.32
694.769	9212.09
695.116	9221.81
695.462	9233.56
695.808	9195.59
696.155	9161.47
696.501	9122.15
696.847	9048.7
697.193	9022.04
697.539	9070.62
697.885	9005.54
698.231	8888.48
698.577	8965.09
698.923	8892.32
699.269	8851.42
699.614	8811.65
699.96	8798.54
700.306	8789.95
700.651	8800.57
700.997	8681.48
701.342	8646.23
701.688	8602.39
702.033	8648.71
702.379	8620.69
702.724	8524.65
703.069	8576.62
703.415	8504.08
703.76	8484.2
704.105	8483.75
704.45	8441.94
704.795	8316.52
705.14	8366.01
705.485	8350.87
705.83	8259.57
706.175	8329.17
706.52	8267.25
706.865	8247.59
707.209	8236.07
707.554	8203.53
707.899	8170.31
708.243	8144.32
708.588	8145.9
708.932	8055.06
709.277	8025.45
709.621	8020.93
709.966	7974.38
710.31	8039.24
710.654	7923.31
710.998	7947.04
711.342	7926.47
711.687	7898.45
712.031	7867.26
712.375	7801.5
712.719	7832.92
713.063	7785.46
713.407	7846.25
713.75	7801.73
714.094	7800.15
714.438	7720.83
714.782	7793.82
715.125	7817.77
715.469	7764.89
715.812	7747.72
716.156	7732.13
716.499	7665.91
716.843	7670.89
717.186	7691
717.53	7630.89
717.873	7672.47
718.216	7659.13
718.559	7544.56
718.902	7577.1
719.246	7616.2
719.589	7568.52
719.932	7568.06
720.275	7581.4
720.617	7548.4
720.96	7499.14
721.303	7514.96
721.646	7506.14
721.989	7493.94
722.331	7550.44
722.674	7466.6
723.016	7473.6
723.359	7467.5
723.701	7478.12
724.044	7389.31
724.386	7423.21
724.729	7469.31
725.071	7444.68
725.413	7457.33
725.755	7426.6
726.097	7382.98
726.439	7367.62
726.782	7415.07
727.124	7436.32
727.465	7361.29
727.807	7351.8
728.149	7343.44
728.491	7315.41
728.833	7335.98
729.175	7293.27
729.516	7375.07
729.858	7337.56
730.199	7337.11
730.541	7403.32
730.882	7318.13
731.224	7324.45
731.565	7321.29
731.906	7357.67
732.248	7272.03
732.589	7324
732.93	7288.75
733.271	7299.14
733.612	7321.29
733.953	7293.72
734.294	7310.44
734.635	7297.56
734.976	7291.23
735.317	7316.54
735.658	7313.16
735.999	7309.54
736.339	7324.23
736.68	7365.81
737.021	7349.09
737.361	7308.64
737.702	7343.66
738.042	7367.84
738.383	7357.22
738.723	7310.67
739.063	7370.55
739.404	7388.18
739.744	7420.95
740.084	7413.72
740.424	7440.16
740.764	7437.22
741.104	7463.43
741.444	7369.42
741.784	7493.72
742.124	7441.97
742.464	7463.66
742.804	7490.78
743.143	7490.78
743.483	7559.02
743.823	7522.64
744.162	7524.68
744.502	7616.88
744.841	7574.39
745.181	7638.34
745.52	7653.94
745.86	7720.83
746.199	7734.61
746.538	7776.19
746.877	7822.07
747.216	7835.85
747.556	7880.82
747.895	7977.32
748.234	7951.1
748.573	7987.71
748.911	8089.18
749.25	8149.97
749.589	8176.41
749.928	8222.96
750.267	8287.14
750.605	8340.25
750.944	8430.64
751.283	8517.19
751.621	8561.26
751.96	8659.79
752.298	8721.93
752.636	8868.37
752.975	8935.94
753.313	9011.87
753.651	9145.65
753.989	9223.61
754.327	9285.76
754.666	9363.5
755.004	9547.67
755.342	9742.02
755.679	9833.54
756.017	9873.54
756.355	10057.04
756.693	10191.95
757.031	10325.96
757.368	10371.38
757.706	10636.01
758.044	10724.14
758.381	10861.99
758.719	11078.25
759.056	11248.64
759.394	11297.46
759.731	11435.76
760.068	11600.95
760.405	11709.2
760.743	11917.33
761.08	12142.86
761.417	12330.42
761.754	12409.74
762.091	12689.06
762.428	12777.19
762.765	12902.16
763.102	13159.56
763.438	13334.47
763.775	13382.37
764.112	13654.01
764.449	13872.3
764.785	13955.24
765.122	14116.59
765.458	14174.67
765.795	14413.08
766.131	14640.42
766.467	14769.23
766.804	14852.84
767.14	14977.81
767.476	15223.91
767.812	15310.91
768.148	15488.76
768.485	15529.66
768.821	15719.26
769.157	15829.99
769.492	16025.24
769.828	16057.33
770.164	16155.41
770.5	16290.32
770.836	16462.97
771.171	16547.26
771.507	16714.26
771.842	16674.49
772.178	16814.37
772.513	16889.85
772.849	16986.35
773.184	17107.02
773.519	17221.37
773.855	17258.2
774.19	17482.61
774.525	17454.36
774.86	17653.9
775.195	17575.94
775.53	17695.71
775.865	17696.16
776.2	17664.52
776.535	17721.7
776.87	17775.7
777.205	17814.8
777.539	17948.58
777.874	18126.88
778.209	17956.49
778.543	18034
778.878	17964.4
779.212	18132.98
779.547	18149.25
779.881	18241.23
780.215	18167.79
780.55	18314
780.884	18316.26
781.218	18254.79
781.552	18426.31
781.886	18310.38
782.22	18335.24
782.554	18230.83
782.888	18245.07
783.222	18163.04
783.556	18168.24
783.889	18205.52
784.223	18183.15
784.557	18117.39
784.89	18245.98
785.224	18150.61
785.557	18175.69
785.891	18090.5
786.224	18097.5
786.558	18234.9
786.891	18102.25
787.224	18064.51
787.557	18028.13
787.891	18095.7
788.224	18142.93
788.557	18145.41
788.89	18071.29
789.223	18006.89
789.556	18034.91
789.888	18069.03
790.221	18031.52
790.554	17810.73
790.887	17857.06
791.219	17896.83
791.552	17918.07
791.884	17802.37
792.217	17797.85
792.549	17738.42
792.882	17653.45
793.214	17624.97
793.546	17706.55
793.879	17606.44
794.211	17500.23
794.543	17604.18
794.875	17540.23
795.207	17603.05
795.539	17515.37
795.871	17530.29
796.203	17443.28
796.535	17374.59
796.867	17374.81
797.198	17267.92
797.53	17326.9
797.862	17123.74
798.193	17230.86
798.525	17081.26
798.856	17188.6
799.188	17035.16
799.519	16938.89
799.85	16925.11
800.182	16865.9
800.513	16982.05
800.844	16753.81
801.175	16940.7
801.506	16974.6
801.837	16741.16
802.168	16708.61
802.499	16629.52
802.83	16669.29
803.161	16712.46
803.491	16630.42
803.822	16667.49
804.153	16439.02
804.483	16395.18
804.814	16385.91
805.145	16431.56
805.475	16392.01
805.805	16319.47
806.136	16293.26
806.466	16253.26
806.796	16217.55
807.126	16091
807.457	16216.88
807.787	16108.86
808.117	16046.26
808.447	16032.93
808.777	16077.67
809.107	15898.92
809.436	15947.5
809.766	15887.39
810.096	15918.8
810.426	15820.05
810.755	15834.74
811.085	15763.78
811.414	15844.23
811.744	15579.6
812.073	15745.7
812.403	15651.92
812.732	15577.12
813.061	15546.39
813.39	15488.53
813.719	15397.24
814.049	15681.75
814.378	15516.33
814.707	15366.28
815.036	15443.11
815.365	15375.09
815.693	15262.1
816.022	15341.19
816.351	15241.76
816.68	15147.3
817.008	15251.7
817.337	15097.58
817.665	15053.29
817.994	15113.18
818.322	15054.65
818.651	15067.53
818.979	14986.63
819.307	15098.04
819.636	15012.84
819.964	14943.69
820.292	14943.01
820.62	15023.23
820.948	14797.48
821.276	15085.61
821.604	14992.5
821.932	14968.55
822.259	15019.85
822.587	14924.25
822.915	14871.83
823.243	14995.21
823.57	14857.14
823.898	14909.11
824.225	14843.13
824.553	14784.82
824.88	14889.23
825.207	14956.34
825.535	14891.94
825.862	14896.23
826.189	14817.36
826.516	14963.8
826.843	15081.31
827.17	14971.03
827.497	14878.38
827.824	15012.61
828.151	15020.98
828.478	14961.32
828.805	14993.63
829.131	14877.7
829.458	14919.73
829.785	14846.74
830.111	14897.81
830.438	14987.98
830.764	14931.94
831.09	14963.12
831.417	14817.59
831.743	14942.56
832.069	15004.03
832.395	14933.29
832.722	14919.51
833.048	14824.37
833.374	14885.39
833.7	14883.8
834.026	14902.11
834.351	14847.65
834.677	14809.68
835.003	14909.57
835.329	14893.07
835.654	14904.37
835.98	14747.76
836.306	14842.22
836.631	14752.28
836.956	14760.87
837.282	14700.98
837.607	14727.88
837.932	14667.99
838.258	14639.06
838.583	14661.44
838.908	14582.57
839.233	14633.19
839.558	14553.87
839.883	14478.84
840.208	14475.9
840.533	14425.96
840.858	14498.73
841.182	14502.34
841.507	14465.51
841.832	14414.66
842.156	14382.8
842.481	14321.78
842.805	14326.3
843.13	14326.98
843.454	14316.81
843.778	14146.87
844.103	14157.49
844.427	14166.76
844.751	14125.41
845.075	14087.21
845.399	13966.31
845.723	13921.57
846.047	14026.88
846.371	13861.46
846.695	13877.73
847.019	13807
847.343	13763.83
847.666	13679.77
847.99	13583.05
848.313	13604.97
848.637	13453.56
848.96	13469.15
849.284	13486.1
849.607	13273.9
849.931	13325.2
850.254	13265.99
850.577	13169.5
850.9	13083.17
851.223	13064.19
851.546	13010.41
851.869	12882.73
852.192	13035.49
852.515	12801.37
852.838	12829.17
853.161	12810.86
853.483	12682.73
853.806	12672.34
854.129	12639.12
854.451	12641.6
854.774	12577.88
855.096	12513.02
855.419	12466.47
855.741	12474.6
856.063	12405.22
856.385	12324.32
856.708	12352.57
857.03	12261.73
857.352	12266.92
857.674	12201.39
857.996	12183.08
858.318	12088.17
858.64	12142.63
858.961	12045.23
859.283	11998.68
859.605	12011.79
859.926	12024.9
860.248	11908.06
860.57	11941.73
860.891	11902.19
861.212	11880.04
861.534	11840.72
861.855	11775.18
862.176	11809.99
862.498	11787.16
862.819	11755.07
863.14	11722.98
863.461	11677.33
863.782	11608.86
864.103	11712.59
864.424	11633.27
864.745	11657.9
865.065	11621.52
865.386	11511.46
865.707	11595.3
866.027	11530.22
866.348	11523.44
866.668	11530.45
866.989	11498.58
867.309	11449.54
867.63	11469.2
867.95	11393.05
868.27	11325.03
868.59	11349.66
868.91	11366.16
869.23	11316.89
869.55	11214.97
869.87	11353.73
870.19	11289.55
870.51	11263.11
870.83	11300.85
871.15	11211.13
871.469	11238.02
871.789	11239.83
872.109	11163.9
872.428	11115.99
872.748	11174.75
873.067	11111.25
873.386	11157.12
873.706	11120.06
874.025	10991.02
874.344	10962.32
874.663	11018.37
874.982	10973.17
875.301	10996.67
875.62	10923.91
875.939	10938.82
876.258	10945.38
876.577	10921.42
876.896	10847.53
877.214	10845.72
877.533	10781.09
877.852	10817.02
878.17	10860.63
878.489	10863.8
878.807	10809.79
879.125	10769.79
879.444	10804.36
879.762	10694.08
880.08	10694.31
880.398	10710.35
880.716	10657.47
881.034	10675.55
881.352	10682.33
881.67	10630.36
881.988	10640.98
882.306	10580.64
882.624	10497.03
882.941	10470.81
883.259	10456.12
883.577	10448.44
883.894	10417.93
884.212	10407.76
884.529	10433.07
884.846	10379.74
885.164	10341.55
885.481	10300.42
885.798	10362.34
886.115	10224.94
886.432	10240.99
886.75	10209.58
887.067	10217.71
887.383	10153.53
887.7	10201.89
888.017	10117.15
888.334	10087.55
888.651	10146.3
888.967	10031.73
889.284	9996.25
889.6	9951.96
889.917	9935.91
890.233	9935.46
890.55	9935.01
890.866	9853.43
891.182	9824.5
891.498	9821.79
891.815	9799.42
892.131	9753.77
892.447	9728.01
892.763	9748.8
893.079	9653.66
893.395	9706.76
893.71	9641
894.026	9581.34
894.342	9580.21
894.657	9493.66
894.973	9464.96
895.289	9496.37
895.604	9386.1
895.92	9371.18
896.235	9375.7
896.55	9368.02
896.865	9359.88
897.181	9301.8
897.496	9316.27
897.811	9305.42
898.126	9187.46
898.441	9196.04
898.756	9091.64
899.071	9098.42
899.386	9064.52
899.7	8998.76
900.015	8942.04
900.33	8881.25
900.644	8929.38
900.959	8869.95
901.273	8874.47
901.588	8845.09
901.902	8781.14
902.216	8755.83
902.531	8713.12
902.845	8673.12
903.159	8652.55
903.473	8622.73
903.787	8591.09
904.101	8507.7
904.415	8532.56
904.729	8414.14
905.042	8405.78
905.356	8468.15
905.67	8394.93
905.984	8377.76
906.297	8352.9
906.611	8310.64
906.924	8237.2
907.237	8246.46
907.551	8264.09
907.864	8192.23
908.177	8088.95
908.491	8156.07
908.804	8096.41
909.117	8070.65
909.43	7989.07
909.743	8004.44
910.056	7948.17
910.368	7910.88
910.681	7932.8
910.994	7875.85
911.307	7803.09
911.619	7776.87
911.932	7754.73
912.244	7673.37
912.557	7669.3
912.869	7625.24
913.181	7587.27
913.494	7599.25
913.806	7565.58
914.118	7469.08
914.43	7438.12
914.742	7486.26
915.054	7423.89
915.366	7431.34
915.678	7403.77
915.99	7325.36
916.302	7309.99
916.613	7217.34
916.925	7275.87
917.236	7170.56
917.548	7166.27
917.859	7176.89
918.171	7152.71
918.482	7132.59
918.794	7080.17
919.105	7080.62
919.416	6976.67
919.727	6985.03
920.038	6978.25
920.349	6915.65
920.66	6901.19
920.971	6893.73
921.282	6878.82
921.593	6825.03
921.903	6805.82
922.214	6738.48
922.525	6746.84
922.835	6708.65
923.146	6643.34
923.456	6654.64
923.767	6601.31
924.077	6602.21
924.387	6638.14
924.697	6565.38
925.008	6498.26
925.318	6510.01
925.628	6482.67
925.938	6452.61
926.248	6389.11
926.558	6366.29
926.867	6345.5
927.177	6357.47
927.487	6370.81
927.796	6271.15
928.106	6269.57
928.416	6208.1
928.725	6217.59
929.034	6153.41
929.344	6166.29
929.653	6097.14
929.962	6096.92
930.271	6075.9
930.581	6058.05
930.89	6027.09
931.199	6005.62
931.508	5989.8
931.817	6011.72
932.125	5966.3
932.434	5964.72
932.743	5929.46
933.051	5843.36
933.36	5797.26
933.669	5813.76
933.977	5773.99
934.286	5796.58
934.594	5787.32
934.902	5711.39
935.21	5701.22
935.519	5658.51
935.827	5651.5
936.135	5616.02
936.443	5593.88
936.751	5581.45
937.059	5494.67
937.367	5484.5
937.674	5524.28
937.982	5455.12
938.29	5503.71
938.597	5464.39
938.905	5412.87
939.213	5357.5
939.52	5348.24
939.827	5359.99
940.135	5311.85
940.442	5312.53
940.749	5275.24
941.056	5283.38
941.363	5225.07
941.67	5249.48
941.977	5160.67
942.284	5156.15
942.591	5136.04
942.898	5103.95
943.205	5122.7
943.511	5063.95
943.818	5105.76
944.125	5079.32
944.431	5008.58
944.738	4955.25
945.044	4934.46
945.35	4903.73
945.657	4933.56
945.963	4896.04
946.269	4856.04
946.575	4893.11
946.881	4838.87
947.187	4790.51
947.493	4797.97
947.799	4806.33
948.105	4794.35
948.41	4715.48
948.716	4782.15
949.022	4698.53
949.327	4683.85
949.633	4654.69
949.938	4685.65
950.244	4615.37
950.549	4601.14
950.854	4582.15
951.16	4576.5
951.465	4487.69
951.77	4534.47
952.075	4469.16
952.38	4482.27
952.685	4515.71
952.99	4435.94
953.294	4429.16
953.599	4425.1
953.904	4361.59
954.209	4346.91
954.513	4362.5
954.818	4335.15
955.122	4340.58
955.426	4300.8
955.731	4316.85
956.035	4289.73
956.339	4237.76
956.643	4252.44
956.948	4185.55
957.252	4159.79
957.556	4159.57
957.86	4190.3
958.163	4165.44
958.467	4098.78
958.771	4101.49
959.075	4076.4
959.378	4079.79
959.682	4080.25
959.985	4030.53
960.289	4004.77
960.592	4042.28
960.896	3984.66
961.199	3977.2
961.502	3974.94
961.805	3925.9
962.108	3875.05
962.411	3876.86
962.714	3856.97
963.017	3858.33
963.32	3866.01
963.623	3823.98
963.926	3801.84
964.228	3767.94
964.531	3772.91
964.833	3780.14
965.136	3764.77
965.438	3741.72
965.741	3721.61
966.043	3692.69
966.345	3687.71
966.648	3696.08
966.95	3665.12
967.252	3595.96
967.554	3606.59
967.856	3607.26
968.158	3524.55
968.46	3595.06
968.761	3581.05
969.063	3543.08
969.365	3516.64
969.666	3510.09
969.968	3507.38
970.269	3502.41
970.571	3491.56
970.872	3441.84
971.174	3441.84
971.475	3407.95
971.776	3371.34
972.077	3379.02
972.378	3352.58
972.679	3383.77
972.98	3371.11
973.281	3308.29
973.582	3327.05
973.883	3337.44
974.183	3245.24
974.484	3263.32
974.785	3257.89
975.085	3264.45
975.386	3254.28
975.686	3247.05
975.986	3179.48
976.287	3181.51
976.587	3152.59
976.887	3181.29
977.187	3136.77
977.487	3125.47
977.787	3115.53
978.087	3083.44
978.387	3107.39
978.687	3079.37
978.987	3104
979.286	3011.35
979.586	3040.73
979.885	3007.96
980.185	3017.22
980.484	2998.69
980.784	2956.21
981.083	3002.08
981.382	2965.02
981.682	2923.21
981.981	2940.16
982.28	2906.72
982.579	2881.86
982.878	2914.4
983.177	2908.53
983.475	2864.23
983.774	2857.45
984.073	2816.32
984.372	2796.21
984.67	2826.72
984.969	2814.97
985.267	2790.11
985.566	2770
985.864	2747.4
986.162	2735.2
986.461	2766.38
986.759	2729.09
987.057	2724.12
987.355	2696.78
987.653	2710.79
987.951	2668.76
988.249	2679.38
988.547	2650.9
988.844	2621.53
989.142	2637.57
989.44	2600.74
989.737	2606.61
990.035	2569.55
990.332	2571.81
990.63	2601.64
990.927	2548.53
991.224	2533.85
991.521	2505.37
991.819	2493.39
992.116	2493.39
992.413	2477.12
992.71	2482.1
993.006	2489.1
993.303	2468.54
993.6	2449.1
993.897	2457.92
994.193	2413.85
994.49	2438.71
994.787	2408.43
995.083	2388.54
995.379	2401.19
995.676	2350.12
995.972	2357.13
996.268	2343.57
996.565	2337.47
996.861	2323.68
997.157	2288.88
997.453	2301.76
997.749	2259.95
998.044	2245.94
998.34	2262.67
998.636	2295.89
998.932	2215.89
999.227	2240.97
999.523	2191.48
999.818	2207.53
1000.114	2236.45
1000.409	2164.14
1000.704	2151.93
1001	2151.48
1001.295	2148.55
1001.59	2134.31
1001.885	2110.35
1002.18	2090.02
1002.475	2121.43
1002.77	2107.42
1003.065	2079.62
1003.359	2066.06
1003.654	2094.08
1003.949	2038.49
1004.243	2024.93
1004.538	2024.48
1004.832	2004.37
1005.127	2009.79
1005.421	1990.36
1005.715	1972.96
1006.009	1971.15
1006.304	1950.58
1006.598	1944.93
1006.892	1950.58
1007.186	1898.38
1007.48	1909.23
1007.773	1902.22
1008.067	1916.46
1008.361	1852.28
1008.655	1872.39
1008.948	1868.33
1009.242	1847.54
1009.535	1831.04
1009.829	1816.8
1010.122	1831.27
1010.415	1803.92
1010.708	1801.66
1011.001	1792.62
1011.295	1751.27
1011.588	1755.79
1011.881	1751.72
1012.173	1735.45
1012.466	1733.19
1012.759	1723.02
1013.052	1744.71
1013.344	1705.62
1013.637	1696.13
1013.93	1679.63
1014.222	1662.46
1014.514	1677.82
1014.807	1642.57
1015.099	1635.79
1015.391	1640.08
1015.683	1640.08
1015.976	1622.46
1016.268	1620.88
1016.56	1577.03
1016.851	1610.48
1017.143	1570.03
1017.435	1594.89
1017.727	1551.95
1018.018	1547.88
1018.31	1572.74
1018.602	1494.33
1018.893	1528.22
1019.185	1505.85
1019.476	1509.47
1019.767	1493.42
1020.058	1471.95
1020.35	1467.66
1020.641	1445.29
1020.932	1448.45
1021.223	1415.23
1021.514	1445.06
1021.804	1434.44
1022.095	1438.51
1022.386	1431.73
1022.677	1397.38
1022.967	1376.59
1023.258	1385.63
1023.548	1351.73
1023.839	1340.88
1024.129	1342.69
1024.419	1346.98
1024.709	1355.12
1025	1324.61
1025.29	1306.99
1025.58	1317.61
1025.87	1272.18
1026.16	1309.92
1026.449	1254.33
1026.739	1270.83
1027.029	1264.5
1027.319	1247.55
1027.608	1215.46
1027.898	1241
1028.187	1224.05
1028.477	1243.26
1028.766	1226.08
1029.055	1207.33
1029.344	1195.58
1029.634	1183.37
1029.923	1199.19
1030.212	1199.19
1030.501	1186.99
1030.79	1163.26
1031.078	1175.46
1031.367	1127.33
1031.656	1147.89
1031.945	1121.91
1032.233	1130.04
1032.522	1091.85
1032.81	1129.59
1033.099	1094.79
1033.387	1077.39
1033.675	1086.2
1033.963	1073.32
1034.251	1103.37
1034.54	1079.42
1034.828	1073.77
1035.116	1054.56
1035.403	1033.77
1035.691	1051.17
1035.979	1025.86
1036.267	1060.89
1036.554	1010.72
1036.842	1028.8
1037.129	1002.36
1037.417	989.71
1037.704	998.07
1037.992	1003.94
1038.279	1011.4
1038.566	975.47
1038.853	975.47
1039.14	975.47
