Data from hue_50_FLMS001491_81.txt Node
Date: Mon Feb 06 15:11:08 GMT 2017
User: dcchb
Spectrometer: FLMS00149
Trigger mode: 0
Integration Time (sec): 2.000000E-2
Scans to average: 10
Electric dark correction enabled: true
Nonlinearity correction enabled: false
Boxcar width: 0
XAxis mode: Wavelengths
Number of Pixels in Spectrum: 2048
>>>>>Begin Spectral Data<<<<<
341.393	-35.18
341.776	-35.18
342.16	-35.18
342.543	-73.15
342.927	-77.89
343.31	-58.01
343.693	-71.57
344.077	-64.79
344.46	-67.05
344.843	-58.46
345.226	-51.68
345.61	-38.57
345.993	7.08
346.376	5.04
346.759	3.91
347.142	23.35
347.525	56.79
347.908	38.71
348.291	72.39
348.674	71.03
349.057	131.82
349.44	150.12
349.823	130.91
350.206	162.55
350.588	200.07
350.971	219.05
351.354	226.28
351.737	248.2
352.119	261.31
352.502	273.28
352.884	303.57
353.267	283.23
353.65	304.02
354.032	285.94
354.414	304.92
354.797	318.25
355.179	320.74
355.562	319.38
355.944	331.36
356.326	348.31
356.709	342.66
357.091	326.39
357.473	345.6
357.855	338.82
358.238	337.24
358.62	349.21
359.002	337.69
359.384	351.93
359.766	337.01
360.148	348.99
360.53	352.15
360.912	330.23
361.294	344.47
361.676	348.08
362.057	336.11
362.439	324.81
362.821	346.5
363.203	338.59
363.584	318.03
363.966	331.59
364.348	352.83
364.729	335.2
365.111	306.96
365.493	310.34
365.874	323.9
366.256	307.86
366.637	308.99
367.019	325.71
367.4	319.61
367.781	317.35
368.163	336.56
368.544	312.15
368.925	308.76
369.306	337.91
369.688	299.05
370.069	325.71
370.45	311.7
370.831	330.46
371.212	320.06
371.593	327.29
371.974	316.22
372.355	299.05
372.736	312.38
373.117	318.03
373.498	338.59
373.879	312.15
374.26	316.67
374.641	321.19
375.021	339.27
375.402	318.03
375.783	325.26
376.163	349.44
376.544	331.14
376.925	319.16
377.305	346.95
377.686	329.78
378.066	311.25
378.447	354.86
378.827	341.98
379.208	331.81
379.588	333.62
379.968	336.33
380.349	339.95
380.729	321.87
381.109	361.42
381.489	344.69
381.87	338.14
382.25	329.1
382.63	339.27
383.01	360.29
383.39	348.76
383.77	337.46
384.15	349.67
384.53	356.67
384.91	338.82
385.29	346.73
385.67	359.84
386.049	341.08
386.429	362.09
386.809	370.23
387.189	358.25
387.568	375.2
387.948	336.56
388.328	341.3
388.707	373.62
389.087	376.78
389.466	380.17
389.846	372.94
390.225	363.68
390.605	372.04
390.984	372.72
391.363	353.73
391.743	378.82
392.122	378.14
392.501	369.78
392.881	371.59
393.26	379.95
393.639	375.65
394.018	389.89
394.397	382.21
394.776	369.55
395.155	398.48
395.534	383.56
395.913	379.04
396.292	377.01
396.671	392.38
397.05	382.89
397.429	375.43
397.808	389.89
398.186	382.89
398.565	379.95
398.944	392.6
399.323	411.36
399.701	396.22
400.08	388.08
400.458	399.83
400.837	402.77
401.215	400.74
401.594	415.2
401.972	406.61
402.351	393.73
402.729	413.85
403.107	419.95
403.486	405.71
403.864	402.09
404.242	398.03
404.62	409.1
404.999	416.33
405.377	435.77
405.755	439.38
406.133	406.84
406.511	444.13
406.889	406.61
407.267	422.88
407.645	435.99
408.023	429.66
408.401	424.24
408.779	448.42
409.156	440.29
409.534	439.61
409.912	432.83
410.29	447.97
410.667	456.1
411.045	457.69
411.422	452.04
411.8	464.69
412.178	466.73
412.555	479.61
412.933	473.28
413.31	447.52
413.687	468.31
414.065	479.38
414.442	467.63
414.819	484.13
415.197	475.09
415.574	488.65
415.951	503.33
416.328	481.19
416.705	489.32
417.082	504.92
417.46	506.27
417.837	503.33
418.214	516.22
418.591	509.66
418.967	501.75
419.344	519.15
419.721	529.1
420.098	522.77
420.475	523.22
420.852	486.16
421.228	535.42
421.605	532.94
421.982	518.25
422.358	538.36
422.735	552.82
423.111	541.3
423.488	572.71
423.864	539.27
424.241	535.65
424.617	555.54
424.994	560.51
425.37	565.48
425.746	567.74
426.123	552.6
426.499	584.24
426.875	581.3
427.251	569.1
427.627	596.67
428.003	608.19
428.379	605.25
428.756	595.99
429.132	577
429.507	603.22
429.883	598.02
430.259	586.95
430.635	603.44
431.011	624.91
431.387	639.38
431.763	624.01
432.138	631.24
432.514	626.49
432.89	636.66
433.265	651.58
433.641	642.09
434.016	643.9
434.392	649.09
434.767	672.6
435.143	668.3
435.518	689.77
435.894	692.48
436.269	690.67
436.644	720.73
437.02	652.71
437.395	696.32
437.77	697.91
438.145	693.84
438.52	725.7
438.895	707.4
439.271	716.89
439.646	713.95
440.021	722.76
440.395	737.45
440.77	728.64
441.145	732.93
441.52	727.51
441.895	772.03
442.27	753.27
442.645	762.08
443.019	760.28
443.394	777.23
443.769	787.62
444.143	779.03
444.518	788.3
444.892	791.91
445.267	790.33
445.641	777.45
446.016	808.64
446.39	804.8
446.764	805.25
447.139	803.89
447.513	806.6
447.887	820.61
448.262	801.18
448.636	833.04
449.01	817.22
449.384	827.17
449.758	836.43
450.132	847.73
450.506	830.56
450.88	843.89
451.254	872.14
451.628	855.87
452.002	866.49
452.376	889.09
452.75	880.5
453.123	863.78
453.497	900.16
453.871	872.59
454.244	927.73
454.618	914.62
454.992	940.16
455.365	963.66
455.739	953.94
456.112	975.19
456.486	948.07
456.859	969.99
457.232	998.46
457.606	993.94
457.979	1004.79
458.352	1008.41
458.725	1008.86
459.099	1040.95
459.472	1034.85
459.845	1030.33
460.218	1063.77
460.591	1078.01
460.964	1086.6
461.337	1103.54
461.71	1096.09
462.083	1137.22
462.456	1118.69
462.829	1138.8
463.201	1147.16
463.574	1158.91
463.947	1169.98
464.32	1209.53
464.692	1199.14
465.065	1208.63
465.438	1222.64
465.81	1283.2
466.183	1270.32
466.555	1287.49
466.928	1293.37
467.3	1334.5
467.672	1343.76
468.045	1364.55
468.417	1377.66
468.789	1390.32
469.161	1408.85
469.534	1450.2
469.906	1465.12
470.278	1466.92
470.65	1515.96
471.022	1526.36
471.394	1571.78
471.766	1616.07
472.138	1610.2
472.51	1646.81
472.882	1687.48
473.253	1739.23
473.625	1729.97
473.997	1803.64
474.369	1836.86
474.74	1875.73
475.112	1916.86
475.484	1956.4
475.855	2016.74
476.227	2042.5
476.598	2079.56
476.97	2156.62
477.341	2222.61
477.713	2247.7
478.084	2299.22
478.455	2404.08
478.827	2444.3
479.198	2493.11
479.569	2549.38
479.94	2653.11
480.311	2727.23
480.682	2829.6
481.053	2891.07
481.424	2967.22
481.795	3025.75
482.166	3105.3
482.537	3202.92
482.908	3315.24
483.279	3344.62
483.65	3510.94
484.021	3539.64
484.391	3676.13
484.762	3764.49
485.133	3849.46
485.503	3959.29
485.874	4028.67
486.244	4186.18
486.615	4338.04
486.985	4371.71
487.356	4543.45
487.726	4642.66
488.097	4796.55
488.467	4896.44
488.837	5044.68
489.207	5172.82
489.578	5314.51
489.948	5408.97
490.318	5596.99
490.688	5656.87
491.058	5809.18
491.428	5947.48
491.798	6069.06
492.168	6234.03
492.538	6329.4
492.908	6521.26
493.278	6640.8
493.648	6781.81
494.017	6935.48
494.387	7048.25
494.757	7173.89
495.126	7385.87
495.496	7403.72
495.866	7530.49
496.235	7759.64
496.605	7858.62
496.974	7985.85
497.344	8172.51
497.713	8251.38
498.082	8437.59
498.452	8594.19
498.821	8648.88
499.19	8741.08
499.559	8950.34
499.928	9024.69
500.298	9166.16
500.667	9370.45
501.036	9348.98
501.405	9517.33
501.774	9639.82
502.143	9757.55
502.512	9834.39
502.88	10027.38
503.249	10059.02
503.618	10148.05
503.987	10358.89
504.356	10490.87
504.724	10584.65
505.093	10720.24
505.462	10742.84
505.83	10935.15
506.199	11065.99
506.567	11193.67
506.936	11159.55
507.304	11365.2
507.672	11532.65
508.041	11518.41
508.409	11775.58
508.777	11880.89
509.145	11984.84
509.514	12021.22
509.882	12188.45
510.25	12303.25
510.618	12341.89
510.986	12439.52
511.354	12653.07
511.722	12743.46
512.09	12925.38
512.458	12906.4
512.826	13009.67
513.193	13067.3
513.561	13175.32
513.929	13361.53
514.297	13480.62
514.664	13626.83
515.032	13588.87
515.4	13850.78
515.767	13905.92
516.135	13991.34
516.502	13990.44
516.869	14161.96
517.237	14292.35
517.604	14295.74
517.972	14491.89
518.339	14562.85
518.706	14641.04
519.073	14709.29
519.44	14864.54
519.808	14986.34
520.175	15024.53
520.542	15260.23
520.909	15236.51
521.276	15377.97
521.643	15500.45
522.009	15623.16
522.376	15723.95
522.743	15909.93
523.11	15915.81
523.477	16119.65
523.843	16202.13
524.21	16414.55
524.577	16534.55
524.943	16644.15
525.31	16772.74
525.676	16858.38
526.043	16929.57
526.409	17043.69
526.776	17217.92
527.142	17322.33
527.508	17429.22
527.874	17568.65
528.241	17669.66
528.607	17673.73
528.973	17952.14
529.339	17885.93
529.705	18015.87
530.071	18300.15
530.437	18277.1
530.803	18448.63
531.169	18475.97
531.535	18481.84
531.901	18556.42
532.267	18737.21
532.632	18888.39
532.998	18836.86
533.364	19069.85
533.73	19115.95
534.095	19242.95
534.461	19313.01
534.826	19365.89
535.192	19509.84
535.557	19578.99
535.923	19609.72
536.288	19716.16
536.653	19803.17
537.019	19748.25
537.384	19841.36
537.749	19961.81
538.114	20125.87
538.479	20094.91
538.845	20195.25
539.21	20183.27
539.575	20317.95
539.94	20379.65
540.305	20516.82
540.67	20527.89
541.034	20722.24
541.399	20681.33
541.764	20746.19
542.129	20840.2
542.494	20858.05
542.858	21045.17
543.223	21021.44
543.587	21159.29
543.952	21129.91
544.316	21238.38
544.681	21315.89
545.045	21430.47
545.41	21544.59
545.774	21539.17
546.138	21597.24
546.503	21681.53
546.867	21752.72
547.231	21896.22
547.595	21950.23
547.959	22009.21
548.324	22183.67
548.688	22059.15
549.052	22177.79
549.416	22213.5
549.779	22282.65
550.143	22339.14
550.507	22603.54
550.871	22577.1
551.235	22591.79
551.599	22808.06
551.962	22868.62
552.326	22814.61
552.689	22910.65
553.053	22885.57
553.417	23023.19
553.78	23286.01
554.143	23131.44
554.507	23375.05
554.87	23354.94
555.234	23596.29
555.597	23495.05
555.96	23607.13
556.323	23640.35
556.686	23850.06
557.05	23867.24
557.413	24002.83
557.776	24102.94
558.139	24084.64
558.502	24278.98
558.865	24327.11
559.228	24559.65
559.59	24563.49
559.953	24672.19
560.316	24877.38
560.679	24872.41
561.041	25052.07
561.404	25144.72
561.767	25299.29
562.129	25182.46
562.492	25423.58
562.854	25339.97
563.217	25485.95
563.579	25697.47
563.941	25741.09
564.304	25822.22
564.666	26118.25
565.028	25991.25
565.39	26144.69
565.753	26374.07
566.115	26350.34
566.477	26471.46
566.839	26547.4
567.201	26622.42
567.563	26706.71
567.925	26929.53
568.287	26863.77
568.648	26896.99
569.01	27202.07
569.372	27361.16
569.734	27182.63
570.095	27550.08
570.457	27579.68
570.819	27623.07
571.18	27785.55
571.542	27867.59
571.903	27915.72
572.265	28155.04
572.626	28184.87
572.987	28091.54
573.349	28319.78
573.71	28461.02
574.071	28529.49
574.432	28706.43
574.794	28812.87
575.155	28794.57
575.516	28784.85
575.877	29020.78
576.238	29135.35
576.599	29299.41
576.96	29155.69
577.32	29483.14
577.681	29559.29
578.042	29764.94
578.403	29677.48
578.763	29802.68
579.124	29922.22
579.485	30096.23
579.845	30244.25
580.206	30297.13
580.566	30248.99
580.927	30297.81
581.287	30615.76
581.648	30541.41
582.008	30869.99
582.368	30882.42
582.728	31089.42
583.089	31049.65
583.449	31148.18
583.809	31368.06
584.169	31450.77
584.529	31451.9
584.889	31900.25
585.249	31688.28
585.609	31665.45
585.969	32123.75
586.329	32203.74
586.688	32265.44
587.048	32320.8
587.408	32285.78
587.768	32544.53
588.127	32622.49
588.487	32672.43
588.846	33022.48
589.206	32874.01
589.565	33106.77
589.925	33278.52
590.284	33207.11
590.643	33507.89
591.003	33698.17
591.362	33787.43
591.721	33830.14
592.08	33921.44
592.44	34132.73
592.799	34195.33
593.158	34239.62
593.517	34400.52
593.876	34540.18
594.235	34578.6
594.593	34656.33
594.952	34817.01
595.311	34921.64
595.67	35145.81
596.029	35291.8
596.387	35462.64
596.746	35501.51
597.104	35548.97
597.463	35670.32
597.822	35758.68
598.18	35668.96
598.538	35847.26
598.897	36123.41
599.255	35912.57
599.613	36448.15
599.972	36344.65
600.33	36374.93
600.688	36427.36
601.046	36648.37
601.404	36730.86
601.762	36912.77
602.12	36997.29
602.478	37042.03
602.836	37093.33
603.194	37105.31
603.552	37303.72
603.91	37155.25
604.268	37526.54
604.625	37414.45
604.983	37641.34
605.341	37464.85
605.698	37984.83
606.056	37761.79
606.413	37911.39
606.771	38204.94
607.128	38121.33
607.485	37942.58
607.843	38126.98
608.2	38337.37
608.557	38510.47
608.914	38504.14
609.272	38639.96
609.629	38718.37
609.986	39023.45
610.343	38820.74
610.7	39118.59
611.057	39174.41
611.414	39230.45
611.771	39230
612.127	39346.15
612.484	39466.38
612.841	39548.86
613.198	39501.86
613.554	39490.78
613.911	39932.58
614.267	39837.44
614.624	39756.54
614.98	40037.89
615.337	40218
615.693	40074.5
616.05	40102.74
616.406	40253.93
616.762	40194.27
617.118	40349.74
617.475	40253.25
617.831	40495.05
618.187	40683.07
618.543	40687.81
618.899	40932.1
619.255	40772.33
619.611	40818.43
619.967	40975.49
620.323	41080.8
620.678	40859.11
621.034	40843.74
621.39	40950.63
621.746	40830.41
622.101	41358.08
622.457	41046.45
622.812	41271.53
623.168	41253
623.523	41425.87
623.879	41383.84
624.234	41226.56
624.589	41290.06
624.945	41422.26
625.3	41489.6
625.655	41460.68
626.01	41553.33
626.365	41554.23
626.72	41456.83
627.075	41420.9
627.43	41650.27
627.785	41346.55
628.14	41479.66
628.495	41566.66
628.85	41590.39
629.205	41431.52
629.559	41769.37
629.914	41568.02
630.269	41593.78
630.623	41568.02
630.978	41573.21
631.332	41729.14
631.687	41718.3
632.041	41542.48
632.396	41771.63
632.75	41496.15
633.104	41497.96
633.459	41439.43
633.813	41421.58
634.167	41349.72
634.521	41454.35
634.875	41350.62
635.229	41523.05
635.583	41182.94
635.937	41351.07
636.291	41321.7
636.645	41335.48
636.999	41222.04
637.352	41237.4
637.706	41121.25
638.06	41363.28
638.413	41206.22
638.767	41245.99
639.121	41254.13
639.474	41036.73
639.828	40959.67
640.181	41039.67
640.534	41044.42
640.888	40959.45
641.241	40852.56
641.594	40753.12
641.947	40971.42
642.301	40885.55
642.654	40854.36
643.007	40798.55
643.36	40784.53
643.713	40854.36
644.066	40859.11
644.419	40582.96
644.771	40493.47
645.124	39981.84
645.477	40035.85
645.83	39793.83
646.182	39573.04
646.535	39517.9
646.888	39533.49
647.24	39388.64
647.593	39557.9
647.945	39443.1
648.298	39314.07
648.65	39266.38
649.002	39193.39
649.355	39311.13
649.707	39307.51
650.059	39360.62
650.411	39996.99
650.763	39953.37
651.115	40287.37
651.467	40246.02
651.819	40225.23
652.171	40204.89
652.523	40041.5
652.875	40131.67
653.227	39842.19
653.578	40090.54
653.93	40078.11
654.282	39851
654.633	39731.68
654.985	39940.04
655.337	39900.49
655.688	39939.13
656.039	40142.97
656.391	39591.57
656.742	39706.15
657.094	39681.74
657.445	39835.63
657.796	39752.02
658.147	39667.28
658.498	39805.35
658.849	39592.7
659.2	39587.05
659.551	39632.02
659.902	39571.46
660.253	39519.48
660.604	39665.24
660.955	39346.83
661.306	39585.92
661.656	39585.47
662.007	39670.44
662.358	39614.17
662.708	39514.06
663.059	39505.92
663.409	39293.27
663.76	39564.91
664.11	39545.7
664.461	39684
664.811	39600.39
665.161	39476.77
665.511	39460.28
665.862	39604.23
666.212	39543.66
666.562	39641.97
666.912	39458.02
667.262	39442.2
667.612	39509.77
667.962	39422.31
668.312	39406.04
668.662	39630.44
669.011	39446.04
669.361	39427.28
669.711	39310.9
670.06	39397.9
670.41	39340.28
670.76	39314.52
671.109	39323.1
671.459	39247.85
671.808	39127.4
672.157	39202.2
672.507	38987.97
672.856	39001.53
673.205	39118.82
673.554	39222.54
673.904	38980.51
674.253	39223.67
674.602	39291.69
674.951	38617.81
675.3	38381.43
675.649	39040.63
675.998	39097.12
676.346	39023.45
676.695	39112.26
677.044	38806.96
677.393	38987.29
677.741	39122.21
678.09	38692.84
678.438	38805.6
678.787	38937.8
679.135	38834.3
679.484	38606.29
679.832	38770.12
680.181	38497.36
680.529	38653.97
680.877	38426.63
681.225	38256.92
681.573	38657.13
681.922	38306.63
682.27	38373.98
682.618	38263.92
682.966	38227.77
683.314	38356.12
683.661	38196.13
684.009	37997.72
684.357	37978.73
684.705	37750.26
685.053	38015.12
685.4	37811.28
685.748	37725.18
686.095	37816.7
686.443	37601.12
686.79	37522.02
687.138	37645.86
687.485	37550.04
687.832	37519.54
688.18	37402.03
688.527	37199.77
688.874	37136.95
689.221	37247.68
689.568	37113.67
689.915	36990.51
690.262	36930.4
690.609	36792.78
690.956	36846.11
691.303	36666
691.65	36507.81
691.997	36590.52
692.344	36400.47
692.69	36173.58
693.037	36368.83
693.383	36090.42
693.73	36198.21
694.077	35968.16
694.423	35944.44
694.769	35875.96
695.116	35599.36
695.462	35718
695.808	35600.04
696.155	35563.66
696.501	35314.4
696.847	35414.73
697.193	35195.98
697.539	35172.25
697.885	35030.79
698.231	34973.84
698.577	35031.92
698.923	34971.13
699.269	34644.58
699.614	34537.02
699.96	34492.72
700.306	34523.46
700.651	34297.02
700.997	34130.02
701.342	34251.37
701.688	34162.34
702.033	33920.76
702.379	33974.09
702.724	33860.65
703.069	33956.92
703.415	33526.87
703.76	33593.99
704.105	33644.61
704.45	33432.19
704.795	33359.19
705.14	33205.98
705.485	33271.51
705.83	33142.25
706.175	33216.37
706.52	33102.25
706.865	32901.35
707.209	32972.99
707.554	32899.54
707.899	32899.77
708.243	32657.52
708.588	32639.66
708.932	32528.25
709.277	32429.73
709.621	32416.17
709.966	32188.15
710.31	32276.28
710.654	32118.77
710.998	32077.87
711.342	32067.25
711.687	31976.86
712.031	31810.76
712.375	31667.49
712.719	31867.71
713.063	31748.84
713.407	31702.97
713.75	31641.5
714.094	31553.14
714.438	31472.46
714.782	31546.36
715.125	31342.98
715.469	31400.83
715.812	31233.83
716.156	31095.07
716.499	31083.77
716.843	31060.72
717.186	30961.52
717.53	30993.61
717.873	30903.21
718.216	30796.32
718.559	30655.76
718.902	30552.49
719.246	30598.36
719.589	30521.98
719.932	30553.84
720.275	30415.99
720.617	30273.85
720.96	30181.42
721.303	30227.52
721.646	30304.13
721.989	30118.37
722.331	30314.75
722.674	30149.11
723.016	30177.36
723.359	30089.22
723.701	30129.45
724.044	29955.89
724.386	29850.81
724.729	29832.96
725.071	29912.05
725.413	29735.33
725.755	29712.28
726.097	29663.02
726.439	29501.44
726.782	29589.58
727.124	29584.6
727.465	29420.99
727.807	29283.82
728.149	29312.97
728.491	29240.66
728.833	29251.96
729.175	29087.89
729.516	29142.36
729.858	29149.81
730.199	29189.13
730.541	29079.53
730.882	28881.8
731.224	29075.46
731.565	28839.76
731.906	28757.28
732.248	28833.89
732.589	28673.44
732.93	28666.89
733.271	28745.76
733.612	28636.38
733.953	28700.78
734.294	28584.63
734.635	28456.27
734.976	28618.3
735.317	28399.32
735.658	28451.07
735.999	28321.36
736.339	28240.23
736.68	28280.23
737.021	28220.35
737.361	28150.52
737.702	28192.55
738.042	28171.31
738.383	28031.2
738.723	28096.96
739.063	27963.63
739.404	28054.93
739.744	27894.93
740.084	27882.05
740.424	27861.71
740.764	27756.4
741.104	27917.75
741.444	27703.97
741.784	27770.64
742.124	27662.62
742.464	27620.14
742.804	27609.97
743.143	27630.08
743.483	27595.96
743.823	27440.48
744.162	27384.44
744.502	27376.07
744.841	27265.34
745.181	27378.56
745.52	27257.66
745.86	27303.08
746.199	27323.65
746.538	27157.77
746.877	27188.96
747.216	27118.68
747.556	27050.66
747.895	27105.35
748.234	27005.01
748.573	26927.05
748.911	26793.72
749.25	26828.74
749.589	26761.4
749.928	26717.11
750.267	26733.83
750.605	26635.08
750.944	26513.72
751.283	26434.4
751.621	26622.65
751.96	26387.63
752.298	26407.51
752.636	26319.15
752.975	26261.3
753.313	26138.59
753.651	26259.72
753.989	26149.67
754.327	26032.83
754.666	25947.86
755.004	25992.38
755.342	26020.4
755.679	26038.26
756.017	25781.54
756.355	25793.29
756.693	25656.57
757.031	25837.13
757.368	25726.4
757.706	25533.18
758.044	25534.77
758.381	25531.83
758.719	25478.27
759.056	25272.17
759.394	25245.28
759.731	25128.9
760.068	25129.35
760.405	25028.57
760.743	24879.64
761.08	24969.81
761.417	24906.76
761.754	24793.77
762.091	24709.7
762.428	24703.83
762.765	24488.92
763.102	24430.84
763.438	24370.5
763.775	24247.57
764.112	24251.18
764.449	24316.49
764.785	24227.46
765.122	24079.66
765.458	23987.01
765.795	24017.52
766.131	23773.91
766.467	23782.72
766.804	23723.51
767.14	23493.46
767.476	23629.96
767.812	23476.97
768.148	23462.96
768.485	23242.62
768.821	23274.49
769.157	23183.87
769.492	23095.06
769.828	23053.7
770.164	22956.3
770.5	22737.78
770.836	22703.2
771.171	22692.13
771.507	22700.04
771.842	22484.45
772.178	22516.54
772.513	22408.52
772.849	22299.82
773.184	22229.99
773.519	22233.16
773.855	22111.81
774.19	21992.26
774.525	21948.42
774.86	21915.65
775.195	21908.65
775.53	21765.37
775.865	21604.25
776.2	21469.11
776.535	21344.14
776.87	21231.15
777.205	21308.44
777.539	21218.04
777.874	21153.41
778.209	21086.07
778.543	20976.69
778.878	20860.54
779.212	20904.15
779.547	20798.62
779.881	20766.76
780.215	20621
780.55	20643.82
780.884	20518.63
781.218	20442.7
781.552	20470.27
781.886	20310.27
782.22	20181.91
782.554	20208.58
782.888	19979.88
783.222	19933.33
783.556	19812.88
783.889	19829.38
784.223	19743.73
784.557	19611.76
784.89	19714.58
785.224	19464.19
785.557	19474.59
785.891	19428.94
786.224	19260.36
786.558	19264.2
786.891	19151.43
787.224	19013.81
787.557	18993.92
787.891	18969.97
788.224	18994.15
788.557	18939.23
788.89	18766.36
789.223	18783.53
789.556	18756.41
789.888	18600.49
790.221	18553.48
790.554	18417.44
790.887	18326.37
791.219	18390.32
791.552	18292.02
791.884	18209.99
792.217	18162.53
792.549	18155.07
792.882	18028.07
793.214	17922.99
793.546	17969.54
793.879	17792.15
794.211	17739.04
794.543	17704.92
794.875	17670.34
795.207	17604.58
795.539	17557.12
795.871	17608.42
796.203	17449.56
796.535	17412.72
796.867	17278.26
797.198	17287.98
797.53	17270.35
797.862	17213.86
798.193	17181.54
798.525	17160.07
798.856	17191.03
799.188	16835.79
799.519	16843.7
799.85	16760.08
800.182	16868.33
800.513	16798.95
800.844	16524.83
801.175	16732.96
801.506	16592.85
801.837	16598.5
802.168	16477.38
802.499	16415.46
802.83	16312.18
803.161	16286.87
803.491	16314.9
803.822	16223.82
804.153	16220.66
804.483	16052.08
804.814	16062.7
805.145	16062.47
805.475	16015.02
805.805	15871.07
806.136	15887.11
806.466	15850.73
806.796	15852.99
807.126	15642.15
807.457	15734.12
807.787	15618.42
808.117	15610.51
808.447	15555.82
808.777	15659.55
809.107	15498.65
809.436	15462.26
809.766	15480.79
810.096	15307.69
810.426	15333
810.755	15318.09
811.085	15308.14
811.414	15204.64
811.744	15109.28
812.073	15109.73
812.403	15118.09
812.732	14959.45
813.061	15058.43
813.39	14925.1
813.719	14912.67
814.049	14943.63
814.378	14855.5
814.707	14864.54
815.036	14811.21
815.365	14660.25
815.693	14627.48
816.022	14602.85
816.351	14539.8
816.68	14481.27
817.008	14509.97
817.337	14373.03
817.665	14260.26
817.994	14413.48
818.322	14286.93
818.651	14292.8
818.979	14254.84
819.307	14267.04
819.636	14199.47
819.964	14091
820.292	14203.99
820.62	14134.61
820.948	14064.33
821.276	14129.19
821.604	14144.56
821.932	14130.32
822.259	14089.42
822.587	14027.5
822.915	14067.05
823.243	14089.42
823.57	14056.65
823.898	14131.22
824.225	14001.96
824.553	13991.34
824.88	14081.73
825.207	14034.5
825.535	14013.71
825.862	14072.69
826.189	13975.52
826.516	14079.47
826.843	14103.2
827.17	14067.05
827.497	14092.81
827.824	14067.05
828.151	14013.94
828.478	13975.75
828.805	14099.81
829.131	13953.38
829.458	13962.87
829.785	13951.12
830.111	14003.54
830.438	14018.01
830.764	14053.03
831.09	14082.64
831.417	13954.96
831.743	13992.92
832.069	13986.14
832.395	13974.17
832.722	13928.74
833.048	13879.25
833.374	13926.94
833.7	13839.71
834.026	13934.62
834.351	13890.33
834.677	13867.73
835.003	13871.12
835.329	13875.41
835.654	13755.87
835.98	13711.8
836.306	13740.5
836.631	13720.84
836.956	13788.41
837.282	13678.58
837.607	13626.6
837.932	13665.25
838.258	13670.9
838.583	13559.04
838.908	13537.57
839.233	13578.47
839.558	13597.45
839.883	13433.62
840.208	13530.11
840.533	13448.3
840.858	13430.9
841.182	13469.09
841.507	13379.38
841.832	13270.46
842.156	13250.34
842.481	13206.28
842.805	13259.38
843.13	13171.25
843.454	13212.38
843.778	13219.16
844.103	13182.55
844.427	13105.94
844.751	13098.03
845.075	13070.46
845.399	12972.61
845.723	12949.79
846.047	13032.04
846.371	12868.88
846.695	12860.98
847.019	12833.41
847.343	12648.1
847.666	12611.04
847.99	12599.29
848.313	12658.95
848.637	12421.89
848.96	12498.5
849.284	12370.14
849.607	12319.07
849.931	12301.67
850.254	12224.61
850.577	12154.78
850.9	12064.61
851.223	12090.37
851.546	12033.65
851.869	11948.01
852.192	12014.9
852.515	11859.42
852.838	11886.99
853.161	11842.7
853.483	11770.16
853.806	11732.64
854.129	11715.47
854.451	11670.72
854.774	11609.48
855.096	11519.99
855.419	11559.77
855.741	11516.15
856.063	11434.57
856.385	11459.43
856.708	11376.04
857.03	11357.51
857.352	11342.37
857.674	11281.13
857.996	11206.1
858.318	11207.23
858.64	11228.93
858.961	11107.35
859.283	11136.27
859.605	11088.59
859.926	11087.01
860.248	11035.03
860.57	11028.03
860.891	11064.19
861.212	10972.44
861.534	11009.72
861.855	10925.43
862.176	10921.82
862.498	10892.44
862.819	10884.76
863.14	10772.44
863.461	10824.42
863.782	10724.08
864.103	10807.02
864.424	10705.55
864.745	10702.84
865.065	10650.86
865.386	10618.77
865.707	10746.45
866.027	10604.99
866.348	10595.72
866.668	10629.4
866.989	10564.09
867.309	10489.06
867.63	10528.38
867.95	10524.99
868.27	10434.6
868.59	10505.56
868.91	10395.96
869.23	10475.05
869.55	10387.14
869.87	10391.44
870.19	10374.49
870.51	10350.08
870.83	10412.9
871.15	10286.35
871.469	10301.95
871.789	10339.01
872.109	10323.41
872.428	10276.18
872.748	10238.9
873.067	10308.5
873.386	10270.31
873.706	10253.13
874.025	10220.82
874.344	10166.36
874.663	10195.51
874.982	10143.98
875.301	10127.26
875.62	10115.96
875.939	10065.34
876.258	10043.65
876.577	10082.74
876.896	9987.38
877.214	9979.02
877.533	10017.21
877.852	9917.55
878.17	10085.91
878.489	9984.89
878.807	9952.8
879.125	9928.17
879.444	9916.87
879.762	9857.89
880.08	9850.43
880.398	9876.65
880.716	9826.25
881.034	9788.06
881.352	9823.77
881.67	9802.3
881.988	9805.69
882.306	9706.93
882.624	9667.84
882.941	9581.97
883.259	9654.73
883.577	9633.26
883.894	9616.09
884.212	9591.46
884.529	9553.49
884.846	9551.91
885.164	9524.34
885.481	9538.8
885.798	9452.7
886.115	9408.86
886.432	9466.94
886.75	9430.56
887.067	9398.92
887.383	9373.61
887.7	9435.98
888.017	9327.51
888.334	9328.41
888.651	9265.59
888.967	9287.74
889.284	9216.55
889.6	9193.95
889.917	9131.81
890.233	9135.65
890.55	9151.47
890.866	9109.44
891.182	9064.01
891.498	9071.92
891.815	9001.19
892.131	8978.82
892.447	8942.66
892.763	8884.81
893.079	8932.27
893.395	8848.43
893.71	8946.95
894.026	8862.89
894.342	8786.28
894.657	8712.84
894.973	8773.85
895.289	8724.14
895.604	8753.06
895.92	8598.94
896.235	8676.9
896.55	8636.23
896.865	8578.15
897.181	8531.15
897.496	8538.38
897.811	8514.2
898.126	8448.66
898.441	8408.21
898.756	8419.74
899.071	8381.77
899.386	8374.77
899.7	8326.18
900.015	8264.49
900.33	8224.94
900.644	8180.65
900.959	8181.1
901.273	8158.5
901.588	8175
901.902	8063.81
902.216	8044.6
902.531	8081.44
902.845	8078.73
903.159	7940.2
903.473	7954.21
903.787	7901.11
904.101	7845.74
904.415	7843.48
904.729	7862.91
905.042	7794.22
905.356	7817.04
905.67	7822.01
905.984	7774.1
906.297	7719.42
906.611	7702.69
906.924	7672.64
907.237	7637.38
907.551	7603.71
907.864	7594.45
908.177	7532.3
908.491	7504.51
908.804	7501.34
909.117	7455.02
909.43	7384.51
909.743	7351.06
910.056	7368.24
910.368	7290.27
910.681	7288.69
910.994	7198.3
911.307	7162.59
911.619	7082.37
911.932	7143.16
912.244	7133.44
912.557	7067.91
912.869	7019.55
913.181	7047.34
913.494	7050.51
913.806	7035.37
914.118	6981.13
914.43	6904.07
914.742	6897.29
915.054	6942.71
915.366	6881.25
915.678	6821.36
915.99	6830.4
916.302	6762.83
916.613	6737.52
916.925	6756.73
917.236	6704.53
917.548	6625.21
917.859	6617.98
918.171	6638.09
918.482	6620.46
918.794	6501.82
919.105	6526.45
919.416	6481.48
919.727	6496.17
920.038	6423.86
920.349	6405.78
920.66	6371.65
920.971	6378.66
921.282	6352.22
921.593	6316.29
921.903	6266.8
922.214	6277.87
922.525	6262.28
922.835	6227.7
923.146	6171.89
923.456	6131.43
923.767	6147.93
924.077	6105.45
924.387	6036.52
924.697	6012.34
925.008	6075.62
925.318	6044.66
925.628	6055.28
925.938	5984.77
926.248	5908.16
926.558	5898.67
926.867	5877.2
927.177	5836.3
927.487	5881.5
927.796	5776.42
928.106	5738.68
928.416	5775.29
928.725	5728.28
929.034	5723.76
929.344	5697.1
929.653	5670.43
929.962	5617.55
930.271	5567.83
930.581	5628.4
930.89	5515.63
931.199	5503.88
931.508	5488.51
931.817	5545.01
932.125	5456.42
932.434	5431.57
932.743	5383.21
933.051	5366.03
933.36	5364.45
933.669	5324.45
933.977	5263.44
934.286	5308.63
934.594	5311.8
934.902	5261.18
935.21	5226.37
935.519	5265.92
935.827	5164
936.135	5153.61
936.443	5136.43
936.751	5139.6
937.059	5093.95
937.367	5043.33
937.674	5026.38
937.982	5061.63
938.29	4997
938.597	5029.77
938.905	4928.08
939.213	4935.76
939.52	4953.39
939.827	4933.95
940.135	4930.11
940.442	4866.61
940.749	4830.45
941.056	4811.7
941.363	4787.97
941.67	4780.74
941.977	4752.71
942.284	4768.76
942.591	4715.2
942.898	4715.2
943.205	4706.39
943.511	4660.97
943.818	4628.88
944.125	4642.43
944.431	4604.7
944.738	4567.63
945.044	4548.2
945.35	4542.32
945.657	4492.61
945.963	4483.57
946.269	4468.43
946.575	4463
946.881	4459.16
947.187	4480.63
947.493	4408.32
947.799	4378.49
948.105	4357.7
948.41	4345.95
948.716	4314.53
949.022	4317.7
949.327	4292.61
949.633	4245.16
949.938	4233.86
950.244	4266.85
950.549	4206.74
950.854	4237.7
951.16	4178.04
951.465	4135.56
951.77	4105.27
952.075	4124.03
952.38	4113.18
952.685	4114.99
952.99	4066.86
953.294	4072.73
953.599	4055.78
953.904	4080.19
954.209	3996.58
954.513	4015.78
954.818	3988.89
955.122	3992.51
955.426	3953.86
955.731	3924.49
956.035	3898.05
956.339	3873.42
956.643	3872.06
956.948	3828.9
957.252	3823.02
957.556	3823.7
957.86	3819.63
958.163	3769.46
958.467	3808.56
958.771	3742.35
959.075	3774.43
959.378	3718.39
959.682	3712.97
959.985	3722.91
960.289	3703.25
960.592	3674.55
960.896	3642.91
961.199	3617.6
961.502	3632.74
961.805	3579.41
962.108	3579.41
962.411	3577.83
962.714	3528.34
963.017	3530.6
963.32	3580.77
963.623	3491.28
963.926	3505.06
964.228	3468.68
964.531	3424.61
964.833	3461.22
965.136	3449.47
965.438	3441.11
965.741	3403.6
966.043	3374.45
966.345	3349.81
966.648	3356.14
966.95	3345.97
967.252	3310.49
967.554	3338.51
967.856	3315.69
968.158	3267.78
968.46	3262.81
968.761	3232.53
969.063	3224.84
969.365	3216.94
969.666	3237.27
969.968	3190.5
970.269	3199.76
970.571	3181.91
970.872	3160.89
971.174	3122.25
971.475	3123.38
971.776	3091.06
972.077	3105.53
972.378	3122.25
972.679	3057.84
972.98	3086.32
973.281	3038.86
973.582	3039.31
973.883	3033.44
974.183	3018.97
974.484	2988.69
974.785	3000.67
975.085	3000.67
975.386	2963.83
975.686	2952.08
975.986	2896.27
976.287	2933.78
976.587	2888.81
976.887	2901.01
977.187	2926.1
977.487	2878.19
977.787	2921.12
978.087	2842.48
978.387	2837.06
978.687	2844.97
978.987	2790.05
979.286	2733.56
979.586	2760.68
979.885	2738.98
980.185	2778.53
980.484	2750.05
980.784	2728.36
981.083	2731.07
981.382	2711.86
981.682	2705.99
981.981	2680.9
982.28	2667.12
982.579	2654.24
982.878	2650.4
983.177	2648.81
983.475	2621.92
983.774	2584.64
984.073	2584.41
984.372	2593.45
984.67	2609.49
984.969	2605.43
985.267	2549.16
985.566	2542.6
985.864	2572.43
986.162	2504.86
986.461	2520
986.759	2532.43
987.057	2474.13
987.355	2489.5
987.653	2470.74
987.951	2473.68
988.249	2475.49
988.547	2449.95
988.844	2408.37
989.142	2408.14
989.44	2405.88
989.737	2372.89
990.035	2381.93
990.332	2381.48
990.63	2350.74
990.927	2361.82
991.224	2359.1
991.521	2347.58
991.819	2317.52
992.116	2327.02
992.413	2303.96
992.71	2293.57
993.006	2298.99
993.303	2289.28
993.6	2229.84
993.897	2239.56
994.193	2242.27
994.49	2219
994.787	2220.8
995.083	2186
995.379	2205.66
995.676	2180.58
995.972	2207.47
996.268	2181.26
996.565	2162.05
996.861	2147.13
997.157	2103.74
997.453	2128.83
997.749	2110.75
998.044	2101.48
998.34	2103.29
998.636	2087.02
998.932	2084.54
999.227	2112.78
999.523	2074.82
999.818	2058.32
1000.114	1996.18
1000.409	1996.4
1000.704	2011.09
1001	2020.58
1001.295	1988.27
1001.59	1988.72
1001.885	1961.15
1002.18	1906.69
1002.475	1952.56
1002.77	1955.95
1003.065	1896.29
1003.359	1930.87
1003.654	1897.87
1003.949	1900.13
1004.243	1898.33
1004.538	1851.1
1004.832	1909.62
1005.127	1846.35
1005.421	1839.12
1005.715	1808.16
1006.009	1822.62
1006.304	1815.84
1006.598	1796.41
1006.892	1791.21
1007.186	1786.69
1007.48	1770.19
1007.773	1757.99
1008.067	1759.57
1008.361	1757.76
1008.655	1707.14
1008.948	1719.57
1009.242	1719.35
1009.535	1725.9
1009.829	1695.62
1010.122	1712.57
1010.415	1676.41
1010.708	1675.73
1011.001	1637.54
1011.295	1646.36
1011.588	1629.18
1011.881	1646.58
1012.173	1634.83
1012.466	1631.21
1012.759	1603.64
1013.052	1568.62
1013.344	1555.28
1013.637	1602.29
1013.93	1550.54
1014.222	1537.21
1014.514	1547.37
1014.807	1520.93
1015.099	1544.89
1015.391	1517.77
1015.683	1499.01
1015.976	1503.76
1016.268	1469.64
1016.56	1477.77
1016.851	1457.21
1017.143	1463.31
1017.435	1467.38
1017.727	1472.57
1018.018	1436.19
1018.31	1441.16
1018.602	1405.68
1018.893	1421.5
1019.185	1442.52
1019.476	1403.42
1019.767	1399.13
1020.058	1368.85
1020.35	1388.28
1020.641	1377.44
1020.932	1372.69
1021.223	1324.78
1021.514	1351.22
1021.804	1334.27
1022.095	1307.61
1022.386	1339.02
1022.677	1314.84
1022.967	1297.44
1023.258	1282.97
1023.548	1281.17
1023.839	1268.96
1024.129	1267.61
1024.419	1277.1
1024.709	1241.39
1025	1253.15
1025.29	1228.06
1025.58	1225.12
1025.87	1201.62
1026.16	1192.81
1026.449	1203.88
1026.739	1171.57
1027.029	1140.61
1027.319	1179.7
1027.608	1165.69
1027.898	1138.8
1028.187	1159.14
1028.477	1163.66
1028.766	1148.74
1029.055	1118.91
1029.344	1117.33
1029.634	1105.35
1029.923	1116.43
1030.212	1100.83
1030.501	1086.37
1030.79	1109.42
1031.078	1062.42
1031.367	1061.96
1031.656	1085.24
1031.945	1065.58
1032.233	1029.87
1032.522	1063.32
1032.81	1049.31
1033.099	1034.17
1033.387	1059.03
1033.675	1032.81
1033.963	1013.6
1034.251	1009.99
1034.54	1010.67
1034.828	1010.67
1035.116	988.29
1035.403	960.72
1035.691	983.55
1035.979	955.3
1036.267	952.36
1036.554	940.16
1036.842	944.45
1037.129	957.33
1037.417	939.03
1037.704	958.46
1037.992	914.4
1038.279	923.21
1038.566	928.18
1038.853	928.18
1039.14	928.18
