Data from hue_36_FLMS001491_00070.txt Node
Date: Tue Feb 07 17:30:09 GMT 2017
User: dcchb
Spectrometer: FLMS00149
Trigger mode: 0
Integration Time (sec): 2.000000E-2
Scans to average: 10
Electric dark correction enabled: true
Nonlinearity correction enabled: false
Boxcar width: 0
XAxis mode: Wavelengths
Number of Pixels in Spectrum: 2048
>>>>>Begin Spectral Data<<<<<
341.393	-9.1
341.776	-9.1
342.16	-9.1
342.543	-69.43
342.927	-57
343.31	-69.66
343.693	-80.05
344.077	-43.9
344.46	-48.19
344.843	-45.71
345.226	-56.33
345.61	-34.18
345.993	-15.2
346.376	-11.81
346.759	18.7
347.142	24.35
347.525	39.26
347.908	48.08
348.291	64.8
348.674	90.34
349.057	119.49
349.44	150
349.823	142.54
350.206	168.53
350.588	171.46
350.971	215.08
351.354	219.15
351.737	257.56
352.119	265.25
352.502	259.15
352.884	277
353.267	284.46
353.65	294.63
354.032	291.69
354.414	330.78
354.797	321.29
355.179	338.69
355.562	299.14
355.944	340.95
356.326	340.05
356.709	336.21
357.091	344.57
357.473	333.27
357.855	333.04
358.238	338.01
358.62	338.92
359.002	322.19
359.384	374.17
359.766	339.6
360.148	330.33
360.53	342.76
360.912	350.22
361.294	319.26
361.676	360.16
362.057	327.17
362.439	356.54
362.821	349.76
363.203	334.17
363.584	326.49
363.966	325.58
364.348	345.25
364.729	335.53
365.111	321.97
365.493	326.94
365.874	323.78
366.256	327.39
366.637	301.4
367.019	317.22
367.4	314.29
367.781	310.22
368.163	297.79
368.544	310.22
368.925	304.12
369.306	313.61
369.688	311.8
370.069	327.17
370.45	321.07
370.831	320.39
371.212	316.55
371.593	330.33
371.974	326.26
372.355	314.96
372.736	326.71
373.117	306.6
373.498	315.19
373.879	324.45
374.26	325.13
374.641	326.04
375.021	333.49
375.402	338.47
375.783	327.84
376.163	324
376.544	327.39
376.925	336.88
377.305	335.75
377.686	332.82
378.066	341.63
378.447	321.52
378.827	342.08
379.208	327.39
379.588	338.92
379.968	349.31
380.349	336.43
380.729	348.41
381.109	336.88
381.489	348.41
381.87	340.27
382.25	340.05
382.63	350.44
383.01	343.21
383.39	353.15
383.77	327.17
384.15	338.24
384.53	325.58
384.91	335.75
385.29	346.38
385.67	359.03
386.049	352.25
386.429	347.96
386.809	340.73
387.189	357.45
387.568	360.16
387.948	358.35
388.328	354.51
388.707	348.18
389.087	331.91
389.466	355.64
389.846	350.67
390.225	354.51
390.605	334.17
390.984	368.75
391.363	377.33
391.743	353.61
392.122	367.39
392.501	371.69
392.881	375.3
393.26	378.92
393.639	375.75
394.018	386.6
394.397	364.23
394.776	389.09
395.155	369.2
395.534	360.61
395.913	375.3
396.292	382.08
396.671	370.56
397.05	397.22
397.429	378.24
397.808	382.76
398.186	375.07
398.565	398.35
398.944	400.84
399.323	397.45
399.701	381.4
400.08	382.08
400.458	388.41
400.837	402.64
401.215	374.4
401.594	394.96
401.972	402.42
402.351	398.35
402.729	415.75
403.107	394.96
403.486	380.05
403.864	412.36
404.242	391.35
404.62	410.78
404.999	415.98
405.377	431.12
405.755	411.68
406.133	414.17
406.511	417.33
406.889	416.66
407.267	418.69
407.645	439.25
408.023	441.51
408.401	413.49
408.779	429.54
409.156	421.85
409.534	442.64
409.912	428.41
410.29	444.68
410.667	430.44
411.045	429.08
411.422	430.21
411.8	469.99
412.178	446.49
412.555	455.75
412.933	444.45
413.31	451.68
413.687	480.61
414.065	463.89
414.442	467.5
414.819	476.32
415.197	483.32
415.574	495.98
415.951	470.44
416.328	468.41
416.705	467.73
417.082	482.19
417.46	465.47
417.837	469.54
418.214	507.5
418.591	491.68
418.967	484.68
419.344	512.47
419.721	505.47
420.098	500.27
420.475	498.91
420.852	516.99
421.228	513.38
421.605	500.27
421.982	522.64
422.358	519.93
422.735	545.24
423.111	507.5
423.488	517.22
423.864	525.81
424.241	539.82
424.617	521.29
424.994	531.91
425.37	560.15
425.746	523.77
426.123	544.34
426.499	541.17
426.875	552.02
427.251	556.77
427.627	566.03
428.003	578.46
428.379	573.04
428.756	585.01
429.132	561.74
429.507	575.52
429.883	590.89
430.259	595.18
430.635	611.9
431.011	585.24
431.387	612.81
431.763	603.09
432.138	614.39
432.514	624.56
432.89	618.46
433.265	638.12
433.641	626.14
434.016	647.16
434.392	640.83
434.767	640.6
435.143	636.76
435.518	667.5
435.894	655.97
436.269	662.98
436.644	678.12
437.02	676.31
437.395	673.6
437.77	663.88
438.145	676.76
438.52	657.78
438.895	705.91
439.271	668.4
439.646	705.24
440.021	686.48
440.395	706.82
440.77	697.55
441.145	707.04
441.52	721.73
441.895	730.77
442.27	732.13
442.645	724.22
443.019	728.29
443.394	749.08
443.769	771.22
444.143	722.41
444.518	749.08
444.892	728.51
445.267	768.51
445.641	761.05
446.016	755.18
446.39	748.62
446.764	780.71
447.139	772.58
447.513	782.3
447.887	797.89
448.262	793.37
448.636	788.4
449.01	804.22
449.384	775.06
449.758	801.96
450.132	796.31
450.506	804.89
450.88	792.69
451.254	837.44
451.628	829.3
452.002	828.62
452.376	843.99
452.75	863.88
453.123	852.35
453.497	853.48
453.871	867.27
454.244	875.17
454.618	889.64
454.992	846.93
455.365	882.18
455.739	899.81
456.112	939.35
456.486	898.68
456.859	916.98
457.232	923.54
457.606	949.52
457.979	954.27
458.352	952.23
458.725	971.44
459.099	965.79
459.472	983.19
459.845	1019.35
460.218	1006.47
460.591	1001.05
460.964	1039.01
461.337	1039.46
461.71	1040.59
462.083	1078.79
462.456	1084.66
462.829	1069.97
463.201	1089.41
463.574	1094.6
463.947	1103.19
464.32	1134.83
464.692	1172.34
465.065	1143.64
465.438	1153.59
465.81	1160.59
466.183	1184.09
466.555	1216.18
466.928	1206.69
467.3	1200.82
467.672	1239.68
468.045	1280.59
468.417	1294.6
468.789	1305.22
469.161	1298.89
469.534	1317.65
469.906	1377.53
470.278	1380.02
470.65	1412.11
471.022	1422.5
471.394	1454.82
471.766	1492.56
472.138	1480.13
472.51	1547.93
472.882	1574.37
473.253	1600.35
473.625	1607.13
473.997	1670.63
474.369	1653.69
474.74	1715.15
475.112	1733.91
475.484	1761.48
475.855	1808.03
476.227	1819.1
476.598	1881.48
476.97	1909.27
477.341	1966.9
477.713	2040.79
478.084	2024.98
478.455	2125.09
478.827	2132.54
479.198	2186.55
479.569	2242.14
479.94	2316.94
480.311	2323.95
480.682	2431.74
481.053	2490.95
481.424	2568.69
481.795	2603.04
482.166	2655.92
482.537	2753.09
482.908	2806.42
483.279	2861.56
483.65	2938.62
484.021	3024.04
484.391	3099.07
484.762	3163.7
485.133	3176.58
485.503	3266.52
485.874	3360.76
486.244	3468.55
486.615	3534.54
486.985	3662.9
487.356	3771.6
487.726	3835.1
488.097	3934.98
488.467	3970.23
488.837	4089.33
489.207	4205.71
489.578	4305.37
489.948	4375.65
490.318	4437.11
490.688	4536.55
491.058	4641.86
491.428	4757.56
491.798	4816.99
492.168	4944.9
492.538	4989.19
492.908	5084.78
493.278	5256.3
493.648	5273.93
494.017	5372.23
494.387	5458.11
494.757	5561.61
495.126	5655.39
495.496	5710.08
495.866	5831.88
496.235	5868.94
496.605	5967.24
496.974	6072.55
497.344	6119.33
497.713	6218.99
498.082	6324.3
498.452	6470.51
498.821	6535.82
499.19	6502.6
499.559	6630.96
499.928	6755.92
500.298	6826.88
500.667	6826.88
501.036	6893.77
501.405	7000.66
501.774	7095.12
502.143	7178.74
502.512	7201.11
502.88	7412.63
503.249	7411.73
503.618	7438.84
503.987	7496.02
504.356	7575.34
504.724	7658.27
505.093	7663.47
505.462	7700.31
505.83	7863.92
506.199	7896.46
506.567	8042.44
506.936	8047.87
507.304	8124.02
507.672	8219.16
508.041	8239.5
508.409	8342.77
508.777	8433.17
509.145	8522.43
509.514	8517.23
509.882	8582.32
510.25	8630.23
510.618	8690.79
510.986	8735.53
511.354	8852.14
511.722	8913.83
512.09	8984.11
512.458	9028.18
512.826	9081.74
513.193	9121.51
513.561	9125.58
513.929	9240.15
514.297	9408.06
514.664	9396.98
515.032	9387.49
515.4	9466.81
515.767	9570.09
516.135	9661.84
516.502	9585.45
516.869	9782.74
517.237	9786.58
517.604	9757.2
517.972	9906.35
518.339	9933.69
518.706	9938.89
519.073	10017.53
519.44	10097.53
519.808	10178.21
520.175	10168.94
520.542	10306.11
520.909	10368.48
521.276	10401.7
521.643	10438.54
522.009	10518.54
522.376	10584.3
522.743	10605.31
523.11	10698.65
523.477	10801.69
523.843	10907.91
524.21	10981.12
524.577	11021.12
524.943	11137.28
525.31	11141.57
525.676	11250.04
526.043	11312.64
526.409	11410.26
526.776	11444.39
527.142	11520.77
527.508	11589.24
527.874	11691.84
528.241	11659.98
528.607	11766.87
528.973	11858.84
529.339	11859.74
529.705	11973.19
530.071	12060.42
530.437	12089.8
530.803	12205.05
531.169	12297.02
531.535	12220.87
531.901	12332.27
532.267	12377.25
532.632	12479.62
532.998	12460.18
533.364	12634.41
533.73	12584.92
534.095	12703.56
534.461	12770.23
534.826	12812.49
535.192	12926.16
535.557	12950.79
535.923	12988.08
536.288	12965.25
536.653	13068.3
537.019	12968.64
537.384	13083.67
537.749	13158.92
538.114	13204.79
538.479	13227.39
538.845	13364.34
539.21	13273.72
539.575	13448.4
539.94	13468.52
540.305	13522.75
540.67	13528.18
541.034	13563.65
541.399	13731.79
541.764	13782.41
542.129	13819.24
542.494	13944.89
542.858	13896.53
543.223	13941.72
543.587	14035.28
543.952	13977.43
544.316	14123.87
544.681	14148.95
545.045	14181.49
545.41	14310.75
545.774	14275.73
546.138	14356.18
546.503	14376.29
546.867	14436.17
547.231	14528.83
547.595	14543.52
547.959	14672.1
548.324	14672.78
548.688	14671.65
549.052	14848.37
549.416	14814.02
549.779	14821.7
550.143	14924.3
550.507	14969.04
550.871	15041.81
551.235	15065.99
551.599	15095.37
551.962	15154.12
552.326	15176.72
552.689	15335.59
553.053	15241.58
553.417	15307.56
553.78	15447.67
554.143	15454.45
554.507	15444.28
554.87	15629.59
555.234	15717.27
555.597	15669.36
555.96	15677.95
556.323	15822.8
556.686	15821
557.05	15907.55
557.413	15939.86
557.776	16011.95
558.139	16078.39
558.502	16138.5
558.865	16139.41
559.228	16252.17
559.59	16266.18
559.953	16258.95
560.316	16424.6
560.679	16533.75
561.041	16573.97
561.404	16625.04
561.767	16733.29
562.129	16689.45
562.492	16870.46
562.854	16880.4
563.217	16810.35
563.579	17004.47
563.941	16968.76
564.304	17080.17
564.666	17227.51
565.028	17240.39
565.39	17218.7
565.753	17348.64
566.115	17434.29
566.477	17466.15
566.839	17557.67
567.201	17672.25
567.563	17664.11
567.925	17828.63
568.287	17866.59
568.648	17887.61
569.01	17974.39
569.372	18093.03
569.734	17947.95
570.095	18178.45
570.457	18260.03
570.819	18286.47
571.18	18282.85
571.542	18413.47
571.903	18525.11
572.265	18528.04
572.626	18729.39
572.987	18724.2
573.349	18832.44
573.71	18850.75
574.071	18890.52
574.432	19065.66
574.794	19173.68
575.155	19188.59
575.516	19307.23
575.877	19375.71
576.238	19538.64
576.599	19694.34
576.96	19689.82
577.32	19914.22
577.681	19943.83
578.042	20110.15
578.403	20242.58
578.763	20406.41
579.124	20484.6
579.485	20677.37
579.845	20795.55
580.206	20858.15
580.566	20921.65
580.927	21153.29
581.287	21330
581.648	21352.6
582.008	21722.08
582.368	21833.72
582.728	22012.92
583.089	22077.56
583.449	22265.57
583.809	22387.38
584.169	22708.95
584.529	22779.91
584.889	23115.04
585.249	23059.9
585.609	23207.24
585.969	23667.34
586.329	23698.3
586.688	23908.92
587.048	24176.93
587.408	24389.13
587.768	24553.2
588.127	24768.56
588.487	24932.17
588.846	25401.76
589.206	25279.96
589.565	25626.84
589.925	25897.12
590.284	26128.52
590.643	26225.47
591.003	26491.45
591.362	26944.77
591.721	26934.38
592.08	27242.39
592.44	27614.81
592.799	27767.57
593.158	27803.05
593.517	28123.95
593.876	28288.69
594.235	28525.3
594.593	28821.78
594.952	28950.59
595.311	29078.5
595.67	29549
596.029	29683.46
596.387	29917.35
596.746	30228.3
597.104	30423.55
597.463	30588.29
597.822	30873.48
598.18	30880.49
598.538	31038.22
598.897	31602.05
599.255	31320.48
599.613	32136.05
599.972	32107.57
600.33	32237.74
600.688	32231.86
601.046	32678.41
601.404	32957.27
601.762	32971.05
602.12	33365.62
602.478	33644.48
602.836	33771.26
603.194	33609.68
603.552	33947.3
603.91	33923.57
604.268	34236.56
604.625	34354.07
604.983	34686.49
605.341	34625.02
605.698	34836.99
606.056	35047.38
606.413	35086.48
606.771	35430.2
607.128	35556.97
607.485	35512.91
607.843	35621.15
608.2	36008.94
608.557	36201.7
608.914	36188.14
609.272	36414.58
609.629	36690.05
609.986	36911.52
610.343	36718.53
610.7	37098.18
611.057	37363.71
611.414	37319.41
611.771	37480.31
612.127	37711.72
612.484	37769.12
612.841	38068.32
613.198	37984.93
613.554	38026.51
613.911	38387.63
614.267	38282.55
614.624	38426.05
614.98	38574.75
615.337	38831.01
615.693	38848.64
616.05	38872.37
616.406	39190.55
616.762	39052.48
617.118	39170.89
617.475	39221.06
617.831	39421.73
618.187	39581.28
618.543	39626.7
618.899	39763.42
619.255	39836.64
619.611	39798.22
619.967	39878.89
620.323	40244.54
620.678	40061.04
621.034	40116.85
621.39	40214.48
621.746	40256.06
622.101	40644.3
622.457	40367.02
622.812	40659.44
623.168	40820.57
623.523	40653.11
623.879	40894.24
624.234	40572.89
624.589	40767.46
624.945	40858.08
625.3	40925.42
625.655	40926.55
626.01	40898.08
626.365	41057.85
626.72	41003.39
627.075	41105.08
627.43	41025.76
627.785	40954.35
628.14	41047.9
628.495	41175.36
628.85	41215.13
629.205	41077.73
629.559	41467.78
629.914	41146.66
630.269	41192.53
630.623	41131.97
630.978	41199.09
631.332	41407.44
631.687	41524.73
632.041	41280.44
632.396	41302.13
632.75	41177.39
633.104	41237.96
633.459	41201.8
633.813	41341.23
634.167	41224.85
634.521	41275.02
634.875	41363.15
635.229	41230.72
635.583	41202.02
635.937	41210.61
636.291	41055.81
636.645	41252.87
636.999	41155.25
637.352	41240.22
637.706	40939.88
638.06	41111.4
638.413	41171.06
638.767	41002.93
639.121	41029.83
639.474	40857.4
639.828	40884.97
640.181	40783.28
640.534	40990.5
640.888	40740.79
641.241	40720
641.594	40864.41
641.947	41049.49
642.301	40859.66
642.654	40824.63
643.007	41002.93
643.36	40874.8
643.713	40788.48
644.066	41021.92
644.419	40606.79
644.771	40502.83
645.124	40017.65
645.477	40183.29
645.83	39798.9
646.182	39556.19
646.535	39559.13
646.888	39715.06
647.24	39488.85
647.593	39738.79
647.945	39726.36
648.298	39450.66
648.65	39383.99
649.002	39304.9
649.355	39517.32
649.707	39450.88
650.059	39623.53
650.411	40050.64
650.763	40017.65
651.115	40446.34
651.467	40373.35
651.819	40308.26
652.171	40242.28
652.523	40099.45
652.875	40049.29
653.227	39986.46
653.578	40338.32
653.93	40121.15
654.282	40080.92
654.633	39908.5
654.985	39979.23
655.337	39916.63
655.688	40010.42
656.039	40137.19
656.391	39839.57
656.742	40072.11
657.094	40081.6
657.445	40084.99
657.796	39966.12
658.147	39965.67
658.498	39675.06
658.849	39916.63
659.2	39837.77
659.551	39821.04
659.902	39890.87
660.253	39818.78
660.604	39846.35
660.955	39767.26
661.306	39801.38
661.656	39729.75
662.007	39732.91
662.358	39840.03
662.708	39835.05
663.059	39903.98
663.409	39438.91
663.76	39832.57
664.11	39764.77
664.461	39905.33
664.811	39898.78
665.161	39729.75
665.511	39646.36
665.862	39750.76
666.212	39829.63
666.562	39714.61
666.912	39690.43
667.262	39720.71
667.612	39750.54
667.962	39701.27
668.312	39689.97
668.662	39856.07
669.011	39782.4
669.361	39609.98
669.711	39650.2
670.06	39507.61
670.41	39610.43
670.76	39452.47
671.109	39566.36
671.459	39606.59
671.808	39416.53
672.157	39617.66
672.507	39328.17
672.856	39330.43
673.205	39431.9
673.554	39553.25
673.904	39393.94
674.253	39579.24
674.602	39517.1
674.951	39024.68
675.3	38862.65
675.649	39381.73
675.998	39342.86
676.346	39301.51
676.695	39431.68
677.044	39168.86
677.393	39216.54
677.741	39340.6
678.09	39182.87
678.438	39165.47
678.787	39216.77
679.135	39098.58
679.484	38969.31
679.832	39010.44
680.181	38717.34
680.529	39069.65
680.877	38750.79
681.225	38787.4
681.573	39077.33
681.922	38739.94
682.27	38469.67
682.618	38637.35
682.966	38544.01
683.314	38520.06
683.661	38425.83
684.009	38376.11
684.357	38247.53
684.705	38259.5
685.053	38228.77
685.4	38124.59
685.748	37953.07
686.095	38055.67
686.443	37885.28
686.79	37738.16
687.138	37928.21
687.485	37802.34
687.832	37742.23
688.18	37770.48
688.527	37636.92
688.874	37584.72
689.221	37397.15
689.568	37421.11
689.915	37262.92
690.262	37313.76
690.609	37282.58
690.956	37020.44
691.303	37127.33
691.65	36941.35
691.997	36992.64
692.344	36798.3
692.69	36776.6
693.037	36728.7
693.383	36282.15
693.73	36549.72
694.077	36305.88
694.423	36388.59
694.769	36222.49
695.116	36063.63
695.462	36183.17
695.808	36072.89
696.155	36108.6
696.501	35741.83
696.847	35841.49
697.193	35609.85
697.539	35764.65
697.885	35372.57
698.231	35280.37
698.577	35343.19
698.923	35340.48
699.269	35051
699.614	34995.63
699.96	34866.6
700.306	35081.96
700.651	34725.13
700.997	34560.16
701.342	34639.26
701.688	34594.74
702.033	34468.64
702.379	34394.29
702.724	34443.11
703.069	34395.42
703.415	33926.06
703.76	34109.78
704.105	34135.09
704.45	33926.06
704.795	33717.48
705.14	33684.48
705.485	33733.29
705.83	33549.57
706.175	33565.16
706.52	33456.46
706.865	33384.38
707.209	33361.1
707.554	33151.16
707.899	33199.97
708.243	33095.57
708.588	32952.52
708.932	32837.5
709.277	32943.26
709.621	32880.89
709.966	32506.43
710.31	32698.29
710.654	32435.02
710.998	32521.35
711.342	32514.34
711.687	32360.9
712.031	32248.36
712.375	32114.58
712.719	32183.73
713.063	32228.7
713.407	32175.82
713.75	31978.99
714.094	31788.03
714.438	31846.79
714.782	31813.8
715.125	31674.59
715.469	31688.38
715.812	31608.15
716.156	31353.24
716.499	31549.17
716.843	31485.44
717.186	31355.5
717.53	31367.71
717.873	31290.65
718.216	31362.28
718.559	31123.87
718.902	31037.09
719.246	30924.1
719.589	30861.73
719.932	30790.09
720.275	30827.38
720.617	30796.87
720.96	30735.86
721.303	30787.61
721.646	30769.53
721.989	30562.08
722.331	30658.12
722.674	30550.78
723.016	30582.19
723.359	30475.75
723.701	30607.27
724.044	30341.97
724.386	30254.52
724.729	30272.37
725.071	30276.66
725.413	30188.3
725.755	30088.42
726.097	30053.39
726.439	29943.34
726.782	29973.84
727.124	30039.61
727.465	29893.85
727.807	29827.18
728.149	29804.36
728.491	29671.71
728.833	29785.15
729.175	29556.68
729.516	29549
729.858	29603.23
730.199	29604.36
730.541	29505.16
730.882	29489.79
731.224	29555.1
731.565	29295.44
731.906	29226.75
732.248	29312.39
732.589	29138.16
732.93	28994.44
733.271	29215.22
733.612	29111.27
733.953	29173.64
734.294	28865.17
734.635	28937.94
734.976	28975.45
735.317	28810.03
735.658	28807.32
735.999	28843.48
736.339	28777.27
736.68	28928.67
737.021	28680.32
737.361	28582.24
737.702	28683.48
738.042	28678.74
738.383	28534.11
738.723	28627.21
739.063	28451.85
739.404	28573.43
739.744	28314.91
740.084	28254.34
740.424	28336.6
740.764	28303.61
741.104	28260.9
741.444	28190.84
741.784	28071.52
742.124	28126.66
742.464	28191.29
742.804	28104.29
743.143	27898.64
743.483	27983.16
743.823	27871.75
744.162	27789.5
744.502	27833.56
744.841	27698.2
745.181	27807.12
745.52	27686.9
745.86	27768.7
746.199	27573
746.538	27566
746.877	27648.26
747.216	27524.42
747.556	27488.71
747.895	27556.96
748.234	27368.49
748.573	27414.82
748.911	27344.31
749.25	27259.79
749.589	27086.01
749.928	27240.58
750.267	27234.03
750.605	27109.74
750.944	27047.82
751.283	27018.89
751.621	26991.32
751.96	26964.88
752.298	26894.83
752.636	26954.49
752.975	26800.59
753.313	26737.09
753.651	26732.12
753.989	26599.47
754.327	26655.97
754.666	26551.56
755.004	26482.64
755.342	26554.05
755.679	26497.55
756.017	26208.52
756.355	26364
756.693	26138.47
757.031	26249.65
757.368	26044.91
757.706	26019.82
758.044	25986.6
758.381	25984.35
758.719	25897.79
759.056	25868.87
759.394	25706.39
759.731	25535.54
760.068	25598.82
760.405	25509.33
760.743	25412.83
761.08	25447.64
761.417	25310.69
761.754	25248.09
762.091	25232.27
762.428	25190.69
762.765	24961.1
763.102	25052.39
763.438	24877.03
763.775	24852.62
764.112	24815.11
764.449	24873.19
764.785	24778.28
765.122	24581.9
765.458	24506.64
765.795	24460.54
766.131	24395.01
766.467	24291.28
766.804	24142.36
767.14	24057.16
767.476	23988.47
767.812	23976.04
768.148	24034.11
768.485	23870.95
768.821	23717.29
769.157	23625.09
769.492	23629.15
769.828	23507.12
770.164	23313.91
770.5	23397.07
770.836	23445.88
771.171	23163.4
771.507	23101.93
771.842	22996.4
772.178	22976.97
772.513	22752.57
772.849	22776.07
773.184	22751.66
773.519	22764.99
773.855	22554.38
774.19	22488.17
774.525	22432.35
774.86	22381.05
775.195	22290.2
775.53	22268.06
775.865	22112.13
776.2	21828.52
776.535	21842.31
776.87	21806.15
777.205	21792.14
777.539	21706.49
777.874	21704.23
778.209	21472.83
778.543	21419.27
778.878	21327.52
779.212	21231.93
779.547	21136.56
779.881	21207.75
780.215	21048.43
780.55	21127.07
780.884	20887.08
781.218	20896.57
781.552	20886.4
781.886	20793.3
782.22	20529.12
782.554	20589.46
782.888	20512.4
783.222	20422.23
783.556	20277.38
783.889	20168.68
784.223	20065.18
784.557	20121
784.89	20052.75
785.224	19916.71
785.557	19868.35
785.891	19882.81
786.224	19717.84
786.558	19701.8
786.891	19608.02
787.224	19528.7
787.557	19480.34
787.891	19408.02
788.224	19284.41
788.557	19293.22
788.89	19171.42
789.223	19330.06
789.556	19024.75
789.888	18993.57
790.221	18966.68
790.554	18892.55
790.887	18781.82
791.219	18807.13
791.552	18653.69
791.884	18599
792.217	18606.01
792.549	18429.29
792.882	18394.26
793.214	18317.88
793.546	18355.85
793.879	18178.9
794.211	18108.17
794.543	18125.57
794.875	18067.94
795.207	18032.92
795.539	17983.2
795.871	17925.57
796.203	17712.92
796.535	17739.82
796.867	17716.77
797.198	17721.96
797.53	17610.55
797.862	17527.62
798.193	17483.78
798.525	17404.91
798.856	17453.04
799.188	17228.87
799.519	17328.08
799.85	17109.55
800.182	17067.74
800.513	17145.26
800.844	16966.28
801.175	17013.73
801.506	16947.97
801.837	16943.23
802.168	16881.76
802.499	16745.27
802.83	16757.69
803.161	16693.97
803.491	16682.67
803.822	16702.33
804.153	16562.9
804.483	16434.09
804.814	16344.6
805.145	16386.86
805.475	16272.74
805.805	16295.33
806.136	16314.77
806.466	16275.9
806.796	16191.38
807.126	16070.26
807.457	16018.05
807.787	16037.04
808.117	16003.36
808.447	15912.29
808.777	15909.58
809.107	15797.27
809.436	15793.2
809.766	15790.26
810.096	15692.19
810.426	15620.78
810.755	15618.06
811.085	15661.45
811.414	15523.83
811.744	15487.67
812.073	15434.57
812.403	15390.27
812.732	15395.02
813.061	15399.99
813.39	15280.9
813.719	15226.89
814.049	15256.72
814.378	15094.01
814.707	15187.79
815.036	15090.62
815.365	15041.13
815.693	14923.17
816.022	14916.39
816.351	14913.22
816.68	14803.62
817.008	14938.53
817.337	14745.32
817.665	14723.17
817.994	14683.63
818.322	14690.4
818.651	14643.63
818.979	14665.77
819.307	14589.62
819.636	14527.92
819.964	14438.66
820.292	14508.49
820.62	14484.31
820.948	14526.79
821.276	14539.9
821.604	14421.71
821.932	14392.79
822.259	14404.99
822.587	14323.41
822.915	14338.55
823.243	14423.52
823.57	14357.31
823.898	14370.64
824.225	14357.76
824.553	14318.21
824.88	14316.63
825.207	14391.66
825.535	14310.08
825.862	14463.97
826.189	14330.87
826.516	14381.71
826.843	14422.84
827.17	14399.56
827.497	14403.18
827.824	14296.06
828.151	14385.78
828.478	14376.97
828.805	14365.22
829.131	14269.85
829.458	14330.87
829.785	14297.87
830.111	14262.85
830.438	14307.14
830.764	14359.57
831.09	14314.82
831.417	14216.07
831.743	14268.95
832.069	14305.56
832.395	14234.82
832.722	14255.61
833.048	14289.51
833.374	14153.7
833.7	14126.58
834.026	14240.7
834.351	14228.95
834.677	14135.62
835.003	14106.24
835.329	14124.77
835.654	14116.41
835.98	14049.52
836.306	14125.22
836.631	14021.04
836.956	14107.37
837.282	14070.08
837.607	14019.46
837.932	13948.05
838.258	13886.81
838.583	13938.56
838.908	13853.59
839.233	13957.54
839.558	13878
839.883	13762.29
840.208	13772.69
840.533	13814.27
840.858	13744.67
841.182	13787.83
841.507	13705.8
841.832	13634.61
842.156	13606.37
842.481	13594.16
842.805	13639.36
843.13	13595.97
843.454	13534.73
843.778	13575.41
844.103	13458.35
844.427	13398.24
844.751	13417.44
845.075	13275.98
845.399	13302.64
845.723	13287.96
846.047	13203.89
846.371	13089.77
846.695	13119.82
847.019	13070.11
847.343	12952.15
847.666	12912.82
847.99	12908.76
848.313	12898.59
848.637	12783.56
848.96	12789.66
849.284	12689.78
849.607	12651.14
849.931	12620.18
850.254	12537.69
850.577	12515.77
850.9	12399.17
851.223	12375.21
851.546	12346.06
851.869	12295.67
852.192	12335.44
852.515	12140.64
852.838	12172.73
853.161	12119.85
853.483	12073.07
853.806	12000.76
854.129	12016.58
854.451	11967.54
854.774	11850.25
855.096	11838.95
855.419	11729.8
855.741	11770.71
856.063	11748.79
856.385	11689.35
856.708	11649.58
857.03	11630.6
857.352	11630.82
857.674	11585.18
857.996	11473.77
858.318	11465.4
858.64	11471.73
858.961	11380.21
859.283	11415.01
859.605	11314.9
859.926	11368.46
860.248	11310.15
860.57	11280.55
860.891	11282.81
861.212	11181.57
861.534	11146.77
861.855	11149.25
862.176	11157.84
862.498	11085.98
862.819	11130.72
863.14	11175.69
863.461	11103.38
863.782	11024.51
864.103	11058.18
864.424	10975.02
864.745	10981.8
865.065	10940.9
865.386	10879.43
865.707	10963.95
866.027	10931.41
866.348	10914.46
866.668	10857.74
866.989	10881.69
867.309	10765.08
867.63	10809.38
867.95	10805.99
868.27	10746.78
868.59	10683.28
868.91	10733.67
869.23	10752.2
869.55	10580
869.87	10740.23
870.19	10690.28
870.51	10647.35
870.83	10647.12
871.15	10561.7
871.469	10638.99
871.789	10546.56
872.109	10578.2
872.428	10504.98
872.748	10567.35
873.067	10501.59
873.386	10486.45
873.706	10444.64
874.025	10419.78
874.344	10358.54
874.663	10438.77
874.982	10429.05
875.301	10377.52
875.62	10313.12
875.939	10314.02
876.258	10325.32
876.577	10326.45
876.896	10228.38
877.214	10287.36
877.533	10255.27
877.852	10239.9
878.17	10228.38
878.489	10196.74
878.807	10129.85
879.125	10170.98
879.444	10095.05
879.762	10098.44
880.08	10144.31
880.398	10149.06
880.716	10085.1
881.034	10085.33
881.352	10022.5
881.67	10018.44
881.988	10016.4
882.306	10006.69
882.624	9906.8
882.941	9888.5
883.259	9821.15
883.577	9861.38
883.894	9816.63
884.212	9827.71
884.529	9830.65
884.846	9774.15
885.164	9760.59
885.481	9756.98
885.798	9712.23
886.115	9609.86
886.432	9598.56
886.75	9658.45
887.067	9695.73
887.383	9648.96
887.7	9586.58
888.017	9509.75
888.334	9551.56
888.651	9572.57
888.967	9497.09
889.284	9536.19
889.6	9399.24
889.917	9376.65
890.233	9370.09
890.55	9314.5
890.866	9387.95
891.182	9296.42
891.498	9298.91
891.815	9201.28
892.131	9184.79
892.447	9171.45
892.763	9114.96
893.079	9119.7
893.395	9047.39
893.71	9099.14
894.026	9095.07
894.342	9088.52
894.657	9008.29
894.973	9016.66
895.289	8912.7
895.604	9023.66
895.92	8875.42
896.235	8865.93
896.55	8887.85
896.865	8813.27
897.181	8799.26
897.496	8703.44
897.811	8711.35
898.126	8678.81
898.441	8627.06
898.756	8662.54
899.071	8591.13
899.386	8577.57
899.7	8498.48
900.015	8446.5
900.33	8438.59
900.644	8392.27
900.959	8392.94
901.273	8355.2
901.588	8329.89
901.902	8271.36
902.216	8250.35
902.531	8229.11
902.845	8248.77
903.159	8193.17
903.473	8126.28
903.787	8149.79
904.101	8073.4
904.415	8054.65
904.729	8049.9
905.042	7994.31
905.356	8030.24
905.67	8009
905.984	7988.66
906.297	7903.46
906.611	7834.09
906.924	7857.59
907.237	7784.6
907.551	7790.25
907.864	7789.57
908.177	7765.62
908.491	7670.02
908.804	7710.7
909.117	7622.12
909.43	7621.21
909.743	7529.01
910.056	7559.97
910.368	7497.15
910.681	7444.04
910.994	7498.28
911.307	7438.39
911.619	7388
911.932	7444.04
912.244	7361.78
912.557	7290.15
912.869	7251.28
913.181	7220.09
913.494	7244.27
913.806	7175.12
914.118	7175.12
914.43	7135.35
914.742	7088.12
915.054	7051.28
915.366	7039.98
915.678	6980.1
915.99	6995.47
916.302	6941.91
916.613	6934.68
916.925	6857.62
917.236	6907.78
917.548	6840.22
917.859	6821.01
918.171	6743.5
918.482	6773.32
918.794	6716.83
919.105	6718.86
919.416	6633.89
919.727	6647.9
920.038	6607.68
920.349	6569.71
920.66	6542.14
920.971	6528.13
921.282	6566.78
921.593	6418.31
921.903	6360.68
922.214	6387.8
922.525	6384.18
922.835	6340.12
923.146	6307.35
923.456	6300.34
923.767	6210.18
924.077	6323.85
924.387	6235.94
924.697	6191.65
925.008	6198.2
925.318	6157.75
925.628	6140.8
925.938	6086.56
926.248	6005.66
926.558	6040.46
926.867	5977.41
927.177	5990.52
927.487	5943.52
927.796	5942.61
928.106	5891.31
928.416	5871.65
928.725	5906.68
929.034	5826.91
929.344	5843.41
929.653	5761.6
929.962	5731.09
930.271	5715.95
930.581	5721.83
930.89	5720.47
931.199	5677.08
931.508	5671.88
931.817	5669.17
932.125	5613.13
932.434	5579.46
932.743	5567.03
933.051	5516.63
933.36	5534.94
933.669	5485.45
933.977	5475.96
934.286	5463.75
934.594	5434.15
934.902	5397.77
935.21	5369.07
935.519	5372.01
935.827	5355.73
936.135	5303.76
936.443	5257.43
936.751	5231.67
937.059	5244.33
937.367	5171.56
937.674	5170.43
937.982	5165.68
938.29	5082.3
938.597	5107.15
938.905	5052.01
939.213	5040.26
939.52	5055.86
939.827	5036.2
940.135	5038
940.442	5042.97
940.749	4982.19
941.056	4977.89
941.363	4948.06
941.67	4890.44
941.977	4895.63
942.284	4836.43
942.591	4822.19
942.898	4826.94
943.205	4820.61
943.511	4800.27
943.818	4816.99
944.125	4711.46
944.431	4679.59
944.738	4676.66
945.044	4705.81
945.35	4639.14
945.657	4633.49
945.963	4620.61
946.269	4571.57
946.575	4591.69
946.881	4550.11
947.187	4530.45
947.493	4499.26
947.799	4535.19
948.105	4450.67
948.41	4421.3
948.716	4423.56
949.022	4392.37
949.327	4429.88
949.633	4334.52
949.938	4366.16
950.244	4346.95
950.549	4295.2
950.854	4337
951.16	4300.62
951.465	4266.5
951.77	4249.78
952.075	4243
952.38	4231.7
952.685	4221.3
952.99	4165.26
953.294	4151.25
953.599	4165.03
953.904	4137.91
954.209	4086.16
954.513	4059.27
954.818	4055.88
955.122	4039.61
955.426	4075.09
955.731	4011.36
956.035	3992.38
956.339	3989.67
956.643	3979.27
956.948	3940.18
957.252	3906.96
957.556	3944.7
957.86	3892.72
958.163	3895.43
958.467	3886.62
958.771	3843.46
959.075	3834.64
959.378	3819.73
959.682	3799.39
959.985	3811.14
960.289	3770.69
960.592	3737.25
960.896	3751.03
961.199	3698.15
961.502	3689.34
961.805	3688.21
962.108	3634.88
962.411	3662.22
962.714	3624.25
963.017	3617.25
963.32	3565.73
963.623	3588.1
963.926	3564.37
964.228	3549.23
964.531	3553.97
964.833	3529.34
965.136	3513.98
965.438	3496.57
965.741	3504.94
966.043	3471.72
966.345	3401.44
966.648	3424.71
966.95	3440.31
967.252	3423.58
967.554	3366.86
967.856	3399.18
968.158	3365.5
968.46	3344.26
968.761	3340.19
969.063	3351.49
969.365	3312.4
969.666	3273.76
969.968	3272.63
970.269	3280.54
970.571	3262
970.872	3241.44
971.174	3219.75
971.475	3172.74
971.776	3182.01
972.077	3175.23
972.378	3132.74
972.679	3152.4
972.98	3138.84
973.281	3164.15
973.582	3135.23
973.883	3098.39
974.183	3083.93
974.484	3090.71
974.785	3043.03
975.085	3061.78
975.386	3037.6
975.686	3043.71
975.986	2968
976.287	3022.01
976.587	2958.06
976.887	2930.94
977.187	2926.65
977.487	2963.71
977.787	2947.21
978.087	2883.94
978.387	2908.79
978.687	2891.62
978.987	2868.12
979.286	2836.03
979.586	2848.68
979.885	2846.87
980.185	2854.78
980.484	2813.43
980.784	2811.17
981.083	2828.34
981.382	2759.19
981.682	2771.62
981.981	2779.53
982.28	2743.37
982.579	2707.67
982.878	2730.72
983.177	2704.05
983.475	2732.75
983.774	2686.65
984.073	2685.07
984.372	2635.58
984.67	2643.94
984.969	2631.74
985.267	2648.24
985.566	2636.03
985.864	2647.33
986.162	2584.06
986.461	2557.84
986.759	2556.26
987.057	2567.33
987.355	2556.03
987.653	2539.09
987.951	2530.27
988.249	2535.47
988.547	2528.46
988.844	2494.57
989.142	2497.05
989.44	2429.03
989.737	2456.15
990.035	2437.85
990.332	2435.59
990.63	2395.59
990.927	2408.24
991.224	2408.47
991.521	2395.13
991.819	2385.19
992.116	2388.58
992.413	2355.14
992.71	2358.53
993.006	2313.78
993.303	2309.94
993.6	2325.53
993.897	2363.05
994.193	2321.46
994.49	2276.72
994.787	2304.97
995.083	2234.01
995.379	2231.07
995.676	2226.55
995.972	2212.99
996.268	2236.49
996.565	2207.57
996.861	2176.16
997.157	2168.7
997.453	2182.94
997.749	2114.01
998.044	2168.7
998.34	2154.69
998.636	2112.2
998.932	2139.1
999.227	2109.04
999.523	2120.11
999.818	2082.83
1000.114	2074.24
1000.409	2047.12
1000.704	2066.33
1001	2060.68
1001.295	2049.61
1001.59	2036.95
1001.885	1990.63
1002.18	2018.87
1002.475	1989.95
1002.77	1960.8
1003.065	1935.49
1003.359	1960.12
1003.654	1944.98
1003.949	1933
1004.243	1933
1004.538	1930.06
1004.832	1916.28
1005.127	1902.04
1005.421	1893.23
1005.715	1878.09
1006.009	1872.44
1006.304	1854.36
1006.598	1838.31
1006.892	1835.38
1007.186	1838.99
1007.48	1816.17
1007.773	1789.27
1008.067	1793.57
1008.361	1793.12
1008.655	1770.07
1008.948	1757.41
1009.242	1757.86
1009.535	1726.45
1009.829	1761.93
1010.122	1746.11
1010.415	1729.62
1010.708	1700.46
1011.001	1727.13
1011.295	1676.06
1011.588	1655.04
1011.881	1636.06
1012.173	1656.85
1012.466	1629.28
1012.759	1628.15
1013.052	1604.65
1013.344	1640.35
1013.637	1613.23
1013.93	1597.87
1014.222	1600.13
1014.514	1583.18
1014.807	1591.54
1015.099	1567.36
1015.391	1568.04
1015.683	1566.23
1015.976	1534.37
1016.268	1562.61
1016.56	1503.41
1016.851	1527.81
1017.143	1484.88
1017.435	1488.94
1017.727	1467.02
1018.018	1478.77
1018.31	1479.23
1018.602	1481.49
1018.893	1445.56
1019.185	1416.86
1019.476	1409.62
1019.767	1430.87
1020.058	1424.76
1020.35	1392.68
1020.641	1372.79
1020.932	1371.21
1021.223	1378.21
1021.514	1373.01
1021.804	1362.62
1022.095	1354.71
1022.386	1366.91
1022.677	1319
1022.967	1313.13
1023.258	1324.65
1023.548	1318.1
1023.839	1323.07
1024.129	1307.93
1024.419	1288.95
1024.709	1243.3
1025	1259.35
1025.29	1248.72
1025.58	1250.76
1025.87	1244.43
1026.16	1187.26
1026.449	1241.94
1026.739	1218.44
1027.029	1209.4
1027.319	1210.31
1027.608	1192.45
1027.898	1183.19
1028.187	1205.11
1028.477	1154.94
1028.766	1178.22
1029.055	1159.24
1029.344	1171.66
1029.634	1113.59
1029.923	1130.08
1030.212	1127.37
1030.501	1137.31
1030.79	1130.31
1031.078	1114.94
1031.367	1073.81
1031.656	1106.13
1031.945	1084.21
1032.233	1090.76
1032.522	1073.14
1032.81	1065.23
1033.099	1056.19
1033.387	1074.04
1033.675	1033.81
1033.963	1020.93
1034.251	1017.09
1034.54	1026.36
1034.828	1034.27
1035.116	1038.33
1035.403	1005.57
1035.691	1003.53
1035.979	988.62
1036.267	992.91
1036.554	996.75
1036.842	996.98
1037.129	983.87
1037.417	969.86
1037.704	966.7
1037.992	948.62
1038.279	914.95
1038.566	943.65
1038.853	943.65
1039.14	943.65
