Data from hue_130_FLMS001491_00035.txt Node
Date: Tue Feb 07 16:57:31 GMT 2017
User: dcchb
Spectrometer: FLMS00149
Trigger mode: 0
Integration Time (sec): 2.000000E-2
Scans to average: 10
Electric dark correction enabled: true
Nonlinearity correction enabled: false
Boxcar width: 0
XAxis mode: Wavelengths
Number of Pixels in Spectrum: 2048
>>>>>Begin Spectral Data<<<<<
341.393	6.81
341.776	6.81
342.16	6.81
342.543	-64.6
342.927	-56.47
343.31	-71.61
343.693	-60.99
344.077	-56.24
344.46	-67.77
344.843	-51.72
345.226	-56.47
345.61	-17.15
345.993	-26.86
346.376	6.81
346.759	-1.55
347.142	31.21
347.525	52.46
347.908	69.63
348.291	70.76
348.674	77.54
349.057	101.95
349.44	127.93
349.823	133.81
350.206	165.9
350.588	212.9
350.971	228.04
351.354	223.07
351.737	244.32
352.119	246.58
352.502	247.71
352.884	272.11
353.267	307.82
353.65	292
354.032	299.91
354.414	289.96
354.797	310.3
355.179	320.02
355.562	307.82
355.944	334.26
356.326	335.39
356.709	334.03
357.091	344.88
357.473	341.26
357.855	339.45
358.238	342.17
358.62	315.95
359.002	347.36
359.384	341.71
359.766	333.13
360.148	351.66
360.53	347.36
360.912	353.47
361.294	328.61
361.676	334.48
362.057	332
362.439	332.67
362.821	352.56
363.203	352.56
363.584	329.96
363.966	353.01
364.348	346.01
364.729	323.41
365.111	329.74
365.493	323.64
365.874	313.01
366.256	307.14
366.637	298.55
367.019	306.23
367.4	302.85
367.781	311.66
368.163	343.3
368.544	313.24
368.925	306.91
369.306	330.19
369.688	293.13
370.069	292.45
370.45	339
370.831	311.21
371.212	314.37
371.593	297.87
371.974	318.89
372.355	322.05
372.736	337.19
373.117	296.52
373.498	313.24
373.879	336.29
374.26	323.86
374.641	298.1
375.021	315.95
375.402	313.47
375.783	336.74
376.163	318.89
376.544	326.12
376.925	336.52
377.305	343.07
377.686	326.12
378.066	329.51
378.447	346.01
378.827	330.87
379.208	316.63
379.588	357.98
379.968	328.83
380.349	349.17
380.729	334.26
381.109	323.86
381.489	327.7
381.87	324.09
382.25	341.04
382.63	353.47
383.01	344.88
383.39	319.79
383.77	356.4
384.15	341.71
384.53	336.74
384.91	343.3
385.29	353.01
385.67	337.19
386.049	363.63
386.429	361.6
386.809	341.26
387.189	350.3
387.568	372
387.948	380.13
388.328	366.57
388.707	351.88
389.087	354.37
389.466	372.22
389.846	390.53
390.225	388.72
390.605	356.4
390.984	389.85
391.363	376.74
391.743	357.31
392.122	376.97
392.501	382.17
392.881	369.28
393.26	378.1
393.639	355.5
394.018	378.55
394.397	370.41
394.776	369.96
395.155	393.46
395.534	381.94
395.913	384.42
396.292	401.6
396.671	379.91
397.05	391.43
397.429	394.82
397.808	393.24
398.186	393.69
398.565	398.44
398.944	375.39
399.323	391.88
399.701	413.12
400.08	400.7
400.458	418.55
400.837	421.03
401.215	425.78
401.594	404.54
401.972	438.66
402.351	420.81
402.729	407.93
403.107	416.51
403.486	400.7
403.864	413.12
404.242	416.06
404.62	411.54
404.999	405.89
405.377	423.52
405.755	414.25
406.133	423.52
406.511	433.69
406.889	421.94
407.267	449.73
407.645	437.3
408.023	442.05
408.401	449.51
408.779	462.16
409.156	452.9
409.534	469.17
409.912	459.45
410.29	450.41
410.667	476.63
411.045	474.14
411.422	459.9
411.8	464.65
412.178	487.25
412.555	459.45
412.933	499.22
413.31	495.16
413.687	489.96
414.065	493.35
414.442	491.99
414.819	489.51
415.197	488.83
415.574	494.7
415.951	505.55
416.328	488.15
416.705	503.97
417.082	501.03
417.46	520.92
417.837	531.09
418.214	514.14
418.591	511.65
418.967	504.87
419.344	516.17
419.721	522.73
420.098	513.91
420.475	527.7
420.852	557.53
421.228	525.66
421.605	549.17
421.982	562.27
422.358	553.46
422.735	544.87
423.111	548.49
423.488	578.77
423.864	575.15
424.241	575.83
424.617	586.23
424.994	555.95
425.37	608.15
425.746	562.27
426.123	592.78
426.499	584.19
426.875	617.87
427.251	600.01
427.627	607.47
428.003	598.88
428.379	633.46
428.756	638.2
429.132	632.55
429.507	619.45
429.883	645.89
430.259	617.41
430.635	639.11
431.011	658.54
431.387	666.68
431.763	659.67
432.138	656.96
432.514	658.99
432.89	697.41
433.265	685.21
433.641	691.99
434.016	711.2
434.392	706
434.767	709.39
435.143	724.3
435.518	711.65
435.894	720.01
436.269	733.34
436.644	731.99
437.02	731.53
437.395	762.49
437.77	769.95
438.145	776.73
438.52	770.63
438.895	776.96
439.271	793.45
439.646	795.71
440.021	813.11
440.395	823.06
440.77	775.83
441.145	821.25
441.52	809.05
441.895	828.26
442.27	835.71
442.645	823.28
443.019	847.46
443.394	845.43
443.769	831.64
444.143	851.98
444.518	824.64
444.892	857.63
445.267	865.54
445.641	876.39
446.016	877.07
446.39	877.07
446.764	898.31
447.139	880.01
447.513	890.17
447.887	889.95
448.262	904.64
448.636	904.41
449.01	929.5
449.384	899.67
449.758	922.72
450.132	944.41
450.506	945.31
450.88	965.88
451.254	944.64
451.628	994.35
452.002	968.59
452.376	988.25
452.75	1004.07
453.123	1009.27
453.497	1001.81
453.871	1035.03
454.244	1032.54
454.618	1047.23
454.992	1055.82
455.365	1061.24
455.739	1103.05
456.112	1076.61
456.486	1091.98
456.859	1112.32
457.232	1136.27
457.606	1119.77
457.979	1156.16
458.352	1144.63
458.725	1183.5
459.099	1198.19
459.472	1216.72
459.845	1255.59
460.218	1244.97
460.591	1238.87
460.964	1261.92
461.337	1292.88
461.71	1290.16
462.083	1313.44
462.456	1322.03
462.829	1338.3
463.201	1340.78
463.574	1345.53
463.947	1378.07
464.32	1420.78
464.692	1433.44
465.065	1423.27
465.438	1481.8
465.81	1482.02
466.183	1514.79
466.555	1538.52
466.928	1539.2
467.3	1562.7
467.672	1565.64
468.045	1626.65
468.417	1640.21
468.789	1620.1
469.161	1672.07
469.534	1700.1
469.906	1761.34
470.278	1804.5
470.65	1778.06
471.022	1851.73
471.394	1903.26
471.766	1887.66
472.138	1952.29
472.51	1965.85
472.882	2010.82
473.253	2063.02
473.625	2099.18
473.997	2148.67
474.369	2150.48
474.74	2213.3
475.112	2288.78
475.484	2370.36
475.855	2408.33
476.227	2418.5
476.598	2525.16
476.97	2539.17
477.341	2656.23
477.713	2691.93
478.084	2754.31
478.455	2853.06
478.827	2888.54
479.198	2984.58
479.569	3051.25
479.94	3199.94
480.311	3183.67
480.682	3295.31
481.053	3430.45
481.424	3498.02
481.795	3570.78
482.166	3676.09
482.537	3765.35
482.908	3871.56
483.279	3965.35
483.65	4033.37
484.021	4187.04
484.391	4279.92
484.762	4390.42
485.133	4524.2
485.503	4605.33
485.874	4732.79
486.244	4835.83
486.615	4963.51
486.985	5091.65
487.356	5217.07
487.726	5315.59
488.097	5477.17
488.467	5546.55
488.837	5744.28
489.207	5849.14
489.578	6035.12
489.948	6142.24
490.318	6300.88
490.688	6374.55
491.058	6584.26
491.428	6750.36
491.798	6824.48
492.168	6985.38
492.538	7125.04
492.908	7287.75
493.278	7405.26
493.648	7487.06
494.017	7657.68
494.387	7786.04
494.757	7864.23
495.126	8074.17
495.496	8191.9
495.866	8271.68
496.235	8361.62
496.605	8574.49
496.974	8616.75
497.344	8739.46
497.713	8883.18
498.082	8992.79
498.452	9115.27
498.821	9238.88
499.19	9300.35
499.559	9419.89
499.928	9573.11
500.298	9663.95
500.667	9703.95
501.036	9830.05
501.405	9938.07
501.774	10032.53
502.143	10171.51
502.512	10167.44
502.88	10344.62
503.249	10397.04
503.618	10465.52
503.987	10555.68
504.356	10723.59
504.724	10721.55
505.093	10800.2
505.462	10896.69
505.83	10964.03
506.199	11034.99
506.567	11225.95
506.936	11228.43
507.304	11408.99
507.672	11439.05
508.041	11512.95
508.409	11658.93
508.777	11721.3
509.145	11831.13
509.514	11747.06
509.882	11875.2
510.25	11873.16
510.618	11948.19
510.986	12024.57
511.354	12051.91
511.722	12254.17
512.09	12216.88
512.458	12264.11
512.826	12419.59
513.193	12372.81
513.561	12535.97
513.929	12507.27
514.297	12616.65
514.664	12672.24
515.032	12650.32
515.4	12707.49
515.767	12776.19
516.135	12813.7
516.502	12776.42
516.869	13002.17
517.237	13027.26
517.604	13023.19
517.972	13029.74
518.339	13147.48
518.706	13006.92
519.073	13146.8
519.44	13128.27
519.808	13300.7
520.175	13240.36
520.542	13395.83
520.909	13441.26
521.276	13390.18
521.643	13518.77
522.009	13567.36
522.376	13525.1
522.743	13644.42
523.11	13657.52
523.477	13681.25
523.843	13730.51
524.21	13795.37
524.577	13855.94
524.943	13976.38
525.31	13944.97
525.676	13996.72
526.043	14060.45
526.409	14037.4
526.776	14120.56
527.142	14040.56
527.508	14119.43
527.874	14172.54
528.241	14192.42
528.607	14190.16
528.973	14270.61
529.339	14253.21
529.705	14288.24
530.071	14370.95
530.437	14303.83
530.803	14294.12
531.169	14327.79
531.535	14210.28
531.901	14304.28
532.267	14267.9
532.632	14311.52
532.998	14235.36
533.364	14390.38
533.73	14323.27
534.095	14254.34
534.461	14326.88
534.826	14345.64
535.192	14300.9
535.557	14412.76
535.923	14377.28
536.288	14371.4
536.653	14318.75
537.019	14134.12
537.384	14163.27
537.749	14252.99
538.114	14216.38
538.479	14161.69
538.845	14138.64
539.21	14069.26
539.575	14108.81
539.94	14018.64
540.305	14135.25
540.67	13945.65
541.034	14018.64
541.399	13965.54
541.764	14014.8
542.129	13991.3
542.494	13982.94
542.858	13901.13
543.223	13886.89
543.587	13895.03
543.952	13665.88
544.316	13705.66
544.681	13740.01
545.045	13735.49
545.41	13729.38
545.774	13790.4
546.138	13679.89
546.503	13660.23
546.867	13645.09
547.231	13617.3
547.595	13643.29
547.959	13584.3
548.324	13535.72
548.688	13475.15
549.052	13536.17
549.416	13511.54
549.779	13446.68
550.143	13351.54
550.507	13438.32
550.871	13364.2
551.235	13260.47
551.599	13313.58
551.962	13326.68
552.326	13256.4
552.689	13314.25
553.053	13183.64
553.417	13145.9
553.78	13337.53
554.143	13172.34
554.507	13178.66
554.87	13085.33
555.234	13258.44
555.597	13072.68
555.96	13058.22
556.323	13116.07
556.686	13029.06
557.05	13114.71
557.413	13060.02
557.776	13057.09
558.139	13017.54
558.502	13011.44
558.865	13034.26
559.228	13094.83
559.59	13112.23
559.953	13089.63
560.316	13130.3
560.679	13111.55
561.041	13114.71
561.404	13095.28
561.767	13106.12
562.129	13099.12
562.492	13151.32
562.854	13141.6
563.217	13107.03
563.579	13194.71
563.941	13067.03
564.304	13265.89
564.666	13172.56
565.028	13268.61
565.39	13231.09
565.753	13329.62
566.115	13228.38
566.477	13257.98
566.839	13334.37
567.201	13283.52
567.563	13306.12
567.925	13346.57
568.287	13318.1
568.648	13303.18
569.01	13292.79
569.372	13414.36
569.734	13372.56
570.095	13396.74
570.457	13481.03
570.819	13487.13
571.18	13398.09
571.542	13561.93
571.903	13443.52
572.265	13577.07
572.626	13556.96
572.987	13495.94
573.349	13558.32
573.71	13550.41
574.071	13575.49
574.432	13571.65
574.794	13635.83
575.155	13663.17
575.516	13534.59
575.877	13624.75
576.238	13478.54
576.599	13579.33
576.96	13607.13
577.32	13629.73
577.681	13664.3
578.042	13601.7
578.403	13615.94
578.763	13580.69
579.124	13598.09
579.485	13630.63
579.845	13646.68
580.206	13570.52
580.566	13710.18
580.927	13680.8
581.287	13638.54
581.648	13662.95
582.008	13705.2
582.368	13702.72
582.728	13672.21
583.089	13715.6
583.449	13660.46
583.809	13662.04
584.169	13669.73
584.529	13585.43
584.889	13722.38
585.249	13603.74
585.609	13536.17
585.969	13571.42
586.329	13546.34
586.688	13589.05
587.048	13534.81
587.408	13537.75
587.768	13502.72
588.127	13540.24
588.487	13419.11
588.846	13566.68
589.206	13432.9
589.565	13441.03
589.925	13527.58
590.284	13501.37
590.643	13504.76
591.003	13552.44
591.362	13461.37
591.721	13466.79
592.08	13403.97
592.44	13476.06
592.799	13526.45
593.158	13502.72
593.517	13425.89
593.876	13418.21
594.235	13462.05
594.593	13399.22
594.952	13427.7
595.311	13414.59
595.67	13359.9
596.029	13505.89
596.387	13402.16
596.746	13438.77
597.104	13370.52
597.463	13344.76
597.822	13357.42
598.18	13327.59
598.538	13321.49
598.897	13371.65
599.255	13306.8
599.613	13421.37
599.972	13465.89
600.33	13391.31
600.688	13284.42
601.046	13384.54
601.404	13471.54
601.762	13346.12
602.12	13380.69
602.478	13421.82
602.836	13415.04
603.194	13285.33
603.552	13357.64
603.91	13326.91
604.268	13356.06
604.625	13334.82
604.983	13469.05
605.341	13324.65
605.698	13367.13
606.056	13409.17
606.413	13325.33
606.771	13433.35
607.128	13378.43
607.485	13374.37
607.843	13374.59
608.2	13386.57
608.557	13381.15
608.914	13432.22
609.272	13481.26
609.629	13494.36
609.986	13568.49
610.343	13465.66
610.7	13528.71
611.057	13488.71
611.414	13517.64
611.771	13450.75
612.127	13481.71
612.484	13596.96
612.841	13600.12
613.198	13587.02
613.554	13654.81
613.911	13644.42
614.267	13535.04
614.624	13605.55
614.98	13604.42
615.337	13687.8
615.693	13646.9
616.05	13638.31
616.406	13725.09
616.762	13611.87
617.118	13690.97
617.475	13730.74
617.831	13831.98
618.187	13792.21
618.543	13683.06
618.899	13785.88
619.255	13769.38
619.611	13800.8
619.967	13786.78
620.323	13804.86
620.678	13807.57
621.034	13731.87
621.39	13719.67
621.746	13669.05
622.101	13890.06
622.457	13727.8
622.812	13700.91
623.168	13699.33
623.523	13739.33
623.879	13798.31
624.234	13663.4
624.589	13884.41
624.945	13798.54
625.3	13733.45
625.655	13800.57
626.01	13778.87
626.365	13748.37
626.72	13740.46
627.075	13836.95
627.43	13741.14
627.785	13825.88
628.14	13812.55
628.495	13852.55
628.85	13792.21
629.205	13682.83
629.559	13702.72
629.914	13699.78
630.269	13689.84
630.623	13669.73
630.978	13726.9
631.332	13702.27
631.687	13675.15
632.041	13660.69
632.396	13695.71
632.75	13604.64
633.104	13650.06
633.459	13539.56
633.813	13525.55
634.167	13509.05
634.521	13522.61
634.875	13564.87
635.229	13537.07
635.583	13490.52
635.937	13401.48
636.291	13445.55
636.645	13473.57
636.999	13294.37
637.352	13473.12
637.706	13282.39
638.06	13412.56
638.413	13391.99
638.767	13303.86
639.121	13364.2
639.474	13236.06
639.828	13279.23
640.181	13333.91
640.534	13327.36
640.888	13210.08
641.241	13171.21
641.594	13157.42
641.947	13317.87
642.301	13239.45
642.654	13275.39
643.007	13286.68
643.36	13177.31
643.713	13177.08
644.066	13200.13
644.419	13173.47
644.771	13108.61
645.124	13093.7
645.477	12909.29
645.83	12856.64
646.182	12935.28
646.535	12817.77
646.888	12824.32
647.24	12778.22
647.593	12805.12
647.945	12774.61
648.298	12639.02
648.65	12638.11
649.002	12615.52
649.355	12835.17
649.707	12774.38
650.059	12822.52
650.411	12946.35
650.763	12872.23
651.115	13092.57
651.467	13028.39
651.819	13029.29
652.171	12991.33
652.523	12945.22
652.875	13017.54
653.227	12928.05
653.578	13085.79
653.93	13043.3
654.282	12938.45
654.633	12923.08
654.985	12947.03
655.337	12985.22
655.688	13001.49
656.039	12940.93
656.391	12930.76
656.742	12932.8
657.094	12987.94
657.445	13022.96
657.796	13015.05
658.147	12916.98
658.498	12998.56
658.849	13001.27
659.2	13060.02
659.551	13017.99
659.902	12963.98
660.253	12977.54
660.604	13065.22
660.955	13074.71
661.306	13112.68
661.656	13019.57
662.007	13101.38
662.358	13000.59
662.708	13010.08
663.059	12992.68
663.409	12903.64
663.76	13049.18
664.11	12993.58
664.461	13063.87
664.811	13034.49
665.161	13062.51
665.511	12967.14
665.862	13048.95
666.212	13073.36
666.562	13075.84
666.912	13031.55
667.262	13051.21
667.612	13007.14
667.962	13034.71
668.312	13009.4
668.662	13095.5
669.011	13023.64
669.361	13005.11
669.711	13005.11
670.06	13018.67
670.41	13037.2
670.76	12881.5
671.109	13005.34
671.459	13011.21
671.808	12949.07
672.157	12965.11
672.507	12941.16
672.856	12954.72
673.205	12927.82
673.554	13048.05
673.904	12916.52
674.253	13004.88
674.602	12971.44
674.951	12818.45
675.3	12712.24
675.649	12878.56
675.998	12832.69
676.346	12935.73
676.695	12923.53
677.044	12720.15
677.393	12850.54
677.741	12854.61
678.09	12875.4
678.438	12726.02
678.787	12807.83
679.135	12816.41
679.484	12635.18
679.832	12778.22
680.181	12633.59
680.529	12772.12
680.877	12658.23
681.225	12611.22
681.573	12696.64
681.922	12603.54
682.27	12611.67
682.618	12556.76
682.966	12509.98
683.314	12507.27
683.661	12480.6
684.009	12455.75
684.357	12425.01
684.705	12477.21
685.053	12398.35
685.4	12378.46
685.748	12332.36
686.095	12233.83
686.443	12207.62
686.79	12158.35
687.138	12197
687.485	12262.3
687.832	12148.86
688.18	12198.35
688.527	12163.78
688.874	12056.66
689.221	11995.42
689.568	11994.06
689.915	11925.82
690.262	11947.28
690.609	12025.25
690.956	11917.23
691.303	11879.49
691.65	11825.03
691.997	11827.74
692.344	11823.45
692.69	11664.13
693.037	11670
693.383	11605.6
693.73	11657.35
694.077	11595.43
694.423	11488.77
694.769	11565.37
695.116	11460.74
695.462	11446.28
695.808	11399.73
696.155	11383.46
696.501	11289.45
696.847	11272.73
697.193	11226.85
697.539	11236.79
697.885	11121.54
698.231	11134.42
698.577	11124.03
698.923	11084.26
699.269	10986.18
699.614	10916.13
699.96	10897.59
700.306	10931.04
700.651	10776.92
700.997	10871.83
701.342	10760.2
701.688	10729.92
702.033	10738.28
702.379	10709.8
702.724	10646.3
703.069	10696.02
703.415	10501
703.76	10575.8
704.105	10532.41
704.45	10480.43
704.795	10327.89
705.14	10483.82
705.485	10367.67
705.83	10286.31
706.175	10313.88
706.52	10340.1
706.865	10215.58
707.209	10279.31
707.554	10215.13
707.899	10198.86
708.243	10155.92
708.588	10109.82
708.932	10064.62
709.277	10050.61
709.621	10061.68
709.966	9953.21
710.31	9985.53
710.654	9941.01
710.998	9948.47
711.342	9929.03
711.687	9823.72
712.031	9905.76
712.375	9775.14
712.719	9786.89
713.063	9787.79
713.407	9879.32
713.75	9739.21
714.094	9792.54
714.438	9679.77
714.782	9710.96
715.125	9648.59
715.469	9666.44
715.812	9704.41
716.156	9569.27
716.499	9577.86
716.843	9541.25
717.186	9476.39
717.53	9565.88
717.873	9538.53
718.216	9545.31
718.559	9520.23
718.902	9490.17
719.246	9468.71
719.589	9412.21
719.932	9367.01
720.275	9445.2
720.617	9401.14
720.96	9376.05
721.303	9399.1
721.646	9350.74
721.989	9377.86
722.331	9375.15
722.674	9333.57
723.016	9356.17
723.359	9292.44
723.701	9400.01
724.044	9190.97
724.386	9199.56
724.729	9218.77
725.071	9235.94
725.413	9255.15
725.755	9246.34
726.097	9165.66
726.439	9188.26
726.782	9155.95
727.124	9251.99
727.465	9125.66
727.807	9086.57
728.149	9166.79
728.491	9163.4
728.833	9126.79
729.175	9133.35
729.516	9173.35
729.858	9106
730.199	9109.17
730.541	9126.79
730.882	9139.45
731.224	9150.3
731.565	9049.28
731.906	9115.72
732.248	9100.58
732.589	9048.83
732.93	9047.25
733.271	9102.84
733.612	9054.25
733.953	9108.72
734.294	9033.24
734.635	9059.9
734.976	9084.08
735.317	9048.38
735.658	9120.69
735.999	9022.62
736.339	9054.93
736.68	9057.19
737.021	9077.08
737.361	9028.27
737.702	9138.32
738.042	9065.78
738.383	9095.61
738.723	9122.27
739.063	9042.5
739.404	9118.43
739.744	9137.19
740.084	9100.58
740.424	9162.27
740.764	9171.99
741.104	9194.59
741.444	9168.37
741.784	9130.86
742.124	9141.03
742.464	9128.38
742.804	9212.89
743.143	9219.22
743.483	9278.65
743.823	9277.52
744.162	9282.5
744.502	9314.13
744.841	9294.02
745.181	9442.04
745.52	9451.31
745.86	9505.54
746.199	9442.94
746.538	9499.89
746.877	9552.32
747.216	9611.75
747.556	9601.58
747.895	9708.02
748.234	9726.55
748.573	9776.27
748.911	9824.4
749.25	9870.73
749.589	9923.84
749.928	10003.38
750.267	10091.51
750.605	10106.66
750.944	10148.46
751.283	10212.42
751.621	10352.52
751.96	10372.64
752.298	10473.43
752.636	10595.23
752.975	10613.53
753.313	10717.71
753.651	10935.56
753.989	10965.62
754.327	11104.82
754.666	11117.48
755.004	11321.09
755.342	11428.43
755.679	11505.94
756.017	11629.1
756.355	11743
756.693	11885.59
757.031	12038.58
757.368	12106.15
757.706	12273.15
758.044	12384.79
758.381	12612.8
758.719	12690.77
759.056	12788.17
759.394	13004.21
759.731	13064.54
760.068	13246.01
760.405	13355.84
760.743	13518.77
761.08	13698.88
761.417	13887.8
761.754	14008.7
762.091	14082.82
762.428	14278.52
762.765	14444.17
763.102	14565.52
763.438	14716.48
763.775	14793.99
764.112	15033.98
764.449	15274.88
764.785	15201.89
765.122	15335.22
765.458	15529.79
765.795	15671.25
766.131	15855.2
766.467	15905.6
766.804	16002.09
767.14	16193.27
767.476	16393.04
767.812	16379.94
768.148	16604.11
768.485	16711.23
768.821	16729.31
769.157	16800.26
769.492	16979.47
769.828	17036.42
770.164	17129.07
770.5	17260.82
770.836	17358.89
771.171	17411.32
771.507	17544.88
771.842	17527.25
772.178	17595.5
772.513	17751.43
772.849	17832.1
773.184	17786.68
773.519	17857.19
773.855	17994.58
774.19	18013.34
774.525	18073.9
774.86	18183.96
775.195	18211.3
775.53	18173.79
775.865	18213.56
776.2	18237.51
776.535	18195.03
776.87	18219.21
777.205	18328.59
777.539	18320
777.874	18468.24
778.209	18419.88
778.543	18443.84
778.878	18297.85
779.212	18395.93
779.547	18432.54
779.881	18520.45
780.215	18467.34
780.55	18559.77
780.884	18500.56
781.218	18467.79
781.552	18600.67
781.886	18457.85
782.22	18526.32
782.554	18444.52
782.888	18454.91
783.222	18340.79
783.556	18401.13
783.889	18373.1
784.223	18244.07
784.557	18297.85
784.89	18364.74
785.224	18381.24
785.557	18270.51
785.891	18242.49
786.224	18176.95
786.558	18235.71
786.891	18161.58
787.224	18123.85
787.557	18126.33
787.891	18098.54
788.224	18165.65
788.557	18153.9
788.89	18037.97
789.223	18218.76
789.556	17990.06
789.888	18046.11
790.221	17865.32
790.554	17816.96
790.887	17800.46
791.219	17818.09
791.552	17716.4
791.884	17659.22
792.217	17694.48
792.549	17657.87
792.882	17534.93
793.214	17487.48
793.546	17681.15
793.879	17551.43
794.211	17414.49
794.543	17511.88
794.875	17354.83
795.207	17476.63
795.539	17316.64
795.871	17394.15
796.203	17267.14
796.535	17147.6
796.867	17133.14
797.198	17061.95
797.53	17131.56
797.862	17110.76
798.193	17082.97
798.525	16956.87
798.856	16969.98
799.188	16789.19
799.519	16784.67
799.85	16618.8
800.182	16776.76
800.513	16689.53
800.844	16551.01
801.175	16753.03
801.506	16648.63
801.837	16569.08
802.168	16458.13
802.499	16409.54
802.83	16413.83
803.161	16347.85
803.491	16371.58
803.822	16458.58
804.153	16300.16
804.483	16213.16
804.814	16090
805.145	16175.42
805.475	16143.33
805.805	15995.54
806.136	16105.82
806.466	16035.54
806.796	16053.17
807.126	15886.39
807.457	15856.33
807.787	15941.76
808.117	15866.96
808.447	15794.42
808.777	15895.2
809.107	15655.89
809.436	15694.08
809.766	15754.42
810.096	15648.43
810.426	15600.3
810.755	15576.34
811.085	15667.19
811.414	15622.22
811.744	15476.68
812.073	15375.44
812.403	15429.91
812.732	15350.59
813.061	15384.26
813.39	15227.88
813.719	15291.38
814.049	15385.84
814.378	15274.2
814.707	15139.07
815.036	15150.36
815.365	15063.36
815.693	14966.19
816.022	15022.68
816.351	14937.26
816.68	14846.42
817.008	14953.31
817.337	14797.83
817.665	14707.44
817.994	14737.95
818.322	14801.9
818.651	14645.52
818.979	14677.61
819.307	14751.28
819.636	14682.58
819.964	14663.82
820.292	14680.77
820.62	14655.69
820.948	14653.88
821.276	14701.11
821.604	14575.01
821.932	14559.42
822.259	14596.03
822.587	14655.01
822.915	14561.45
823.243	14613.88
823.57	14545.86
823.898	14570.27
824.225	14508.57
824.553	14506.77
824.88	14551.06
825.207	14601.68
825.535	14606.88
825.862	14593.77
826.189	14561.91
826.516	14572.07
826.843	14664.73
827.17	14696.14
827.497	14623.6
827.824	14613.88
828.151	14622.69
828.478	14619.08
828.805	14729.58
829.131	14638.51
829.458	14600.77
829.785	14489.36
830.111	14628.34
830.438	14669.93
830.764	14626.08
831.09	14679.42
831.417	14546.31
831.743	14635.58
832.069	14551.96
832.395	14449.14
832.722	14589.02
833.048	14568.23
833.374	14549.02
833.7	14493.88
834.026	14535.47
834.351	14560.78
834.677	14557.61
835.003	14457.5
835.329	14508.12
835.654	14476.26
835.98	14389.03
836.306	14505.18
836.631	14369.82
836.956	14573.2
837.282	14410.95
837.607	14409.37
837.932	14277.62
838.258	14246.21
838.583	14217.51
838.908	14191.97
839.233	14201.46
839.558	14269.71
839.883	14163.05
840.208	14060
840.533	14139.54
840.858	14085.08
841.182	14208.47
841.507	14050.51
841.832	13956.95
842.156	14049.83
842.481	13996.5
842.805	13968.25
843.13	13945.88
843.454	13897.06
843.778	13802.6
844.103	13871.75
844.427	13751.08
844.751	13801.25
845.075	13713.34
845.399	13714.02
845.723	13571.2
846.047	13581.59
846.371	13520.8
846.695	13501.14
847.019	13401.94
847.343	13354.93
847.666	13298.89
847.99	13238.1
848.313	13201.94
848.637	13145.67
848.96	13125.11
849.284	13085.56
849.607	13052.34
849.931	13012.79
850.254	12888.5
850.577	12900.25
850.9	12739.58
851.223	12761.05
851.546	12702.29
851.869	12502.52
852.192	12608.51
852.515	12482.64
852.838	12501.62
853.161	12412.81
853.483	12428.63
853.806	12375.52
854.129	12412.81
854.451	12281.51
854.774	12182.76
855.096	12208.52
855.419	12138.01
855.741	12171.23
856.063	12102.53
856.385	12023.21
856.708	11983.89
857.03	12005.59
857.352	11941.18
857.674	11952.71
857.996	11838.36
858.318	11845.37
858.64	11823.67
858.961	11808.53
859.283	11736.22
859.605	11614.86
859.926	11700.74
860.248	11621.64
860.57	11633.62
860.891	11619.84
861.212	11590.91
861.534	11508.88
861.855	11413.51
862.176	11488.77
862.498	11437.02
862.819	11474.53
863.14	11398.15
863.461	11350.92
863.782	11325.83
864.103	11349.33
864.424	11344.81
864.745	11362.67
865.065	11336
865.386	11218.94
865.707	11231.82
866.027	11209.45
866.348	11258.04
866.668	11209
866.989	11099.85
867.309	11096.23
867.63	11079.51
867.95	11110.47
868.27	11109.11
868.59	11115.89
868.91	11042
869.23	11021.89
869.55	11020.53
869.87	10983.92
870.19	10993.64
870.51	11042.45
870.83	11031.83
871.15	10886.3
871.469	10863.02
871.789	10944.37
872.109	10904.15
872.428	10819.63
872.748	10856.24
873.067	10823.02
873.386	10785.28
873.706	10767.65
874.025	10768.56
874.344	10680.2
874.663	10755.9
874.982	10696.24
875.301	10763.14
875.62	10714.32
875.939	10670.93
876.258	10682.91
876.577	10575.8
876.896	10601.33
877.214	10540.77
877.533	10543.48
877.852	10531.5
878.17	10564.72
878.489	10556.36
878.807	10557.94
879.125	10554.78
879.444	10486.76
879.762	10477.72
880.08	10464.39
880.398	10422.58
880.716	10445.63
881.034	10334.22
881.352	10391.62
881.67	10353.88
881.988	10348
882.306	10331.51
882.624	10288.35
882.941	10163.15
883.259	10252.87
883.577	10239.31
883.894	10144.17
884.212	10166.54
884.529	10099.2
884.846	10167.44
885.164	10082.25
885.481	10067.56
885.798	10099.65
886.115	9986.43
886.432	10002.25
886.75	9906.66
887.067	9973.33
887.383	9898.3
887.7	9960.67
888.017	9847.23
888.334	9922.48
888.651	9828.7
888.967	9824.85
889.284	9751.41
889.6	9736.5
889.917	9691.75
890.233	9647.91
890.55	9719.09
890.866	9640.23
891.182	9593.67
891.498	9608.14
891.815	9616.05
892.131	9549.61
892.447	9503.28
892.763	9439.1
893.079	9358.65
893.395	9380.57
893.71	9367.69
894.026	9341.03
894.342	9376.28
894.657	9277.98
894.973	9285.43
895.289	9237.3
895.604	9181.48
895.92	9129.73
896.235	9130.18
896.55	9115.95
896.865	9152.78
897.181	9086.57
897.496	9031.2
897.811	8959.57
898.126	8962.73
898.441	8934.93
898.756	8853.58
899.071	8848.16
899.386	8857.87
899.7	8753.7
900.015	8732
900.33	8634.38
900.644	8727.71
900.959	8689.29
901.273	8604.55
901.588	8636.64
901.902	8557.32
902.216	8549.86
902.531	8498.79
902.845	8508.28
903.159	8432.57
903.473	8425.8
903.787	8398.23
904.101	8355.06
904.415	8298.57
904.729	8278.23
905.042	8200.26
905.356	8240.04
905.67	8217.21
905.984	8195.52
906.297	8140.38
906.611	8122.53
906.924	8104.45
907.237	8035.52
907.551	8008.41
907.864	8023.77
908.177	7931.35
908.491	7973.15
908.804	7868.97
909.117	7821.07
909.43	7814.74
909.743	7757.56
910.056	7715.53
910.368	7696.1
910.681	7653.61
910.994	7651.35
911.307	7632.82
911.619	7555.08
911.932	7588.53
912.244	7508.08
912.557	7493.39
912.869	7456.1
913.181	7410
913.494	7453.39
913.806	7401.87
914.118	7373.17
914.43	7320.06
914.742	7274.87
915.054	7264.92
915.366	7270.12
915.678	7198.03
915.99	7171.59
916.302	7136.11
916.613	7096.34
916.925	7092.72
917.236	7043.46
917.548	7049.11
917.859	7020.63
918.171	6916.68
918.482	6924.82
918.794	6913.97
919.105	6872.39
919.416	6813.86
919.727	6867.42
920.038	6825.39
920.349	6744.71
920.66	6728.21
920.971	6688.21
921.282	6680.3
921.593	6668.55
921.903	6604.6
922.214	6551.72
922.525	6591.72
922.835	6539.07
923.146	6548.56
923.456	6532.96
923.767	6511.95
924.077	6435.34
924.387	6437.83
924.697	6359.18
925.008	6408.45
925.318	6355.34
925.628	6322.35
925.938	6302.91
926.248	6242.58
926.558	6188.57
926.867	6249.13
927.177	6197.15
927.487	6135.23
927.796	6134.1
928.106	6094.33
928.416	6053.88
928.725	6072.41
929.034	6002.13
929.344	6036.71
929.653	5996.03
929.962	5946.31
930.271	5939.99
930.581	5911.51
930.89	5902.7
931.199	5810.04
931.508	5806.2
931.817	5843.94
932.125	5799.2
932.434	5780.22
932.743	5699.31
933.051	5650.5
933.36	5681.91
933.669	5626.32
933.977	5668.13
934.286	5687.79
934.594	5580.45
934.902	5542.03
935.21	5506.55
935.519	5513.56
935.827	5478.98
936.135	5486.21
936.443	5444.18
936.751	5387.01
937.059	5446.44
937.367	5370.96
937.674	5361.7
937.982	5356.27
938.29	5335.26
938.597	5291.41
938.905	5252.55
939.213	5245.99
939.52	5209.61
939.827	5224.52
940.135	5155.15
940.442	5167.8
940.749	5149.05
941.056	5243.96
941.363	5085.09
941.67	5092.1
941.977	5029.27
942.284	4996.28
942.591	4989.28
942.898	4971.87
943.205	4994.25
943.511	4933.23
943.818	4933.46
944.125	4875.61
944.431	4882.39
944.738	4861.37
945.044	4850.3
945.35	4847.36
945.657	4773.69
945.963	4784.99
946.269	4750.41
946.575	4745.89
946.881	4723.29
947.187	4690.07
947.493	4642.84
947.799	4673.8
948.105	4657.31
948.41	4636.97
948.716	4631.54
949.022	4595.61
949.327	4606.01
949.633	4574.6
949.938	4525.56
950.244	4514.03
950.549	4472
950.854	4482.62
951.16	4497.09
951.465	4441.95
951.77	4437.2
952.075	4372.79
952.38	4418.22
952.685	4401.27
952.99	4313.14
953.294	4334.83
953.599	4257.09
953.904	4245.79
954.209	4250.99
954.513	4271.1
954.818	4218.67
955.122	4202.63
955.426	4191.1
955.731	4171.67
956.035	4154.95
956.339	4137.55
956.643	4119.92
956.948	4090.32
957.252	4075.63
957.556	4062.97
957.86	4085.34
958.163	4053.71
958.467	4015.74
958.771	4027.27
959.075	4027.04
959.378	3953.82
959.682	3938.23
959.985	3899.13
960.289	3899.81
960.592	3895.75
960.896	3871.11
961.199	3878.57
961.502	3823.88
961.805	3834.73
962.108	3764.68
962.411	3811.68
962.714	3751.79
963.017	3741.4
963.32	3751.34
963.623	3737.11
963.926	3741.62
964.228	3701.85
964.531	3674.28
964.833	3660.05
965.136	3636.99
965.438	3601.74
965.741	3589.31
966.043	3602.42
966.345	3628.63
966.648	3619.14
966.95	3565.58
967.252	3526.04
967.554	3526.04
967.856	3484.91
968.158	3470.45
968.46	3511.8
968.761	3453.27
969.063	3419.37
969.365	3451.69
969.666	3397
969.968	3384.8
970.269	3342.77
970.571	3390.22
970.872	3343.22
971.174	3383.22
971.475	3343.22
971.776	3310.22
972.077	3282.65
972.378	3271.35
972.679	3286.72
972.98	3290.79
973.281	3261.64
973.582	3209.89
973.883	3253.5
974.183	3196.55
974.484	3180.96
974.785	3184.8
975.085	3153.84
975.386	3151.36
975.686	3124.69
975.986	3095.77
976.287	3090.12
976.587	3099.16
976.887	3082.21
977.187	3046.95
977.487	3068.65
977.787	2990.68
978.087	3040.63
978.387	3029.78
978.687	3063
978.987	3005.37
979.286	2995.88
979.586	2987.29
979.885	2929.67
980.185	2928.09
980.484	2898.03
980.784	2915.43
981.083	2904.58
981.382	2860.74
981.682	2865.94
981.981	2831.14
982.28	2851.7
982.579	2823.46
982.878	2812.61
983.177	2789.11
983.475	2811.03
983.774	2759.73
984.073	2742.1
984.372	2735.78
984.67	2728.77
984.969	2714.76
985.267	2730.13
985.566	2686.74
985.864	2699.39
986.162	2711.37
986.461	2684.7
986.759	2678.15
987.057	2643.12
987.355	2657.59
987.653	2618.49
987.951	2633.18
988.249	2605.16
988.547	2577.14
988.844	2577.81
989.142	2555.67
989.44	2531.26
989.737	2519.28
990.035	2515.67
990.332	2528.1
990.63	2483.8
990.927	2513.41
991.224	2504.82
991.521	2470.92
991.819	2468.66
992.116	2457.59
992.413	2436.8
992.71	2384.15
993.006	2410.81
993.303	2433.18
993.6	2425.95
993.897	2364.49
994.193	2381.66
994.49	2336.46
994.787	2325.16
995.083	2339.85
995.379	2309.57
995.676	2344.37
995.972	2292.85
996.268	2291.04
996.565	2275.22
996.861	2275.45
997.157	2262.57
997.453	2232.06
997.749	2259.4
998.044	2211.04
998.34	2199.52
998.636	2224.6
998.932	2208.33
999.227	2169.24
999.523	2196.13
999.818	2184.6
1000.114	2142.8
1000.409	2163.59
1000.704	2124.49
1001	2108.67
1001.295	2088.33
1001.59	2086.75
1001.885	2090.37
1002.18	2040.65
1002.475	2065.74
1002.77	2046.3
1003.065	2039.07
1003.359	2032.97
1003.654	2025.96
1003.949	2013.08
1004.243	1995.46
1004.538	1975.8
1004.832	1961.33
1005.127	1979.86
1005.421	1936.93
1005.715	1898.06
1006.009	1942.8
1006.304	1901.9
1006.598	1888.79
1006.892	1884.95
1007.186	1903.03
1007.48	1862.58
1007.773	1861.67
1008.067	1873.43
1008.361	1840.43
1008.655	1839.98
1008.948	1834.56
1009.242	1787.55
1009.535	1770.83
1009.829	1759.08
1010.122	1750.26
1010.415	1772.64
1010.708	1778.74
1011.001	1730.38
1011.295	1734.22
1011.588	1731.51
1011.881	1716.82
1012.173	1691.96
1012.466	1689.7
1012.759	1663.26
1013.052	1676.82
1013.344	1681.11
1013.637	1691.28
1013.93	1649.02
1014.222	1670.49
1014.514	1658.74
1014.807	1616.93
1015.099	1599.76
1015.391	1599.31
1015.683	1603.38
1015.976	1600.21
1016.268	1574.9
1016.56	1552.53
1016.851	1526.09
1017.143	1559.31
1017.435	1537.84
1017.727	1535.13
1018.018	1507.79
1018.31	1499.42
1018.602	1491.97
1018.893	1481.57
1019.185	1482.02
1019.476	1457.62
1019.767	1461.46
1020.058	1444.28
1020.35	1439.54
1020.641	1416.04
1020.932	1401.8
1021.223	1405.42
1021.514	1407
1021.804	1385.75
1022.095	1365.19
1022.386	1377.39
1022.677	1343.5
1022.967	1381.23
1023.258	1350.73
1023.548	1347.34
1023.839	1341.91
1024.129	1319.54
1024.419	1318.64
1024.709	1316.38
1025	1288.13
1025.29	1302.82
1025.58	1298.07
1025.87	1264.85
1026.16	1252.42
1026.449	1281.35
1026.739	1247.23
1027.029	1252.42
1027.319	1221.47
1027.608	1226.21
1027.898	1209.26
1028.187	1223.05
1028.477	1226.44
1028.766	1205.42
1029.055	1164.29
1029.344	1156.16
1029.634	1180.34
1029.923	1171.07
1030.212	1172.2
1030.501	1159.09
1030.79	1103.73
1031.078	1135.37
1031.367	1124.97
1031.656	1125.2
1031.945	1123.61
1032.233	1118.64
1032.522	1093.78
1032.81	1092.2
1033.099	1097.17
1033.387	1093.11
1033.675	1063.96
1033.963	1055.37
1034.251	1059.44
1034.54	1054.92
1034.828	1036.84
1035.116	1041.36
1035.403	1059.66
1035.691	1029.61
1035.979	1035.03
1036.267	1014.92
1036.554	1004.3
1036.842	1009.04
1037.129	980.57
1037.417	974.92
1037.704	980.34
1037.992	974.01
1038.279	985.09
1038.566	967.01
1038.853	967.01
1039.14	967.01
