Data from hue_250_FLMS001491_00069.txt Node
Date: Tue Feb 07 16:01:19 GMT 2017
User: dcchb
Spectrometer: FLMS00149
Trigger mode: 0
Integration Time (sec): 2.000000E-2
Scans to average: 10
Electric dark correction enabled: true
Nonlinearity correction enabled: false
Boxcar width: 0
XAxis mode: Wavelengths
Number of Pixels in Spectrum: 2048
>>>>>Begin Spectral Data<<<<<
341.393	8.06
341.776	8.06
342.16	8.06
342.543	-75.1
342.927	-54.53
343.31	-27.64
343.693	-68.32
344.077	-78.71
344.46	-61.99
344.843	-59.05
345.226	-42.1
345.61	-38.26
345.993	-27.19
346.376	-11.6
346.759	1.96
347.142	39.7
347.525	19.59
347.908	47.84
348.291	77.22
348.674	100.94
349.057	127.61
349.44	121.96
349.823	122.64
350.206	156.54
350.588	189.75
350.971	201.05
351.354	208.96
351.737	225.91
352.119	227.27
352.502	275.4
352.884	258
353.267	275.4
353.65	299.13
354.032	297.1
354.414	302.97
354.797	315.63
355.179	333.93
355.562	320.37
355.944	318.57
356.326	333.25
356.709	331.67
357.091	314.05
357.473	335.51
357.855	351.56
358.238	327.6
358.62	326.25
359.002	333.03
359.384	327.38
359.766	337.55
360.148	349.75
360.53	333.48
360.912	333.48
361.294	325.34
361.676	336.42
362.057	316.08
362.439	332.35
362.821	301.39
363.203	316.08
363.584	329.64
363.966	326.93
364.348	316.98
364.729	309.75
365.111	316.76
365.493	306.81
365.874	305.01
366.256	307.27
366.637	296.42
367.019	307.49
367.4	340.26
367.781	304.33
368.163	322.18
368.544	302.29
368.925	308.85
369.306	312.69
369.688	303.65
370.069	308.85
370.45	312.01
370.831	305.23
371.212	312.01
371.593	309.98
371.974	308.17
372.355	326.02
372.736	316.76
373.117	320.37
373.498	300.26
373.879	307.04
374.26	297.55
374.641	308.17
375.021	323.08
375.402	317.89
375.783	325.8
376.163	324.67
376.544	332.35
376.925	333.48
377.305	333.03
377.686	332.58
378.066	308.62
378.447	344.78
378.827	336.87
379.208	333.25
379.588	328.51
379.968	335.97
380.349	353.14
380.729	325.8
381.109	332.58
381.489	336.64
381.87	331.67
382.25	345.01
382.63	356.3
383.01	352.69
383.39	335.97
383.77	347.94
384.15	361.95
384.53	365.34
384.91	351.56
385.29	358.79
385.67	343.2
386.049	348.17
386.429	372.8
386.809	348.85
387.189	357.21
387.568	353.59
387.948	357.89
388.328	377.32
388.707	358.34
389.087	365.12
389.466	356.3
389.846	357.21
390.225	393.59
390.605	360.82
390.984	374.38
391.363	372.57
391.743	354.72
392.122	378.45
392.501	385.68
392.881	382.29
393.26	391.33
393.639	397.66
394.018	389.52
394.397	399.24
394.776	381.39
395.155	403.76
395.534	412.12
395.913	393.82
396.292	423.42
396.671	425.91
397.05	407.38
397.429	399.92
397.808	422.29
398.186	426.81
398.565	414.83
398.944	428.39
399.323	404.89
399.701	439.92
400.08	432.23
400.458	451.89
400.837	425.68
401.215	425.23
401.594	438.11
401.972	424.55
402.351	451.89
402.729	420.03
403.107	426.13
403.486	442.63
403.864	424.1
404.242	439.92
404.62	455.74
404.999	471.56
405.377	457.32
405.755	455.06
406.133	466.36
406.511	479.01
406.889	494.38
407.267	476.98
407.645	505.45
408.023	482.4
408.401	499.58
408.779	523.76
409.156	501.39
409.534	521.27
409.912	540.71
410.29	538.45
410.667	533.7
411.045	540.93
411.422	533.93
411.8	553.81
412.178	558.56
412.555	609.86
412.933	562.63
413.31	558.56
413.687	617.54
414.065	590.87
414.442	626.13
414.819	623.64
415.197	605.56
415.574	632.91
415.951	615.28
416.328	646.92
416.705	646.69
417.082	651.89
417.46	655.73
417.837	653.92
418.214	680.36
418.591	674.26
418.967	677.2
419.344	676.3
419.721	690.53
420.098	701.15
420.475	711.78
420.852	712.68
421.228	726.92
421.605	735.28
421.982	743.86
422.358	743.19
422.735	758.55
423.111	760.36
423.488	796.07
423.864	801.26
424.241	816.86
424.617	805.11
424.994	822.73
425.37	793.58
425.746	861.6
426.123	836.07
426.499	836.52
426.875	870.87
427.251	870.64
427.627	902.05
428.003	875.84
428.379	915.61
428.756	939.79
429.132	954.48
429.507	977.53
429.883	972.11
430.259	975.72
430.635	963.97
431.011	988.15
431.387	994.48
431.763	1010.07
432.138	1017.98
432.514	1024.08
432.89	1062.95
433.265	1081.26
433.641	1108.83
434.016	1104.08
434.392	1124.19
434.767	1138.43
435.143	1155.83
435.518	1149.5
435.894	1178.66
436.269	1212.1
436.644	1199.67
437.02	1233.57
437.395	1247.35
437.77	1267.24
438.145	1303.17
438.52	1312.89
438.895	1308.37
439.271	1318.99
439.646	1357.41
440.021	1373.9
440.395	1378.88
440.77	1367.8
441.145	1398.31
441.52	1442.15
441.895	1446.45
442.27	1427.24
442.645	1452.09
443.019	1487.12
443.394	1465.43
443.769	1501.81
444.143	1490.06
444.518	1502.04
444.892	1483.28
445.267	1519.66
445.641	1527.57
446.016	1570.74
446.39	1565.54
446.764	1565.54
447.139	1545.2
447.513	1575.48
447.887	1584.75
448.262	1589.94
448.636	1583.84
449.01	1603.5
449.384	1642.37
449.758	1662.26
450.132	1661.81
450.506	1688.47
450.88	1687.12
451.254	1701.58
451.628	1736.61
452.002	1715.59
452.376	1766.44
452.75	1776.61
453.123	1748.58
453.497	1810.73
453.871	1823.38
454.244	1863.16
454.618	1886.66
454.992	1856.6
455.365	1908.35
455.739	1899.99
456.112	1937.73
456.486	1995.81
456.859	1953.1
457.232	1995.58
457.606	2004.4
457.979	2017.73
458.352	2092.08
458.725	2088.46
459.099	2108.8
459.472	2149.93
459.845	2158.29
460.218	2186.99
460.591	2165.97
460.964	2194.9
461.337	2242.13
461.71	2293.2
462.083	2339.98
462.456	2299.76
462.829	2316.25
463.201	2353.09
463.574	2401.67
463.947	2398.28
464.32	2472.86
464.692	2471.5
465.065	2482.8
465.438	2517.83
465.81	2545.4
466.183	2561.67
466.555	2639.18
466.928	2630.37
467.3	2656.36
467.672	2679.18
468.045	2751.27
468.417	2765.96
468.789	2751.72
469.161	2807.09
469.534	2803.92
469.906	2908.55
470.278	2886.63
470.65	2973.64
471.022	2991.49
471.394	3059.28
471.766	3033.3
472.138	3105.16
472.51	3112.16
472.882	3180.64
473.253	3194.42
473.625	3243.01
473.997	3279.62
474.369	3309.9
474.74	3347.41
475.112	3415.43
475.484	3474.87
475.855	3487.97
476.227	3535.43
476.598	3638.03
476.97	3694.97
477.341	3717.12
477.713	3795.08
478.084	3809.09
478.455	3890.45
478.827	3896.1
479.198	3976.1
479.569	4013.38
479.94	4125.02
480.311	4139.26
480.682	4192.81
481.053	4284.11
481.424	4376.54
481.795	4367.5
482.166	4416.99
482.537	4484.56
482.908	4537.66
483.279	4596.19
483.65	4676.87
484.021	4791.67
484.391	4800.48
484.762	4868.95
485.133	4877.09
485.503	4938.56
485.874	5019.23
486.244	5065.33
486.615	5178.78
486.985	5219.91
487.356	5297.19
487.726	5354.36
488.097	5376.29
488.467	5405.44
488.837	5514.81
489.207	5566.79
489.578	5646.33
489.948	5692.66
490.318	5783.28
490.688	5765.2
491.058	5873.9
491.428	5926.78
491.798	6017.62
492.168	6103.72
492.538	6083.84
492.908	6202.7
493.278	6272.76
493.648	6200.22
494.017	6298.75
494.387	6362.93
494.757	6400.89
495.126	6429.59
495.496	6463.04
495.866	6554.56
496.235	6554.79
496.605	6583.49
496.974	6647.44
497.344	6636.82
497.713	6644.73
498.082	6741.22
498.452	6844.95
498.821	6815.57
499.19	6874.32
499.559	6888.56
499.928	6948.22
500.298	6978.05
500.667	7038.16
501.036	7077.03
501.405	7121.55
501.774	7145.28
502.143	7130.82
502.512	7146.18
502.88	7259.4
503.249	7255.56
503.618	7215.78
503.987	7376.01
504.356	7342.11
504.724	7320.64
505.093	7359.96
505.462	7371.26
505.83	7378.04
506.199	7433.18
506.567	7599.05
506.936	7599.28
507.304	7594.98
507.672	7644.25
508.041	7669.56
508.409	7675.89
508.777	7732.16
509.145	7799.5
509.514	7773.96
509.882	7840.18
510.25	7851.02
510.618	7938.03
510.986	7917.24
511.354	7945.48
511.722	7988.42
512.09	8086.95
512.458	7948.42
512.826	8055.31
513.193	8087.17
513.561	8136.89
513.929	8161.52
514.297	8178.25
514.664	8264.57
515.032	8279.71
515.4	8320.61
515.767	8272.25
516.135	8348.86
516.502	8279.94
516.869	8470.89
517.237	8427.96
517.604	8323.78
517.972	8425.47
518.339	8434.51
518.706	8439.93
519.073	8466.83
519.44	8513.6
519.808	8627.27
520.175	8607.84
520.542	8663.43
520.909	8661.4
521.276	8717.21
521.643	8761.28
522.009	8775.29
522.376	8792.24
522.743	8822.52
523.11	8925.57
523.477	8968.73
523.843	8961.5
524.21	8982.29
524.577	9071.78
524.943	9055.28
525.31	9011.67
525.676	9151.78
526.043	9128.95
526.409	9215.73
526.776	9285.11
527.142	9236.07
527.508	9239.01
527.874	9289.85
528.241	9354.71
528.607	9358.55
528.973	9388.38
529.339	9408.95
529.705	9471.09
530.071	9490.3
530.437	9519.68
530.803	9537.08
531.169	9628.83
531.535	9536.18
531.901	9543.86
532.267	9565.55
532.632	9594.25
532.998	9625.66
533.364	9610.98
533.73	9665.21
534.095	9705.44
534.461	9702.5
534.826	9781.82
535.192	9774.59
535.557	9752.67
535.923	9765.32
536.288	9757.64
536.653	9778.43
537.019	9747.92
537.384	9759.67
537.749	9811.65
538.114	9749.05
538.479	9781.37
538.845	9816.17
539.21	9805.55
539.575	9834.93
539.94	9851.42
540.305	9888.93
540.67	9800.12
541.034	9878.09
541.399	9828.15
541.764	9852.33
542.129	9895.49
542.494	9831.76
542.858	9901.14
543.223	9900.69
543.587	9909.73
543.952	9833.12
544.316	9948.82
544.681	9883.96
545.045	9917.18
545.41	9960.12
545.774	9869.73
546.138	9869.73
546.503	9934.58
546.867	9858.65
547.231	9973.9
547.595	9948.82
547.959	9991.53
548.324	9947.01
548.688	9978.88
549.052	9938.2
549.416	9984.98
549.779	9942.04
550.143	10051.42
550.507	10019.1
550.871	9956.73
551.235	10003.96
551.599	10088.48
551.962	10006.67
552.326	10002.6
552.689	10035.37
553.053	10029.95
553.417	10068.37
553.78	10090.74
554.143	10059.78
554.507	10100.68
554.87	10033.79
555.234	10140.45
555.597	10140.91
555.96	10208.02
556.323	10208.25
556.686	10155.82
557.05	10180
557.413	10208.47
557.776	10262.48
558.139	10300
558.502	10312.65
558.865	10252.54
559.228	10350.39
559.59	10335.7
559.953	10361.46
560.316	10457.06
560.679	10450.05
561.041	10391.29
561.404	10483.04
561.767	10590.61
562.129	10471.07
562.492	10583.83
562.854	10618.86
563.217	10507
563.579	10630.61
563.941	10666.09
564.304	10630.16
564.666	10766.65
565.028	10691.17
565.39	10752.42
565.753	10833.54
566.115	10820.66
566.477	10904.73
566.839	10838.97
567.201	10938.62
567.563	10943.82
567.925	10974.1
568.287	11008
568.648	11044.16
569.01	11143.14
569.372	11189.47
569.734	11150.37
570.095	11201.22
570.457	11207.32
570.819	11220.2
571.18	11253.19
571.542	11288.45
571.903	11261.33
572.265	11333.64
572.626	11352.85
572.987	11324.15
573.349	11399.63
573.71	11423.81
574.071	11472.4
574.432	11524.15
574.794	11561.66
575.155	11534.09
575.516	11529.8
575.877	11614.09
576.238	11665.84
576.599	11641.66
576.96	11708.55
577.32	11696.57
577.681	11772.28
578.042	11836.23
578.403	11801.88
578.763	11779.73
579.124	11779.05
579.485	11819.05
579.845	11840.07
580.206	11848.66
580.566	12008.88
580.927	12017.24
581.287	12063.34
581.648	11990.57
582.008	12066.5
582.368	12062.66
582.728	12044.81
583.089	12049.56
583.449	12050.46
583.809	12059.27
584.169	12088.43
584.529	12111.48
584.889	12205.26
585.249	12069.22
585.609	12073.28
585.969	12190.57
586.329	12127.52
586.688	12238.03
587.048	12204.58
587.408	12260.85
587.768	12204.13
588.127	12222.43
588.487	12341.3
588.846	12278.48
589.206	12296.1
589.565	12294.97
589.925	12387.4
590.284	12329.77
590.643	12326.38
591.003	12379.49
591.362	12451.58
591.721	12405.03
592.08	12471.01
592.44	12415.87
592.799	12484.57
593.158	12465.36
593.517	12517.79
593.876	12431.47
594.235	12378.81
594.593	12419.26
594.952	12454.29
595.311	12472.37
595.67	12454.74
596.029	12551.69
596.387	12536.1
596.746	12509.66
597.104	12558.7
597.463	12488.41
597.822	12568.64
598.18	12581.07
598.538	12536.77
598.897	12638.47
599.255	12425.59
599.613	12671.23
599.972	12549.43
600.33	12596.21
600.688	12597.11
601.046	12691.35
601.404	12722.98
601.762	12604.12
602.12	12698.13
602.478	12735.87
602.836	12638.92
603.194	12606.15
603.552	12707.17
603.91	12669.2
604.268	12712.36
604.625	12693.15
604.983	12795.75
605.341	12689.09
605.698	12675.98
606.056	12781.74
606.413	12748.97
606.771	12742.42
607.128	12766.15
607.485	12736.09
607.843	12807.28
608.2	12825.58
608.557	12835.75
608.914	12844.34
609.272	12878.91
609.629	12912.36
609.986	12982.19
610.343	12887.05
610.7	12990.77
611.057	12940.38
611.414	12914.17
611.771	12975.41
612.127	12961.85
612.484	13013.37
612.841	13040.49
613.198	12969.76
613.554	12967.72
613.911	13029.64
614.267	13047.5
614.624	13006.59
614.98	12967.05
615.337	13108.96
615.693	13089.53
616.05	13081.39
616.406	13108.96
616.762	13081.62
617.118	13047.27
617.475	13098.12
617.831	13163.88
618.187	13130.88
618.543	13059.7
618.899	13202.97
619.255	13156.65
619.611	13148.51
619.967	13278.9
620.323	13217.89
620.678	13190.09
621.034	13184.89
621.39	13215.4
621.746	13054.05
622.101	13304.44
622.457	13160.26
622.812	13246.36
623.168	13224.89
623.523	13165.91
623.879	13305.79
624.234	13135.4
624.589	13248.17
624.945	13189.41
625.3	13243.87
625.655	13212.24
626.01	13214.95
626.365	13278.22
626.72	13193.48
627.075	13246.13
627.43	13299.24
627.785	13145.8
628.14	13150.09
628.495	13127.72
628.85	13202.75
629.205	13121.17
629.559	13194.61
629.914	13179.47
630.269	13136.31
630.623	13085.91
630.978	13047.72
631.332	13127.95
631.687	13043.88
632.041	13142.18
632.396	13114.16
632.75	13039.81
633.104	13043.2
633.459	13031.68
633.813	12962.07
634.167	13057.21
634.521	12894.73
634.875	13044.11
635.229	12902.87
635.583	12921.4
635.937	12888.86
636.291	12889.31
636.645	12855.18
636.999	12868.29
637.352	12963.66
637.706	12831
638.06	12954.84
638.413	12810.67
638.767	12799.37
639.121	12850.89
639.474	12725.02
639.828	12724.57
640.181	12751.46
640.534	12711.91
640.888	12654.06
641.241	12609.09
641.594	12575.42
641.947	12685.25
642.301	12677.56
642.654	12698.13
643.007	12634.85
643.36	12667.62
643.713	12553.5
644.066	12664.91
644.419	12508.75
644.771	12529.54
645.124	12388.53
645.477	12334.29
645.83	12278.25
646.182	12219.04
646.535	12207.52
646.888	12189.44
647.24	12104.7
647.593	12183.79
647.945	12095.88
648.298	12068.31
648.65	12032.16
649.002	12096.33
649.355	12140.18
649.707	12106.73
650.059	12148.08
650.411	12344.24
650.763	12329.77
651.115	12481.41
651.467	12360.28
651.819	12329.32
652.171	12346.5
652.523	12338.14
652.875	12361.41
653.227	12290.23
653.578	12425.82
653.93	12344.46
654.282	12319.83
654.633	12335.2
654.985	12332.71
655.337	12275.99
655.688	12263.56
656.039	12344.24
656.391	12196.9
656.742	12282.54
657.094	12313.28
657.445	12367.51
657.796	12341.98
658.147	12254.3
658.498	12204.13
658.849	12316.67
659.2	12252.94
659.551	12125.26
659.902	12307.63
660.253	12284.35
660.604	12280.28
660.955	12157.58
661.306	12264.92
661.656	12184.69
662.007	12313.96
662.358	12233.51
662.708	12235.54
663.059	12249.55
663.409	12193.73
663.76	12278.7
664.11	12261.75
664.461	12260.4
664.811	12221.75
665.161	12255.65
665.511	12245.26
665.862	12270.12
666.212	12302.2
666.562	12268.08
666.912	12299.72
667.262	12207.29
667.612	12248.65
667.962	12199.61
668.312	12198.03
668.662	12237.35
669.011	12231.92
669.361	12230.34
669.711	12255.43
670.06	12173.85
670.41	12151.7
670.76	12123.68
671.109	12123
671.459	12188.31
671.808	12163.68
672.157	12234.41
672.507	12160.97
672.856	12088.43
673.205	12066.28
673.554	12137.92
673.904	12096.79
674.253	12114.64
674.602	12127.75
674.951	11958.94
675.3	11909.22
675.649	12060.86
675.998	12015.66
676.346	11985.6
676.695	12042.32
677.044	11929.33
677.393	11948.99
677.741	12026.05
678.09	11953.97
678.438	11962.78
678.787	11948.77
679.135	11935.43
679.484	11860.18
679.832	11951.03
680.181	11791.94
680.529	11947.86
680.877	11905.61
681.225	11833.29
681.573	11919.39
681.922	11862.67
682.27	11734.08
682.618	11705.84
682.966	11708.77
683.314	11749.68
683.661	11715.55
684.009	11679.62
684.357	11572.51
684.705	11618.61
685.053	11606.4
685.4	11583.35
685.748	11564.15
686.095	11505.39
686.443	11553.52
686.79	11381.33
687.138	11503.36
687.485	11471.27
687.832	11442.11
688.18	11436.46
688.527	11319.18
688.874	11263.59
689.221	11291.84
689.568	11199.63
689.915	11236.47
690.262	11217.04
690.609	11160.09
690.956	11155.12
691.303	11112.63
691.65	11101.33
691.997	10990.37
692.344	10953.54
692.69	10874.22
693.037	10927.1
693.383	10792.19
693.73	10915.57
694.077	10829.93
694.423	10790.83
694.769	10815.24
695.116	10778.4
695.462	10782.24
695.808	10733.66
696.155	10710.83
696.501	10655.92
696.847	10637.84
697.193	10582.93
697.539	10617.5
697.885	10468.13
698.231	10462.71
698.577	10452.08
698.923	10363.95
699.269	10351.3
699.614	10345.65
699.96	10261.35
700.306	10315.82
700.651	10230.62
700.997	10217.97
701.342	10182.49
701.688	10164.63
702.033	10163.28
702.379	10054.35
702.724	10060.23
703.069	10024.98
703.415	9915.83
703.76	9998.99
704.105	9995.82
704.45	9923.74
704.795	9811.65
705.14	9819.33
705.485	9828.6
705.83	9695.95
706.175	9804.42
706.52	9726
706.865	9673.57
707.209	9637.42
707.554	9638.55
707.899	9577.3
708.243	9535.72
708.588	9562.62
708.932	9465.9
709.277	9493.47
709.621	9510.19
709.966	9454.37
710.31	9429.74
710.654	9359.23
710.998	9392.45
711.342	9319.23
711.687	9331.44
712.031	9334.6
712.375	9259.57
712.719	9279.01
713.063	9249.63
713.407	9291.44
713.75	9242.62
714.094	9230.87
714.438	9266.8
714.782	9208.05
715.125	9173.25
715.469	9250.31
715.812	9117.88
716.156	9091.22
716.499	9105
716.843	9113.59
717.186	9048.28
717.53	9099.13
717.873	9057.32
718.216	9050.99
718.559	9023.87
718.902	8946.36
719.246	8919.24
719.589	8898.68
719.932	8956.08
720.275	8902.75
720.617	8905.01
720.96	8892.12
721.303	8838.34
721.646	8933.71
721.989	8831.56
722.331	8817.55
722.674	8771.9
723.016	8880.83
723.359	8765.57
723.701	8855.97
724.044	8758.34
724.386	8715.86
724.729	8800.6
725.071	8775.29
725.413	8785.91
725.755	8715.18
726.097	8703.66
726.439	8728.51
726.782	8624.11
727.124	8728.29
727.465	8698.23
727.807	8690.55
728.149	8619.36
728.491	8688.29
728.833	8639.93
729.175	8626.82
729.516	8614.84
729.858	8624.79
730.199	8654.62
730.541	8582.75
730.882	8561.96
731.224	8636.09
731.565	8569.2
731.906	8575.07
732.248	8527.39
732.589	8550.89
732.93	8568.74
733.271	8584.56
733.612	8572.13
733.953	8570.1
734.294	8463.66
734.635	8535.52
734.976	8519.03
735.317	8575.52
735.658	8547.05
735.999	8524.9
736.339	8539.82
736.68	8565.35
737.021	8480.38
737.361	8487.16
737.702	8514.28
738.042	8550.67
738.383	8471.12
738.723	8498.24
739.063	8458.92
739.404	8485.13
739.744	8513.83
740.084	8485.36
740.424	8552.92
740.764	8523.32
741.104	8497.33
741.444	8489.65
741.784	8514.28
742.124	8499.59
742.464	8580.04
742.804	8528.74
743.143	8535.52
743.483	8542.53
743.823	8471.57
744.162	8512.47
744.502	8554.96
744.841	8510.67
745.181	8624.34
745.52	8624.11
745.86	8631.79
746.199	8668.4
746.538	8693.49
746.877	8688.51
747.216	8786.82
747.556	8703.2
747.895	8766.7
748.234	8793.37
748.573	8808.51
748.911	8844.89
749.25	8877.89
749.589	8865.68
749.928	8979.13
750.267	8980.48
750.605	8968.96
750.944	9095.74
751.283	9108.16
751.621	9167.15
751.96	9182.29
752.298	9279.91
752.636	9345.9
752.975	9309.52
753.313	9416.18
753.651	9528.94
753.989	9566.01
754.327	9622.95
754.666	9709.5
755.004	9792.89
755.342	9890.29
755.679	9923.51
756.017	9966.22
756.355	10086.9
756.693	10101.81
757.031	10224.07
757.368	10281.24
757.706	10399.2
758.044	10501.12
758.381	10638.29
758.719	10666.99
759.056	10742.92
759.394	10884.39
759.731	10933.43
760.068	11019.53
760.405	11107.21
760.743	11202.12
761.08	11411.15
761.417	11361.21
761.754	11485.05
762.091	11590.81
762.428	11633.07
762.765	11729.11
763.102	11903.57
763.438	11928.43
763.775	12015.88
764.112	12172.94
764.449	12356.89
764.785	12343.56
765.122	12456.55
765.458	12477.34
765.795	12564.57
766.131	12686.83
766.467	12708.75
766.804	12794.85
767.14	12773.15
767.476	12920.72
767.812	12942.87
768.148	13112.58
768.485	13129.75
768.821	13107.38
769.157	13204.1
769.492	13306.47
769.828	13333.14
770.164	13315.29
770.5	13380.37
770.836	13482.74
771.171	13448.84
771.507	13518.67
771.842	13520.48
772.178	13601.38
772.513	13630.98
772.849	13705.11
773.184	13644.32
773.519	13781.49
773.855	13775.39
774.19	13741.71
774.525	13798.44
774.86	13825.1
775.195	13902.61
775.53	13794.37
775.865	13869.62
776.2	13782.17
776.535	13848.38
776.87	13922.73
777.205	13916.63
777.539	13877.98
777.874	14027.81
778.209	13948.94
778.543	13972.22
778.878	13855.84
779.212	13894.93
779.547	13895.84
779.881	13978.54
780.215	13948.26
780.55	13943.97
780.884	13929.96
781.218	13958.66
781.552	13866.46
781.886	13870.53
782.22	13847.7
782.554	13775.84
782.888	13719.34
783.222	13677.08
783.556	13757.08
783.889	13663.07
784.223	13725.9
784.557	13705.56
784.89	13729.96
785.224	13635.05
785.557	13615.62
785.891	13595.73
786.224	13660.81
786.558	13582.62
786.891	13435.51
787.224	13451.1
787.557	13416.07
787.891	13472.34
788.224	13494.49
788.557	13396.19
788.89	13413.59
789.223	13433.02
789.556	13302.4
789.888	13265.8
790.221	13286.59
790.554	13228.28
790.887	13189.87
791.219	13170.43
791.552	13162.97
791.884	13102.86
792.217	13134.5
792.549	13072.58
792.882	12993.94
793.214	12976.76
793.546	13066.7
793.879	13006.14
794.211	12847.28
794.543	12983.54
794.875	12821.97
795.207	12904.67
795.539	12801.4
795.871	12778.8
796.203	12712.82
796.535	12655.42
796.867	12655.64
797.198	12716.88
797.53	12633.72
797.862	12617
798.193	12638.24
798.525	12588.52
798.856	12561.18
799.188	12453.16
799.519	12380.39
799.85	12310.11
800.182	12334.07
800.513	12372.49
800.844	12311.02
801.175	12365.71
801.506	12333.39
801.837	12239.16
802.168	12183.79
802.499	12151.02
802.83	12103.57
803.161	12087.52
803.491	12133.17
803.822	12101.31
804.153	11974.98
804.483	11925.94
804.814	11901.09
805.145	11951.93
805.475	11883.46
805.805	11824.25
806.136	11812.27
806.466	11838.04
806.796	11821.77
807.126	11686.63
807.457	11698.83
807.787	11716.01
808.117	11728.89
808.447	11625.84
808.777	11624.26
809.107	11583.35
809.436	11505.39
809.766	11518.5
810.096	11497.93
810.426	11516.01
810.755	11516.24
811.085	11398.5
811.414	11402.12
811.744	11356.24
812.073	11320.31
812.403	11440.53
812.732	11260.2
813.061	11354.66
813.39	11269.69
813.719	11238.28
814.049	11259.97
814.378	11199.63
814.707	11225.85
815.036	11211.39
815.365	11100.43
815.693	10989.24
816.022	11060.43
816.351	11017.49
816.68	11037.15
817.008	11047.77
817.337	10984.5
817.665	10875.8
817.994	10900.43
818.322	10890.04
818.651	10818.18
818.979	10831.28
819.307	10905.41
819.636	10780.66
819.964	10782.24
820.292	10812.75
820.62	10787.44
820.948	10789.02
821.276	10835.12
821.604	10779.76
821.932	10785.86
822.259	10757.39
822.587	10719.42
822.915	10723.04
823.243	10787.89
823.57	10723.94
823.898	10739.99
824.225	10720.55
824.553	10730.95
824.88	10762.13
825.207	10758.06
825.535	10741.79
825.862	10752.42
826.189	10690.72
826.516	10768.01
826.843	10775.69
827.17	10878.51
827.497	10784.28
827.824	10765.75
828.151	10842.13
828.478	10806.2
828.805	10805.97
829.131	10744.51
829.458	10706.54
829.785	10744.28
830.111	10715.13
830.438	10798.97
830.764	10762.13
831.09	10850.94
831.417	10734.11
831.743	10718.07
832.069	10715.58
832.395	10704.73
832.722	10785.63
833.048	10671.06
833.374	10730.95
833.7	10613.44
834.026	10683.72
834.351	10650.27
834.677	10651.85
835.003	10654.56
835.329	10681.46
835.654	10660.21
835.98	10625.64
836.306	10667.22
836.631	10587
836.956	10648.91
837.282	10638.75
837.607	10510.61
837.932	10519.65
838.258	10503.38
838.583	10502.48
838.908	10461.35
839.233	10532.76
839.558	10435.81
839.883	10416.6
840.208	10402.59
840.533	10280.79
840.858	10385.65
841.182	10405.08
841.507	10423.84
841.832	10287.12
842.156	10298.64
842.481	10316.49
842.805	10194.69
843.13	10213.45
843.454	10170.74
843.778	10189.04
844.103	10130.96
844.427	10070.63
844.751	10173.67
845.075	10073.79
845.399	10096.61
845.723	10076.95
846.047	10065.65
846.371	9977.97
846.695	9917.18
847.019	9857.75
847.343	9789.05
847.666	9760.58
847.99	9694.82
848.313	9758.99
848.637	9633.8
848.96	9653.46
849.284	9594.93
849.607	9586.34
849.931	9477.42
850.254	9481.04
850.577	9455.73
850.9	9406.01
851.223	9343.19
851.546	9337.31
851.869	9288.72
852.192	9350.87
852.515	9268.16
852.838	9257.09
853.161	9248.95
853.483	9176.86
853.806	9081.05
854.129	9176.64
854.451	9023.42
854.774	8982.07
855.096	9051.22
855.419	9032.69
855.741	8991.56
856.063	8953.14
856.385	8951.11
856.708	8904.55
857.03	8799.47
857.352	8861.17
857.674	8808.29
857.996	8781.17
858.318	8691.23
858.64	8714.28
858.961	8728.06
859.283	8708.85
859.605	8655.97
859.926	8688.51
860.248	8650.32
860.57	8511.8
860.891	8593.83
861.212	8538.46
861.534	8485.81
861.855	8511.34
862.176	8502.08
862.498	8519.25
862.819	8503.21
863.14	8476.99
863.461	8441.52
863.782	8434.74
864.103	8399.26
864.424	8359.03
864.745	8366.26
865.065	8392.7
865.386	8326.04
865.707	8323.78
866.027	8311.8
866.348	8351.35
866.668	8313.84
866.989	8292.82
867.309	8191.13
867.63	8222.99
867.95	8207.4
868.27	8196.1
868.59	8191.13
868.91	8213.72
869.23	8134.18
869.55	8138.92
869.87	8162.43
870.19	8091.69
870.51	8121.3
870.83	8160.39
871.15	8098.25
871.469	8118.81
871.789	8077.68
872.109	8061.86
872.428	8045.37
872.748	8080.62
873.067	8000.62
873.386	8055.76
873.706	8035.88
874.025	7999.72
874.344	7967.86
874.663	8003.79
874.982	8040.85
875.301	7932.38
875.62	7866.62
875.939	7919.72
876.258	7898.48
876.577	7858.93
876.896	7932.15
877.214	7821.64
877.533	7903.45
877.852	7869.78
878.17	7801.53
878.489	7828.65
878.807	7847.41
879.125	7839.05
879.444	7792.04
879.762	7752.27
880.08	7704.81
880.398	7749.33
880.716	7784.13
881.034	7687.41
881.352	7716.11
881.67	7639.5
881.988	7674.76
882.306	7646.51
882.624	7637.92
882.941	7539.17
883.259	7614.64
883.577	7547.3
883.894	7527.64
884.212	7530.13
884.529	7484.25
884.846	7520.64
885.164	7449.9
885.481	7425.95
885.798	7476.12
886.115	7416.68
886.432	7402.22
886.75	7393.41
887.067	7410.81
887.383	7305.27
887.7	7363.13
888.017	7275.44
888.334	7338.27
888.651	7264.37
888.967	7250.36
889.284	7263.02
889.6	7194.54
889.917	7173.07
890.233	7164.26
890.55	7142.11
890.866	7213.98
891.182	7141.89
891.498	7153.87
891.815	7136.24
892.131	7118.16
892.447	7056.02
892.763	7044.49
893.079	6977.6
893.395	7014.66
893.71	6954.77
894.026	6938.96
894.342	6971.72
894.657	6847.66
894.973	6839.3
895.289	6836.36
895.604	6852.86
895.92	6807.66
896.235	6811.28
896.55	6817.15
896.865	6786.64
897.181	6744.38
897.496	6739.64
897.811	6673.43
898.126	6669.36
898.441	6675.91
898.756	6543.49
899.071	6583.03
899.386	6548.23
899.7	6534.9
900.015	6505.07
900.33	6465.97
900.644	6474.11
900.959	6507.55
901.273	6443.6
901.588	6392.08
901.902	6360.21
902.216	6396.82
902.531	6315.02
902.845	6282.7
903.159	6276.6
903.473	6296.26
903.787	6239.09
904.101	6185.53
904.415	6186.21
904.729	6192.99
905.042	6143.95
905.356	6165.64
905.67	6108.47
905.984	6084.74
906.297	6095.81
906.611	5987.12
906.924	6033.44
907.237	6043.61
907.551	5957.51
907.864	5989.15
908.177	5957.06
908.491	5946.21
908.804	5890.4
909.117	5858.98
909.43	5857.63
909.743	5836.39
910.056	5831.64
910.368	5791.64
910.681	5790.74
910.994	5706.67
911.307	5724.75
911.619	5659.44
911.932	5734.47
912.244	5636.62
912.557	5656.28
912.869	5560.01
913.181	5593.68
913.494	5553.91
913.806	5587.35
914.118	5507.81
914.43	5442.72
914.742	5489.95
915.054	5449.05
915.366	5474.14
915.678	5436.85
915.99	5370.18
916.302	5374.25
916.613	5368.6
916.925	5334.7
917.236	5271.66
917.548	5267.59
917.859	5240.24
918.171	5201.6
918.482	5196.4
918.794	5192.34
919.105	5162.73
919.416	5146.01
919.727	5097.2
920.038	5095.84
920.349	5097.87
920.66	5139
920.971	5061.49
921.282	5046.58
921.593	4987.59
921.903	4932.23
922.214	4974.49
922.525	4985.79
922.835	4972.68
923.146	4852.23
923.456	4871.21
923.767	4852.46
924.077	4832.34
924.387	4791.89
924.697	4818.79
925.008	4782.63
925.318	4796.87
925.628	4760.48
925.938	4750.54
926.248	4690.65
926.558	4684.33
926.867	4666.02
927.177	4681.16
927.487	4631.45
927.796	4620.37
928.106	4633.71
928.416	4564.78
928.725	4594.61
929.034	4508.96
929.344	4556.65
929.653	4524.33
929.962	4449.3
930.271	4450.66
930.581	4437.78
930.89	4440.04
931.199	4455.18
931.508	4386.48
931.817	4399.36
932.125	4388.06
932.434	4371.34
932.743	4332.02
933.051	4336.09
933.36	4312.36
933.669	4286.37
933.977	4245.24
934.286	4285.47
934.594	4200.04
934.902	4207.73
935.21	4200.27
935.519	4204.11
935.827	4164.34
936.135	4112.36
936.443	4123.89
936.751	4112.82
937.059	4110.78
937.367	4075.98
937.674	4074.17
937.982	4075.3
938.29	4054.74
938.597	4016.09
938.905	3978.36
939.213	3986.04
939.52	3977.68
939.827	3924.35
940.135	3901.97
940.442	3931.13
940.749	3898.58
941.056	3915.53
941.363	3865.59
941.67	3866.04
941.977	3797.57
942.284	3814.97
942.591	3795.08
942.898	3776.78
943.205	3779.49
943.511	3752.6
943.818	3751.47
944.125	3701.98
944.431	3696.78
944.738	3672.83
945.044	3684.35
945.35	3699.04
945.657	3639.38
945.963	3587.63
946.269	3626.05
946.575	3618.59
946.881	3561.87
947.187	3550.12
947.493	3559.61
947.799	3549.21
948.105	3504.47
948.41	3513.96
948.716	3529.33
949.022	3530.23
949.327	3462.44
949.633	3447.52
949.938	3426.51
950.244	3402.33
950.549	3397.81
950.854	3368.2
951.16	3408.88
951.465	3353.06
951.77	3348.09
952.075	3329.56
952.38	3335.43
952.685	3316.9
952.99	3303.57
953.294	3285.27
953.599	3284.81
953.904	3243.23
954.209	3208.21
954.513	3199.39
954.818	3233.29
955.122	3207.08
955.426	3204.82
955.731	3200.75
956.035	3167.76
956.339	3178.15
956.643	3188.77
956.948	3084.14
957.252	3118.04
957.556	3093.63
957.86	3090.7
958.163	3073.75
958.467	3071.71
958.771	3078.04
959.075	3051.15
959.378	2983.81
959.682	3006.18
959.985	3009.57
960.289	2996.46
960.592	2967.76
960.896	2973.64
961.199	2958.04
961.502	2915.11
961.805	2895.9
962.108	2910.14
962.411	2921.43
962.714	2898.84
963.017	2922.79
963.32	2889.12
963.623	2845.5
963.926	2849.12
964.228	2806.41
964.531	2838.05
964.833	2799.86
965.136	2776.13
965.438	2773.19
965.741	2785.39
966.043	2805.51
966.345	2742
966.648	2730.25
966.95	2749.24
967.252	2744.26
967.554	2739.52
967.856	2694.1
968.158	2676.7
968.46	2693.19
968.761	2661.1
969.063	2638.96
969.365	2653.19
969.666	2619.52
969.968	2584.04
970.269	2578.84
970.571	2556.25
970.872	2566.19
971.174	2550.6
971.475	2577.94
971.776	2528.68
972.077	2516.25
972.378	2523.25
972.679	2515.57
972.98	2502.46
973.281	2464.05
973.582	2479.19
973.883	2478.51
974.183	2440.32
974.484	2463.59
974.785	2447.55
975.085	2427.21
975.386	2445.06
975.686	2417.27
975.986	2404.16
976.287	2395.8
976.587	2377.04
976.887	2377.04
977.187	2348.79
977.487	2369.81
977.787	2342.69
978.087	2331.62
978.387	2310.83
978.687	2309.02
978.987	2301.79
979.286	2293.2
979.586	2286.2
979.885	2259.31
980.185	2261.34
980.484	2264.73
980.784	2262.69
981.083	2247.78
981.382	2248.23
981.682	2196.48
981.981	2234.9
982.28	2234.45
982.579	2191.06
982.878	2174.79
983.177	2183.37
983.475	2173.88
983.774	2140.44
984.073	2130.04
984.372	2173.88
984.67	2111.51
984.969	2103.6
985.267	2110.83
985.566	2102.02
985.864	2064.51
986.162	2114.45
986.461	2066.77
986.759	2043.94
987.057	2039.42
987.355	2066.54
987.653	2038.29
987.951	2014.57
988.249	2012.76
988.547	2024.06
988.844	1993.78
989.142	2009.82
989.44	1981.8
989.737	1961.46
990.035	1983.15
990.332	1947.9
990.63	1944.29
990.927	1937.51
991.224	1921.69
991.521	1905.64
991.819	1915.59
992.116	1892.31
992.413	1897.05
992.71	1859.32
993.006	1879.65
993.303	1853.67
993.6	1846.66
993.897	1861.8
994.193	1870.84
994.49	1854.34
994.787	1834.46
995.083	1828.81
995.379	1818.19
995.676	1809.37
995.972	1817.06
996.268	1800.33
996.565	1773.89
996.861	1780.22
997.157	1773.89
997.453	1774.35
997.749	1761.69
998.044	1742.93
998.34	1749.71
998.636	1743.61
998.932	1715.14
999.227	1690.05
999.523	1707.91
999.818	1700.22
1000.114	1685.31
1000.409	1669.72
1000.704	1658.19
1001	1656.38
1001.295	1636.72
1001.59	1649.15
1001.885	1622.94
1002.18	1603.73
1002.475	1613.45
1002.77	1600.57
1003.065	1581.58
1003.359	1591.53
1003.654	1575.26
1003.949	1594.01
1004.243	1569.61
1004.538	1524.64
1004.832	1559.89
1005.127	1534.8
1005.421	1516.95
1005.715	1532.54
1006.009	1516.27
1006.304	1518.08
1006.598	1493.9
1006.892	1467.69
1007.186	1498.65
1007.48	1435.82
1007.773	1449.38
1008.067	1454.81
1008.361	1453.9
1008.655	1425.43
1008.948	1438.54
1009.242	1430.63
1009.535	1411.42
1009.829	1419.78
1010.122	1393.79
1010.415	1423.85
1010.708	1373.23
1011.001	1405.99
1011.295	1385.88
1011.588	1360.35
1011.881	1348.59
1012.173	1352.44
1012.466	1345.43
1012.759	1322.15
1013.052	1338.88
1013.344	1338.88
1013.637	1349.95
1013.93	1338.88
1014.222	1275.6
1014.514	1287.58
1014.807	1293
1015.099	1289.84
1015.391	1264.53
1015.683	1268.37
1015.976	1256.39
1016.268	1252.1
1016.56	1242.16
1016.851	1230.86
1017.143	1230.18
1017.435	1252.33
1017.727	1218.43
1018.018	1207.36
1018.31	1204.42
1018.602	1223.85
1018.893	1195.83
1019.185	1175.72
1019.476	1177.3
1019.767	1175.27
1020.058	1186.11
1020.35	1175.94
1020.641	1170.07
1020.932	1156.06
1021.223	1135.04
1021.514	1133.68
1021.804	1140.24
1022.095	1101.6
1022.386	1114.02
1022.677	1079.9
1022.967	1095.95
1023.258	1110.18
1023.548	1079.45
1023.839	1083.52
1024.129	1087.13
1024.419	1097.53
1024.709	1059.34
1025	1040.35
1025.29	1038.77
1025.58	1041.94
1025.87	1020.92
1026.16	1016.17
1026.449	1012.78
1026.739	1008.26
1027.029	1025.67
1027.319	1005.33
1027.608	1013.91
1027.898	988.15
1028.187	980.24
1028.477	976.63
1028.766	989.51
1029.055	954.25
1029.344	964.2
1029.634	970.98
1029.923	979.34
1030.212	948.83
1030.501	940.47
1030.79	925.1
1031.078	938.44
1031.367	938.89
1031.656	937.31
1031.945	912.67
1032.233	902.96
1032.522	904.31
1032.81	891.43
1033.099	861.38
1033.387	897.98
1033.675	890.08
1033.963	880.58
1034.251	876.29
1034.54	873.35
1034.828	840.81
1035.116	881.71
1035.403	858.89
1035.691	837.65
1035.979	853.24
1036.267	835.39
1036.554	830.19
1036.842	841.72
1037.129	819.79
1037.417	816.63
1037.704	811.43
1037.992	799
1038.279	793.13
1038.566	820.47
1038.853	820.47
1039.14	820.47
