Data from hue_38_FLMS001491_00096.txt Node
Date: Tue Feb 07 17:32:14 GMT 2017
User: dcchb
Spectrometer: FLMS00149
Trigger mode: 0
Integration Time (sec): 2.000000E-2
Scans to average: 10
Electric dark correction enabled: true
Nonlinearity correction enabled: false
Boxcar width: 0
XAxis mode: Wavelengths
Number of Pixels in Spectrum: 2048
>>>>>Begin Spectral Data<<<<<
341.393	-9.53
341.776	-9.53
342.16	-9.53
342.543	-68.29
342.927	-65.8
343.31	-51.57
343.693	-70.1
344.077	-93.83
344.46	-38.69
344.843	-60.83
345.226	-48.63
345.61	-41.85
345.993	-18.8
346.376	2.44
346.759	13.29
347.142	48.32
347.525	58.04
347.908	35.66
348.291	79.05
348.674	83.57
349.057	103.91
349.44	138.26
349.823	152.5
350.206	156.79
350.588	217.35
350.971	206.73
351.354	222.78
351.737	244.24
352.119	271.36
352.502	251.48
352.884	290.12
353.267	290.12
353.65	295.77
354.032	295.32
354.414	318.37
354.797	315.2
355.179	312.04
355.562	319.95
355.944	326.5
356.326	353.39
356.709	325.15
357.091	355.65
357.473	350.46
357.855	351.81
358.238	359.72
358.62	343.23
359.002	356.33
359.384	329.21
359.766	344.58
360.148	313.17
360.53	325.6
360.912	344.36
361.294	338.93
361.676	316.79
362.057	350
362.439	351.13
362.821	328.99
363.203	331.02
363.584	316.56
363.966	323.11
364.348	338.25
364.729	328.99
365.111	328.54
365.493	326.28
365.874	320.4
366.256	330.12
366.637	302.1
367.019	328.31
367.4	333.73
367.781	325.82
368.163	347.29
368.544	324.92
368.925	323.34
369.306	309.1
369.688	313.85
370.069	335.77
370.45	312.72
370.831	327.41
371.212	309.78
371.593	323.34
371.974	322.66
372.355	334.64
372.736	322.89
373.117	313.62
373.498	320.18
373.879	320.85
374.26	317.46
374.641	343
375.021	331.7
375.402	322.21
375.783	323.34
376.163	342.1
376.544	330.12
376.925	336.22
377.305	327.63
377.686	359.27
378.066	317.69
378.447	325.37
378.827	324.69
379.208	302.1
379.588	324.02
379.968	345.26
380.349	342.1
380.729	328.31
381.109	346.39
381.489	350.46
381.87	348.65
382.25	335.77
382.63	339.38
383.01	354.3
383.39	360.85
383.77	337.12
384.15	335.32
384.53	326.5
384.91	355.2
385.29	366.5
385.67	364.92
386.049	364.24
386.429	348.2
386.809	368.08
387.189	340.29
387.568	376.9
387.948	355.43
388.328	370.57
388.707	370.12
389.087	357.46
389.466	363.79
389.846	388.2
390.225	361.3
390.605	384.13
390.984	370.57
391.363	383.22
391.743	365.6
392.122	360.4
392.501	386.61
392.881	373.51
393.26	383.9
393.639	392.04
394.018	372.15
394.397	401.53
394.776	389.1
395.155	385.26
395.534	406.95
395.913	380.51
396.292	411.47
396.671	394.75
397.05	380.74
397.429	399.04
397.808	401.98
398.186	403.79
398.565	405.37
398.944	404.24
399.323	415.99
399.701	405.82
400.08	388.42
400.458	412.6
400.837	428.87
401.215	420.74
401.594	433.62
401.972	448.53
402.351	435.43
402.729	414.64
403.107	428.42
403.486	436.33
403.864	409.21
404.242	422.77
404.62	445.82
404.999	458.02
405.377	437.01
405.755	446.95
406.133	453.51
406.511	456.22
406.889	453.96
407.267	451.7
407.645	451.7
408.023	441.75
408.401	431.81
408.779	466.84
409.156	448.08
409.534	443.34
409.912	454.18
410.29	457.8
410.667	490.79
411.045	485.59
411.422	471.81
411.8	477.91
412.178	479.27
412.555	480.85
412.933	496.44
413.31	505.93
413.687	498.02
414.065	507.97
414.442	491.92
414.819	493.5
415.197	491.7
415.574	520.4
415.951	552.03
416.328	529.89
416.705	510
417.082	502.54
417.46	518.59
417.837	539.15
418.214	540.73
418.591	537.8
418.967	535.76
419.344	543.22
419.721	546.61
420.098	553.16
420.475	566.04
420.852	569.66
421.228	561.98
421.605	558.36
421.982	560.62
422.358	576.67
422.735	585.48
423.111	593.16
423.488	584.12
423.864	580.96
424.241	573.5
424.617	609.66
424.994	612.14
425.37	617.79
425.746	596.78
426.123	588.87
426.499	625.03
426.875	609.21
427.251	606.5
427.627	633.16
428.003	634.97
428.379	650.79
428.756	665.25
429.132	660.51
429.507	660.73
429.883	663.22
430.259	655.08
430.635	679.26
431.011	656.89
431.387	679.49
431.763	689.66
432.138	687.62
432.514	697.34
432.89	711.8
433.265	708.87
433.641	713.39
434.016	720.84
434.392	719.49
434.767	736.89
435.143	733.95
435.518	742.31
435.894	754.51
436.269	735.08
436.644	738.24
437.02	774.4
437.395	761.97
437.77	792.48
438.145	800.84
438.52	778.02
438.895	801.97
439.271	797.9
439.646	818.24
440.021	814.17
440.395	827.28
440.77	813.95
441.145	816.89
441.52	844.46
441.895	835.64
442.27	819.6
442.645	845.59
443.019	814.17
443.394	856.66
443.769	857.34
444.143	875.64
444.518	875.87
444.892	875.64
445.267	886.94
445.641	890.78
446.016	889.2
446.39	882.19
446.764	880.84
447.139	888.3
447.513	902.98
447.887	884.68
448.262	927.62
448.636	927.16
449.01	920.16
449.384	950.22
449.758	966.94
450.132	952.93
450.506	947.05
450.88	960.84
451.254	965.36
451.628	980.5
452.002	964.68
452.376	961.51
452.75	986.15
453.123	986.15
453.497	1018.46
453.871	1008.52
454.244	1046.94
454.618	1042.19
454.992	1068.18
455.365	1061.4
455.739	1081.29
456.112	1095.97
456.486	1099.36
456.859	1134.39
457.232	1154.28
457.606	1132.81
457.979	1150.89
458.352	1167.84
458.725	1186.59
459.099	1171.45
459.472	1192.24
459.845	1227.72
460.218	1227.95
460.591	1236.99
460.964	1251.9
461.337	1243.31
461.71	1257.55
462.083	1315.63
462.456	1295.74
462.829	1322.41
463.201	1360.15
463.574	1350.2
463.947	1372.58
464.32	1408.28
464.692	1411.67
465.065	1384.78
465.438	1469.98
465.81	1466.81
466.183	1490.54
466.555	1507.49
466.928	1491.67
467.3	1524.44
467.672	1529.63
468.045	1577.54
468.417	1592.46
468.789	1606.47
469.161	1639.24
469.534	1658.45
469.906	1681.27
470.278	1723.53
470.65	1750.19
471.022	1759.91
471.394	1836.29
471.766	1815.96
472.138	1846.01
472.51	1923.97
472.882	1919.68
473.253	1939.57
473.625	1988.61
473.997	2048.04
474.369	2038.1
474.74	2067.47
475.112	2119.9
475.484	2174.14
475.855	2223.4
476.227	2293.46
476.598	2329.39
476.97	2372.55
477.341	2469.95
477.713	2499.55
478.084	2507.91
478.455	2621.36
478.827	2620.68
479.198	2717.4
479.569	2779.55
479.94	2845.08
480.311	2901.12
480.682	2954.68
481.053	3077.39
481.424	3114.68
481.795	3211.85
482.166	3265.18
482.537	3340.66
482.908	3449.36
483.279	3488.45
483.65	3571.16
484.021	3652.06
484.391	3764.15
484.762	3823.59
485.133	3886.64
485.503	3968.67
485.874	4126.4
486.244	4164.37
486.615	4269
486.985	4407.75
487.356	4496.11
487.726	4541.53
488.097	4680.51
488.467	4712.6
488.837	4855.88
489.207	5015.64
489.578	5113.04
489.948	5161.63
490.318	5308.74
490.688	5366.82
491.058	5467.38
491.428	5632.13
491.798	5661.05
492.168	5850.2
492.538	5942.17
492.908	6035.51
493.278	6165.9
493.648	6184.65
494.017	6354.82
494.387	6404.31
494.757	6516.4
495.126	6611.76
495.496	6714.13
495.866	6755.26
496.235	6936.27
496.605	7012.43
496.974	7064.63
497.344	7181.69
497.713	7245.19
498.082	7339.43
498.452	7488.57
498.821	7527.9
499.19	7611.51
499.559	7736.7
499.928	7806.98
500.298	7841.79
500.667	8065.96
501.036	8042.23
501.405	8180.99
501.774	8234.77
502.143	8313.86
502.512	8347.31
502.88	8478.15
503.249	8533.52
503.618	8592.27
503.987	8628.43
504.356	8789.56
504.724	8841.53
505.093	8908.2
505.462	8974.41
505.83	9106.84
506.199	9124.92
506.567	9258.7
506.936	9289.2
507.304	9406.49
507.672	9452.59
508.041	9538.24
508.409	9650.33
508.777	9738.01
509.145	9831.56
509.514	9869.98
509.882	9909.3
510.25	9940.71
510.618	10027.49
510.986	10069.75
511.354	10140.03
511.722	10244.89
512.09	10325.11
512.458	10353.13
512.826	10437.2
513.193	10547.25
513.561	10577.08
513.929	10686.46
514.297	10841.71
514.664	10875.83
515.032	10884.64
515.4	10963.51
515.767	11096.39
516.135	11137.07
516.502	11054.58
516.869	11248.02
517.237	11330.06
517.604	11256.84
517.972	11406.89
518.339	11517.39
518.706	11484.85
519.073	11560.11
519.44	11673.1
519.808	11817.27
520.175	11702.93
520.542	11916.48
520.909	12033.09
521.276	11976.14
521.643	12145.18
522.009	12250.03
522.376	12360.76
522.743	12304.04
523.11	12499.52
523.477	12537.48
523.843	12633.98
524.21	12724.59
524.577	12874.65
524.943	12840.75
525.31	12865.83
525.676	13117.8
526.043	13101.08
526.409	13210.01
526.776	13285.03
527.142	13258.59
527.508	13438.25
527.874	13513.73
528.241	13543.78
528.607	13621.75
528.973	13801.18
529.339	13862.19
529.705	13957.33
530.071	14003.43
530.437	14127.72
530.803	14194.84
531.169	14296.3
531.535	14274.16
531.901	14346.47
532.267	14398
532.632	14491.55
532.998	14527.49
533.364	14722.28
533.73	14685.45
534.095	14805.67
534.461	14837.53
534.826	14859.45
535.192	14927.02
535.557	15109.39
535.923	15100.8
536.288	15178.99
536.653	15284.75
537.019	15277.97
537.384	15303.06
537.749	15397.52
538.114	15342.38
538.479	15423.28
538.845	15542.15
539.21	15494.01
539.575	15545.99
539.94	15700.34
540.305	15735.82
540.67	15745.76
541.034	15905.08
541.399	15959.31
541.764	15987.11
542.129	15979.65
542.494	16066.2
542.858	16123.6
543.223	16126.54
543.587	16311.85
543.952	16252.41
544.316	16354.78
544.681	16449.92
545.045	16505.96
545.41	16620.99
545.774	16622.8
546.138	16680.2
546.503	16760.42
546.867	16704.38
547.231	16935.56
547.595	16886.75
547.959	17023.46
548.324	16924.03
548.688	16977.36
549.052	17186.62
549.416	17127.19
549.779	17203.35
550.143	17261.65
550.507	17343.68
550.871	17440.63
551.235	17511.14
551.599	17548.87
551.962	17606.05
552.326	17648.08
552.689	17755.87
553.053	17653.05
553.417	17845.59
553.78	18020.27
554.143	17841.75
554.507	17933.95
554.87	18015.76
555.234	18299.82
555.597	18070.44
555.96	18157.9
556.323	18306.37
556.686	18322.64
557.05	18420.04
557.413	18513.37
557.776	18512.69
558.139	18592.69
558.502	18720.6
558.865	18606.7
559.228	18937.99
559.59	18888.27
559.953	18947.93
560.316	19099.79
560.679	19110.64
561.041	19175.72
561.404	19215.95
561.767	19450.07
562.129	19309.28
562.492	19562.38
562.854	19563.51
563.217	19614.36
563.579	19573
563.941	19795.6
564.304	19855.71
564.666	20010.96
565.028	20014.57
565.39	20013.67
565.753	20152.65
566.115	20255.47
566.477	20295.47
566.839	20314.68
567.201	20378.4
567.563	20506.76
567.925	20542.92
568.287	20535.69
568.648	20717.38
569.01	20917.6
569.372	20897.26
569.734	20912.18
570.095	21144.26
570.457	21175.45
570.819	21266.97
571.18	21270.13
571.542	21355.33
571.903	21498.15
572.265	21462.22
572.626	21566.62
572.987	21645.49
573.349	21786.5
573.71	21858.37
574.071	22045.25
574.432	22173.84
574.794	22340.16
575.155	22282.54
575.516	22360.05
575.877	22477.33
576.238	22626.93
576.599	22681.17
576.96	22830.77
577.32	22883.65
577.681	23146.69
578.042	23184.88
578.403	23245
578.763	23407.03
579.124	23532.9
579.485	23768.15
579.845	23927.92
580.206	24061.02
580.566	24131.3
580.927	24337.62
581.287	24487.45
581.648	24565.19
582.008	24839.53
582.368	24897.61
582.728	25071.16
583.089	25184.61
583.449	25375.79
583.809	25561.32
584.169	25751.82
584.529	25732.61
584.889	26144.13
585.249	26176.67
585.609	26332.6
585.969	26693.49
586.329	26729.65
586.688	27063.43
587.048	27224.78
587.408	27327.15
587.768	27580.7
588.127	27751.09
588.487	28028.15
588.846	28264.53
589.206	28387.91
589.565	28507.46
589.925	28966.88
590.284	29175.69
590.643	29233.54
591.003	29540.88
591.362	29859.74
591.721	29982.45
592.08	30063.57
592.44	30399.16
592.799	30504.47
593.158	30773.61
593.517	30965.47
593.876	31097.45
594.235	31249.76
594.593	31468.73
594.952	31685.45
595.311	31770.65
595.67	32052.9
596.029	32434.81
596.387	32696.27
596.746	32838.64
597.104	32821.92
597.463	33159.31
597.822	33446.54
598.18	33552.75
598.538	33597.72
598.897	33950.93
599.255	34013.53
599.613	34490.58
599.972	34411.71
600.33	34729.44
600.688	34855.76
601.046	35055.53
601.404	35365.58
601.762	35349.76
602.12	35625.69
602.478	35711.56
602.836	35863.65
603.194	35853.93
603.552	36156.3
603.91	36221.6
604.268	36457.98
604.625	36559.45
604.983	36843.73
605.341	36836.05
605.698	37252.54
606.056	37357.39
606.413	37367.79
606.771	37690.04
607.128	37793.77
607.485	37805.52
607.843	37893.65
608.2	38173.19
608.557	38165.96
608.914	38331.61
609.272	38486.18
609.629	38723.69
609.986	38833.29
610.343	38969.33
610.7	39257.46
611.057	39257.91
611.414	39240.73
611.771	39360.05
612.127	39562.31
612.484	39663.77
612.841	39742.19
613.198	39842.98
613.554	40025.12
613.911	40242.97
614.267	40349.18
614.624	40383.3
614.98	40559.8
615.337	40660.58
615.693	40771.77
616.05	40783.97
616.406	41092.66
616.762	40997.52
617.118	41070.52
617.475	41220.34
617.831	41303.96
618.187	41376.72
618.543	41460.34
618.899	41682.48
619.255	41572.65
619.611	41660.56
619.967	41878.18
620.323	42019.42
620.678	41937.84
621.034	41830.04
621.39	42037.72
621.746	41975.13
622.101	42526.07
622.457	42033.65
622.812	42326.3
623.168	42520.2
623.523	42497.82
623.879	42703.69
624.234	42451.04
624.589	42612.17
624.945	42801.77
625.3	42779.4
625.655	42798.61
626.01	42806.97
626.365	42772.84
626.72	42867.08
627.075	42820.98
627.43	42826.18
627.785	42917.47
628.14	42938.04
628.495	42980.97
628.85	42980.52
629.205	42895.1
629.559	43097.13
629.914	43034.08
630.269	43035.44
630.623	42949.56
630.978	42836.12
631.332	43150.69
631.687	43219.84
632.041	43017.36
632.396	42992.5
632.75	43001.99
633.104	43102.55
633.459	42873.86
633.813	42899.62
634.167	42868.43
634.521	42997.25
634.875	43142.1
635.229	42956.79
635.583	42934.42
635.937	42921.99
636.291	42818.27
636.645	42915.89
636.999	42774.65
637.352	42906.17
637.706	42753.18
638.06	42767.19
638.413	42713.41
638.767	42784.6
639.121	42893.97
639.474	42539.18
639.828	42604.71
640.181	42658.05
640.534	42639.51
640.888	42565.17
641.241	42400.2
641.594	42568.33
641.947	42543.25
642.301	42556.8
642.654	42513.64
643.007	42573.3
643.36	42444.72
643.713	42453.3
644.066	42572.4
644.419	42473.19
644.771	42005.41
645.124	41840.21
645.477	41809.25
645.83	41574.01
646.182	41374.69
646.535	41201.13
646.888	41414.01
647.24	41109.84
647.593	41431.86
647.945	41322.49
648.298	41148.03
648.65	41084.98
649.002	40981.93
649.355	41221.92
649.707	41092.21
650.059	41253.11
650.411	41797.95
650.763	41742.59
651.115	42055.12
651.467	42025.07
651.819	41999.53
652.171	41992.75
652.523	41771.29
652.875	41940.32
653.227	41860.33
653.578	42030.94
653.93	42088.57
654.282	41687.9
654.633	41593.21
654.985	41755.92
655.337	41709.6
655.688	41692.42
656.039	41988.01
656.391	41626.89
656.742	41630.5
657.094	41627.34
657.445	41862.13
657.796	41584.17
658.147	41430.73
658.498	41531.75
658.849	41709.6
659.2	41489.49
659.551	41497.62
659.902	41622.59
660.253	41556.38
660.604	41689.93
660.955	41401.58
661.306	41471.86
661.656	41533.1
662.007	41558.64
662.358	41490.39
662.708	41458.98
663.059	41583.72
663.409	41278.42
663.76	41424.41
664.11	41471.64
664.461	41608.58
664.811	41414.24
665.161	41466.89
665.511	41208.82
665.862	41448.13
666.212	41492.88
666.562	41470.51
666.912	41342.37
667.262	41371.98
667.612	41390.06
667.962	41343.73
668.312	41330.85
668.662	41572.88
669.011	41450.39
669.361	41345.54
669.711	41323.62
670.06	41310.74
670.41	41102.38
670.76	41397.74
671.109	41376.27
671.459	41259.44
671.808	41217.63
672.157	41327.23
672.507	41062.83
672.856	41129.27
673.205	41050.63
673.554	41130.4
673.904	40982.38
674.253	41274.13
674.602	41217.63
674.951	40602.73
675.3	40394.6
675.649	41106.9
675.998	41094.24
676.346	41128.82
676.695	41151.64
677.044	40834.59
677.393	40957.52
677.741	41064.87
678.09	40824.87
678.438	40865.1
678.787	40898.54
679.135	40860.8
679.484	40456.75
679.832	40840.01
680.181	40566.8
680.529	40569.29
680.877	40531.55
681.225	40375.39
681.573	40626.91
681.922	40411.55
682.27	40356.64
682.618	40367.94
682.966	40108.06
683.314	40250.42
683.661	40250.65
684.009	40133.14
684.357	40008.62
684.705	39982.64
685.053	39880.26
685.4	39889.76
685.748	39550.56
686.095	39610.67
686.443	39563.44
686.79	39500.39
687.138	39607.96
687.485	39654.06
687.832	39330.9
688.18	39511.46
688.527	39267.17
688.874	39193.96
689.221	39274.86
689.568	39105.82
689.915	38966.16
690.262	38943.79
690.609	38917.35
690.956	38774.76
691.303	38707.19
691.65	38585.61
691.997	38516.23
692.344	38335.45
692.69	38359.63
693.037	38236.47
693.383	38048.45
693.73	38133.19
694.077	37805.29
694.423	37946.3
694.769	37793.99
695.116	37749.47
695.462	37634.9
695.808	37582.25
696.155	37566.2
696.501	37427.9
696.847	37380.22
697.193	37165.31
697.539	37210.5
697.885	36909.72
698.231	36939.33
698.577	36945.43
698.923	36944.97
699.269	36660.46
699.614	36499.56
699.96	36463.18
700.306	36451.65
700.651	36223.86
700.997	36259.57
701.342	36164.2
701.688	36045.34
702.033	35964.89
702.379	35931.67
702.724	35879.24
703.069	35832.91
703.415	35413.26
703.76	35589.53
704.105	35486.71
704.45	35409.87
704.795	35312.7
705.14	35105.7
705.485	35159.03
705.83	34894.63
706.175	35023.22
706.52	34986.38
706.865	34756.78
707.209	34714.07
707.554	34752.26
707.899	34792.94
708.243	34467.53
708.588	34549.56
708.932	34271.82
709.277	34258.27
709.621	34348.66
709.966	34148.66
710.31	34134.2
710.654	33795.45
710.998	34006.52
711.342	33893.53
711.687	33804.49
712.031	33765.85
712.375	33533.99
712.719	33612.41
713.063	33512.97
713.407	33690.15
713.75	33473.88
714.094	33501.22
714.438	33247.22
714.782	33223.26
715.125	33152.31
715.469	33273.43
715.812	32968.58
716.156	32847.91
716.499	32887.91
716.843	32897.4
717.186	32684.75
717.53	32743.05
717.873	32698.31
718.216	32617.18
718.559	32581.25
718.902	32377.86
719.246	32461.7
719.589	32339.9
719.932	32136.97
720.275	32243.4
720.617	32201.14
720.96	32113.01
721.303	32041.15
721.646	32111.88
721.989	31903.53
722.331	32106.23
722.674	31882.74
723.016	32059.91
723.359	31783.98
723.701	31921.38
724.044	31697.88
724.386	31569.75
724.729	31739.91
725.071	31749.18
725.413	31503.76
725.755	31551.67
726.097	31423.54
726.439	31174.51
726.782	31317.33
727.124	31379.25
727.465	31148.74
727.807	31118.01
728.149	31118.01
728.491	31030.78
728.833	31054.51
729.175	31071.68
729.516	30950.1
729.858	30802.54
730.199	30797.57
730.541	30892.93
730.882	30722.54
731.224	30742.2
731.565	30497.01
731.906	30516.44
732.248	30632.82
732.589	30381.08
732.93	30280.97
733.271	30360.29
733.612	30374.3
733.953	30448.42
734.294	30268.99
734.635	30237.13
734.976	30241.2
735.317	29989.45
735.658	30010.24
735.999	30093.4
736.339	29843.24
736.68	30109.45
737.021	30007.76
737.361	29809.8
737.702	29956.68
738.042	29843.24
738.383	29805.05
738.723	29834.65
739.063	29664.94
739.404	29760.31
739.744	29613.42
740.084	29558.95
740.424	29636.47
740.764	29404.61
741.104	29420.43
741.444	29466.75
741.784	29297.94
742.124	29416.13
742.464	29259.3
742.804	29280.54
743.143	29265.85
743.483	29250.49
743.823	29081.23
744.162	28973.66
744.502	29114.22
744.841	29009.59
745.181	29062.92
745.52	29107.67
745.86	29128.23
746.199	28958.97
746.538	28898.18
746.877	28971.63
747.216	28953.32
747.556	28811.86
747.895	28817.5
748.234	28678.3
748.573	28702.48
748.911	28556.04
749.25	28511.52
749.589	28560.11
749.928	28551.3
750.267	28540.68
750.605	28371.64
750.944	28179.56
751.283	28271.53
751.621	28353.11
751.96	28049.84
752.298	28046.68
752.636	28167.8
752.975	28006.45
753.313	27935.04
753.651	28096.17
753.989	27797.19
754.327	27752
754.666	27655.28
755.004	27613.92
755.342	27637.42
755.679	27722.62
756.017	27472
756.355	27592.45
756.693	27258.68
757.031	27432.68
757.368	27300.48
757.706	27262.52
758.044	27186.81
758.381	27199.69
758.719	26986.37
759.056	27073.37
759.394	27048.51
759.731	26855.75
760.068	26802.64
760.405	26728.52
760.743	26681.52
761.08	26660.95
761.417	26428.87
761.754	26488.53
762.091	26434.52
762.428	26316.55
762.765	26141.19
763.102	26226.39
763.438	26077.69
763.775	26046.73
764.112	25954.98
764.449	26057.8
764.785	25858.03
765.122	25784.59
765.458	25582.34
765.795	25649.23
766.131	25613.97
766.467	25530.81
766.804	25404.49
767.14	25169.69
767.476	25232.06
767.812	25161.56
768.148	25108
768.485	24909.59
768.821	24852.86
769.157	24803.6
769.492	24776.48
769.828	24679.08
770.164	24562.02
770.5	24460.78
770.836	24427.79
771.171	24249.49
771.507	24304.86
771.842	23979.67
772.178	24049.49
772.513	23990.97
772.849	23834.13
773.184	23823.74
773.519	23766.11
773.855	23702.61
774.19	23657.19
774.525	23495.61
774.86	23601.82
775.195	23445.22
775.53	23236.86
775.865	23246.8
776.2	23055.85
776.535	22967.49
776.87	22838.68
777.205	22834.61
777.539	22725.24
777.874	22666.03
778.209	22540.16
778.543	22492.47
778.878	22374.74
779.212	22388.07
779.547	22249.77
779.881	22161.63
780.215	22057.46
780.55	22215.42
780.884	21880.51
781.218	21981.98
781.552	21855.65
781.886	21806.84
782.22	21662.89
782.554	21600.52
782.888	21431.71
783.222	21308.32
783.556	21277.59
783.889	21207.76
784.223	21047.31
784.557	20963.47
784.89	21035.56
785.224	20862.46
785.557	20843.25
785.891	20815.91
786.224	20784.04
786.558	20622.69
786.891	20495.01
787.224	20441
787.557	20375.47
787.891	20382.92
788.224	20328.24
788.557	20324.17
788.89	20233.78
789.223	20160.56
789.556	19964.86
789.888	20082.14
790.221	19856.84
790.554	19703.39
790.887	19746.33
791.219	19680.8
791.552	19591.31
791.884	19492.1
792.217	19394.93
792.549	19368.26
792.882	19168.04
793.214	19189.28
793.546	19206.68
793.879	19188.38
794.211	18994.94
794.543	19126.01
794.875	18869.74
795.207	18973.24
795.539	18824.32
795.871	18837.43
796.203	18715.62
796.535	18621.61
796.867	18516.31
797.198	18591.56
797.53	18619.81
797.862	18404.45
798.193	18527.15
798.525	18191.12
798.856	18365.8
799.188	18093.49
799.519	18101.18
799.85	18039.71
800.182	18099.14
800.513	18001.52
800.844	17820.05
801.175	18038.58
801.506	17833.39
801.837	17675.88
802.168	17719.94
802.499	17658.48
802.83	17528.54
803.161	17467.07
803.491	17556.33
803.822	17522.66
804.153	17382.55
804.483	17200.41
804.814	17098.94
805.145	17101.43
805.475	17125.38
805.805	17085.16
806.136	17101.43
806.466	16959.96
806.796	16932.62
807.126	16858.27
807.457	16840.19
807.787	16907.08
808.117	16711.61
808.447	16712.96
808.777	16805.17
809.107	16646.53
809.436	16599.07
809.766	16559.75
810.096	16561.1
810.426	16432.07
810.755	16434.1
811.085	16358.62
811.414	16351.39
811.744	16241.34
812.073	16198.4
812.403	16183.26
812.732	16103.26
813.061	16100.78
813.39	16036.82
813.719	15981.23
814.049	16119.31
814.378	15864.63
814.707	15929.26
815.036	15823.72
815.365	15838.19
815.693	15592.77
816.022	15689.94
816.351	15577.63
816.68	15528.81
817.008	15494.92
817.337	15394.13
817.665	15499.21
817.994	15419.44
818.322	15407.24
818.651	15300.35
818.979	15360.01
819.307	15360.91
819.636	15292.89
819.964	15153.91
820.292	15422.15
820.62	15229.61
820.948	15122.95
821.276	15229.16
821.604	15135.15
821.932	15124.31
822.259	15207.47
822.587	15106
822.915	15033.69
823.243	15192.55
823.57	15067.13
823.898	15089.28
824.225	15021.94
824.553	15034.36
824.88	15038.21
825.207	15056.06
825.535	15017.64
825.862	15039.79
826.189	15033.69
826.516	15045.44
826.843	15084.31
827.17	15096.28
827.497	15091.54
827.824	15010.86
828.151	15115.04
828.478	15117.98
828.805	15089.05
829.131	15044.76
829.458	14976.06
829.785	15012.44
830.111	15037.3
830.438	14979.68
830.764	15058.77
831.09	15068.26
831.417	14926.12
831.743	15003.86
832.069	14995.95
832.395	14920.24
832.722	15017.64
833.048	14990.75
833.374	14976.29
833.7	14830.3
834.026	14918.89
834.351	14933.35
834.677	14946.23
835.003	14953.69
835.329	14861.94
835.654	14852
835.98	14807.48
836.306	14831.21
836.631	14745.11
836.956	14798.66
837.282	14756.63
837.607	14764.09
837.932	14586.69
838.258	14546.47
838.583	14589.4
838.908	14609.29
839.233	14666.92
839.558	14561.16
839.883	14429.41
840.208	14426.7
840.533	14444.55
840.858	14429.86
841.182	14437.32
841.507	14458.56
841.832	14290.2
842.156	14299.47
842.481	14310.32
842.805	14301.05
843.13	14121.62
843.454	14214.5
843.778	14184.44
844.103	14108.06
844.427	14111.9
844.751	14077.55
845.075	14094.73
845.399	14061.28
845.723	13944
846.047	13918.46
846.371	13895.64
846.695	13858.12
847.019	13782.42
847.343	13581.52
847.666	13549.66
847.99	13530.68
848.313	13558.47
848.637	13521.18
848.96	13437.12
849.284	13499.94
849.607	13234.64
849.931	13319.61
850.254	13195.99
850.577	13135.21
850.9	12990.12
851.223	13028.99
851.546	12912.84
851.869	12806.85
852.192	12909.45
852.515	12826.06
852.838	12678.04
853.161	12697.25
853.483	12693.86
853.806	12594.65
854.129	12630.36
854.451	12580.19
854.774	12532.51
855.096	12472.17
855.419	12447.77
855.741	12380.42
856.063	12350.59
856.385	12247.77
856.708	12234.44
857.03	12159.41
857.352	12180.88
857.674	12147.66
857.996	12140.43
858.318	12032.64
858.64	12063.6
858.961	12056.59
859.283	12001.45
859.605	11915.8
859.926	11937.5
860.248	11883.04
860.57	11749.71
860.891	11868.57
861.212	11764.39
861.534	11700.44
861.855	11689.14
862.176	11780.66
862.498	11670.39
862.819	11700.44
863.14	11624.28
863.461	11620.9
863.782	11535.25
864.103	11610.27
864.424	11519.88
864.745	11537.06
865.065	11522.59
865.386	11454.35
865.707	11442.14
866.027	11441.92
866.348	11403.73
866.668	11439.43
866.989	11369.6
867.309	11294.8
867.63	11249.83
867.95	11317.17
868.27	11300
868.59	11262.71
868.91	11220.23
869.23	11224.75
869.55	11163.05
869.87	11242.83
870.19	11200.79
870.51	11215.93
870.83	11166.22
871.15	11030.4
871.469	11086.22
871.789	11099.1
872.109	11042.15
872.428	10994.24
872.748	11094.13
873.067	10981.36
873.386	10998.31
873.706	10939.11
874.025	10952.66
874.344	10963.51
874.663	10956.96
874.982	10934.13
875.301	10893.23
875.62	10789.73
875.939	10861.59
876.258	10756.28
876.577	10758.54
876.896	10737.08
877.214	10712.22
877.533	10742.95
877.852	10702.5
878.17	10746.57
878.489	10718.55
878.807	10660.47
879.125	10612.79
879.444	10607.14
879.762	10651.65
880.08	10583.18
880.398	10579.79
880.716	10591.09
881.034	10538.89
881.352	10523.3
881.67	10501.38
881.988	10488.95
882.306	10457.99
882.624	10414.37
882.941	10407.37
883.259	10360.59
883.577	10316.3
883.894	10297.09
884.212	10303.87
884.529	10302.06
884.846	10247.37
885.164	10232.68
885.481	10229.52
885.798	10217.77
886.115	10113.82
886.432	10057.09
886.75	10095.51
887.067	10105.45
887.383	10074.72
887.7	10074.95
888.017	10096.64
888.334	10004.89
888.651	9976.64
888.967	9950.43
889.284	9872.69
889.6	9936.42
889.917	9811.23
890.233	9782.3
890.55	9811
890.866	9799.25
891.182	9760.15
891.498	9724.9
891.815	9669.99
892.131	9692.81
892.447	9745.69
892.763	9631.34
893.079	9585.92
893.395	9537.79
893.71	9537.79
894.026	9474.06
894.342	9492.82
894.657	9479.03
894.973	9437.45
895.289	9369.65
895.604	9376.89
895.92	9332.59
896.235	9312.26
896.55	9283.56
896.865	9238.81
897.181	9224.8
897.496	9140.51
897.811	9118.81
898.126	9149.77
898.441	9079.04
898.756	9081.98
899.071	9060.28
899.386	9027.74
899.7	8940.74
900.015	8911.36
900.33	8828.88
900.644	8864.58
900.959	8865.71
901.273	8784.81
901.588	8736.23
901.902	8706.85
902.216	8733.29
902.531	8674.31
902.845	8675.66
903.159	8559.05
903.473	8522.22
903.787	8525.38
904.101	8485.61
904.415	8431.83
904.729	8439.06
905.042	8366.07
905.356	8364.71
905.67	8363.13
905.984	8362.9
906.297	8318.83
906.611	8305.73
906.924	8234.32
907.237	8222.79
907.551	8177.82
907.864	8103.47
908.177	8160.65
908.491	8062.8
908.804	8011.05
909.117	7964.72
909.43	7997.26
909.743	7983.25
910.056	7861.45
910.368	7877.26
910.681	7816.25
910.994	7785.52
911.307	7792.07
911.619	7705.29
911.932	7699.64
912.244	7646.76
912.557	7635.69
912.869	7568.35
913.181	7508.46
913.494	7614.9
913.806	7502.13
914.118	7509.82
914.43	7357.28
914.742	7461.91
915.054	7478.63
915.366	7307.79
915.678	7314.12
915.99	7333.55
916.302	7214.46
916.613	7258.98
916.925	7160
917.236	7197.51
917.548	7174.91
917.859	7146.21
918.171	7050.17
918.482	7092.2
918.794	7091.97
919.105	6992.32
919.416	7022.82
919.727	6948.93
920.038	6914.35
920.349	6875.03
920.66	6857.63
920.971	6878.19
921.282	6816.28
921.593	6789.61
921.903	6768.37
922.214	6743.28
922.525	6724.53
922.835	6647.69
923.146	6610.41
923.456	6628.26
923.767	6582.16
924.077	6564.3
924.387	6564.53
924.697	6502.39
925.008	6498.09
925.318	6484.08
925.628	6408.6
925.938	6376.51
926.248	6350.98
926.558	6329.73
926.867	6307.59
927.177	6267.14
927.487	6266.69
927.796	6175.39
928.106	6156.86
928.416	6141.72
928.725	6159.12
929.034	6172
929.344	6163.64
929.653	6067.37
929.962	6028.5
930.271	6023.98
930.581	5989.18
930.89	5940.82
931.199	5938.56
931.508	5905.34
931.817	5888.62
932.125	5855.4
932.434	5819.92
932.743	5824.66
933.051	5778.34
933.36	5770.65
933.669	5779.24
933.977	5693.37
934.286	5702.86
934.594	5655.4
934.902	5675.06
935.21	5633.71
935.519	5633.93
935.827	5585.8
936.135	5551.45
936.443	5512.36
936.751	5499.02
937.059	5469.42
937.367	5483.43
937.674	5440.04
937.982	5446.82
938.29	5364.34
938.597	5377.44
938.905	5304.45
939.213	5330.66
939.52	5266.71
939.827	5278.46
940.135	5249.31
940.442	5235.98
940.749	5218.58
941.056	5248.41
941.363	5122.31
941.67	5122.08
941.977	5088.41
942.284	5089.09
942.591	5039.83
942.898	5061.29
943.205	5052.25
943.511	4981.75
943.818	5008.19
944.125	4992.14
944.431	4967.51
944.738	4957.34
945.044	4935.87
945.35	4883.9
945.657	4825.82
945.963	4835.08
946.269	4817.23
946.575	4794.86
946.881	4775.65
947.187	4811.36
947.493	4690.91
947.799	4732.71
948.105	4687.74
948.41	4674.19
948.716	4650.46
949.022	4617.69
949.327	4616.11
949.633	4551.93
949.938	4558.03
950.244	4597.35
950.549	4504.25
950.854	4484.59
951.16	4481.2
951.465	4459.5
951.77	4454.08
952.075	4409.11
952.38	4412.72
952.685	4424.47
952.99	4347.87
953.294	4363.23
953.599	4314.87
953.904	4272.61
954.209	4303.8
954.513	4264.93
954.818	4219.96
955.122	4278.04
955.426	4191.71
955.731	4220.19
956.035	4161.66
956.339	4139.28
956.643	4155.55
956.948	4130.92
957.252	4106.97
957.556	4122.79
957.86	4076.91
958.163	4113.97
958.467	4069.46
958.771	4010.25
959.075	4004.82
959.378	4037.37
959.682	3974.54
959.985	4004.37
960.289	3971.38
960.592	3903.13
960.896	3883.25
961.199	3884.15
961.502	3856.13
961.805	3839.63
962.108	3877.14
962.411	3840.76
962.714	3822.23
963.017	3800.76
963.32	3804.38
963.623	3755.11
963.926	3790.14
964.228	3756.7
964.531	3711.05
964.833	3717.37
965.136	3653.42
965.438	3678.05
965.741	3664.49
966.043	3675.57
966.345	3591.05
966.648	3595.12
966.95	3610.03
967.252	3578.39
967.554	3551.73
967.856	3568.9
968.158	3535.91
968.46	3513.54
968.761	3498.17
969.063	3483.48
969.365	3470.15
969.666	3480.77
969.968	3447.55
970.269	3429.92
970.571	3433.09
970.872	3407.78
971.174	3386.08
971.475	3361.9
971.776	3336.82
972.077	3334.79
972.378	3361.9
972.679	3309.93
972.98	3256.37
973.281	3253.21
973.582	3287.78
973.883	3298.63
974.183	3254.34
974.484	3220.89
974.785	3207.33
975.085	3144.73
975.386	3162.81
975.686	3121.46
975.986	3169.37
976.287	3140.21
976.587	3146.54
976.887	3105.64
977.187	3095.92
977.487	3056.83
977.787	3100.67
978.087	3056.6
978.387	3057.73
978.687	3029.03
978.987	3009.37
979.286	2960.33
979.586	2943.16
979.885	2994.23
980.185	2961.91
980.484	2958.07
980.784	2930.5
981.083	2917.17
981.382	2872.42
981.682	2900.22
981.981	2858.64
982.28	2864.74
982.579	2838.3
982.878	2877.85
983.177	2803.95
983.475	2800.11
983.774	2794.69
984.073	2805.76
984.372	2777.06
984.67	2723.73
984.969	2781.13
985.267	2749.26
985.566	2747
985.864	2732.99
986.162	2678.98
986.461	2700
986.759	2665.2
987.057	2636.05
987.355	2628.82
987.653	2617.06
987.951	2622.26
988.249	2612.09
988.547	2591.98
988.844	2597.63
989.142	2567.8
989.44	2586.56
989.737	2546.33
990.035	2559.44
990.332	2581.36
990.63	2547.46
990.927	2510.4
991.224	2495.94
991.521	2468.59
991.819	2457.75
992.116	2485.32
992.413	2455.94
992.71	2436.05
993.006	2440.8
993.303	2422.27
993.6	2406
993.897	2398.09
994.193	2364.64
994.49	2375.04
994.787	2358.54
995.083	2327.13
995.379	2347.47
995.676	2340.46
995.972	2299.33
996.268	2319.44
996.565	2291.42
996.861	2277.41
997.157	2275.6
997.453	2284.64
997.749	2233.8
998.044	2252.1
998.34	2256.62
998.636	2225.89
998.932	2196.74
999.227	2189.96
999.523	2160.8
999.818	2170.75
1000.114	2161.71
1000.409	2176.17
1000.704	2140.47
1001	2121.94
1001.295	2139.56
1001.59	2161.48
1001.885	2120.81
1002.18	2086
1002.475	2090.3
1002.77	2053.01
1003.065	2031.09
1003.359	2041.94
1003.654	2021.37
1003.949	2018.66
1004.243	1995.84
1004.538	2001.94
1004.832	1981.6
1005.127	2009.85
1005.421	1962.84
1005.715	1990.87
1006.009	1936.4
1006.304	1936.18
1006.598	1927.59
1006.892	1901.6
1007.186	1905.22
1007.48	1865.45
1007.773	1890.76
1008.067	1864.77
1008.361	1846.69
1008.655	1847.14
1008.948	1826.35
1009.242	1818.44
1009.535	1819.12
1009.829	1788.16
1010.122	1805.33
1010.415	1786.58
1010.708	1793.13
1011.001	1793.13
1011.295	1777.76
1011.588	1752
1011.881	1732.79
1012.173	1749.97
1012.466	1734.15
1012.759	1729.4
1013.052	1714.49
1013.344	1653.47
1013.637	1669.07
1013.93	1683.53
1014.222	1632.23
1014.514	1660.03
1014.807	1598.11
1015.099	1627.03
1015.391	1623.19
1015.683	1593.14
1015.976	1610.08
1016.268	1581.38
1016.56	1571.22
1016.851	1600.59
1017.143	1563.53
1017.435	1539.58
1017.727	1537.54
1018.018	1501.16
1018.31	1507.71
1018.602	1490.54
1018.893	1505.45
1019.185	1516.75
1019.476	1480.14
1019.767	1469.3
1020.058	1458.45
1020.35	1445.8
1020.641	1473.59
1020.932	1447.38
1021.223	1407.6
1021.514	1395.18
1021.804	1402.86
1022.095	1401.73
1022.386	1382.97
1022.677	1393.37
1022.967	1321.96
1023.258	1339.81
1023.548	1355.4
1023.839	1352.92
1024.129	1342.3
1024.419	1328.51
1024.709	1314.27
1025	1314.05
1025.29	1282.18
1025.58	1295.06
1025.87	1315.4
1026.16	1295.52
1026.449	1276.08
1026.739	1245.8
1027.029	1274.5
1027.319	1261.85
1027.608	1264.11
1027.898	1236.08
1028.187	1228.4
1028.477	1205.58
1028.766	1201.96
1029.055	1204.67
1029.344	1187.27
1029.634	1175.07
1029.923	1179.81
1030.212	1169.64
1030.501	1149.76
1030.79	1167.84
1031.078	1144.79
1031.367	1121.74
1031.656	1108.18
1031.945	1117.22
1032.233	1102.08
1032.522	1078.8
1032.81	1086.26
1033.099	1092.58
1033.387	1114.96
1033.675	1104.56
1033.963	1076.09
1034.251	1067.27
1034.54	1065.01
1034.828	1065.24
1035.116	1072.47
1035.403	1054.85
1035.691	1023.21
1035.979	1032.25
1036.267	1021.17
1036.554	991.8
1036.842	1020.72
1037.129	1010.55
1037.417	992.25
1037.704	981.4
1037.992	970.55
1038.279	990.44
1038.566	953.6
1038.853	953.6
1039.14	953.6
