Data from hue_34_FLMS001491_00080.txt Node
Date: Tue Feb 07 17:26:08 GMT 2017
User: dcchb
Spectrometer: FLMS00149
Trigger mode: 0
Integration Time (sec): 2.000000E-2
Scans to average: 10
Electric dark correction enabled: true
Nonlinearity correction enabled: false
Boxcar width: 0
XAxis mode: Wavelengths
Number of Pixels in Spectrum: 2048
>>>>>Begin Spectral Data<<<<<
341.393	-28.88
341.776	-28.88
342.16	-28.88
342.543	-60.3
342.927	-76.11
343.31	-67.75
343.693	-75.89
344.077	-44.7
344.46	-60.3
344.843	-50.58
345.226	-32.5
345.61	-49
345.993	-31.14
346.376	-22.1
346.759	4.11
347.142	35.3
347.525	56.31
347.908	52.24
348.291	71.68
348.674	106.03
349.057	108.29
349.44	109.64
349.823	135.41
350.206	184.44
350.588	212.69
350.971	234.39
351.354	236.87
351.737	256.08
352.119	263.76
352.502	274.16
352.884	281.39
353.267	291.56
353.65	284.78
354.032	283.42
354.414	315.97
354.797	325.46
355.179	307.15
355.562	328.17
355.944	334.72
356.326	332.91
356.709	346.93
357.091	331.33
357.473	338.11
357.855	343.08
358.238	356.19
358.62	335.17
359.002	335.85
359.384	337.21
359.766	345.34
360.148	339.02
360.53	345.8
360.912	338.79
361.294	329.53
361.676	336.08
362.057	360.03
362.439	327.94
362.821	333.59
363.203	336.76
363.584	337.89
363.966	331.79
364.348	326.59
364.729	337.21
365.111	315.29
365.493	320.71
365.874	332.46
366.256	330.66
366.637	301.5
367.019	323.42
367.4	345.34
367.781	336.3
368.163	317.1
368.544	310.09
368.925	310.99
369.306	327.49
369.688	301.05
370.069	323.88
370.45	315.97
370.831	309.86
371.212	320.71
371.593	312.12
371.974	306.47
372.355	330.88
372.736	316.64
373.117	334.72
373.498	317.1
373.879	323.65
374.26	328.85
374.641	310.54
375.021	337.89
375.402	351.22
375.783	339.69
376.163	341.73
376.544	323.65
376.925	328.62
377.305	322.75
377.686	333.14
378.066	323.2
378.447	348.73
378.827	320.71
379.208	356.87
379.588	341.28
379.968	331.56
380.349	329.3
380.729	348.28
381.109	324.1
381.489	336.08
381.87	333.37
382.25	347.83
382.63	333.59
383.01	336.98
383.39	340.15
383.77	358.68
384.15	353.25
384.53	361.84
384.91	370.65
385.29	365.91
385.67	361.61
386.049	350.32
386.429	340.82
386.809	362.29
387.189	354.16
387.568	366.36
387.948	365.46
388.328	354.38
388.707	347.6
389.087	349.64
389.466	358.23
389.846	362.52
390.225	371.11
390.605	372.69
390.984	367.26
391.363	358
391.743	382.41
392.122	386.25
392.501	378.79
392.881	390.99
393.26	393.48
393.639	382.41
394.018	382.63
394.397	394.61
394.776	407.49
395.155	415.17
395.534	418.79
395.913	379.47
396.292	385.57
396.671	398.9
397.05	382.18
397.429	399.58
397.808	404.33
398.186	400.48
398.565	381.28
398.944	403.65
399.323	393.93
399.701	386.47
400.08	391.67
400.458	397.32
400.837	438.9
401.215	405.46
401.594	407.72
401.972	411.78
402.351	413.82
402.729	428.28
403.107	398
403.486	423.08
403.864	424.66
404.242	428.51
404.62	435.96
404.999	438
405.377	420.37
405.755	421.27
406.133	425.79
406.511	418.34
406.889	454.04
407.267	426.47
407.645	426.02
408.023	461.73
408.401	460.37
408.779	435.06
409.156	468.73
409.534	446.81
409.912	447.94
410.29	433.03
410.667	449.52
411.045	443.65
411.422	481.61
411.8	478.9
412.178	480.03
412.555	464.89
412.933	472.12
413.31	473.93
413.687	463.76
414.065	495.17
414.442	507.6
414.819	481.61
415.197	510.54
415.574	497.88
415.951	504.89
416.328	522.51
416.705	501.72
417.082	522.97
417.46	523.64
417.837	509.86
418.214	501.95
418.591	519.8
418.967	519.35
419.344	518.22
419.721	528.62
420.098	524.77
420.475	541.27
420.852	539.69
421.228	549.18
421.605	535.85
421.982	527.71
422.358	537.43
422.735	553.47
423.111	537.66
423.488	555.51
423.864	567.49
424.241	590.99
424.617	593.25
424.994	572
425.37	577.2
425.746	572.91
426.123	596.64
426.499	574.72
426.875	581.04
427.251	589.86
427.627	590.31
428.003	641.61
428.379	612.91
428.756	615.62
429.132	615.85
429.507	644.55
429.883	654.49
430.259	614.04
430.635	627.37
431.011	632.79
431.387	653.58
431.763	661.27
432.138	654.49
432.514	661.27
432.89	684.54
433.265	695.62
433.641	685.45
434.016	685.67
434.392	716.18
434.767	708.95
435.143	714.6
435.518	727.25
435.894	711.21
436.269	730.42
436.644	736.75
437.02	724.54
437.395	739.91
437.77	746.69
438.145	750.76
438.52	752.56
438.895	747.59
439.271	737.65
439.646	775.84
440.021	783.75
440.395	786.91
440.77	776.97
441.145	802.96
441.52	805.9
441.895	809.74
442.27	816.07
442.645	815.16
443.019	801.38
443.394	803.19
443.769	804.32
444.143	822.62
444.518	817.2
444.892	852
445.267	830.53
445.641	833.92
446.016	856.97
446.39	861.94
446.764	861.49
447.139	842.05
447.513	843.41
447.887	867.14
448.262	862.84
448.636	878.66
449.01	892.9
449.384	889.28
449.758	867.82
450.132	898.78
450.506	880.47
450.88	915.05
451.254	904.2
451.628	948.49
452.002	938.32
452.376	939.68
452.75	941.49
453.123	971.99
453.497	969.28
453.871	974.48
454.244	982.16
454.618	972.45
454.992	993.01
455.365	998.43
455.739	1020.13
456.112	1019.9
456.486	1021.48
456.859	1011.09
457.232	1048.6
457.606	1045.66
457.979	1087.02
458.352	1097.87
458.725	1096.74
459.099	1113.01
459.472	1117.75
459.845	1117.53
460.218	1133.8
460.591	1170.86
460.964	1150.97
461.337	1147.36
461.71	1181.25
462.083	1194.14
462.456	1206.11
462.829	1208.6
463.201	1262.38
463.574	1251.99
463.947	1271.2
464.32	1296.96
464.692	1317.07
465.065	1324.75
465.438	1316.84
465.81	1334.92
466.183	1340.12
466.555	1414.24
466.928	1411.08
467.3	1394.13
467.672	1430.97
468.045	1470.74
468.417	1458.08
468.789	1501.7
469.161	1541.24
469.534	1534.01
469.906	1576.95
470.278	1580.34
470.65	1595.48
471.022	1617.4
471.394	1662.82
471.766	1687.46
472.138	1713.22
472.51	1743.95
472.882	1755.48
473.253	1804.97
473.625	1829.6
473.997	1878.19
474.369	1890.16
474.74	1903.95
475.112	1998.41
475.484	2023.72
475.855	2050.16
476.227	2079.99
476.598	2152.98
476.97	2159.76
477.341	2225.52
477.713	2320.43
478.084	2320.21
478.455	2397.04
478.827	2438.85
479.198	2503.71
479.569	2546.64
479.94	2638.39
480.311	2645.85
480.682	2721.1
481.053	2800.65
481.424	2887.2
481.795	2872.96
482.166	2991.83
482.537	3053.75
482.908	3135.1
483.279	3225.72
483.65	3302.78
484.021	3358.37
484.391	3494.87
484.762	3504.13
485.133	3584.35
485.503	3682.66
485.874	3793.61
486.244	3819.15
486.615	3930.11
486.985	4019.37
487.356	4139.14
487.726	4212.81
488.097	4321.51
488.467	4392.47
488.837	4521.96
489.207	4615.97
489.578	4702.29
489.948	4765.57
490.318	4879.91
490.688	4973.7
491.058	5085.56
491.428	5139.57
491.798	5215.27
492.168	5382.95
492.538	5447.36
492.908	5485.32
493.278	5677.18
493.648	5703.62
494.017	5803.51
494.387	5917.4
494.757	6003.73
495.126	6035.82
495.496	6148.58
495.866	6256.83
496.235	6288.92
496.605	6380.21
496.974	6483.04
497.344	6602.58
497.713	6606.65
498.082	6733.88
498.452	6869.92
498.821	6871.95
499.19	6962.12
499.559	7040.08
499.928	7125.05
500.298	7165.96
500.667	7248.67
501.036	7271.04
501.405	7386.51
501.774	7471.94
502.143	7592.61
502.512	7593.74
502.88	7723.23
503.249	7746.73
503.618	7771.82
503.987	7888.2
504.356	7963.67
504.724	8002.32
505.093	8042.09
505.462	8158.02
505.83	8218.58
506.199	8247.96
506.567	8328.64
506.936	8369.99
507.304	8472.59
507.672	8494.51
508.041	8541.29
508.409	8675.07
508.777	8802.3
509.145	8867.61
509.514	8838.23
509.882	8951.67
510.25	8898.57
510.618	9008.85
510.986	9043.87
511.354	9169.52
511.722	9232.34
512.09	9316.86
512.458	9292.91
512.826	9362.51
513.193	9470.3
513.561	9494.03
513.929	9611.32
514.297	9594.14
514.664	9675.95
515.032	9682.95
515.4	9801.82
515.767	9776.96
516.135	9935.6
516.502	9878.65
516.869	10010.17
517.237	10096.95
517.604	10048.14
517.972	10090.85
518.339	10216.95
518.706	10238.19
519.073	10266.89
519.44	10242.71
519.808	10432.54
520.175	10431.86
520.542	10529.48
520.909	10562.48
521.276	10620.55
521.643	10725.18
522.009	10743.94
522.376	10776.26
522.743	10866.42
523.11	10968.12
523.477	11103.71
523.843	11082.46
524.21	11231.84
524.577	11252.18
524.943	11338.05
525.31	11375.11
525.676	11450.14
526.043	11524.49
526.409	11602.68
526.776	11655.56
527.142	11715.67
527.508	11782.78
527.874	11833.4
528.241	11940.52
528.607	12041.99
528.973	12100.74
529.339	12092.61
529.705	12228.42
530.071	12360.62
530.437	12314.07
530.803	12393.16
531.169	12486.95
531.535	12494.4
531.901	12554.29
532.267	12529.66
532.632	12653.49
532.998	12718.13
533.364	12787.5
533.73	12849.87
534.095	12962.64
534.461	13011.9
534.826	13057.55
535.192	13116.08
535.557	13187.72
535.923	13165.57
536.288	13302.52
536.653	13238.79
537.019	13273.59
537.384	13429.07
537.749	13406.02
538.114	13425.68
538.479	13505.68
538.845	13560.14
539.21	13588.61
539.575	13676.97
539.94	13716.07
540.305	13817.31
540.67	13823.86
541.034	13883.75
541.399	13950.18
541.764	13994.48
542.129	14013.69
542.494	14070.86
542.858	14174.81
543.223	14237.63
543.587	14253.68
543.952	14267.69
544.316	14372.32
544.681	14385.65
545.045	14471.07
545.41	14642.37
545.774	14544.74
546.138	14701.8
546.503	14727.56
546.867	14701.58
547.231	14836.49
547.595	14809.14
547.959	14906.77
548.324	14986.77
548.688	14993.55
549.052	14995.81
549.416	15029.7
549.779	15039.42
550.143	15187.67
550.507	15216.37
550.871	15256.14
551.235	15326.87
551.599	15379.75
551.962	15477.83
552.326	15464.49
552.689	15653.87
553.053	15478.05
553.417	15578.16
553.78	15806.18
554.143	15767.54
554.507	15780.19
554.87	15850.02
555.234	15971.15
555.597	15958.72
555.96	15980.64
556.323	16108.77
556.686	16068.77
557.05	16148.32
557.413	16319.61
557.776	16326.17
558.139	16397.58
558.502	16409.1
558.865	16492.49
559.228	16577.23
559.59	16542.21
559.953	16625.37
560.316	16819.71
560.679	16755.99
561.041	16881.63
561.404	16979.71
561.767	17029.2
562.129	16977.9
562.492	17206.37
562.854	17213.15
563.217	17142.87
563.579	17220.83
563.941	17431
564.304	17530.65
564.666	17527.94
565.028	17537.21
565.39	17674.38
565.753	17721.84
566.115	17677.54
566.477	17779.01
566.839	17916.41
567.201	17967.71
567.563	18057.19
567.925	18213.35
568.287	18096.06
568.648	18164.54
569.01	18288.38
569.372	18419.9
569.734	18352.33
570.095	18468.26
570.457	18617.63
570.819	18597.52
571.18	18609.72
571.542	18878.19
571.903	18810.4
572.265	18988.02
572.626	19031.18
572.987	19100.56
573.349	19183.72
573.71	19337.84
574.071	19255.81
574.432	19416.71
574.794	19477.27
575.155	19672.75
575.516	19696.93
575.877	19845.85
576.238	19925.85
576.599	19901.21
576.96	20137.82
577.32	20168.78
577.681	20378.04
578.042	20466.85
578.403	20561.99
578.763	20675.43
579.124	20835.2
579.485	21070.9
579.845	21245.13
580.206	21302.53
580.566	21401.29
580.927	21677.66
581.287	21912.23
581.648	21886.7
582.008	22236.97
582.368	22321.04
582.728	22617.98
583.089	22612.56
583.449	22912.43
583.809	23183.39
584.169	23360.33
584.529	23428.58
584.889	23891.84
585.249	23896.59
585.609	24021.11
585.969	24351.94
586.329	24516.01
586.688	24732.05
587.048	24976.56
587.408	25170
587.768	25413.39
588.127	25596.66
588.487	25838.46
588.846	26240.71
589.206	26335.62
589.565	26631.21
589.925	26989.84
590.284	27094.7
590.643	27418.08
591.003	27720.44
591.362	27900.1
591.721	28262.35
592.08	28441.55
592.44	28827.31
592.799	29114.08
593.158	29235.66
593.517	29534.18
593.876	29783.21
594.235	29991.34
594.593	30230.66
594.952	30466.59
595.311	30707.03
595.67	30976.18
596.029	31462.27
596.387	31624.52
596.746	31830.84
597.104	32079.65
597.463	32116.26
597.822	32567.55
598.18	32523.71
598.538	32800.54
598.897	33281.2
599.255	33317.58
599.613	33966.15
599.972	34014.74
600.33	34362.75
600.688	34400.27
601.046	34688.85
601.404	34917.99
601.762	35067.82
602.12	35382.61
602.478	35651.99
602.836	35774.92
603.194	35714.58
603.552	36055.82
603.91	36174.91
604.268	36638.18
604.625	36550.49
604.983	36837.94
605.341	36976.25
605.698	37364.03
606.056	37581.65
606.413	37528.1
606.771	38033.84
607.128	38078.36
607.485	38012.6
607.843	38368.75
608.2	38615.75
608.557	38824.11
608.914	38831.79
609.272	39182.06
609.629	39321.04
609.986	39606.23
610.343	39575.05
610.7	39918.77
611.057	40090.51
611.414	40026.33
611.771	40123.28
612.127	40417.28
612.484	40478.3
612.841	40874.45
613.198	40817.5
613.554	40932.3
613.911	41274.66
614.267	41290.26
614.624	41382.01
614.98	41563.24
615.337	41669
615.693	41655.44
616.05	41716.91
616.406	42101.76
616.762	42345.37
617.118	42217.24
617.475	42199.84
617.831	42482.77
618.187	42494.97
618.543	42568.19
618.899	42906.26
619.255	42914.39
619.611	42828.52
619.967	43086.37
620.323	43260.37
620.678	43282.52
621.034	43208.62
621.39	43252.46
621.746	43294.95
622.101	43714.6
622.457	43683.41
622.812	43690.42
623.168	43815.84
623.523	43813.13
623.879	44047.25
624.234	43845.9
624.589	44117.53
624.945	44154.36
625.3	44213.57
625.655	44194.59
626.01	44333.11
626.365	44292.66
626.72	44291.76
627.075	44281.82
627.43	44356.39
627.785	44472.32
628.14	44429.38
628.495	44682.48
628.85	44468.25
629.205	44451.98
629.559	44740.33
629.914	44583.5
630.269	44503.05
630.623	44481.58
630.978	44559.77
631.332	44674.12
631.687	44756.15
632.041	44655.37
632.396	44839.32
632.75	44544.86
633.104	44689.71
633.459	44556.84
633.813	44687.45
634.167	44725.19
634.521	44644.29
634.875	44879.09
635.229	44807
635.583	44555.03
635.937	44677.06
636.291	44549.61
636.645	44592.32
636.999	44535.82
637.352	44680.45
637.706	44497.86
638.06	44709.38
638.413	44556.38
638.767	44405.88
639.121	44569.94
639.474	44395.94
639.828	44435.71
640.181	44495.82
640.534	44534.24
640.888	44480.23
641.241	44256.96
641.594	44363.4
641.947	44416.28
642.301	44281.59
642.654	44308.03
643.007	44328.37
643.36	44369.27
643.713	44220.8
644.066	44442.04
644.419	44142.38
644.771	43886.12
645.124	43461.72
645.477	43406.81
645.83	43331.33
646.182	43084.33
646.535	43095.18
646.888	43041.85
647.24	42819.71
647.593	43027.61
647.945	43018.12
648.298	42801.63
648.65	42820.84
649.002	42740.84
649.355	42820.61
649.707	42755.3
650.059	43054.5
650.411	43619.46
650.763	43537.65
651.115	43828.04
651.467	43780.13
651.819	43835.05
652.171	43660.82
652.523	43673.24
652.875	43683.41
653.227	43469.86
653.578	43801.15
653.93	43627.82
654.282	43419.69
654.633	43389.41
654.985	43460.82
655.337	43535.39
655.688	43504.21
656.039	43633.7
656.391	43308.51
656.742	43480.71
657.094	43411.33
657.445	43552.8
657.796	43519.8
658.147	43392.12
658.498	43440.26
658.849	43504.66
659.2	43430.54
659.551	43338.11
659.902	43496.75
660.253	43439.13
660.604	43402.52
660.955	43191.45
661.306	43500.37
661.656	43237.78
662.007	43369.3
662.358	43264.44
662.708	43276.42
663.059	43368.85
663.409	43039.36
663.76	43333.37
664.11	43260.83
664.461	43180.38
664.811	43149.64
665.161	43317.55
665.511	43146.7
665.862	43260.15
666.212	43194.84
666.562	43339.24
666.912	43169.98
667.262	43106.25
667.612	43069.42
667.962	43176.31
668.312	43047.27
668.662	43381.27
669.011	43122.75
669.361	43012.92
669.711	43050.89
670.06	43029.87
670.41	43044.11
670.76	42951.23
671.109	43103.99
671.459	43111.23
671.808	42933.15
672.157	43132.47
672.507	42828.52
672.856	42933.83
673.205	42898.58
673.554	43117.78
673.904	42791.46
674.253	42957.56
674.602	42913.04
674.951	42365.03
675.3	42149.89
675.649	42888.41
675.998	42698.35
676.346	42776.32
676.695	42936.99
677.044	42605.02
677.393	42732.93
677.741	42869.65
678.09	42641.18
678.438	42654.06
678.787	42685.47
679.135	42657.23
679.484	42438.25
679.832	42554.4
680.181	42332.26
680.529	42482.32
680.877	42382.88
681.225	42280.06
681.573	42549.88
681.922	42297.91
682.27	42050.46
682.618	42132.95
682.966	42000.29
683.314	42063.34
683.661	41936.79
684.009	41703.35
684.357	41747.87
684.705	41735.67
685.053	41746.74
685.4	41579.51
685.748	41579.06
686.095	41417.03
686.443	41384.04
686.79	41279.63
687.138	41465.84
687.485	41375.23
687.832	41270.82
688.18	41168.45
688.527	40979.53
688.874	40984.05
689.221	40883.26
689.568	40850.49
689.915	40694.57
690.262	40702.93
690.609	40555.59
690.956	40484.18
691.303	40422.93
691.65	40250.74
691.997	40273.79
692.344	40153.56
692.69	40116.5
693.037	40159.66
693.383	39852.78
693.73	39862.72
694.077	39617.31
694.423	39709.51
694.769	39561.49
695.116	39476.74
695.462	39526.46
695.808	39403.3
696.155	39442.85
696.501	39085.79
696.847	39101.84
697.193	38688.97
697.539	39036.98
697.885	38847.38
698.231	38590.44
698.577	38621.17
698.923	38583.66
699.269	38443.1
699.614	38282.65
699.96	38246.72
700.306	38233.16
700.651	38138.93
700.997	37950
701.342	37841.99
701.688	37780.29
702.033	37562.44
702.379	37612.84
702.724	37491.94
703.069	37595.44
703.415	37209.91
703.76	37270.93
704.105	37266.41
704.45	37107.32
704.795	36840.2
705.14	36850.6
705.485	36758.4
705.83	36662.58
706.175	36641.34
706.52	36648.8
706.865	36420.33
707.209	36430.27
707.554	36309.82
707.899	36300.33
708.243	36104.86
708.588	36227.11
708.932	35839.33
709.277	35886.78
709.621	35896.27
709.966	35787.58
710.31	35796.16
710.654	35468.04
710.998	35566.34
711.342	35475.72
711.687	35406.12
712.031	35371.77
712.375	35208.16
712.719	35262.39
713.063	35209.51
713.407	35179.68
713.75	34988.5
714.094	34990.53
714.438	34865.57
714.782	34902.18
715.125	34757.09
715.469	34691.79
715.812	34596.19
716.156	34473.26
716.499	34425.35
716.843	34465.35
717.186	34236.88
717.53	34315.75
717.873	34524.56
718.216	34308.52
718.559	34094.74
718.902	33887.96
719.246	34060.16
719.589	33750.34
719.932	33751.02
720.275	33855.42
720.617	33822.43
720.96	33693.17
721.303	33675.99
721.646	33631.47
721.989	33351.48
722.331	33516.9
722.674	33474.64
723.016	33401.88
723.359	33401.65
723.701	33356.91
724.044	33137.02
724.386	33098.16
724.729	33283.24
725.071	33234.65
725.413	33100.19
725.755	33151.04
726.097	32929.8
726.439	32766.86
726.782	32763.7
727.124	32868.78
727.465	32719.18
727.807	32659.07
728.149	32636.25
728.491	32535.23
728.833	32567.77
729.175	32498.4
729.516	32353.09
729.858	32334.56
730.199	32314.22
730.541	32277.39
730.882	32171.85
731.224	32305.41
731.565	32112.64
731.906	32098.86
732.248	32169.14
732.589	31903.38
732.93	31882.82
733.271	31855.25
733.612	31968.24
733.953	31937.06
734.294	31899.77
734.635	31656.16
734.976	31831.75
735.317	31577.74
735.658	31539.33
735.999	31575.26
736.339	31443.28
736.68	31533.22
737.021	31476.73
737.361	31270.18
737.702	31589.04
738.042	31317.86
738.383	31270.18
738.723	31221.59
739.063	31158.32
739.404	31207.58
739.744	31075.16
740.084	31087.59
740.424	31046.46
740.764	30954.93
741.104	30980.24
741.444	30782.06
741.784	30790.87
742.124	30775.05
742.464	30889.63
742.804	30623.64
743.143	30629.97
743.483	30670.65
743.823	30511.1
744.162	30587.03
744.502	30570.09
744.841	30524.89
745.181	30554.95
745.52	30372.8
745.86	30398.79
746.199	30315.63
746.538	30298
746.877	30272.92
747.216	30340.49
747.556	30138.23
747.895	30337.1
748.234	29952.7
748.573	29945.7
748.911	29893.95
749.25	29898.01
749.589	29841.52
749.928	29775.08
750.267	29787.73
750.605	29720.39
750.944	29647.85
751.283	29585.71
751.621	29643.56
751.96	29420.06
752.298	29439.49
752.636	29453.28
752.975	29315.2
753.313	29268.43
753.651	29286.28
753.989	29091.48
754.327	29133.51
754.666	28958.83
755.004	29047.64
755.342	28943.01
755.679	28850.36
756.017	28844.48
756.355	28887.19
756.693	28638.84
757.031	28663.02
757.368	28455.34
757.706	28527.65
758.044	28505.06
758.381	28429.8
758.719	28251.95
759.056	28345.96
759.394	28343.7
759.731	28014
760.068	28059.42
760.405	27887.67
760.743	27893.77
761.08	27865.3
761.417	27673.89
761.754	27664.17
762.091	27600.9
762.428	27488.13
762.765	27355.48
763.102	27514.8
763.438	27307.12
763.775	27164.3
764.112	27056.96
764.449	27151.64
764.785	27027.81
765.122	26871.2
765.458	26762.05
765.795	26709.17
766.131	26720.24
766.467	26513.24
766.804	26503.07
767.14	26324.55
767.476	26397.99
767.812	26260.59
768.148	26318.9
768.485	26075.51
768.821	25929.76
769.157	25959.59
769.492	25834.84
769.828	25711.46
770.164	25567.28
770.5	25544.91
770.836	25528.64
771.171	25352.6
771.507	25378.36
771.842	25002.32
772.178	25129.33
772.513	25046.16
772.849	24908.77
773.184	24742.44
773.519	24883
773.855	24607.08
774.19	24643.01
774.525	24546.06
774.86	24445.05
775.195	24442.11
775.53	24352.17
775.865	24184.94
776.2	24027.43
776.535	23878.74
776.87	23805.29
777.205	23709.7
777.539	23779.76
777.874	23776.37
778.209	23602.36
778.543	23432.19
778.878	23347.9
779.212	23406.21
779.547	23166.44
779.881	23245.53
780.215	23090.51
780.55	23161.92
780.884	22992.43
781.218	23014.8
781.552	22946.78
781.886	22765.32
782.22	22543.86
782.554	22483.74
782.888	22356.52
783.222	22254.6
783.556	22205.33
783.889	22224.32
784.223	22084.89
784.557	21999.46
784.89	22030.65
785.224	21861.16
785.557	21754.72
785.891	21695.29
786.224	21596.31
786.558	21586.37
786.891	21398.8
787.224	21327.17
787.557	21372.81
787.891	21219.82
788.224	21234.74
788.557	21145.48
788.89	21083.78
789.223	21113.84
789.556	20960.4
789.888	20873.39
790.221	20711.59
790.554	20565.83
790.887	20661.19
791.219	20461.2
791.552	20466.17
791.884	20326.06
792.217	20282.67
792.549	20235.89
792.882	20015.56
793.214	20017.6
793.546	20038.84
793.879	19817.15
794.211	19819.18
794.543	19915.68
794.875	19819.41
795.207	19820.54
795.539	19729.47
795.871	19719.75
796.203	19499.19
796.535	19419.42
796.867	19470.49
797.198	19319.08
797.53	19321.57
797.862	19189.59
798.193	19206.99
798.525	19061.24
798.856	19169.48
799.188	18970.17
799.519	18880.45
799.85	18726.56
800.182	18667.57
800.513	18797.06
800.844	18621.93
801.175	18750.74
801.506	18625.99
801.837	18531.31
802.168	18536.05
802.499	18477.75
802.83	18344.87
803.161	18280.47
803.491	18277.98
803.822	18214.7
804.153	18196.4
804.483	17953.69
804.814	17946.01
805.145	17957.31
805.475	17907.82
805.805	17796.18
806.136	17778.33
806.466	17769.52
806.796	17835.96
807.126	17724.32
807.457	17577.66
807.787	17634.15
808.117	17479.13
808.447	17435.97
808.777	17525.68
809.107	17439.81
809.436	17333.37
809.766	17317.55
810.096	17235.07
810.426	17242.3
810.755	17207.73
811.085	17082.08
811.414	17106.94
811.744	16944.91
812.073	16896.55
812.403	16927.96
812.732	16856.32
813.061	16810.22
813.39	16752.14
813.719	16626.5
814.049	16704.24
814.378	16652.49
814.707	16517.8
815.036	16641.19
815.365	16518.7
815.693	16345.15
816.022	16408.65
816.351	16333.62
816.68	16204.81
817.008	16229.9
817.337	16172.72
817.665	16201.88
817.994	16122.1
818.322	16058.15
818.651	16038.72
818.979	15985.38
819.307	16019.28
819.636	16021.77
819.964	15850.93
820.292	15847.76
820.62	15893.86
820.948	15751.72
821.276	15875.11
821.604	15782.45
821.932	15930.7
822.259	15863.81
822.587	15711.27
822.915	15717.6
823.243	15829.46
823.57	15769.8
823.898	15790.59
824.225	15750.36
824.553	15762.34
824.88	15752.62
825.207	15823.58
825.535	15739.52
825.862	15728.89
826.189	15608.45
826.516	15826.52
826.843	15793.75
827.17	15810.93
827.497	15830.36
827.824	15793.98
828.151	15800.98
828.478	15756.24
828.805	15858.38
829.131	15695.9
829.458	15814.77
829.785	15678.95
830.111	15804.15
830.438	15771.83
830.764	15649.57
831.09	15661.78
831.417	15647.99
831.743	15768.44
832.069	15643.47
832.395	15608.67
832.722	15579.97
833.048	15548.33
833.374	15637.6
833.7	15570.48
834.026	15528.9
834.351	15566.64
834.677	15542.01
835.003	15514.44
835.329	15525.51
835.654	15558.05
835.98	15485.06
836.306	15449.81
836.631	15428.11
836.956	15473.08
837.282	15433.08
837.607	15342.92
837.932	15313.54
838.258	15247.1
838.583	15355.12
838.908	15264.27
839.233	15244.16
839.558	15151.73
839.883	15097.05
840.208	15119.42
840.533	15111.51
840.858	15022.92
841.182	15081.23
841.507	15032.42
841.832	15027.44
842.156	14924.85
842.481	14905.41
842.805	14866.32
843.13	14918.07
843.454	14918.29
843.778	14732.99
844.103	14693.22
844.427	14683.95
844.751	14677.85
845.075	14683.05
845.399	14581.13
845.723	14532.09
846.047	14520.34
846.371	14434.69
846.695	14421.36
847.019	14303.4
847.343	14216.17
847.666	14181.36
847.99	14080.12
848.313	14150.86
848.637	14002.39
848.96	14034.48
849.284	13923.29
849.607	13805.33
849.931	13873.35
850.254	13759.23
850.577	13621.61
850.9	13661.15
851.223	13554.71
851.546	13485.56
851.869	13356.53
852.192	13558.78
852.515	13357.21
852.838	13252.8
853.161	13241.73
853.483	13196.08
853.806	13094.84
854.129	13088.96
854.451	13091.9
854.774	12952.02
855.096	12972.81
855.419	12987.05
855.741	12914.96
856.063	12906.82
856.385	12901.17
856.708	12764.45
857.03	12747.05
857.352	12775.75
857.674	12722.65
857.996	12699.14
858.318	12588.41
858.64	12605.81
858.961	12564.23
859.283	12538.47
859.605	12481.07
859.926	12469.09
860.248	12448.75
860.57	12395.87
860.891	12375.99
861.212	12364.91
861.534	12297.8
861.855	12269.1
862.176	12243.34
862.498	12272.71
862.819	12252.38
863.14	12232.94
863.461	12220.29
863.782	12151.59
864.103	12176.67
864.424	12080.85
864.745	12072.72
865.065	12026.39
865.386	11969.22
865.707	11923.12
866.027	11975.55
866.348	11951.14
866.668	12025.94
866.989	11918.6
867.309	11766.29
867.63	11825.04
867.95	11771.03
868.27	11734.2
868.59	11773.29
868.91	11730.13
869.23	11715.44
869.55	11653.3
869.87	11694.65
870.19	11634.99
870.51	11708.21
870.83	11703.24
871.15	11599.51
871.469	11640.64
871.789	11613.97
872.109	11543.92
872.428	11538.27
872.748	11542.79
873.067	11518.16
873.386	11520.64
873.706	11396.58
874.025	11442
874.344	11399.97
874.663	11331.5
874.982	11368.11
875.301	11353.42
875.62	11387.99
875.939	11279.52
876.258	11322
876.577	11213.08
876.896	11296.24
877.214	11204.72
877.533	11180.09
877.852	11234.1
878.17	11209.92
878.489	11157.49
878.807	11236.13
879.125	11177.15
879.444	11117.26
879.762	11062.12
880.08	11136.02
880.398	11039.3
880.716	11104.16
881.034	11005.63
881.352	11009.02
881.67	10999.98
881.988	10897.61
882.306	10931.73
882.624	10868.91
882.941	10868.91
883.259	10842.02
883.577	10791.17
883.894	10767.67
884.212	10809.93
884.529	10731.06
884.846	10783.71
885.164	10670.72
885.481	10622.59
885.798	10656.71
886.115	10611.51
886.432	10598.18
886.75	10551.18
887.067	10548.47
887.383	10514.79
887.7	10518.64
888.017	10516.15
888.334	10509.6
888.651	10460.11
888.967	10411.07
889.284	10409.26
889.6	10354.12
889.917	10259.89
890.233	10266.21
890.55	10241.58
890.866	10240.68
891.182	10192.32
891.498	10163.39
891.815	10150.51
892.131	10087.01
892.447	10098.76
892.763	10051.76
893.079	10008.82
893.395	10033.68
893.71	9942.15
894.026	9923.62
894.342	9889.73
894.657	9856.96
894.973	9813.8
895.289	9801.59
895.604	9778.54
895.92	9715.27
896.235	9783.29
896.55	9705.78
896.865	9638.43
897.181	9600.02
897.496	9610.19
897.811	9584.65
898.126	9459.91
898.441	9489.96
898.756	9477.99
899.071	9348.5
899.386	9478.21
899.7	9342.4
900.015	9298.33
900.33	9195.73
900.644	9257.43
900.959	9193.25
901.273	9192.8
901.588	9095.62
901.902	9095.85
902.216	9056.53
902.531	9002.52
902.845	9047.04
903.159	9012.01
903.473	8934.95
903.787	8976.53
904.101	8836.19
904.415	8938.79
904.729	8896.08
905.042	8841.39
905.356	8743.32
905.67	8745.12
905.984	8721.39
906.297	8674.16
906.611	8614.05
906.924	8579.25
907.237	8552.13
907.551	8571.57
907.864	8482.76
908.177	8452.48
908.491	8440.95
908.804	8381.97
909.117	8374.74
909.43	8350.56
909.743	8255.64
910.056	8199.37
910.368	8264.46
910.681	8147.62
910.994	8192.82
911.307	8108.53
911.619	8066.72
911.932	8109.89
912.244	8045.25
912.557	8047.29
912.869	7999.15
913.181	7906.28
913.494	7941.08
913.806	7876.22
914.118	7816.33
914.43	7765.71
914.742	7842.77
915.054	7777.24
915.366	7728.65
915.678	7636.45
915.99	7662.21
916.302	7575.89
916.613	7570.69
916.925	7532.95
917.236	7516
917.548	7458.38
917.859	7475.78
918.171	7436.23
918.482	7361.66
918.794	7330.7
919.105	7357.59
919.416	7255.9
919.727	7261.77
920.038	7306.74
920.349	7202.11
920.66	7170.02
920.971	7151.49
921.282	7077.82
921.593	7077.82
921.903	6985.4
922.214	7047.54
922.525	6983.59
922.835	6941.1
923.146	6933.19
923.456	6890.93
923.767	6881.67
924.077	6882.8
924.387	6830.37
924.697	6791.5
925.008	6730.49
925.318	6732.07
925.628	6668.79
925.938	6661.56
926.248	6602.81
926.558	6535.69
926.867	6549.7
927.177	6499.31
927.487	6518.29
927.796	6483.26
928.106	6495.24
928.416	6395.35
928.725	6377.05
929.034	6368.24
929.344	6407.78
929.653	6351.97
929.962	6322.14
930.271	6232.65
930.581	6257.73
930.89	6230.16
931.199	6180.67
931.508	6217.51
931.817	6191.97
932.125	6118.98
932.434	6112.2
932.743	6039.43
933.051	6023.84
933.36	5977.06
933.669	5975.25
933.977	5990.39
934.286	5923.28
934.594	5957.4
934.902	5872.43
935.21	5855.71
935.519	5807.35
935.827	5812.77
936.135	5773.22
936.443	5779.1
936.751	5749.95
937.059	5685.54
937.367	5692.32
937.674	5688.71
937.982	5633.79
938.29	5598.09
938.597	5657.97
938.905	5542.27
939.213	5516.28
939.52	5540.46
939.827	5522.84
940.135	5470.18
940.442	5438.09
940.749	5443.97
941.056	5427.24
941.363	5355.16
941.67	5391.09
941.977	5292.78
942.284	5300.69
942.591	5316.06
942.898	5277.42
943.205	5261.15
943.511	5195.84
943.818	5181.38
944.125	5170.08
944.431	5130.53
944.738	5137.76
945.044	5115.16
945.35	5071.55
945.657	5056.86
945.963	5032.23
946.269	5015.96
946.575	4989.29
946.881	4963.98
947.187	4994.49
947.493	4940.7
947.799	4934.6
948.105	4896.86
948.41	4847.37
948.716	4874.26
949.022	4769.86
949.327	4789.52
949.633	4732.57
949.938	4815.96
950.244	4762.4
950.549	4737.77
950.854	4657.77
951.16	4683.08
951.465	4693.03
951.77	4592.24
952.075	4605.8
952.38	4587.04
952.685	4594.05
952.99	4544.56
953.294	4567.38
953.599	4520.6
953.904	4463.43
954.209	4456.2
954.513	4431.11
954.818	4409.87
955.122	4428.63
955.426	4387.5
955.731	4371
956.035	4337.56
956.339	4337.33
956.643	4351.57
956.948	4331.23
957.252	4331.45
957.556	4262.08
957.86	4254.62
958.163	4239.03
958.467	4219.14
958.771	4217.78
959.075	4179.59
959.378	4151.8
959.682	4187.28
959.985	4123.1
960.289	4129.43
960.592	4074.74
960.896	4078.13
961.199	4081.29
961.502	4043.55
961.805	4026.15
962.108	3996.55
962.411	4044.23
962.714	3957.68
963.017	3968.75
963.32	3919.04
963.623	3886.49
963.926	3871.58
964.228	3894.63
964.531	3797.68
964.833	3855.08
965.136	3825.03
965.438	3793.61
965.741	3790
966.043	3762.66
966.345	3761.07
966.648	3763.56
966.95	3765.14
967.252	3694.86
967.554	3732.15
967.856	3680.17
968.158	3676.33
968.46	3661.87
968.761	3637.69
969.063	3594.3
969.365	3550.46
969.666	3573.06
969.968	3543.45
970.269	3547.29
970.571	3531.7
970.872	3529.89
971.174	3478.59
971.475	3527.86
971.776	3459.84
972.077	3463
972.378	3455.32
972.679	3468.88
972.98	3429.1
973.281	3378.71
973.582	3386.39
973.883	3394.08
974.183	3354.76
974.484	3339.16
974.785	3358.6
975.085	3299.16
975.386	3327.41
975.686	3258.94
975.986	3291.03
976.287	3250.58
976.587	3239.96
976.887	3252.84
977.187	3231.82
977.487	3170.13
977.787	3182.78
978.087	3182.56
978.387	3171.94
978.687	3140.07
978.987	3143.69
979.286	3115.89
979.586	3106.85
979.885	3072.28
980.185	3080.41
980.484	3051.94
980.784	3037.25
981.083	3011.71
981.382	2991.83
981.682	2987.08
981.981	2992.51
982.28	2980.53
982.579	3011.94
982.878	2960.42
983.177	2976.69
983.475	2924.03
983.774	2933.07
984.073	2880.19
984.372	2897.14
984.67	2913.86
984.969	2827.09
985.267	2855.79
985.566	2845.62
985.864	2813.53
986.162	2817.82
986.461	2833.41
986.759	2807.88
987.057	2760.87
987.355	2713.42
987.653	2721.33
987.951	2741.67
988.249	2690.14
988.547	2701.67
988.844	2681.55
989.142	2678.84
989.44	2664.83
989.737	2652.4
990.035	2649.69
990.332	2640.65
990.63	2641.1
990.927	2609.01
991.224	2600.88
991.521	2595.91
991.819	2557.04
992.116	2565.85
992.413	2546.87
992.71	2537.83
993.006	2561.78
993.303	2491.05
993.6	2508
993.897	2494.21
994.193	2467.1
994.49	2477.49
994.787	2423.26
995.083	2424.61
995.379	2443.37
995.676	2433.42
995.972	2399.3
996.268	2405.63
996.565	2394.33
996.861	2344.61
997.157	2371.51
997.453	2312.3
997.749	2355.23
998.044	2309.59
998.34	2318.17
998.636	2334.22
998.932	2311.62
999.227	2265.52
999.523	2262.58
999.818	2273.65
1000.114	2238.18
1000.409	2228.01
1000.704	2212.41
1001	2209.48
1001.295	2197.95
1001.59	2202.47
1001.885	2174.22
1002.18	2162.47
1002.475	2166.31
1002.77	2143.49
1003.065	2116.82
1003.359	2103.49
1003.654	2099.65
1003.949	2091.51
1004.243	2091.51
1004.538	2046.99
1004.832	2048.8
1005.127	2019.2
1005.421	2067.11
1005.715	2020.55
1006.009	1994.34
1006.304	1996.83
1006.598	1995.7
1006.892	1986.2
1007.186	1992.98
1007.48	1948.24
1007.773	1950.95
1008.067	1936.26
1008.361	1939.88
1008.655	1924.74
1008.948	1923.61
1009.242	1898.3
1009.535	1875.25
1009.829	1857.62
1010.122	1874.34
1010.415	1855.36
1010.708	1861.01
1011.001	1828.47
1011.295	1816.72
1011.588	1807.45
1011.881	1784.18
1012.173	1791.86
1012.466	1766.78
1012.759	1792.31
1013.052	1744.18
1013.344	1729.26
1013.637	1711.86
1013.93	1712.54
1014.222	1701.24
1014.514	1685.65
1014.807	1664.86
1015.099	1676.83
1015.391	1694.01
1015.683	1657.85
1015.976	1663.05
1016.268	1647.91
1016.56	1648.81
1016.851	1634.8
1017.143	1626.89
1017.435	1607.46
1017.727	1602.94
1018.018	1588.93
1018.31	1593.22
1018.602	1590.96
1018.893	1556.61
1019.185	1570.62
1019.476	1536.05
1019.767	1527.69
1020.058	1508.7
1020.35	1515.03
1020.641	1495.6
1020.932	1515.03
1021.223	1485.43
1021.514	1486.1
1021.804	1472.32
1022.095	1461.47
1022.386	1439.78
1022.677	1427.8
1022.967	1425.09
1023.258	1425.32
1023.548	1394.13
1023.839	1435.71
1024.129	1375.6
1024.419	1384.41
1024.709	1365.66
1025	1361.14
1025.29	1336.28
1025.58	1335.6
1025.87	1323.62
1026.16	1331.53
1026.449	1310.29
1026.739	1331.31
1027.029	1299.9
1027.319	1281.36
1027.608	1273.46
1027.898	1294.47
1028.187	1282.95
1028.477	1275.94
1028.766	1263.96
1029.055	1237.75
1029.344	1222.38
1029.634	1205.89
1029.923	1228.26
1030.212	1214.7
1030.501	1194.59
1030.79	1179.9
1031.078	1166.11
1031.367	1184.64
1031.656	1161.37
1031.945	1164.98
1032.233	1198.2
1032.522	1150.07
1032.81	1129.96
1033.099	1103.29
1033.387	1131.76
1033.675	1121.82
1033.963	1097.87
1034.251	1099.67
1034.54	1095.83
1034.828	1111.65
1035.116	1092.22
1035.403	1077.08
1035.691	1066
1035.979	1068.71
1036.267	1030.52
1036.554	1056.74
1036.842	1024.65
1037.129	997.08
1037.417	1028.04
1037.704	1011.54
1037.992	1003.86
1038.279	1018.55
1038.566	992.56
1038.853	992.56
1039.14	992.56
