Data from hue_320_FLMS001491_94.txt Node
Date: Mon Feb 06 15:47:59 GMT 2017
User: dcchb
Spectrometer: FLMS00149
Trigger mode: 0
Integration Time (sec): 2.000000E-2
Scans to average: 10
Electric dark correction enabled: true
Nonlinearity correction enabled: false
Boxcar width: 0
XAxis mode: Wavelengths
Number of Pixels in Spectrum: 2048
>>>>>Begin Spectral Data<<<<<
341.393	-11.62
341.776	-11.62
342.16	-11.62
342.543	-76.03
342.927	-66.99
343.31	-64.73
343.693	-66.76
344.077	-68.12
344.46	-52.3
344.843	-53.88
345.226	-39.87
345.61	-38.52
345.993	-16.14
346.376	-15.24
346.759	16.85
347.142	6.68
347.525	58.2
347.908	54.59
348.291	92.55
348.674	84.42
349.057	102.27
349.44	146.11
349.823	137.3
350.206	177.07
350.588	183.17
350.971	189.95
351.354	200.12
351.737	230.18
352.119	234.25
352.502	243.74
352.884	259.56
353.267	268.59
353.65	293.45
354.032	314.24
354.414	306.11
354.797	314.7
355.179	321.47
355.562	316.95
355.944	307.01
356.326	336.84
356.709	357.41
357.091	332.1
357.473	325.54
357.855	337.75
358.238	332.1
358.62	348.59
359.002	343.85
359.384	348.59
359.766	333.45
360.148	360.57
360.53	337.07
360.912	328.71
361.294	318.08
361.676	314.47
362.057	316.73
362.439	328.03
362.821	323.51
363.203	310.4
363.584	323.51
363.966	322.6
364.348	323.51
364.729	337.97
365.111	330.06
365.493	328.71
365.874	328.48
366.256	322.83
366.637	299.55
367.019	315.37
367.4	307.01
367.781	305.66
368.163	328.25
368.544	337.52
368.925	307.01
369.306	316.5
369.688	313.57
370.069	316.73
370.45	336.84
370.831	322.15
371.212	314.92
371.593	312.21
371.974	323.51
372.355	299.1
372.736	309.05
373.117	324.41
373.498	312.44
373.879	325.54
374.26	311.31
374.641	299.1
375.021	311.98
375.402	339.33
375.783	318.99
376.163	326.45
376.544	338.2
376.925	319.67
377.305	303.17
377.686	306.79
378.066	329.38
378.447	327.8
378.827	346.11
379.208	307.24
379.588	325.32
379.968	322.83
380.349	330.74
380.729	316.28
381.109	321.25
381.489	330.29
381.87	326.9
382.25	340.91
382.63	337.07
383.01	310.18
383.39	337.97
383.77	342.94
384.15	329.84
384.53	359.21
384.91	352.21
385.29	327.35
385.67	347.69
386.049	368.03
386.429	334.58
386.809	347.69
387.189	330.29
387.568	348.82
387.948	352.21
388.328	335.03
388.707	352.89
389.087	370.96
389.466	355.82
389.846	350.63
390.225	388.82
390.605	374.35
390.984	373.68
391.363	351.98
391.743	344.07
392.122	350.17
392.501	364.86
392.881	365.99
393.26	354.92
393.639	366.67
394.018	387.91
394.397	368.25
394.776	360.12
395.155	366.9
395.534	376.16
395.913	382.04
396.292	370.96
396.671	367.12
397.05	403.51
397.429	374.35
397.808	398.53
398.186	375.03
398.565	374.81
398.944	373.22
399.323	384.07
399.701	387.01
400.08	385.43
400.458	387.24
400.837	407.35
401.215	388.37
401.594	407.35
401.972	422.49
402.351	399.66
402.729	397.4
403.107	431.3
403.486	417.74
403.864	409.16
404.242	420.46
404.62	427.46
404.999	430.62
405.377	420
405.755	407.8
406.133	432.21
406.511	405.31
406.889	441.92
407.267	417.97
407.645	457.29
408.023	435.14
408.401	427.91
408.779	455.48
409.156	463.62
409.534	503.62
409.912	462.04
410.29	479.66
410.667	494.35
411.045	485.76
411.422	484.63
411.8	491.64
412.178	485.31
412.555	507.91
412.933	496.84
413.31	501.81
413.687	513.33
414.065	503.16
414.442	523.05
414.819	527.12
415.197	546.1
415.574	544.29
415.951	541.81
416.328	532.32
416.705	548.14
417.082	590.62
417.46	615.48
417.837	569.15
418.214	579.09
418.591	584.97
418.967	597.17
419.344	603.95
419.721	624.52
420.098	624.07
420.475	608.25
420.852	624.29
421.228	634.69
421.605	663.61
421.982	641.24
422.358	648.47
422.735	669.26
423.111	632.88
423.488	651.18
423.864	657.06
424.241	687.11
424.617	684.85
424.994	683.95
425.37	682.37
425.746	716.72
426.123	692.09
426.499	714.23
426.875	725.08
427.251	728.47
427.627	737.96
428.003	763.5
428.379	752.2
428.756	769.37
429.132	774.34
429.507	776.6
429.883	789.71
430.259	796.04
430.635	788.35
431.011	805.53
431.387	808.24
431.763	810.28
432.138	849.6
432.514	839.65
432.89	858.41
433.265	855.25
433.641	882.36
434.016	857.96
434.392	880.78
434.767	898.63
435.143	889.6
435.518	914.91
435.894	927.56
436.269	939.54
436.644	944.28
437.02	944.28
437.395	961.68
437.77	967.11
438.145	986.99
438.52	1001
438.895	992.42
439.271	987.45
439.646	1035.35
440.021	1012.53
440.395	1019.76
440.77	1006.2
441.145	1018.86
441.52	1025.64
441.895	1050.95
442.27	1024.51
442.645	1040.1
443.019	1052.98
443.394	1024.51
443.769	1064.51
444.143	1050.27
444.518	1071.74
444.892	1047.56
445.267	1085.97
445.641	1093.21
446.016	1099.31
446.39	1102.92
446.764	1104.96
447.139	1096.37
447.513	1106.31
447.887	1112.64
448.262	1113.77
448.636	1114.22
449.01	1148.57
449.384	1133.43
449.758	1147.89
450.132	1143.83
450.506	1144.5
450.88	1147.44
451.254	1188.34
451.628	1164.62
452.002	1171.85
452.376	1166.88
452.75	1179.31
453.123	1201.45
453.497	1198.51
453.871	1201
454.244	1214.56
454.618	1199.64
454.992	1194.9
455.365	1233.99
455.739	1256.14
456.112	1271.73
456.486	1258.4
456.859	1282.81
457.232	1323.03
457.606	1289.58
457.979	1309.92
458.352	1301.34
458.725	1315.35
459.099	1352.63
459.472	1321.67
459.845	1353.31
460.218	1361.22
460.591	1363.71
460.964	1367.32
461.337	1375.91
461.71	1409.58
462.083	1401.45
462.456	1417.26
462.829	1450.48
463.201	1421.56
463.574	1460.65
463.947	1449.35
464.32	1458.85
464.692	1487.32
465.065	1477.83
465.438	1521.9
465.81	1532.06
466.183	1523.48
466.555	1527.09
466.928	1567.32
467.3	1551.72
467.672	1569.13
468.045	1584.04
468.417	1604.38
468.789	1606.64
469.161	1627.43
469.534	1660.65
469.906	1668.33
470.278	1693.64
470.65	1680.08
471.022	1712.17
471.394	1751.95
471.766	1785.62
472.138	1729.8
472.51	1794.43
472.882	1798.27
473.253	1837.59
473.625	1832.4
473.997	1879.17
474.369	1883.69
474.74	1853.19
475.112	1888.67
475.484	1956.69
475.855	1982.67
476.227	1976.35
476.598	2020.86
476.97	2042.79
477.341	2053.18
477.713	2088.66
478.084	2065.61
478.455	2104.03
478.827	2150.35
479.198	2192.39
479.569	2169.79
479.94	2247.3
480.311	2253.85
480.682	2264.7
481.053	2289.11
481.424	2319.16
481.795	2353.29
482.166	2415.2
482.537	2384.47
482.908	2412.04
483.279	2487.07
483.65	2498.14
484.021	2498.14
484.391	2548.99
484.762	2544.02
485.133	2543.11
485.503	2578.36
485.874	2674.18
486.244	2645.48
486.615	2693.39
486.985	2747.17
487.356	2764.8
487.726	2790.11
488.097	2824.01
488.467	2845.48
488.837	2888.86
489.207	2896.77
489.578	2944.68
489.948	2967.05
490.318	3015.87
490.688	3005.25
491.058	3053.38
491.428	3058.35
491.798	3054.51
492.168	3111.01
492.538	3122.53
492.908	3172.93
493.278	3206.37
493.648	3177.22
494.017	3233.26
494.387	3270.1
494.757	3316.65
495.126	3307.61
495.496	3255.41
495.866	3335.86
496.235	3331.79
496.605	3362.3
496.974	3380.83
497.344	3395.07
497.713	3460.83
498.082	3441.17
498.452	3489.75
498.821	3502.63
499.19	3450.21
499.559	3518.9
499.928	3534.27
500.298	3564.78
500.667	3593.48
501.036	3594.38
501.405	3628.73
501.774	3613.82
502.143	3608.62
502.512	3606.59
502.88	3625.79
503.249	3628.05
503.618	3681.84
503.987	3674.61
504.356	3684.55
504.724	3737.43
505.093	3755.51
505.462	3730.88
505.83	3784.21
506.199	3772.23
506.567	3800.71
506.936	3839.12
507.304	3823.08
507.672	3873.47
508.041	3874.15
508.409	3872.57
508.777	3883.19
509.145	3921.15
509.514	3957.99
509.882	3929.74
510.25	3929.06
510.618	3942.85
510.986	3925
511.354	3959.57
511.722	4008.16
512.09	4013.35
512.458	4031.89
512.826	4040.92
513.193	4052.22
513.561	4068.72
513.929	4062.85
514.297	4087.48
514.664	4078.21
515.032	4131.54
515.4	4155.05
515.767	4123.18
516.135	4157.76
516.502	4108.49
516.869	4202.95
517.237	4217.64
517.604	4211.32
517.972	4195.95
518.339	4221.49
518.706	4225.1
519.073	4281.14
519.44	4231.88
519.808	4235.5
520.175	4309.62
520.542	4327.47
520.909	4288.83
521.276	4303.97
521.643	4299.22
522.009	4356.62
522.376	4379.9
522.743	4410.18
523.11	4454.93
523.477	4433.46
523.843	4438.43
524.21	4482.5
524.577	4506
524.943	4513
525.31	4515.26
525.676	4542.83
526.043	4567.24
526.409	4588.03
526.776	4649.95
527.142	4618.31
527.508	4634.81
527.874	4668.7
528.241	4714.81
528.607	4694.24
528.973	4722.04
529.339	4783.28
529.705	4807.68
530.071	4811.53
530.437	4827.8
530.803	4863.28
531.169	4843.39
531.535	4878.64
531.901	4882.26
532.267	4889.26
532.632	4924.29
532.998	4922.71
533.364	5030.5
533.73	4960.9
534.095	5014.46
534.461	5035.7
534.826	5098.98
535.192	5107.11
535.557	5152.53
535.923	5102.82
536.288	5136.26
536.653	5178.75
537.019	5141.91
537.384	5164.29
537.749	5221.01
538.114	5212.42
538.479	5247.45
538.845	5276.15
539.21	5260.1
539.575	5263.27
539.94	5314.11
540.305	5356.37
540.67	5377.39
541.034	5354.11
541.399	5393.43
541.764	5411.28
542.129	5451.96
542.494	5427.33
542.858	5490.6
543.223	5475.46
543.587	5525.41
543.952	5535.35
544.316	5586.87
544.681	5644.5
545.045	5632.97
545.41	5654.89
545.774	5697.15
546.138	5647.66
546.503	5744.38
546.867	5705.06
547.231	5785.29
547.595	5775.57
547.959	5829.8
548.324	5807.21
548.688	5823.7
549.052	5852.18
549.416	5868.22
549.779	5896.7
550.143	5904.15
550.507	5976.24
550.871	6004.04
551.235	5987.99
551.599	5997.94
551.962	6042.23
552.326	6003.59
552.689	6111.6
553.053	6016.47
553.417	6046.97
553.78	6104.83
554.143	6112.96
554.507	6122.23
554.87	6122
555.234	6249.45
555.597	6185.95
555.96	6213.98
556.323	6217.36
556.686	6225.95
557.05	6285.61
557.413	6286.74
557.776	6329.45
558.139	6388.43
558.502	6309.79
558.865	6343.46
559.228	6387.3
559.59	6440.41
559.953	6391.37
560.316	6487.64
560.679	6465.49
561.041	6472.5
561.404	6509.56
561.767	6565.6
562.129	6521.54
562.492	6603.8
562.854	6549.33
563.217	6532.61
563.579	6594.53
563.941	6640.4
564.304	6649.67
564.666	6747.52
565.028	6725.37
565.39	6766.5
565.753	6756.79
566.115	6772.38
566.477	6790.23
566.839	6808.76
567.201	6871.81
567.563	6791.13
567.925	6863.45
568.287	6896.44
568.648	6922.88
569.01	6971.7
569.372	6991.13
569.734	6965.37
570.095	7081.52
570.457	7028.19
570.819	7138.24
571.18	7166.49
571.542	7227.51
571.903	7164.23
572.265	7247.17
572.626	7330.1
572.987	7326.71
573.349	7387.5
573.71	7444.45
574.071	7459.59
574.432	7510.44
574.794	7568.52
575.155	7612.81
575.516	7658.46
575.877	7694.61
576.238	7802.41
576.599	7835.4
576.96	7907.26
577.32	7958.34
577.681	8028.16
578.042	8116.3
578.403	8174.6
578.763	8248.95
579.124	8335.5
579.485	8472.45
579.845	8556.29
580.206	8599.68
580.566	8698.43
580.927	8803.96
581.287	8944.52
581.648	9054.58
582.008	9261.58
582.368	9337.96
582.728	9490.5
583.089	9669.25
583.449	9750.83
583.809	9961.67
584.169	10111.95
584.529	10247.09
584.889	10452.73
585.249	10584.03
585.609	10773.18
585.969	10973.85
586.329	11164.13
586.688	11412.26
587.048	11604.57
587.408	11815.64
587.768	12066.48
588.127	12223.53
588.487	12513.92
588.846	12743.07
589.206	12925.66
589.565	13201.81
589.925	13528.36
590.284	13554.12
590.643	13890.84
591.003	14191.62
591.362	14512.74
591.721	14760.42
592.08	14960.64
592.44	15298.93
592.799	15554.07
593.158	15804.46
593.517	16126.03
593.876	16376.87
594.235	16609.41
594.593	16920.13
594.952	17193.35
595.311	17436.96
595.67	17777.29
596.029	18187.22
596.387	18406.2
596.746	18766.87
597.104	18913.98
597.463	19225.16
597.822	19603.68
598.18	19790.34
598.538	20120.73
598.897	20466.93
599.255	20641.62
599.613	21176.75
599.972	21263.3
600.33	21681.82
600.688	21870.51
601.046	22073.9
601.404	22470.27
601.762	22701.45
602.12	23007.21
602.478	23247.65
602.836	23505.95
603.194	23676.57
603.552	24024.35
603.91	24152.03
604.268	24541.4
604.625	24706.37
604.983	25001.73
605.341	25107.49
605.698	25453.92
606.056	25772.78
606.413	25919.9
606.771	26231.53
607.128	26459.54
607.485	26651.63
607.843	26916.26
608.2	27106.76
608.557	27497.03
608.914	27639.17
609.272	27864.71
609.629	28040.07
609.986	28404.13
610.343	28517.12
610.7	28753.5
611.057	28991.68
611.414	29093.6
611.771	29352.12
612.127	29554.15
612.484	29621.27
612.841	29956.63
613.198	30061.26
613.554	30249.5
613.911	30498.99
614.267	30604.97
614.624	30783.05
614.98	30957.05
615.337	31273.66
615.693	31278.63
616.05	31470.26
616.406	31868.22
616.762	31752.96
617.118	31920.42
617.475	31942.79
617.831	32268.66
618.187	32341.88
618.543	32481.98
618.899	32864.12
619.255	32805.59
619.611	32933.05
619.967	33144.11
620.323	33286.48
620.678	33278.35
621.034	33289.87
621.39	33316.99
621.746	33581.84
622.101	33942.06
622.457	33676.98
622.812	33961.27
623.168	34128.95
623.523	34125.33
623.879	34297.08
624.234	34206.23
624.589	34396.51
624.945	34368.26
625.3	34560.8
625.655	34666.11
626.01	34681.7
626.365	34729.38
626.72	34787.01
627.075	34965.76
627.43	34927.8
627.785	34861.58
628.14	35104.51
628.495	35004.63
628.85	35136.83
629.205	35148.13
629.559	35404.39
629.914	35214.34
630.269	35279.2
630.623	35332.53
630.978	35246.21
631.332	35481.91
631.687	35450.72
632.041	35452.98
632.396	35638.29
632.75	35566.2
633.104	35644.84
633.459	35541.34
633.813	35500.66
634.167	35698.4
634.521	35554.45
634.875	35706.31
635.229	35650.49
635.583	35410.95
635.937	35512.64
636.291	35514
636.645	35705.63
636.999	35570.27
637.352	35668.79
637.706	35457.73
638.06	35628.79
638.413	35551.06
638.767	35561.23
639.121	35620.89
639.474	35510.61
639.828	35521
640.181	35449.36
640.534	35670.6
640.888	35394.9
641.241	35375.92
641.594	35463.83
641.947	35546.31
642.301	35518.97
642.654	35579.08
643.007	35490.95
643.36	35562.58
643.713	35416.6
644.066	35593.09
644.419	35334.57
644.771	35083.5
645.124	34860.23
645.477	34720.57
645.83	34587.24
646.182	34502.27
646.535	34304.99
646.888	34614.36
647.24	34320.13
647.593	34481.25
647.945	34283.97
648.298	34298.21
648.65	34323.52
649.002	34117.65
649.355	34277.64
649.707	34245.78
650.059	34293.01
650.411	34820.68
650.763	35008.02
651.115	35183.83
651.467	35030.17
651.819	35039.43
652.171	35163.5
652.523	35135.25
652.875	35110.16
653.227	34818.65
653.578	35186.77
653.93	34979.32
654.282	34883.73
654.633	34831.98
654.985	34897.97
655.337	34863.17
655.688	34919.21
656.039	35138.19
656.391	34663.4
656.742	34764.18
657.094	34816.39
657.445	34859.1
657.796	34803.05
658.147	34840.79
658.498	34720.57
658.849	34970.73
659.2	34788.82
659.551	34654.13
659.902	34843.73
660.253	34810.96
660.604	34777.52
660.955	34588.82
661.306	34780.91
661.656	34670.4
662.007	34821.58
662.358	34654.36
662.708	34768.25
663.059	34662.72
663.409	34577.07
663.76	34797.4
664.11	34648.48
664.461	34761.47
664.811	34762.83
665.161	34700.01
665.511	34577.07
665.862	34685.99
666.212	34766.22
666.562	34756.95
666.912	34626.34
667.262	34661.14
667.612	34611.42
667.962	34549.5
668.312	34622.72
668.662	34801.7
669.011	34581.36
669.361	34680.12
669.711	34361.94
670.06	34432.89
670.41	34473.34
670.76	34440.8
671.109	34498.88
671.459	34547.47
671.808	34425.44
672.157	34560.35
672.507	34408.26
672.856	34311.32
673.205	34336.63
673.554	34521.03
673.904	34354.93
674.253	34642.61
674.602	34335.27
674.951	33956.75
675.3	33854.38
675.649	34306.34
675.998	34192.9
676.346	34185.22
676.695	34290.75
677.044	34115.16
677.393	34201.04
677.741	34225.22
678.09	34158.78
678.438	34016.86
678.787	34159.45
679.135	34128.72
679.484	33924.43
679.832	34095.28
680.181	33830.88
680.529	34032.68
680.877	33999.01
681.225	33851.89
681.573	34041.72
681.922	33864.32
682.27	33735.51
682.618	33708.39
682.966	33678.56
683.314	33772.12
683.661	33487.16
684.009	33427.72
684.357	33324.45
684.705	33362.64
685.053	33372.13
685.4	33360.83
685.748	33238.12
686.095	33293.71
686.443	33072.7
686.79	33083.55
687.138	33048.75
687.485	33075.64
687.832	32954.06
688.18	33032.93
688.527	32742.99
688.874	32794.29
689.221	32787.29
689.568	32642.66
689.915	32589.55
690.262	32526.28
690.609	32404.02
690.956	32453.29
691.303	32365.38
691.65	32206.51
691.997	32072.05
692.344	31924.71
692.69	31962
693.037	31938.72
693.383	31708.22
693.73	31863.7
694.077	31575.34
694.423	31632.52
694.769	31687.2
695.116	31414.44
695.462	31512.52
695.808	31396.59
696.155	31471.62
696.501	31103.04
696.847	31196.59
697.193	30975.36
697.539	31099.65
697.885	30814.23
698.231	30754.8
698.577	30761.8
698.923	30744.4
699.269	30611.07
699.614	30403.4
699.96	30403.62
700.306	30464.18
700.651	30146.91
700.997	30231.42
701.342	30241.14
701.688	30142.84
702.033	30071.2
702.379	30012.45
702.724	29823.75
703.069	29996.17
703.415	29615.85
703.76	29718.67
704.105	29523.19
704.45	29537.88
704.795	29453.59
705.14	29387.83
705.485	29268.28
705.83	29319.81
706.175	29275.29
706.52	29136.54
706.865	29089.76
707.209	28969.08
707.554	28880.05
707.899	29011.12
708.243	28786.26
708.588	28666.27
708.932	28582.88
709.277	28585.82
709.621	28519.15
709.966	28430.34
710.31	28560.96
710.654	28288.87
710.998	28221.76
711.342	28285.49
711.687	28201.87
712.031	28120.97
712.375	28031.03
712.719	28164.36
713.063	27944.7
713.407	28114.87
713.75	27871.71
714.094	27821.77
714.438	27629.91
714.782	27618.84
715.125	27479.63
715.469	27652.06
715.812	27615.22
716.156	27408.9
716.499	27346.75
716.843	27312.4
717.186	27123.03
717.53	27372.51
717.873	27320.76
718.216	27218.85
718.559	27347.66
718.902	26997.38
719.246	27043.03
719.589	26942.02
719.932	26779.76
720.275	26826.31
720.617	26884.62
720.96	26719.42
721.303	26733.44
721.646	26794.68
721.989	26535.25
722.331	26599.65
722.674	26585.42
723.016	26653.21
723.359	26537.06
723.701	26564.85
724.044	26374.12
724.386	26203.05
724.729	26333.9
725.071	26272.66
725.413	26243.5
725.755	26212.55
726.097	26166.44
726.439	26017.97
726.782	26000.12
727.124	26150.85
727.465	25978.65
727.807	25944.3
728.149	25875.83
728.491	25809.17
728.833	25930.29
729.175	25712.22
729.516	25794.7
729.858	25681.49
730.199	25691.88
730.541	25633.13
730.882	25635.61
731.224	25630.19
731.565	25544.31
731.906	25553.58
732.248	25661.15
732.589	25311.55
732.93	25365.34
733.271	25282.63
733.612	25313.13
733.953	25349.29
734.294	25209.18
734.635	25195.4
734.976	25202.85
735.317	25074.72
735.658	25029.98
735.999	25105.23
736.339	24978.68
736.68	25003.99
737.021	24947.49
737.361	24923.77
737.702	24944.78
738.042	24942.3
738.383	24867.27
738.723	24864.56
739.063	24743.43
739.404	24710.89
739.744	24741.17
740.084	24508.64
740.424	24499.82
740.764	24645.35
741.104	24561.74
741.444	24586.6
741.784	24448.3
742.124	24427.06
742.464	24398.81
742.804	24303.67
743.143	24305.25
743.483	24385.7
743.823	24157.23
744.162	24168.98
744.502	24124.01
744.841	24076.33
745.181	24215.31
745.52	24053.28
745.86	24104.58
746.199	24003.56
746.538	24072.49
746.877	23947.75
747.216	24056.67
747.556	23879.27
747.895	23859.16
748.234	23877.24
748.573	23780.29
748.911	23703.68
749.25	23850.57
749.589	23571.71
749.928	23673.63
750.267	23724.93
750.605	23618.94
750.944	23622.33
751.283	23485.39
751.621	23530.36
751.96	23407.65
752.298	23284.71
752.636	23354.99
752.975	23263.7
753.313	23049.46
753.651	23235.22
753.989	23045.4
754.327	23122.01
754.666	22917.04
755.004	22984.38
755.342	22946.19
755.679	22990.48
756.017	22754.11
756.355	22805.63
756.693	22661
757.031	22757.95
757.368	22584.39
757.706	22568.8
758.044	22471.85
758.381	22468.24
758.719	22373.55
759.056	22372.65
759.394	22343.72
759.731	22180.11
760.068	22117.74
760.405	22045.65
760.743	22008.59
761.08	22083.39
761.417	21818.54
761.754	21944.41
762.091	21767.46
762.428	21791.87
762.765	21626.45
763.102	21668.26
763.438	21556.17
763.775	21494.93
764.112	21432.11
764.449	21514.59
764.785	21315.27
765.122	21194.37
765.458	21104.43
765.795	21099.46
766.131	21084.54
766.467	20974.49
766.804	20992.12
767.14	20793.48
767.476	20874.38
767.812	20640.94
768.148	20759.36
768.485	20577.89
768.821	20542.86
769.157	20537.21
769.492	20461.28
769.828	20343.32
770.164	20227.39
770.5	20183.1
770.836	20187.17
771.171	20021.52
771.507	19930.45
771.842	19953.73
772.178	19947.17
772.513	19791.02
772.849	19834.63
773.184	19658.82
773.519	19665.37
773.855	19607.75
774.19	19460.86
774.525	19442.55
774.86	19334.31
775.195	19320.98
775.53	19279.62
775.865	19118.95
776.2	19010.47
776.535	18889.12
776.87	18944.04
777.205	18843.02
777.539	18893.64
777.874	18866.07
778.209	18509.47
778.543	18477.38
778.878	18422.92
779.212	18396.03
779.547	18363.03
779.881	18382.47
780.215	18244.17
780.55	18349.25
780.884	18185.19
781.218	18118.75
781.552	18169.82
781.886	18001.24
782.22	17833.56
782.554	17860
782.888	17746.1
783.222	17623.17
783.556	17556.5
783.889	17546.56
784.223	17408.71
784.557	17374.59
784.89	17370.29
785.224	17238.09
785.557	17208.49
785.891	17174.59
786.224	17210.52
786.558	17084.65
786.891	16898.44
787.224	16891.43
787.557	16814.83
787.891	16856.18
788.224	16740.93
788.557	16700.25
788.89	16619.13
789.223	16620.03
789.556	16440.15
789.888	16429.98
790.221	16416.87
790.554	16269.08
790.887	16251.45
791.219	16148.86
791.552	16071.12
791.884	16054.85
792.217	16036.99
792.549	16085.13
792.882	15874.06
793.214	15872.03
793.546	15844.46
793.879	15695.76
794.211	15735.98
794.543	15708.41
794.875	15556.1
795.207	15578.02
795.539	15575.08
795.871	15522.43
796.203	15485.82
796.535	15308.65
796.867	15309.1
797.198	15267.52
797.53	15207.86
797.862	15150.92
798.193	15138.49
798.525	15004.25
798.856	15099.17
799.188	14954.08
799.519	14819.17
799.85	14825.73
800.182	14805.39
800.513	14804.48
800.844	14650.14
801.175	14740.98
801.506	14694.66
801.837	14470.03
802.168	14610.14
802.499	14566.52
802.83	14452.4
803.161	14403.82
803.491	14392.74
803.822	14496.92
804.153	14303.71
804.483	14230.04
804.814	14204.73
805.145	14134.22
805.475	14150.72
805.805	14113.65
806.136	14143.48
806.466	14045.18
806.796	13969.48
807.126	14019.87
807.457	13862.59
807.787	13915.24
808.117	13861.91
808.447	13709.6
808.777	13767.67
809.107	13722.7
809.436	13696.94
809.766	13627.34
810.096	13622.14
810.426	13519.32
810.755	13542.37
811.085	13507.12
811.414	13426.21
811.744	13392.09
812.073	13394.13
812.403	13340.12
812.732	13225.09
813.061	13274.81
813.39	13140.57
813.719	13188.48
814.049	13204.07
814.378	13207.46
814.707	13068.94
815.036	13095.15
815.365	12991.42
815.693	12884.31
816.022	12957.07
816.351	12960.01
816.68	12851.54
817.008	12850.86
817.337	12830.52
817.665	12722.28
817.994	12762.5
818.322	12755.95
818.651	12678.44
818.979	12586.91
819.307	12674.82
819.636	12544.88
819.964	12554.83
820.292	12575.84
820.62	12534.49
820.948	12507.59
821.276	12492.91
821.604	12468.73
821.932	12525.9
822.259	12531.55
822.587	12490.42
822.915	12466.69
823.243	12576.52
823.57	12490.19
823.898	12434.15
824.225	12379.24
824.553	12409.29
824.88	12439.35
825.207	12413.36
825.535	12380.59
825.862	12371.1
826.189	12387.15
826.516	12433.25
826.843	12425.56
827.17	12452.46
827.497	12436.18
827.824	12445.68
828.151	12419.69
828.478	12451.78
828.805	12399.8
829.131	12372.68
829.458	12456.75
829.785	12328.62
830.111	12352.12
830.438	12457.65
830.764	12434.6
831.09	12451.1
831.417	12325.23
831.743	12405.9
832.069	12412
832.395	12295.4
832.722	12392.12
833.048	12254.49
833.374	12335.85
833.7	12265.12
834.026	12247.49
834.351	12313.48
834.677	12243.87
835.003	12327.03
835.329	12302.63
835.654	12261.05
835.98	12244.32
836.306	12181.73
836.631	12085.01
836.956	12207.26
837.282	12093.82
837.607	12112.58
837.932	12022.41
838.258	12086.81
838.583	12051.56
838.908	11964.11
839.233	12059.92
839.558	11934.95
839.883	11871
840.208	11914.39
840.533	11925.69
840.858	11873.49
841.182	11899.02
841.507	11906.71
841.832	11831.91
842.156	11781.74
842.481	11778.57
842.805	11730.21
843.13	11692.7
843.454	11757.11
843.778	11631.46
844.103	11610.9
844.427	11618.35
844.751	11607.73
845.075	11549.43
845.399	11557.79
845.723	11468.53
846.047	11468.07
846.371	11410.45
846.695	11358.7
847.019	11331.13
847.343	11324.8
847.666	11249.1
847.99	11179.49
848.313	11179.27
848.637	11120.51
848.96	11106.5
849.284	11118.03
849.607	10982.44
849.931	10898.6
850.254	10906.73
850.577	10765.95
850.9	10766.85
851.223	10790.58
851.546	10662.67
851.869	10627.19
852.192	10648.66
852.515	10540.64
852.838	10515.78
853.161	10477.82
853.483	10422.23
853.806	10393.3
854.129	10449.8
854.451	10471.72
854.774	10311.27
855.096	10255.22
855.419	10257.71
855.741	10201.44
856.063	10157.15
856.385	10131.39
856.708	10118.28
857.03	10088.68
857.352	10038.28
857.674	10062.91
857.996	9992.18
858.318	10001.9
858.64	9920.77
858.961	9876.25
859.283	9964.84
859.605	9804.39
859.926	9835.35
860.248	9816.59
860.57	9735.24
860.891	9809.81
861.212	9708.57
861.534	9703.37
861.855	9691.62
862.176	9657.73
862.498	9652.75
862.819	9712.19
863.14	9575.69
863.461	9641.91
863.782	9526.88
864.103	9620.67
864.424	9604.62
864.745	9570.04
865.065	9521.68
865.386	9537.5
865.707	9415.02
866.027	9444.85
866.348	9424.29
866.668	9439.43
866.989	9400.56
867.309	9328.92
867.63	9318.07
867.95	9369.82
868.27	9252.99
868.59	9307
868.91	9257.28
869.23	9274.46
869.55	9243.95
869.87	9310.16
870.19	9239.66
870.51	9213.22
870.83	9263.39
871.15	9152.88
871.469	9220.22
871.789	9168.7
872.109	9200.56
872.428	9053
872.748	9097.97
873.067	9086.22
873.386	9114.92
873.706	9089.83
874.025	9013.9
874.344	9078.08
874.663	9043.96
874.982	9025.65
875.301	9031.53
875.62	9013.68
875.939	9001.25
876.258	8926.45
876.577	8904.3
876.896	8878.31
877.214	8860.23
877.533	8890.51
877.852	8893
878.17	8825.43
878.489	8888.48
878.807	8889.84
879.125	8883.96
879.444	8879.22
879.762	8798.54
880.08	8819.56
880.398	8674.93
880.716	8738.2
881.034	8741.82
881.352	8781.37
881.67	8685.55
881.988	8686.68
882.306	8685.77
882.624	8596.74
882.941	8614.36
883.259	8566.68
883.577	8631.09
883.894	8496.4
884.212	8529.62
884.529	8515.61
884.846	8533.24
885.164	8517.19
885.481	8424.31
885.798	8423.63
886.115	8371.43
886.432	8355.16
886.75	8315.16
887.067	8331.66
887.383	8298.89
887.7	8306.35
888.017	8308.84
888.334	8344.77
888.651	8251.21
888.967	8251.89
889.284	8156.75
889.6	8207.82
889.917	8108.16
890.233	8175.28
890.55	8124.43
890.866	8128.5
891.182	8135.28
891.498	8095.28
891.815	8039.69
892.131	8032.91
892.447	7997.88
892.763	7974.15
893.079	7937.09
893.395	7918.79
893.71	7870.43
894.026	7883.54
894.342	7845.34
894.657	7773.93
894.973	7787.94
895.289	7804.67
895.604	7782.3
895.92	7700.04
896.235	7583.43
896.55	7610.1
896.865	7631.79
897.181	7626.37
897.496	7628.85
897.811	7574.84
898.126	7616.2
898.441	7480.61
898.756	7475.64
899.071	7453.94
899.386	7456.65
899.7	7399.48
900.015	7263.89
900.33	7329.88
900.644	7296.66
900.959	7255.08
901.273	7263.66
901.588	7212.14
901.902	7225.7
902.216	7188.86
902.531	7176.89
902.845	7153.39
903.159	7074.74
903.473	7074.97
903.787	7047.85
904.101	7039.26
904.415	6992.49
904.729	6952.03
905.042	6933.73
905.356	6929.89
905.67	6919.72
905.984	6897.35
906.297	6847.18
906.611	6785.03
906.924	6865.03
907.237	6813.06
907.551	6820.29
907.864	6739.38
908.177	6725.37
908.491	6676.34
908.804	6660.06
909.117	6611.93
909.43	6577.81
909.743	6502.33
910.056	6569.9
910.368	6506.62
910.681	6469.56
910.994	6485.38
911.307	6418.94
911.619	6406.51
911.932	6419.39
912.244	6388.21
912.557	6361.09
912.869	6298.27
913.181	6314.76
913.494	6268.66
913.806	6238.16
914.118	6239.06
914.43	6196.8
914.742	6189.57
915.054	6115.9
915.366	6115.22
915.678	6086.29
915.99	6056.24
916.302	6029.57
916.613	6030.48
916.925	6052.17
917.236	5996.81
917.548	5988.67
917.859	5948.22
918.171	5937.37
918.482	5853.08
918.794	5874.55
919.105	5856.47
919.416	5772.18
919.727	5815.34
920.038	5765.85
920.349	5724.27
920.66	5715.46
920.971	5751.84
921.282	5683.82
921.593	5659.64
921.903	5610.83
922.214	5571.05
922.525	5592.3
922.835	5550.49
923.146	5468.46
923.456	5557.04
923.767	5480.43
924.077	5478.4
924.387	5438.63
924.697	5385.07
925.008	5406.54
925.318	5396.82
925.628	5344.39
925.938	5333.09
926.248	5305.52
926.558	5307.78
926.867	5256.03
927.177	5263.49
927.487	5211.97
927.796	5199.31
928.106	5199.54
928.416	5159.31
928.725	5125.64
929.034	5093.33
929.344	5090.39
929.653	5053.1
929.962	5061.46
930.271	5065.53
930.581	5025.31
930.89	4957.06
931.199	4935.82
931.508	4946.66
931.817	4947.12
932.125	4900.79
932.434	4899.66
932.743	4823.05
933.051	4830.06
933.36	4849.94
933.669	4746.22
933.977	4800.68
934.286	4754.13
934.594	4764.75
934.902	4696.5
935.21	4736.27
935.519	4676.39
935.827	4692.66
936.135	4622.83
936.443	4578.99
936.751	4576.28
937.059	4589.16
937.367	4523.85
937.674	4513.68
937.982	4508.26
938.29	4528.14
938.597	4474.36
938.905	4447.92
939.213	4451.76
939.52	4477.75
939.827	4424.87
940.135	4369.96
940.442	4354.14
940.749	4345.55
941.056	4334.7
941.363	4273.69
941.67	4311.88
941.977	4260.35
942.284	4263.52
942.591	4269.85
942.898	4234.37
943.205	4208.38
943.511	4165.89
943.818	4115.73
944.125	4132.67
944.431	4121.15
944.738	4124.99
945.044	4119.34
945.35	4097.87
945.657	4050.19
945.963	4000.25
946.269	4043.86
946.575	4023.3
946.881	3977.2
947.187	3992.34
947.493	3967.48
947.799	3913.47
948.105	3899.01
948.41	3898.33
948.716	3920.48
949.022	3872.12
949.327	3840.7
949.633	3816.07
949.938	3827.6
950.244	3845.22
950.549	3781.27
950.854	3775.4
951.16	3775.62
951.465	3775.85
951.77	3752.34
952.075	3706.24
952.38	3654.27
952.685	3699.01
952.99	3641.16
953.294	3666.02
953.599	3621.95
953.904	3592.12
954.209	3586.47
954.513	3637.77
954.818	3565.23
955.122	3561.84
955.426	3585.12
955.731	3551.67
956.035	3508.74
956.339	3476.42
956.643	3471.67
956.948	3470.09
957.252	3462.41
957.556	3446.82
957.86	3416.76
958.163	3411.79
958.467	3393.71
958.771	3426.03
959.075	3367.04
959.378	3342.19
959.682	3382.41
959.985	3322.3
960.289	3315.29
960.592	3304.45
960.896	3304.22
961.199	3275.75
961.502	3272.36
961.805	3249.31
962.108	3227.61
962.411	3213.83
962.714	3162.53
963.017	3143.55
963.32	3161.85
963.623	3176.99
963.926	3153.26
964.228	3100.84
964.531	3115.3
964.833	3099.03
965.136	3116.43
965.438	3043.66
965.741	3048.86
966.043	3042.53
966.345	3044.57
966.648	2993.72
966.95	2983.55
967.252	3012.48
967.554	2994.62
967.856	2982.65
968.158	2931.8
968.46	2952.37
968.761	2934.29
969.063	2942.87
969.365	2912.82
969.666	2925.02
969.968	2856.78
970.269	2873.5
970.571	2910.33
970.872	2845.02
971.174	2813.61
971.475	2849.09
971.776	2821.75
972.077	2789.21
972.378	2770.45
972.679	2802.31
972.98	2758.25
973.281	2756.89
973.582	2740.85
973.883	2719.83
974.183	2735.65
974.484	2724.35
974.785	2719.6
975.085	2701.98
975.386	2666.05
975.686	2657.23
975.986	2632.83
976.287	2611.58
976.587	2626.5
976.887	2600.06
977.187	2592.6
977.487	2578.82
977.787	2567.74
978.087	2569.55
978.387	2555.99
978.687	2555.77
978.987	2531.36
979.286	2525.48
979.586	2530.68
979.885	2497.01
980.185	2463.11
980.484	2452.27
980.784	2482.55
981.083	2461.53
981.382	2390.12
981.682	2414.07
981.981	2401.19
982.28	2436.9
982.579	2386.28
982.878	2406.84
983.177	2369.56
983.475	2378.37
983.774	2370.01
984.073	2370.69
984.372	2366.62
984.67	2375.43
984.969	2362.55
985.267	2309.22
985.566	2362.1
985.864	2300.63
986.162	2281.65
986.461	2275.55
986.759	2255.66
987.057	2241.88
987.355	2224.93
987.653	2248.66
987.951	2242.78
988.249	2251.82
988.547	2203.91
988.844	2193.97
989.142	2190.8
989.44	2185.83
989.737	2160.3
990.035	2137.02
990.332	2160.97
990.63	2156.45
990.927	2118.72
991.224	2123.69
991.521	2092.95
991.819	2096.12
992.116	2095.44
992.413	2088.43
992.71	2070.81
993.006	2057.93
993.303	2052.05
993.6	2039.62
993.897	2055.89
994.193	2044.37
994.49	2024.25
994.787	1992.39
995.083	1995.33
995.379	1988.55
995.676	2016.12
995.972	1999.85
996.268	1958.49
996.565	1948.78
996.861	1934.31
997.157	1955.33
997.453	1922.34
997.749	1924.6
998.044	1915.11
998.34	1904.94
998.636	1873.98
998.932	1868.78
999.227	1869.68
999.523	1863.35
999.818	1870.81
1000.114	1854.77
1000.409	1812.96
1000.704	1822.68
1001	1790.59
1001.295	1811.6
1001.59	1795.33
1001.885	1772.51
1002.18	1792.17
1002.475	1754.43
1002.77	1738.39
1003.065	1771.15
1003.359	1751.27
1003.654	1701.1
1003.949	1725.73
1004.243	1732.96
1004.538	1705.17
1004.832	1697.26
1005.127	1693.87
1005.421	1666.98
1005.715	1675.34
1006.009	1648.45
1006.304	1652.97
1006.598	1645.96
1006.892	1652.97
1007.186	1623.59
1007.48	1633.76
1007.773	1599.41
1008.067	1600.09
1008.361	1575.9
1008.655	1590.37
1008.948	1571.61
1009.242	1591.5
1009.535	1547.21
1009.829	1534.32
1010.122	1507.88
1010.415	1500.2
1010.708	1519.64
1011.001	1503.14
1011.295	1494.55
1011.588	1495.23
1011.881	1493.42
1012.173	1472.18
1012.466	1478.96
1012.759	1450.71
1013.052	1461.11
1013.344	1450.71
1013.637	1441.67
1013.93	1423.14
1014.222	1443.7
1014.514	1432.63
1014.807	1441.22
1015.099	1408.68
1015.391	1394.67
1015.683	1386.76
1015.976	1380.88
1016.268	1372.75
1016.56	1366.19
1016.851	1331.84
1017.143	1353.76
1017.435	1342.01
1017.727	1342.46
1018.018	1325.06
1018.31	1313.99
1018.602	1313.09
1018.893	1302.01
1019.185	1286.87
1019.476	1276.93
1019.767	1272.86
1020.058	1260.43
1020.35	1279.87
1020.641	1259.76
1020.932	1251.85
1021.223	1226.99
1021.514	1225.86
1021.804	1216.59
1022.095	1197.38
1022.386	1204.16
1022.677	1199.64
1022.967	1201
1023.258	1182.02
1023.548	1179.98
1023.839	1171.17
1024.129	1159.42
1024.419	1131.85
1024.709	1127.56
1025	1139.76
1025.29	1114
1025.58	1116.26
1025.87	1136.59
1026.16	1092.08
1026.449	1113.77
1026.739	1117.84
1027.029	1092.75
1027.319	1072.87
1027.608	1099.08
1027.898	1086.88
1028.187	1043.49
1028.477	1047.78
1028.766	1082.81
1029.055	1050.49
1029.344	1052.08
1029.634	1024.51
1029.923	1002.59
1030.212	1011.4
1030.501	1019.54
1030.79	1012.98
1031.078	1007.56
1031.367	983.15
1031.656	1008.91
1031.945	983.83
1032.233	980.67
1032.522	970.05
1032.81	956.03
1033.099	977.73
1033.387	952.42
1033.675	946.99
1033.963	931.63
1034.251	944.06
1034.54	929.59
1034.828	894.11
1035.116	935.47
1035.403	916.26
1035.691	909.93
1035.979	915.58
1036.267	912.42
1036.554	887.56
1036.842	859.54
1037.129	861.35
1037.417	871.52
1037.704	849.82
1037.992	867.67
1038.279	863.38
1038.566	839.88
1038.853	839.88
1039.14	839.88
