Data from hue_190_FLMS001491_00052.txt Node
Date: Tue Feb 07 16:45:28 GMT 2017
User: dcchb
Spectrometer: FLMS00149
Trigger mode: 0
Integration Time (sec): 2.000000E-2
Scans to average: 10
Electric dark correction enabled: true
Nonlinearity correction enabled: false
Boxcar width: 0
XAxis mode: Wavelengths
Number of Pixels in Spectrum: 2048
>>>>>Begin Spectral Data<<<<<
341.393	-12.03
341.776	-12.03
342.16	-12.03
342.543	-58.36
342.927	-55.42
343.31	-58.59
343.693	-73.5
344.077	-86.61
344.46	-40.73
344.843	-44.35
345.226	-48.19
345.61	-21.07
345.993	-21.52
346.376	-16.78
346.759	-5.48
347.142	6.05
347.525	52.82
347.908	44.01
348.291	98.92
348.674	99.15
349.057	115.87
349.44	109.09
349.823	122.88
350.206	159.49
350.588	208.3
350.971	194.29
351.354	245.13
351.737	232.93
352.119	240.84
352.502	247.85
352.884	291.01
353.267	276.55
353.65	287.17
354.032	305.47
354.414	299.6
354.797	325.81
355.179	315.87
355.562	308.86
355.944	317
356.326	334.85
356.709	323.55
357.091	333.95
357.473	348.63
357.855	337.11
358.238	349.31
358.62	334.4
359.002	330.33
359.384	345.02
359.766	347.96
360.148	333.95
360.53	333.72
360.912	336.43
361.294	328.97
361.676	343.66
362.057	353.15
362.439	344.57
362.821	326.94
363.203	317.22
363.584	321.07
363.966	314.51
364.348	333.95
364.729	324.68
365.111	302.31
365.493	326.26
365.874	326.71
366.256	266.38
366.637	285.81
367.019	328.07
367.4	325.13
367.781	309.99
368.163	293.04
368.544	340.5
368.925	307.05
369.306	323.1
369.688	297.56
370.069	308.86
370.45	323.32
370.831	305.02
371.212	315.64
371.593	329.88
371.974	327.39
372.355	315.87
372.736	301.18
373.117	325.13
373.498	319.26
373.879	300.73
374.26	310.9
374.641	297.79
375.021	319.94
375.402	305.25
375.783	322.42
376.163	324.45
376.544	338.01
376.925	319.26
377.305	312.7
377.686	333.95
378.066	320.16
378.447	321.52
378.827	338.92
379.208	324.91
379.588	322.42
379.968	342.99
380.349	335.3
380.729	336.21
381.109	319.48
381.489	322.42
381.87	327.17
382.25	336.88
382.63	325.36
383.01	356.09
383.39	355.19
383.77	357
384.15	353.38
384.53	343.21
384.91	358.8
385.29	314.29
385.67	337.34
386.049	346.38
386.429	341.4
386.809	344.79
387.189	342.31
387.568	359.71
387.948	342.76
388.328	364.45
388.707	344.57
389.087	348.41
389.466	345.47
389.846	350.67
390.225	357.67
390.605	363.32
390.984	357
391.363	361.74
391.743	368.3
392.122	354.96
392.501	377.56
392.881	385.47
393.26	371.69
393.639	394.06
394.018	382.53
394.397	362.42
394.776	360.39
395.155	357.9
395.534	387.5
395.913	357
396.292	382.76
396.671	397.45
397.05	391.8
397.429	410.33
397.808	399.71
398.186	397.22
398.565	390.44
398.944	388.63
399.323	391.57
399.701	402.87
400.08	408.29
400.458	428.86
400.837	398.8
401.215	410.55
401.594	402.42
401.972	416.2
402.351	419.82
402.729	399.48
403.107	414.4
403.486	449.65
403.864	424.34
404.242	431.12
404.62	457.11
404.999	446.26
405.377	433.15
405.755	450.33
406.133	473.83
406.511	439.48
406.889	448.97
407.267	468.18
407.645	476.32
408.023	453.72
408.401	484.9
408.779	468.18
409.156	493.72
409.534	510.44
409.912	512.02
410.29	526.48
410.667	512.02
411.045	520.16
411.422	526.71
411.8	537.1
412.178	552.47
412.555	566.93
412.933	562.64
413.31	584.79
413.687	587.95
414.065	598.57
414.442	575.97
414.819	605.8
415.197	609.87
415.574	621.85
415.951	631.79
416.328	631.79
416.705	628.4
417.082	632.92
417.46	659.81
417.837	674.73
418.214	674.95
418.591	676.54
418.967	684.22
419.344	669.53
419.721	730.32
420.098	745.69
420.475	716.76
420.852	733.71
421.228	769.19
421.605	780.94
421.982	780.94
422.358	777.78
422.735	778.68
423.111	804.44
423.488	814.16
423.864	842.41
424.241	843.31
424.617	846.93
424.994	882.63
425.37	913.37
425.746	892.35
426.123	918.79
426.499	956.53
426.875	941.16
427.251	966.92
427.627	951.56
428.003	970.99
428.379	1003.08
428.756	1012.8
429.132	1024.1
429.507	1013.93
429.883	1029.29
430.259	1025.91
430.635	1040.14
431.011	1060.03
431.387	1104.77
431.763	1086.92
432.138	1119.69
432.514	1154.49
432.89	1170.53
433.265	1167.6
433.641	1189.74
434.016	1217.54
434.392	1239.91
434.767	1257.76
435.143	1272
435.518	1295.73
435.894	1309.51
436.269	1364.65
436.644	1369.17
437.02	1364.43
437.395	1396.97
437.77	1432
438.145	1440.81
438.52	1473.13
438.895	1465.89
439.271	1510.19
439.646	1523.52
440.021	1549.28
440.395	1591.09
440.77	1556.29
441.145	1591.54
441.52	1633.12
441.895	1649.84
442.27	1654.36
442.645	1659.33
443.019	1712.44
443.394	1708.37
443.769	1739.56
444.143	1768.94
444.518	1755.6
444.892	1755.38
445.267	1767.13
445.641	1812.33
446.016	1839.67
446.39	1822.04
446.764	1835.83
447.139	1838.77
447.513	1891.87
447.887	1893.23
448.262	1942.49
448.636	1919.67
449.01	1952.89
449.384	1999.44
449.758	2010.51
450.132	2012.77
450.506	2038.08
450.88	2020.91
451.254	2043.28
451.628	2037.4
452.002	2102.04
452.376	2123.96
452.75	2168.93
453.123	2155.14
453.497	2209.38
453.871	2222.26
454.244	2213.22
454.618	2238.53
454.992	2339.09
455.365	2321.01
455.739	2367.34
456.112	2412.31
456.486	2410.28
456.859	2436.49
457.232	2463.38
457.606	2432.65
457.979	2498.63
458.352	2595.58
458.725	2581.57
459.099	2589.03
459.472	2681.45
459.845	2675.13
460.218	2696.37
460.591	2780.44
460.964	2766.2
461.337	2871.28
461.71	2854.78
462.083	2885.07
462.456	2885.74
462.829	2934.1
463.201	2956.25
463.574	2998.73
463.947	3007.1
464.32	3112.4
464.692	3122.57
465.065	3156.24
465.438	3205.06
465.81	3244.15
466.183	3259.07
466.555	3361.21
466.928	3376.58
467.3	3393.53
467.672	3444.15
468.045	3507.87
468.417	3567.31
468.789	3535.9
469.161	3664.03
469.534	3683.24
469.906	3729.56
470.278	3797.58
470.65	3836.45
471.022	3977.69
471.394	3975.88
471.766	4006.39
472.138	4066.73
472.51	4152.6
472.882	4233.73
473.253	4281.19
473.625	4320.06
473.997	4487.74
474.369	4433.73
474.74	4517.79
475.112	4604.79
475.484	4694.96
475.855	4722.53
476.227	4824.22
476.598	4968.85
476.97	4956.88
477.341	5135.63
477.713	5216.98
478.084	5231.44
478.455	5379.24
478.827	5413.81
479.198	5609.06
479.569	5596.18
479.94	5788.49
480.311	5807.93
480.682	5939
481.053	6043.85
481.424	6167.92
481.795	6259.67
482.166	6287.01
482.537	6440
482.908	6526.33
483.279	6631.41
483.65	6722.25
484.021	6839.76
484.391	6951.17
484.762	6999.76
485.133	7080.44
485.503	7232.07
485.874	7343.71
486.244	7432.97
486.615	7605.39
486.985	7652.17
487.356	7769.68
487.726	7840.87
488.097	7996.8
488.467	8032.05
488.837	8244.25
489.207	8304.13
489.578	8414.19
489.948	8505.48
490.318	8663.44
490.688	8695.53
491.058	8812.14
491.428	8884.46
491.798	8934.85
492.168	9115.64
492.538	9174.84
492.908	9320.6
493.278	9310.89
493.648	9321.73
494.017	9484.21
494.387	9562.4
494.757	9688.05
495.126	9742.96
495.496	9732.34
495.866	9817.31
496.235	9981.15
496.605	9963.07
496.974	10034.93
497.344	10129.62
497.713	10213.91
498.082	10213.69
498.452	10277.87
498.821	10310.63
499.19	10377.07
499.559	10416.17
499.928	10510.4
500.298	10588.59
500.667	10627.01
501.036	10595.37
501.405	10677.85
501.774	10634.47
502.143	10719.44
502.512	10741.81
502.88	10851.64
503.249	10852.54
503.618	10964.4
503.987	10900.22
504.356	10934.57
504.724	10987.68
505.093	11023.38
505.462	11064.51
505.83	11041.69
506.199	11145.41
506.567	11226.99
506.936	11224.73
507.304	11371.4
507.672	11308.8
508.041	11355.35
508.409	11392.41
508.777	11408.91
509.145	11594.44
509.514	11486.2
509.882	11506.53
510.25	11459.08
510.618	11522.8
510.986	11553.99
511.354	11563.48
511.722	11662.46
512.09	11706.75
512.458	11633.08
512.826	11676.47
513.193	11700.43
513.561	11692.74
513.929	11838.28
514.297	11852.06
514.664	11859.07
515.032	11885.05
515.4	11996.24
515.767	11892.74
516.135	11916.24
516.502	11868.56
516.869	12019.51
517.237	12025.62
517.604	11895.68
517.972	12002.57
518.339	12022.68
518.706	11971.38
519.073	11981.78
519.44	11956.92
519.808	12007.99
520.175	11973.19
520.542	12102.45
520.909	12103.81
521.276	12077.14
521.643	12117.82
522.009	12085.28
522.376	12116.69
522.743	12089.34
523.11	12226.97
523.477	12287.3
523.843	12310.58
524.21	12200.53
524.577	12332.73
524.943	12210.7
525.31	12249.79
525.676	12370.92
526.043	12225.16
526.409	12316.91
526.776	12394.65
527.142	12324.82
527.508	12377.47
527.874	12338.83
528.241	12349.68
528.607	12323.91
528.973	12304.48
529.339	12245.72
529.705	12309.45
530.071	12337.47
530.437	12249.56
530.803	12338.38
531.169	12364.36
531.535	12181.32
531.901	12127.99
532.267	12164.14
532.632	12118.95
532.998	12078.04
533.364	12151.71
533.73	12038.5
534.095	12094.77
534.461	12074.65
534.826	12037.14
535.192	11928.22
535.557	11980.42
535.923	11863.13
536.288	11841.21
536.653	11804.38
537.019	11711.95
537.384	11703.36
537.749	11719.64
538.114	11630.6
538.479	11637.6
538.845	11569.13
539.21	11498.85
539.575	11454.78
539.94	11408.91
540.305	11401.45
540.67	11344.5
541.034	11318.52
541.399	11241.68
541.764	11267.22
542.129	11232.87
542.494	11157.16
542.858	11082.36
543.223	10975.47
543.587	11058.64
543.952	10895.7
544.316	10934.35
544.681	10859.77
545.045	10832.65
545.41	10845.08
545.774	10738.19
546.138	10708.59
546.503	10706.1
546.867	10498.88
547.231	10558.76
547.595	10533
547.959	10462.04
548.324	10435.38
548.688	10342.04
549.052	10317.64
549.416	10302.95
549.779	10258.88
550.143	10196.74
550.507	10185.21
550.871	10187.92
551.235	10038.55
551.599	10058.21
551.962	9986.8
552.326	9910.87
552.689	9910.87
553.053	9847.37
553.417	9799.01
553.78	9844.43
554.143	9758.78
554.507	9765.11
554.87	9717.2
555.234	9745.22
555.597	9603.08
555.96	9594.72
556.323	9606.24
556.686	9516.53
557.05	9550.43
557.413	9490.09
557.776	9516.3
558.139	9452.8
558.502	9393.14
558.865	9455.74
559.228	9429.07
559.59	9423.65
559.953	9331.9
560.316	9479.92
560.679	9335.97
561.041	9325.8
561.404	9299.13
561.767	9291.22
562.129	9251.9
562.492	9293.48
562.854	9268.85
563.217	9215.75
563.579	9207.84
563.941	9288.51
564.304	9241.28
564.666	9226.82
565.028	9178.69
565.39	9236.54
565.753	9174.84
566.115	9223.88
566.477	9244.9
566.839	9177.78
567.201	9241.28
567.563	9174.39
567.925	9225.69
568.287	9211.45
568.648	9152.02
569.01	9163.09
569.372	9239.7
569.734	9209.87
570.095	9188.4
570.457	9194.73
570.819	9180.27
571.18	9187.27
571.542	9144.11
571.903	9174.84
572.265	9189.31
572.626	9200.83
572.987	9177.33
573.349	9210.1
573.71	9189.53
574.071	9253.26
574.432	9178.46
574.794	9234.05
575.155	9154.51
575.516	9188.18
575.877	9215.29
576.238	9157.44
576.599	9189.76
576.96	9159.48
577.32	9150.44
577.681	9120.38
578.042	9208.51
578.403	9164
578.763	9118.8
579.124	9190.21
579.485	9220.72
579.845	9226.14
580.206	9116.09
580.566	9149.08
580.927	9185.69
581.287	9189.98
581.648	9103.21
582.008	9156.09
582.368	9177.33
582.728	9137.78
583.089	9105.69
583.449	9076.77
583.809	9090.78
584.169	9017.56
584.529	9049.65
584.889	9099.37
585.249	9048.75
585.609	9019.82
585.969	9077.67
586.329	8952.25
586.688	9011.68
587.048	9003.55
587.408	9008.07
587.768	8979.14
588.127	8978.92
588.487	8946.15
588.846	8938.92
589.206	8945.7
589.565	8911.35
589.925	8949.31
590.284	8907.05
590.643	8943.89
591.003	8914.06
591.362	8983.66
591.721	8901.18
592.08	8886.26
592.44	8936.43
592.799	8874.51
593.158	8884
593.517	8861.41
593.876	8874.06
594.235	8820.95
594.593	8846.94
594.952	8812.59
595.311	8763.55
595.67	8800.39
596.029	8858.92
596.387	8854.17
596.746	8839.26
597.104	8803.78
597.463	8732.6
597.822	8744.35
598.18	8715.19
598.538	8788.64
598.897	8816.21
599.255	8729.66
599.613	8753.16
599.972	8786.15
600.33	8733.27
600.688	8724.46
601.046	8783.22
601.404	8762.88
601.762	8771.01
602.12	8795.64
602.478	8751.58
602.836	8820.28
603.194	8750.67
603.552	8709.55
603.91	8746.83
604.268	8741.41
604.625	8740.28
604.983	8732.6
605.341	8705.93
605.698	8760.62
606.056	8696.89
606.413	8710.45
606.771	8760.62
607.128	8726.27
607.485	8723.33
607.843	8682.65
608.2	8740.73
608.557	8757.68
608.914	8717.91
609.272	8700.73
609.629	8815.76
609.986	8833.16
610.343	8737.11
610.7	8841.07
611.057	8759.04
611.414	8766.49
611.771	8748.64
612.127	8864.34
612.484	8786.38
612.841	8878.35
613.198	8839.49
613.554	8808.98
613.911	8833.38
614.267	8827.96
614.624	8852.82
614.98	8846.04
615.337	8905.92
615.693	8828.19
616.05	8789.99
616.406	8907.51
616.762	8844.68
617.118	8877.45
617.475	8923.55
617.831	8821.18
618.187	8862.54
618.543	8941.4
618.899	8916.55
619.255	8852.82
619.611	8914.06
619.967	8922.87
620.323	8923.32
620.678	8876.77
621.034	8883.55
621.39	8903.89
621.746	8828.19
622.101	8922.19
622.457	8851.01
622.812	8843.78
623.168	8945.7
623.523	8892.82
623.879	8908.41
624.234	8856.21
624.589	8855.3
624.945	8924.91
625.3	8947.05
625.655	8887.17
626.01	8848.75
626.365	8874.74
626.72	8926.04
627.075	8852.59
627.43	8830.45
627.785	8880.39
628.14	8850.56
628.495	8848.07
628.85	8867.73
629.205	8839.26
629.559	8881.52
629.914	8740.5
630.269	8829.32
630.623	8765.81
630.978	8719.94
631.332	8839.03
631.687	8793.16
632.041	8817.56
632.396	8735.76
632.75	8750.45
633.104	8692.82
633.459	8705.25
633.813	8651.02
634.167	8667.96
634.521	8701.41
634.875	8751.8
635.229	8722.65
635.583	8624.12
635.937	8665.48
636.291	8652.6
636.645	8674.29
636.999	8589.32
637.352	8616.44
637.706	8564.69
638.06	8566.72
638.413	8615.08
638.767	8552.04
639.121	8568.31
639.474	8535.76
639.828	8539.15
640.181	8517.23
640.534	8479.72
640.888	8444.69
641.241	8416.45
641.594	8512.49
641.947	8543.22
642.301	8502.32
642.654	8515.65
643.007	8485.37
643.36	8506.16
643.713	8439.72
644.066	8415.32
644.419	8420.74
644.771	8367.63
645.124	8300.06
645.477	8353.62
645.83	8339.84
646.182	8298.71
646.535	8207.86
646.888	8215.32
647.24	8157.92
647.593	8213.96
647.945	8173.97
648.298	8142.33
648.65	8123.35
649.002	8137.36
649.355	8180.97
649.707	8200.63
650.059	8238.6
650.411	8338.93
650.763	8286.51
651.115	8406.5
651.467	8406.28
651.819	8365.15
652.171	8335.32
652.523	8320.63
652.875	8329.44
653.227	8296.67
653.578	8431.81
653.93	8360.63
654.282	8314.3
654.633	8321.53
654.985	8350.01
655.337	8295.77
655.688	8374.86
656.039	8345.03
656.391	8271.36
656.742	8341.65
657.094	8379.38
657.445	8431.59
657.796	8331.7
658.147	8322.89
658.498	8399.04
658.849	8384.81
659.2	8390.01
659.551	8394.53
659.902	8366.73
660.253	8406.5
660.604	8390.91
660.955	8364.47
661.306	8438.82
661.656	8385.03
662.007	8390.46
662.358	8459.61
662.708	8448.99
663.059	8417.12
663.409	8378.25
663.76	8478.14
664.11	8395.43
664.461	8435.43
664.811	8485.82
665.161	8419.16
665.511	8410.8
665.862	8367.86
666.212	8412.6
666.562	8434.52
666.912	8448.99
667.262	8434.75
667.612	8517.91
667.962	8425.48
668.312	8390.91
668.662	8464.58
669.011	8409.67
669.361	8403.56
669.711	8398.82
670.06	8380.51
670.41	8403.34
670.76	8384.13
671.109	8468.2
671.459	8410.57
671.808	8374.64
672.157	8413.28
672.507	8349.78
672.856	8327.41
673.205	8355.43
673.554	8330.8
673.904	8382.55
674.253	8307.07
674.602	8324.24
674.951	8184.36
675.3	8180.52
675.649	8318.14
675.998	8332.61
676.346	8314.53
676.695	8333.51
677.044	8233.63
677.393	8293.96
677.741	8236.11
678.09	8206.28
678.438	8222.1
678.787	8253.06
679.135	8195.66
679.484	8230.01
679.832	8271.82
680.181	8150.69
680.529	8189.11
680.877	8183.46
681.225	8100.75
681.573	8173.97
681.922	8078.15
682.27	8089.22
682.618	8109.11
682.966	8043.35
683.314	8035.44
683.661	8037.92
684.009	8011.03
684.357	7971.03
684.705	7956.12
685.053	7965.84
685.4	7891.71
685.748	7893.07
686.095	7870.7
686.443	7861.88
686.79	7830.25
687.138	7866.86
687.485	7879.96
687.832	7868.66
688.18	7846.06
688.527	7782.79
688.874	7747.99
689.221	7785.95
689.568	7659.63
689.915	7679.74
690.262	7681.55
690.609	7683.58
690.956	7568.78
691.303	7628.22
691.65	7600.65
691.997	7594.32
692.344	7526.3
692.69	7481.55
693.037	7451.05
693.383	7371.5
693.73	7423.48
694.077	7371.73
694.423	7353.65
694.769	7306.42
695.116	7371.73
695.462	7231.62
695.808	7245.63
696.155	7238.85
696.501	7211.28
696.847	7174.67
697.193	7126.99
697.539	7125.41
697.885	7122.69
698.231	7045.41
698.577	7093.99
698.923	7119.08
699.269	7047.44
699.614	7013.09
699.96	6953.43
700.306	6962.47
700.651	6959.53
700.997	6886.99
701.342	6834.11
701.688	6911.4
702.033	6832.76
702.379	6756.6
702.724	6748.01
703.069	6818.97
703.415	6694.91
703.76	6732.2
704.105	6735.81
704.45	6698.3
704.795	6663.72
705.14	6558.19
705.485	6599.32
705.83	6623.05
706.175	6585.08
706.52	6565.87
706.865	6494.69
707.209	6511.18
707.554	6515.93
707.899	6452.88
708.243	6420.11
708.588	6441.13
708.932	6398.19
709.277	6373.56
709.621	6403.16
709.966	6341.02
710.31	6373.11
710.654	6313.45
710.998	6303.51
711.342	6305.99
711.687	6240.46
712.031	6186.9
712.375	6224.86
712.719	6257.18
713.063	6206.56
713.407	6230.06
713.75	6175.15
714.094	6177.63
714.438	6155.49
714.782	6164.75
715.125	6097.41
715.469	6124.98
715.812	6103.29
716.156	6083.85
716.499	6140.57
716.843	6072.33
717.186	6040.69
717.53	6081.14
717.873	6054.25
718.216	6063.51
718.559	6060.58
718.902	6024.64
719.246	6002.5
719.589	6051.08
719.932	5992.55
720.275	5943.52
720.617	5959.56
720.96	6002.5
721.303	5996.17
721.646	5976.51
721.989	5919.11
722.331	5957.53
722.674	5946.45
723.016	5950.07
723.359	5977.87
723.701	5891.99
724.044	5933.8
724.386	5917.53
724.729	5904.87
725.071	5941.03
725.413	5934.02
725.755	5903.97
726.097	5893.57
726.439	5829.39
726.782	5867.13
727.124	5885.21
727.465	5851.77
727.807	5894.93
728.149	5831.65
728.491	5850.86
728.833	5878.21
729.175	5805.44
729.516	5808.6
729.858	5863.74
730.199	5868.26
730.541	5872.33
730.882	5860.35
731.224	5884.99
731.565	5784.42
731.906	5915.27
732.248	5906.23
732.589	5861.26
732.93	5806.34
733.271	5877.53
733.612	5861.26
733.953	5889.51
734.294	5881.82
734.635	5869.17
734.976	5887.25
735.317	5889.05
735.658	5866.46
735.999	5934.02
736.339	5953.46
736.68	5916.4
737.021	5922.5
737.361	5887.02
737.702	5914.59
738.042	5895.61
738.383	5939.67
738.723	5945.32
739.063	5918.88
739.404	5997.53
739.744	5953.91
740.084	5942.61
740.424	6015.38
740.764	5979.9
741.104	6010.86
741.444	6000.92
741.784	6046.79
742.124	6027.81
742.464	6054.25
742.804	6083.17
743.143	6111.2
743.483	6125.88
743.823	6106.9
744.162	6154.36
744.502	6162.49
744.841	6146.9
745.181	6270.29
745.52	6244.3
745.86	6300.34
746.199	6315.03
746.538	6352.77
746.877	6360.23
747.216	6438.42
747.556	6505.54
747.895	6482.48
748.234	6557.51
748.573	6612.43
748.911	6661.24
749.25	6733.55
749.589	6748.24
749.928	6863.72
750.267	6943.94
750.605	6961.12
750.944	7063.26
751.283	7109.36
751.621	7249.47
751.96	7287.21
752.298	7334.89
752.636	7454.21
752.975	7512.74
753.313	7647.65
753.651	7778.95
753.989	7867.99
754.327	7953.18
754.666	8064.14
755.004	8207.86
755.342	8285.83
755.679	8453.05
756.017	8512.26
756.355	8731.01
756.693	8863.44
757.031	8934.85
757.368	9126.26
757.706	9254.39
758.044	9366.25
758.381	9544.55
758.719	9755.39
759.056	9923.98
759.394	10076.97
759.731	10166.23
760.068	10400.8
760.405	10506.56
760.743	10735.25
761.08	10822.71
761.417	11033.55
761.754	11196.71
762.091	11367.1
762.428	11564.61
762.765	11750.37
763.102	11933.19
763.438	12043.02
763.775	12160.3
764.112	12481.2
764.449	12613.62
764.785	12791.47
765.122	12924.58
765.458	13062.65
765.795	13241.18
766.131	13417.44
766.467	13589.42
766.804	13704.22
767.14	13823.53
767.476	14057.2
767.812	14145.56
768.148	14453.57
768.485	14537.87
768.821	14486.57
769.157	14716.17
769.492	14892.66
769.828	14999.55
770.164	15001.81
770.5	15232.54
770.836	15397.5
771.171	15497.62
771.507	15609.48
771.842	15600.44
772.178	15726.08
772.513	15912.52
772.849	15941.67
773.184	16042.23
773.519	16230.93
773.855	16243.58
774.19	16355.22
774.525	16346.18
774.86	16563.35
775.195	16625.04
775.53	16661.88
775.865	16724.93
776.2	16738.03
776.535	16781.2
776.87	16796.56
777.205	16950.23
777.539	16929.44
777.874	17115.65
778.209	16999.72
778.543	17057.35
778.878	17101.19
779.212	17140.96
779.547	17070.23
779.881	17337.34
780.215	17189.77
780.55	17227.51
780.884	17250.56
781.218	17405.81
781.552	17336.44
781.886	17398.58
782.22	17324.69
782.554	17377.34
782.888	17174.63
783.222	17299.83
783.556	17314.06
783.889	17286.95
784.223	17262.77
784.557	17311.58
784.89	17324.91
785.224	17279.72
785.557	17284.01
785.891	17322.65
786.224	17304.12
786.558	17350.45
786.891	17230.68
787.224	17351.35
787.557	17174.86
787.891	17283.33
788.224	17253.5
788.557	17248.08
788.89	17270.22
789.223	17211.24
789.556	17186.38
789.888	17196.33
790.221	17101.41
790.554	17121.53
790.887	17053.73
791.219	17007.86
791.552	17051.92
791.884	17033.62
792.217	17003.56
792.549	16971.7
792.882	16821.87
793.214	16913.17
793.546	16993.62
793.879	16807.86
794.211	16727.64
794.543	16827.07
794.875	16726.28
795.207	16848.77
795.539	16667.53
795.871	16895.09
796.203	16593.18
796.535	16559.96
796.867	16505.72
797.198	16578.94
797.53	16572.84
797.862	16363.36
798.193	16545.95
798.525	16402
798.856	16387.08
799.188	16239.06
799.519	16227.77
799.85	16134.66
800.182	16238.61
800.513	16143.47
800.844	16127.88
801.175	16186.86
801.506	16184.38
801.837	16058.73
802.168	16012.63
802.499	16017.83
802.83	15943.25
803.161	15988.22
803.491	15899.19
803.822	15919.75
804.153	15839.08
804.483	15709.81
804.814	15681.34
805.145	15738.51
805.475	15670.27
805.805	15574.45
806.136	15711.62
806.466	15653.09
806.796	15575.58
807.126	15513.66
807.457	15461.46
807.787	15492.42
808.117	15369.71
808.447	15390.73
808.777	15418.75
809.107	15348.47
809.436	15312.99
809.766	15318.86
810.096	15312.54
810.426	15207.45
810.755	15229.83
811.085	15164.97
811.414	15240.9
811.744	15115.25
812.073	15139.43
812.403	15074.8
812.732	14997.97
813.061	15037.74
813.39	14934.24
813.719	14856.28
814.049	15008.36
814.378	14825.09
814.707	14831.42
815.036	14785.77
815.365	14764.75
815.693	14707.81
816.022	14675.94
816.351	14668.71
816.68	14595.49
817.008	14651.08
817.337	14466
817.665	14434.37
817.994	14543.06
818.322	14475.04
818.651	14482.95
818.979	14422.16
819.307	14440.24
819.636	14421.26
819.964	14406.8
820.292	14430.07
820.62	14376.29
820.948	14313.69
821.276	14473.46
821.604	14335.39
821.932	14328.38
822.259	14295.16
822.587	14309.17
822.915	14346.68
823.243	14376.29
823.57	14335.39
823.898	14361.15
824.225	14328.83
824.553	14347.59
824.88	14273.47
825.207	14323.86
825.535	14306.69
825.862	14373.8
826.189	14354.37
826.516	14355.05
826.843	14401.37
827.17	14472.11
827.497	14418.55
827.824	14336.29
828.151	14352.33
828.478	14380.81
828.805	14502.16
829.131	14361.6
829.458	14348.04
829.785	14295.39
830.111	14372.45
830.438	14420.36
830.764	14394.37
831.09	14396.18
831.417	14293.58
831.743	14420.13
832.069	14418.77
832.395	14286.35
832.722	14434.37
833.048	14294.03
833.374	14308.27
833.7	14216.29
834.026	14262.85
834.351	14282.96
834.677	14277.99
835.003	14268.27
835.329	14263.3
835.654	14289.29
835.98	14241.6
836.306	14173.13
836.631	14200.7
836.956	14188.95
837.282	14209.97
837.607	14075.28
837.932	14082.51
838.258	14139.68
838.583	14106.24
838.908	13963.64
839.233	14062.17
839.558	14073.92
839.883	13967.49
840.208	14006.58
840.533	13893.36
840.858	13871.67
841.182	13901.72
841.507	13905.79
841.832	13784.44
842.156	13767.04
842.481	13787.6
842.805	13752.58
843.13	13692.01
843.454	13703.09
843.778	13616.99
844.103	13645.69
844.427	13585.57
844.751	13591
845.075	13496.09
845.399	13483.88
845.723	13398.46
846.047	13463.32
846.371	13323.89
846.695	13291.8
847.019	13191.46
847.343	13174.96
847.666	13108.75
847.99	13085.93
848.313	13017.68
848.637	12979.49
848.96	12948.53
849.284	12917.34
849.607	12872.37
849.931	12833.05
850.254	12702.66
850.577	12688.2
850.9	12549.9
851.223	12676.22
851.546	12446.85
851.869	12421.76
852.192	12483.46
852.515	12379.96
852.838	12351.48
853.161	12341.31
853.483	12274.65
853.806	12191.49
854.129	12217.93
854.451	12123.01
854.774	12125.5
855.096	11992.85
855.419	12050.93
855.741	11965.5
856.063	12000.76
856.385	11969.12
856.708	11861.1
857.03	11783.59
857.352	11803.25
857.674	11779.52
857.996	11697.26
858.318	11601.45
858.64	11708.79
858.961	11643.93
859.283	11532.75
859.605	11517.15
859.926	11576.14
860.248	11558.51
860.57	11478.74
860.891	11525.29
861.212	11409.14
861.534	11369.59
861.855	11433.99
862.176	11276.71
862.498	11327.1
862.819	11332.3
863.14	11254.34
863.461	11226.99
863.782	11248.24
864.103	11251.17
864.424	11231.06
864.745	11180.67
865.065	11092.76
865.386	11099.76
865.707	11100.67
866.027	11073.32
866.348	11023.16
866.668	11092.76
866.989	10967.11
867.309	10904.29
867.63	10991.52
867.95	10948.36
868.27	10908.13
868.59	10918.98
868.91	10910.17
869.23	10858.19
869.55	10776.84
869.87	10938.19
870.19	10824.07
870.51	10886.89
870.83	10820.68
871.15	10808.47
871.469	10774.58
871.789	10738.64
872.109	10772.99
872.428	10726.44
872.748	10731.19
873.067	10715.82
873.386	10684.86
873.706	10669.49
874.025	10662.94
874.344	10579.78
874.663	10653.9
874.982	10563.28
875.301	10588.59
875.62	10491.42
875.939	10559.21
876.258	10529.38
876.577	10493.68
876.896	10501.14
877.214	10534.81
877.533	10529.38
877.852	10415.71
878.17	10433.12
878.489	10424.53
878.807	10418.65
879.125	10366.22
879.444	10358.99
879.762	10379.78
880.08	10369.84
880.398	10320.8
880.716	10284.42
881.034	10285.1
881.352	10246.91
881.67	10151.09
881.988	10213.91
882.306	10175.5
882.624	10100.47
882.941	10114.25
883.259	10073.58
883.577	10055.95
883.894	10052.11
884.212	10033.8
884.529	10065.44
884.846	9984.54
885.164	10032.45
885.481	9940.7
885.798	9949.06
886.115	9908.61
886.432	9914.49
886.75	9920.36
887.067	9915.84
887.383	9787.26
887.7	9794.26
888.017	9807.14
888.334	9882.17
888.651	9654.15
888.967	9708.16
889.284	9637.43
889.6	9643.76
889.917	9565.79
890.233	9582.06
890.55	9577.54
890.866	9568.96
891.182	9527.6
891.498	9544.33
891.815	9389.08
892.131	9453.93
892.447	9357.21
892.763	9392.69
893.079	9370.77
893.395	9306.59
893.71	9283.32
894.026	9209.87
894.342	9220.04
894.657	9207.61
894.973	9166.71
895.289	9182.75
895.604	9103.66
895.92	9055.75
896.235	8995.41
896.55	9029.99
896.865	8955.87
897.181	8964.23
897.496	8944.79
897.811	8897.56
898.126	8870.22
898.441	8829.99
898.756	8787.74
899.071	8720.39
899.386	8754.74
899.7	8667.51
900.015	8598.81
900.33	8603.79
900.644	8538.25
900.959	8598.36
901.273	8533.05
901.588	8504.58
901.902	8432.26
902.216	8368.54
902.531	8421.64
902.845	8376.22
903.159	8299.39
903.473	8254.87
903.787	8297.8
904.101	8256.68
904.415	8211.25
904.729	8170.8
905.042	8140.52
905.356	8102.1
905.67	8079.51
905.984	8141.65
906.297	8059.39
906.611	8003.57
906.924	7998.15
907.237	7910.92
907.551	7905.05
907.864	7946.18
908.177	7926.06
908.491	7806.29
908.804	7744.37
909.117	7702.57
909.43	7681.55
909.743	7692.17
910.056	7604.04
910.368	7590.48
910.681	7548.22
910.994	7570.82
911.307	7540.54
911.619	7430.93
911.932	7455.34
912.244	7395.46
912.557	7388.9
912.869	7328.11
913.181	7335.8
913.494	7325.17
913.806	7261.67
914.118	7263.93
914.43	7205.86
914.742	7176.48
915.054	7159.53
915.366	7153.2
915.678	7154.56
915.99	7077.27
916.302	7011.51
916.613	7017.16
916.925	7011.06
917.236	6975.13
917.548	6915.47
917.859	6936.26
918.171	6886.54
918.482	6841.35
918.794	6853.55
919.105	6807.22
919.416	6793.66
919.727	6756.83
920.038	6696.49
920.349	6692.42
920.66	6708.24
920.971	6664.4
921.282	6606.1
921.593	6558.87
921.903	6528.81
922.214	6562.03
922.525	6459.89
922.835	6392.77
923.146	6502.37
923.456	6418.08
923.767	6402.94
924.077	6380.79
924.387	6327.69
924.697	6337.4
925.008	6286.11
925.318	6262.15
925.628	6240.46
925.938	6205.43
926.248	6173.79
926.558	6155.94
926.867	6131.08
927.177	6113.91
927.487	6064.87
927.796	6038.88
928.106	6051.99
928.416	6015.15
928.725	5992.33
929.034	6047.24
929.344	5899.22
929.653	5927.25
929.962	5873.91
930.271	5820.36
930.581	5835.27
930.89	5816.06
931.199	5718.89
931.508	5783.07
931.817	5771.54
932.125	5707.59
932.434	5736.74
932.743	5727.25
933.051	5656.29
933.36	5681.38
933.669	5613.36
933.977	5608.38
934.286	5639.57
934.594	5592.34
934.902	5520.02
935.21	5454.04
935.519	5479.8
935.827	5435.28
936.135	5378.79
936.443	5373.59
936.751	5408.16
937.059	5357.54
937.367	5355.73
937.674	5329.29
937.982	5329.07
938.29	5277.09
938.597	5325
938.905	5214.95
939.213	5221.05
939.52	5176.98
939.827	5195.29
940.135	5132.01
940.442	5125.46
940.749	5113.26
941.056	5150.09
941.363	5046.59
941.67	5064.22
941.977	4990.55
942.284	4955.52
942.591	4946.25
942.898	4947.61
943.205	4936.54
943.511	4865.58
943.818	4880.49
944.125	4843.21
944.431	4854.96
944.738	4849.31
945.044	4801.85
945.35	4830.1
945.657	4727.05
945.963	4703.32
946.269	4690.44
946.575	4734.28
946.881	4681.63
947.187	4612.93
947.493	4599.14
947.799	4643.66
948.105	4540.84
948.41	4601.4
948.716	4584.91
949.022	4538.58
949.327	4534.74
949.633	4487.28
949.938	4473.72
950.244	4478.92
950.549	4445.48
950.854	4435.08
951.16	4426.04
951.465	4391.47
951.77	4407.96
952.075	4335.42
952.38	4337
952.685	4339.49
952.99	4283.45
953.294	4291.58
953.599	4273.05
953.904	4250.68
954.209	4220.62
954.513	4207.52
954.818	4179.72
955.122	4215.65
955.426	4123.9
955.731	4197.57
956.035	4128.2
956.339	4108.54
956.643	4083.45
956.948	4039.16
957.252	4048.2
957.556	4037.8
957.86	4043.9
958.163	3953.74
958.467	3988.31
958.771	3987.18
959.075	3972.72
959.378	3929.33
959.682	3925.94
959.985	3917.58
960.289	3892.04
960.592	3904.02
960.896	3828.77
961.199	3854.08
961.502	3780.86
961.805	3792.16
962.108	3771.37
962.411	3770.24
962.714	3736.79
963.017	3727.53
963.32	3776.57
963.623	3713.97
963.926	3703.35
964.228	3686.4
964.531	3679.85
964.833	3664.25
965.136	3626.06
965.438	3612.96
965.741	3536.8
966.043	3564.6
966.345	3520.3
966.648	3562.11
966.95	3538.83
967.252	3476.01
967.554	3529.34
967.856	3457.71
968.158	3454.32
968.46	3430.14
968.761	3451.83
969.063	3478.72
969.365	3447.08
969.666	3412.51
969.968	3396.24
970.269	3394.2
970.571	3372.51
970.872	3376.13
971.174	3317.82
971.475	3321.44
971.776	3307.88
972.077	3275.11
972.378	3266.98
972.679	3264.26
972.98	3229.92
973.281	3213.19
973.582	3220.88
973.883	3212.74
974.183	3185.4
974.484	3197.6
974.785	3147.66
975.085	3157.83
975.386	3154.44
975.686	3142.23
975.986	3065.63
976.287	3085.74
976.587	3069.24
976.887	3068.56
977.187	3082.8
977.487	3048
977.787	3015.23
978.087	2972.75
978.387	3001.22
978.687	2997.83
978.987	2944.05
979.286	2935.46
979.586	2946.08
979.885	2949.7
980.185	2931.17
980.484	2883.26
980.784	2890.26
981.083	2861.79
981.382	2864.27
981.682	2873.77
981.981	2857.72
982.28	2811.4
982.579	2819.08
982.878	2800.55
983.177	2763.71
983.475	2784.05
983.774	2755.13
984.073	2781.11
984.372	2747.67
984.67	2725.3
984.969	2737.5
985.267	2690.49
985.566	2679.65
985.864	2665.64
986.162	2687.33
986.461	2643.04
986.759	2644.39
987.057	2620.21
987.355	2592.87
987.653	2593.32
987.951	2589.03
988.249	2578.86
988.547	2561.46
988.844	2556.03
989.142	2594
989.44	2495.25
989.737	2495.7
990.035	2513.78
990.332	2485.75
990.63	2498.86
990.927	2481.23
991.224	2423.61
991.521	2459.09
991.819	2427.9
992.116	2437.17
992.413	2421.8
992.71	2403.27
993.006	2375.7
993.303	2370.28
993.6	2390.84
993.897	2348.13
994.193	2359.43
994.49	2375.25
994.787	2300.67
995.083	2326.21
995.379	2308.36
995.676	2322.59
995.972	2304.06
996.268	2276.04
996.565	2254.35
996.861	2238.75
997.157	2276.72
997.453	2221.13
997.749	2225.42
998.044	2176.84
998.34	2186.33
998.636	2184.97
998.932	2169.83
999.227	2142.26
999.523	2165.54
999.818	2127.12
1000.114	2133.22
1000.409	2107.23
1000.704	2105.42
1001	2088.93
1001.295	2079.66
1001.59	2078.08
1001.885	2081.92
1002.18	2043.28
1002.475	2008.7
1002.77	2016.61
1003.065	2015.48
1003.359	1979.55
1003.654	1974.58
1003.949	1964.64
1004.243	1965.54
1004.538	1969.84
1004.832	1970.29
1005.127	1948.82
1005.421	1944.3
1005.715	1916.28
1006.009	1908.37
1006.304	1877.41
1006.598	1854.13
1006.892	1907.01
1007.186	1842.38
1007.48	1860.46
1007.773	1826.11
1008.067	1799.67
1008.361	1825.88
1008.655	1770.29
1008.948	1808.71
1009.242	1815.94
1009.535	1778.88
1009.829	1774.36
1010.122	1753.34
1010.415	1769.39
1010.708	1732.55
1011.001	1726.45
1011.295	1715.6
1011.588	1709.05
1011.881	1703.85
1012.173	1679.9
1012.466	1652.33
1012.759	1682.39
1013.052	1674.48
1013.344	1645.78
1013.637	1626.57
1013.93	1627.25
1014.222	1637.19
1014.514	1585.44
1014.807	1636.96
1015.099	1582.73
1015.391	1582.5
1015.683	1576.63
1015.976	1568.94
1016.268	1563.07
1016.56	1551.09
1016.851	1561.26
1017.143	1532.11
1017.435	1527.13
1017.727	1502.05
1018.018	1530.98
1018.31	1503.41
1018.602	1516.06
1018.893	1486.46
1019.185	1478.32
1019.476	1462.28
1019.767	1438.1
1020.058	1451.2
1020.35	1433.13
1020.641	1414.82
1020.932	1413.01
1021.223	1390.64
1021.514	1392.45
1021.804	1385.22
1022.095	1370.75
1022.386	1357.65
1022.677	1342.96
1022.967	1344.09
1023.258	1341.15
1023.548	1329.63
1023.839	1298.67
1024.129	1321.72
1024.419	1320.13
1024.709	1281.72
1025	1285.56
1025.29	1282.62
1025.58	1268.61
1025.87	1259.35
1026.16	1251.21
1026.449	1244.88
1026.739	1214.83
1027.029	1244.66
1027.319	1225.67
1027.608	1194.26
1027.898	1221.15
1028.187	1223.41
1028.477	1204.21
1028.766	1187.93
1029.055	1179.57
1029.344	1147.26
1029.634	1137.99
1029.923	1150.65
1030.212	1155.62
1030.501	1143.64
1030.79	1121.95
1031.078	1141.61
1031.367	1121.95
1031.656	1133.7
1031.945	1102.97
1032.233	1067.26
1032.522	1098.22
1032.81	1069.29
1033.099	1103.64
1033.387	1072.91
1033.675	1052.12
1033.963	1047.15
1034.251	1056.86
1034.54	1072.68
1034.828	1027.04
1035.116	1034.94
1035.403	1024.78
1035.691	1023.42
1035.979	997.88
1036.267	990.88
1036.554	984.78
1036.842	1000.6
1037.129	954.04
1037.417	983.19
1037.704	942.97
1037.992	951.1
1038.279	957.21
1038.566	953.36
1038.853	953.36
1039.14	953.36
