Data from hue_180_FLMS001491_00098.txt Node
Date: Tue Feb 07 16:47:45 GMT 2017
User: dcchb
Spectrometer: FLMS00149
Trigger mode: 0
Integration Time (sec): 2.000000E-2
Scans to average: 10
Electric dark correction enabled: true
Nonlinearity correction enabled: false
Boxcar width: 0
XAxis mode: Wavelengths
Number of Pixels in Spectrum: 2048
>>>>>Begin Spectral Data<<<<<
341.393	-9.52
341.776	-9.52
342.16	-9.52
342.543	-66.92
342.927	-59.24
343.31	-61.04
343.693	-46.81
344.077	-61.04
344.46	-55.85
344.843	-57.88
345.226	-64.89
345.61	-21.04
345.993	-5.68
346.376	-7.71
346.759	-4.55
347.142	36.35
347.525	19.63
347.908	53.53
348.291	69.57
348.674	99.63
349.057	107.77
349.44	114.09
349.823	135.56
350.206	155
350.588	191.61
350.971	212.85
351.354	206.75
351.737	232.51
352.119	239.29
352.502	237.25
352.884	293.98
353.267	271.38
353.65	288.1
354.032	296.01
354.414	279.96
354.797	281.77
355.179	302.11
355.562	302.34
355.944	320.64
356.326	347.31
356.709	340.98
357.091	321.77
357.473	333.07
357.855	334.2
358.238	341.43
358.62	329.23
359.002	339.17
359.384	325.84
359.766	325.61
360.148	328.78
360.53	312.05
360.912	330.13
361.294	317.7
361.676	330.36
362.057	345.5
362.439	336.01
362.821	320.87
363.203	325.84
363.584	326.52
363.966	309.34
364.348	304.14
364.729	311.38
365.111	312.05
365.493	313.41
365.874	320.19
366.256	292.85
366.637	320.19
367.019	309.34
367.4	305.95
367.781	298.49
368.163	273.41
368.544	314.99
368.925	318.83
369.306	307.76
369.688	298.04
370.069	311.6
370.45	299.17
370.831	310.25
371.212	305.95
371.593	302.11
371.974	312.73
372.355	322
372.736	310.47
373.117	303.47
373.498	317.7
373.879	312.51
374.26	317.93
374.641	301.66
375.021	297.37
375.402	300.53
375.783	297.37
376.163	316.8
376.544	314.31
376.925	306.4
377.305	338.04
377.686	328.1
378.066	325.16
378.447	311.38
378.827	325.84
379.208	322.22
379.588	303.01
379.968	326.06
380.349	315.22
380.729	320.64
381.109	313.86
381.489	319.29
381.87	326.52
382.25	328.32
382.63	322.22
383.01	358.15
383.39	334.65
383.77	322.9
384.15	333.3
384.53	316.35
384.91	342.79
385.29	344.37
385.67	325.84
386.049	326.52
386.429	347.76
386.809	360.64
387.189	365.61
387.568	350.92
387.948	354.54
388.328	348.21
388.707	340.53
389.087	334.43
389.466	357.93
389.846	367.87
390.225	352.5
390.605	365.16
390.984	359.06
391.363	358.38
391.743	336.69
392.122	359.51
392.501	360.64
392.881	369.45
393.26	367.42
393.639	354.54
394.018	346.18
394.397	392.73
394.776	366.29
395.155	370.13
395.534	390.7
395.913	368.78
396.292	376.23
396.671	373.07
397.05	391.37
397.429	372.62
397.808	383.46
398.186	388.89
398.565	376.01
398.944	404.03
399.323	382.56
399.701	406.29
400.08	398.61
400.458	413.97
400.837	418.04
401.215	398.38
401.594	410.13
401.972	407.42
402.351	413.29
402.729	407.19
403.107	413.07
403.486	415.33
403.864	405.16
404.242	426.85
404.62	437.7
404.999	427.53
405.377	437.93
405.755	443.8
406.133	438.83
406.511	446.74
406.889	442.67
407.267	438.6
407.645	441.99
408.023	447.87
408.401	451.03
408.779	460.75
409.156	453.75
409.534	475.67
409.912	491.48
410.29	494.65
410.667	505.27
411.045	511.82
411.422	498.72
411.8	519.96
412.178	524.03
412.555	509.11
412.933	537.58
413.31	540.75
413.687	568.77
414.065	567.87
414.442	551.37
414.819	571.48
415.197	574.65
415.574	585.04
415.951	595.89
416.328	603.12
416.705	580.07
417.082	601.76
417.46	606.51
417.837	632.5
418.214	624.14
418.591	623.01
418.967	632.95
419.344	657.13
419.721	668.43
420.098	676.79
420.475	676.11
420.852	672.5
421.228	696.9
421.605	692.83
421.982	691.03
422.358	709.56
422.735	736.9
423.111	723.12
423.488	739.84
423.864	749.1
424.241	751.59
424.617	783.23
424.994	782.32
425.37	785.94
425.746	797.92
426.123	802.66
426.499	847.63
426.875	832.27
427.251	837.46
427.627	848.31
428.003	875.65
428.379	886.28
428.756	877.24
429.132	904.81
429.507	915.43
429.883	905.71
430.259	911.59
430.635	919.27
431.011	937.12
431.387	959.49
431.763	1001.53
432.138	984.35
432.514	985.26
432.89	993.84
433.265	993.17
433.641	1036.33
434.016	1066.38
434.392	1062.09
434.767	1100.28
435.143	1087.85
435.518	1129.43
435.894	1140.96
436.269	1139.38
436.644	1157.91
437.02	1169.21
437.395	1190.67
437.77	1209.21
438.145	1232.48
438.52	1241.97
438.895	1253.95
439.271	1277.45
439.646	1315.19
440.021	1335.53
440.395	1339.37
440.77	1302.08
441.145	1360.39
441.52	1391.8
441.895	1390.67
442.27	1432.48
442.645	1393.61
443.019	1438.35
443.394	1450.56
443.769	1463.44
444.143	1444.45
444.518	1454.85
444.892	1499.14
445.267	1510.67
445.641	1516.09
446.016	1512.02
446.39	1528.52
446.764	1570.78
447.139	1585.47
447.513	1564.9
447.887	1563.77
448.262	1594.28
448.636	1603.09
449.01	1616.2
449.384	1653.26
449.758	1665.46
450.132	1662.75
450.506	1690.55
450.88	1685.35
451.254	1685.13
451.628	1724.67
452.002	1743.88
452.376	1780.04
452.75	1774.61
453.123	1808.29
453.497	1784.56
453.871	1831.11
454.244	1879.92
454.618	1872.69
454.992	1921.28
455.365	1918.79
455.739	1985.68
456.112	1968.06
456.486	1973.03
456.859	1992.91
457.232	2046.47
457.606	2055.28
457.979	2063.65
458.352	2104.78
458.725	2100.03
459.099	2145
459.472	2203.08
459.845	2179.12
460.218	2252.79
460.591	2275.17
460.964	2269.06
461.337	2338.22
461.71	2372.34
462.083	2363.3
462.456	2404.2
462.829	2374.15
463.201	2471.55
463.574	2501.6
463.947	2499.79
464.32	2562.84
464.692	2559.45
465.065	2598.77
465.438	2667.25
465.81	2696.85
466.183	2682.16
466.555	2784.98
466.928	2795.83
467.3	2808.03
467.672	2853.46
468.045	2953.57
468.417	2955.6
468.789	3008.48
469.161	3013.23
469.534	3099.55
469.906	3113.11
470.278	3171.19
470.65	3229.27
471.022	3282.6
471.394	3356.49
471.766	3342.48
472.138	3398.3
472.51	3450.28
472.882	3558.3
473.253	3598.07
473.625	3655.47
473.997	3731.4
474.369	3744.28
474.74	3803.04
475.112	3903.6
475.484	3968.91
475.855	3994.22
476.227	4124.61
476.598	4222.01
476.97	4262.01
477.341	4355.11
477.713	4423.13
478.084	4486.41
478.455	4592.62
478.827	4679.17
479.198	4770.02
479.569	4789
479.94	4953.74
480.311	4986.51
480.682	5142.21
481.053	5243
481.424	5351.7
481.795	5436.21
482.166	5537
482.537	5612.25
482.908	5680.95
483.279	5815.41
483.65	5949.19
484.021	6047.72
484.391	6163.43
484.762	6171.11
485.133	6271.22
485.503	6359.13
485.874	6488.84
486.244	6565.45
486.615	6745.78
486.985	6752.11
487.356	6961.37
487.726	7067.58
488.097	7191.87
488.467	7241.82
488.837	7355.94
489.207	7519.77
489.578	7632.31
489.948	7631.64
490.318	7818.3
490.688	7815.59
491.058	7954.79
491.428	8061.23
491.798	8164.05
492.168	8338.51
492.538	8387.55
492.908	8517.71
493.278	8578.05
493.648	8623.93
494.017	8722.91
494.387	8730.14
494.757	8887.2
495.126	8964.93
495.496	8999.51
495.866	9028.43
496.235	9124.25
496.605	9212.61
496.974	9295.55
497.344	9345.94
497.713	9475.43
498.082	9464.58
498.452	9571.47
498.821	9564.69
499.19	9677.46
499.559	9760.39
499.928	9744.8
500.298	9869.09
500.667	9963.55
501.036	9898.24
501.405	10001.97
501.774	10011.46
502.143	10086.03
502.512	10163.09
502.88	10224.56
503.249	10178.46
503.618	10212.58
503.987	10285.13
504.356	10285.13
504.724	10396.76
505.093	10359.93
505.462	10392.69
505.83	10516.53
506.199	10502.75
506.567	10613.93
506.936	10663.87
507.304	10757.2
507.672	10718.79
508.041	10717.2
508.409	10803.3
508.777	10786.35
509.145	10911.55
509.514	10918.55
509.882	10935.28
510.25	10967.14
510.618	11043.07
510.986	11008.72
511.354	11059.34
511.722	11118.55
512.09	11064.99
512.458	11113.35
512.826	11161.49
513.193	11193.12
513.561	11217.3
513.929	11239.9
514.297	11299.56
514.664	11343.18
515.032	11355.15
515.4	11347.47
515.767	11472.21
516.135	11295.04
516.502	11375.94
516.869	11410.52
517.237	11417.07
517.604	11429.28
517.972	11459.78
518.339	11438.77
518.706	11483.29
519.073	11469.27
519.44	11523.28
519.808	11627.69
520.175	11546.11
520.542	11638.31
520.909	11667.46
521.276	11615.71
521.643	11681.47
522.009	11671.3
522.376	11685.31
522.743	11778.42
523.11	11784.07
523.477	11882.6
523.843	11844.41
524.21	11822.49
524.577	11931.41
524.943	11901.81
525.31	11875.82
525.676	11876.72
526.043	11915.59
526.409	11864.52
526.776	11941.13
527.142	11963.05
527.508	11961.24
527.874	11946.55
528.241	11976.15
528.607	11902.26
528.973	12017.73
529.339	11984.29
529.705	11968.24
530.071	12049.6
530.437	11988.81
530.803	11968.24
531.169	11934.35
531.535	11911.3
531.901	11858.19
532.267	11827.91
532.632	11889.83
532.998	11830.17
533.364	11807.57
533.73	11864.52
534.095	11879.66
534.461	11816.16
534.826	11810.06
535.192	11753.79
535.557	11760.11
535.923	11689.61
536.288	11617.29
536.653	11645.54
537.019	11597.63
537.384	11631.76
537.749	11546.33
538.114	11504.98
538.479	11476.73
538.845	11460.46
539.21	11350.63
539.575	11354.02
539.94	11288.49
540.305	11324.19
540.67	11218.43
541.034	11148.61
541.399	11227.25
541.764	11186.12
542.129	11079.68
542.494	11118.78
542.858	11025.9
543.223	11012.79
543.587	11015.28
543.952	10907.93
544.316	10914.49
544.681	10873.13
545.045	10909.29
545.41	10830.42
545.774	10831.55
546.138	10764.43
546.503	10676.75
546.867	10603.08
547.231	10643.53
547.595	10598.34
547.959	10626.36
548.324	10517.89
548.688	10475.18
549.052	10487.15
549.416	10374.61
549.779	10408.96
550.143	10300.49
550.507	10334.16
550.871	10231.79
551.235	10220.72
551.599	10251
551.962	10236.09
552.326	10158.12
552.689	10140.04
553.053	10034.06
553.417	10015.53
553.78	10152.47
554.143	10001.74
554.507	9998.35
554.87	10013.04
555.234	9985.02
555.597	9838.58
555.96	9872.48
556.323	9849.2
556.686	9834.06
557.05	9822.54
557.413	9818.02
557.776	9776.21
558.139	9779.6
558.502	9714.74
558.865	9770.11
559.228	9792.93
559.59	9738.47
559.953	9705.71
560.316	9696.21
560.679	9759.49
561.041	9666.61
561.404	9670.45
561.767	9721.07
562.129	9714.74
562.492	9742.99
562.854	9655.09
563.217	9670.68
563.579	9580.51
563.941	9660.73
564.304	9641.07
564.666	9680.62
565.028	9637.46
565.39	9661.19
565.753	9653.05
566.115	9696.44
566.477	9670
566.839	9647.4
567.201	9700.28
567.563	9657.8
567.925	9735.53
568.287	9689.66
568.648	9717.46
569.01	9696.21
569.372	9750.68
569.734	9640.85
570.095	9683.11
570.457	9744.12
570.819	9685.59
571.18	9714.29
571.542	9740.05
571.903	9686.27
572.265	9757.68
572.626	9747.74
572.987	9696.67
573.349	9683.11
573.71	9708.64
574.071	9752.26
574.432	9782.99
574.794	9802.43
575.155	9794.29
575.516	9734.41
575.877	9781.86
576.238	9744.12
576.599	9701.41
576.96	9795.42
577.32	9771.92
577.681	9746.38
578.042	9733.95
578.403	9737.34
578.763	9805.82
579.124	9707.29
579.485	9792.71
579.845	9829.09
580.206	9743.44
580.566	9734.86
580.927	9787.74
581.287	9762.88
581.648	9681.3
582.008	9736.21
582.368	9760.17
582.728	9690.34
583.089	9673.84
583.449	9679.04
583.809	9666.84
584.169	9702.32
584.529	9663.9
584.889	9734.41
585.249	9614.41
585.609	9705.71
585.969	9668.42
586.329	9595.43
586.688	9620.28
587.048	9646.72
587.408	9588.65
587.768	9574.64
588.127	9575.77
588.487	9539.16
588.846	9652.37
589.206	9482.66
589.565	9561.08
589.925	9484.92
590.284	9534.18
590.643	9526.95
591.003	9508.87
591.362	9512.72
591.721	9513.85
592.08	9458.25
592.44	9540.29
592.799	9504.58
593.158	9486.5
593.517	9493.73
593.876	9467.29
594.235	9389.56
594.593	9436.56
594.952	9399.95
595.311	9412.61
595.67	9437.01
596.029	9458.25
596.387	9376.22
596.746	9437.01
597.104	9412.15
597.463	9350.46
597.822	9408.31
598.18	9371.02
598.538	9313.4
598.897	9407.63
599.255	9333.74
599.613	9477.24
599.972	9387.3
600.33	9442.44
600.688	9350.91
601.046	9388.88
601.404	9346.17
601.762	9362.21
602.12	9405.6
602.478	9389.78
602.836	9357.92
603.194	9335.77
603.552	9400.85
603.91	9321.76
604.268	9377.58
604.625	9302.33
604.983	9318.14
605.341	9305.94
605.698	9310.69
606.056	9305.94
606.413	9372.83
606.771	9325.6
607.128	9400.63
607.485	9306.62
607.843	9305.49
608.2	9400.63
608.557	9384.36
608.914	9333.29
609.272	9358.37
609.629	9407.63
609.986	9377.35
610.343	9350.01
610.7	9401.08
611.057	9281.31
611.414	9404.24
611.771	9393.17
612.127	9441.31
612.484	9351.14
612.841	9451.47
613.198	9423.68
613.554	9415.54
613.911	9469.1
614.267	9423.45
614.624	9405.83
614.98	9486.05
615.337	9501.87
615.693	9477.01
616.05	9440.63
616.406	9534.64
616.762	9498.71
617.118	9514.07
617.475	9454.86
617.831	9485.6
618.187	9491.93
618.543	9441.76
618.899	9515.88
619.255	9474.07
619.611	9538.03
619.967	9499.83
620.323	9622.09
620.678	9465.94
621.034	9456.45
621.39	9479.72
621.746	9437.92
622.101	9607.63
622.457	9520.4
622.812	9580.51
623.168	9535.77
623.523	9580.96
623.879	9540.74
624.234	9520.4
624.589	9557.23
624.945	9534.86
625.3	9644.24
625.655	9552.26
626.01	9508.87
626.365	9520.17
626.72	9521.08
627.075	9397.46
627.43	9455.54
627.785	9473.85
628.14	9550.68
628.495	9559.27
628.85	9581.64
629.205	9441.98
629.559	9534.18
629.914	9481.98
630.269	9463.68
630.623	9478.37
630.978	9418.03
631.332	9489.89
631.687	9507.97
632.041	9455.99
632.396	9413.74
632.75	9420.29
633.104	9407.18
633.459	9372.83
633.813	9393.85
634.167	9386.17
634.521	9368.76
634.875	9306.62
635.229	9337.13
635.583	9278.15
635.937	9276.11
636.291	9289.9
636.645	9260.52
636.999	9225.72
637.352	9280.86
637.706	9179.62
638.06	9240.86
638.413	9197.24
638.767	9166.06
639.121	9183.01
639.474	9120.41
639.828	9239.95
640.181	9161.09
640.534	9136.91
640.888	9094.42
641.241	9100.52
641.594	9121.77
641.947	9155.66
642.301	9149.11
642.654	9150.47
643.007	9159.28
643.36	9106.85
643.713	9060.75
644.066	9139.84
644.419	9038.38
644.771	9048.1
645.124	8940.75
645.477	8901.88
645.83	8817.59
646.182	8876.57
646.535	8830.47
646.888	8854.43
647.24	8758.61
647.593	8818.5
647.945	8760.65
648.298	8752.96
648.65	8742.79
649.002	8758.61
649.355	8876.35
649.707	8805.84
650.059	8785.5
650.411	8908.89
650.763	8974.2
651.115	9001.09
651.467	8992.96
651.819	8995.44
652.171	8998.38
652.523	8901.88
652.875	8940.08
653.227	8974.65
653.578	8999.51
653.93	8990.47
654.282	8957.48
654.633	8887.65
654.985	8916.35
655.337	8948.21
655.688	8975.78
656.039	9016.01
656.391	8870.92
656.742	8989.34
657.094	8976.01
657.445	8974.43
657.796	8975.78
658.147	8962
658.498	9048.1
658.849	9036.12
659.2	9041.99
659.551	8973.75
659.902	9007.19
660.253	8944.6
660.604	8966.29
660.955	8964.03
661.306	9096.23
661.656	9013.75
662.007	9024.82
662.358	9036.8
662.708	9065.95
663.059	9040.86
663.409	8976.01
663.76	9082.44
664.11	9066.4
664.461	9012.62
664.811	9000.64
665.161	9060.98
665.511	9055.1
665.862	8992.28
666.212	9058.72
666.562	9023.69
666.912	9034.76
667.262	9072.95
667.612	9034.76
667.962	9079.73
668.312	9046.29
668.662	9091.94
669.011	9025.05
669.361	9002.67
669.711	9053.97
670.06	9100.98
670.41	9040.86
670.76	9006.51
671.109	9015.1
671.459	9016.01
671.808	8945.05
672.157	9015.78
672.507	8977.81
672.856	8951.6
673.205	8973.3
673.554	9011.94
673.904	8978.72
674.253	9001.99
674.602	8946.63
674.951	8832.06
675.3	8785.96
675.649	8901.21
675.998	8910.47
676.346	8874.09
676.695	8879.29
677.044	8878.16
677.393	8862.11
677.741	8881.09
678.09	8814.88
678.438	8798.84
678.787	8859.4
679.135	8817.82
679.484	8798.38
679.832	8849.23
680.181	8760.65
680.529	8816.24
680.877	8741.89
681.225	8758.84
681.573	8762.23
681.922	8683.36
682.27	8678.39
682.618	8724.94
682.966	8635.22
683.314	8694.21
683.661	8625.06
684.009	8661.44
684.357	8588.45
684.705	8561.78
685.053	8565.85
685.4	8507.77
685.748	8521.78
686.095	8478.39
686.443	8485.62
686.79	8408.11
687.138	8495.12
687.485	8425.29
687.832	8436.13
688.18	8458.73
688.527	8375.12
688.874	8360.43
689.221	8303.71
689.568	8279.75
689.915	8191.85
690.262	8313.2
690.609	8233.65
690.956	8259.64
691.303	8207.67
691.65	8212.19
691.997	8160.21
692.344	8088.8
692.69	8089.48
693.037	8057.84
693.383	8015.81
693.73	8025.3
694.077	7949.14
694.423	7975.58
694.769	7961.34
695.116	7910.95
695.462	7879.99
695.808	7839.54
696.155	7820.33
696.501	7783.95
696.847	7827.11
697.193	7709.15
697.539	7733.1
697.885	7665.31
698.231	7661.24
698.577	7654.01
698.923	7618.53
699.269	7605.42
699.614	7547.8
699.96	7484.07
700.306	7463.96
700.651	7356.39
700.997	7405.2
701.342	7427.57
701.688	7363.17
702.033	7331.3
702.379	7391.64
702.724	7266
703.069	7331.98
703.415	7251.98
703.76	7220.8
704.105	7261.48
704.45	7244.3
704.795	7123.4
705.14	7121.82
705.485	7065.55
705.83	7056.96
706.175	7123.4
706.52	7072.1
706.865	7064.42
707.209	6966.12
707.554	6991.2
707.899	6986
708.243	6936.96
708.588	6886.34
708.932	6876.4
709.277	6805.67
709.621	6865.1
709.966	6772
710.31	6867.14
710.654	6732.68
710.998	6779.45
711.342	6764.09
711.687	6727.03
712.031	6721.6
712.375	6697.42
712.719	6673.24
713.063	6707.37
713.407	6684.54
713.75	6673.47
714.094	6605.67
714.438	6631.89
714.782	6652.9
715.125	6614.49
715.469	6605.67
715.812	6565.9
716.156	6516.41
716.499	6506.69
716.843	6567.26
717.186	6503.3
717.53	6514.15
717.873	6505.56
718.216	6478.45
718.559	6438.45
718.902	6442.29
719.246	6433.93
719.589	6454.49
719.932	6376.98
720.275	6442.74
720.617	6418.11
720.96	6413.14
721.303	6416.3
721.646	6414.72
721.989	6412.68
722.331	6448.84
722.674	6376.98
723.016	6361.84
723.359	6426.24
723.701	6371.33
724.044	6331.56
724.386	6327.04
724.729	6360.03
725.071	6387.37
725.413	6356.64
725.755	6365.91
726.097	6284.78
726.439	6302.63
726.782	6281.61
727.124	6274.84
727.465	6261.28
727.807	6299.24
728.149	6281.16
728.491	6287.26
728.833	6279.81
729.175	6239.58
729.516	6260.15
729.858	6261.5
730.199	6263.54
730.541	6301.05
730.882	6258.79
731.224	6265.34
731.565	6275.96
731.906	6259.02
732.248	6242.97
732.589	6242.75
732.93	6228.73
733.271	6278.22
733.612	6252.46
733.953	6271.67
734.294	6287.49
734.635	6263.31
734.976	6258.11
735.317	6270.09
735.658	6287.26
735.999	6279.81
736.339	6226.7
736.68	6270.09
737.021	6301.27
737.361	6267.15
737.702	6354.15
738.042	6318.68
738.383	6267.83
738.723	6328.39
739.063	6312.35
739.404	6369.3
739.744	6357.09
740.084	6347.6
740.424	6325.23
740.764	6346.02
741.104	6338.56
741.444	6399.35
741.784	6382.85
742.124	6424.66
742.464	6475.73
742.804	6451.55
743.143	6433.7
743.483	6483.42
743.823	6473.47
744.162	6524.09
744.502	6543.3
744.841	6536.98
745.181	6587.82
745.52	6612.91
745.86	6696.52
746.199	6678.21
746.538	6719.34
746.877	6767.03
747.216	6806.35
747.556	6841.83
747.895	6887.7
748.234	6891.77
748.573	6980.58
748.911	7025.32
749.25	7080.69
749.589	7156.62
749.928	7201.59
750.267	7221.48
750.605	7305.99
750.944	7395.03
751.283	7448.14
751.621	7578.53
751.96	7626.66
752.298	7697.62
752.636	7749.82
752.975	7875.47
753.313	7910.72
753.651	8060.32
753.989	8155.46
754.327	8217.61
754.666	8336.25
755.004	8482.46
755.342	8529.01
755.679	8704.83
756.017	8811.49
756.355	8898.95
756.693	9023.01
757.031	9143.46
757.368	9268.88
757.706	9422.77
758.044	9431.81
758.381	9685.59
758.719	9792.93
759.056	9979.82
759.394	10114.73
759.731	10180.95
760.068	10337.78
760.405	10486.25
760.743	10652.12
761.08	10853.02
761.417	10979.34
761.754	11128.27
762.091	11268.15
762.428	11484.64
762.765	11594.7
763.102	11801.02
763.438	11946.78
763.775	11983.16
764.112	12244.17
764.449	12396.26
764.785	12502.92
765.122	12671.05
765.458	12854.32
765.795	12966.86
766.131	13158.95
766.467	13277.14
766.804	13415.89
767.14	13541.54
767.476	13740.18
767.812	13788.08
768.148	14054.97
768.485	14022.2
768.821	14167.28
769.157	14308.97
769.492	14405.69
769.828	14612.47
770.164	14596.2
770.5	14741.28
770.836	14917.32
771.171	14933.14
771.507	15041.16
771.842	15095.39
772.178	15147.14
772.513	15308.72
772.849	15394.6
773.184	15412.67
773.519	15538.77
773.855	15586.68
774.19	15683.85
774.525	15772.44
774.86	15871.42
775.195	15971.3
775.53	15907.35
775.865	15916.39
776.2	16046.1
776.535	15974.69
776.87	16130.85
777.205	16115.71
777.539	16091.07
777.874	16188.7
778.209	16203.61
778.543	16282.71
778.878	16221.69
779.212	16274.35
779.547	16288.58
779.881	16376.04
780.215	16372.42
780.55	16449.03
780.884	16458.75
781.218	16483.61
781.552	16484.51
781.886	16479.99
782.22	16404.96
782.554	16361.58
782.888	16318.41
783.222	16361.35
783.556	16344.17
783.889	16329.94
784.223	16288.58
784.557	16375.13
784.89	16406.55
785.224	16418.98
785.557	16342.82
785.891	16328.58
786.224	16339.88
786.558	16335.59
786.891	16276.15
787.224	16251.52
787.557	16310.05
787.891	16323.16
788.224	16359.77
788.557	16281.13
788.89	16358.19
789.223	16395.92
789.556	16268.92
789.888	16274.8
790.221	16181.47
790.554	16052.21
790.887	16181.47
791.219	16022.83
791.552	16029.38
791.884	16044.07
792.217	15981.7
792.549	16036.39
792.882	15844.3
793.214	15923.39
793.546	15873
793.879	15803.4
794.211	15748.26
794.543	15771.99
794.875	15833.91
795.207	15845.88
795.539	15777.41
795.871	15748.26
796.203	15637.75
796.535	15590.07
796.867	15527.7
797.198	15558.21
797.53	15490.86
797.862	15354.37
798.193	15574.93
798.525	15421.04
798.856	15410.87
799.188	15319.34
799.519	15282.28
799.85	15264.43
800.182	15246.58
800.513	15217.65
800.844	15103.98
801.175	15202.96
801.506	15204.32
801.837	15100.82
802.168	15130.65
802.499	15017.43
802.83	14884.55
803.161	14885.68
803.491	14950.77
803.822	15029.41
804.153	14818.11
804.483	14862.86
804.814	14831.9
805.145	14798.9
805.475	14780.15
805.805	14776.31
806.136	14682.98
806.466	14688.63
806.796	14651.34
807.126	14508.97
807.457	14540.61
807.787	14541.96
808.117	14482.75
808.447	14438.24
808.777	14470.33
809.107	14404.11
809.436	14404.11
809.766	14333.38
810.096	14284.57
810.426	14300.16
810.755	14306.26
811.085	14204.12
811.414	14209.09
811.744	14094.29
812.073	14079.6
812.403	14115.08
812.732	14038.02
813.061	14007.74
813.39	13970.45
813.719	13906.27
814.049	14021.07
814.378	13981.98
814.707	13805.48
815.036	13891.58
815.365	13795.77
815.693	13663.12
816.022	13783.79
816.351	13660.63
816.68	13602.1
817.008	13779.5
817.337	13602.1
817.665	13577.92
817.994	13619.5
818.322	13675.54
818.651	13543.8
818.979	13515.55
819.307	13515.77
819.636	13571.14
819.964	13344.93
820.292	13564.81
820.62	13445.04
820.948	13380.18
821.276	13548.32
821.604	13454.31
821.932	13488.88
822.259	13405.49
822.587	13480.3
822.915	13389.45
823.243	13504.02
823.57	13322.56
823.898	13411.6
824.225	13342.67
824.553	13413.18
824.88	13353.97
825.207	13458.15
825.535	13367.08
825.862	13546.51
826.189	13391.26
826.516	13499.96
826.843	13510.8
827.17	13439.84
827.497	13453.4
827.824	13474.42
828.151	13487.07
828.478	13466.51
828.805	13537.92
829.131	13452.05
829.458	13456.34
829.785	13492.27
830.111	13491.14
830.438	13428.77
830.764	13433.29
831.09	13506.96
831.417	13466.28
831.743	13411.37
832.069	13483.69
832.395	13382.44
832.722	13508.32
833.048	13445.04
833.374	13398.04
833.7	13346.97
834.026	13403.46
834.351	13359.39
834.677	13372.73
835.003	13405.49
835.329	13330.02
835.654	13320.3
835.98	13250.47
836.306	13304.25
836.631	13262.22
836.956	13285.5
837.282	13299.28
837.607	13199.62
837.932	13184.94
838.258	13163.92
838.583	13163.02
838.908	13045.28
839.233	13111.72
839.558	13141.55
839.883	13015.45
840.208	12965.28
840.533	13028.56
840.858	13068.1
841.182	13073.07
841.507	12938.16
841.832	12968.22
842.156	12936.81
842.481	12894.55
842.805	12827.21
843.13	12811.84
843.454	12816.36
843.778	12770.03
844.103	12719.41
844.427	12670.83
844.751	12706.3
845.075	12693.2
845.399	12643.93
845.723	12577.72
846.047	12585.86
846.371	12455.01
846.695	12553.09
847.019	12363.94
847.343	12382.02
847.666	12236.03
847.99	12190.61
848.313	12244.85
848.637	12187.22
848.96	12076.49
849.284	12074.46
849.607	11999.43
849.931	11885.31
850.254	11851.64
850.577	11810.28
850.9	11704.3
851.223	11768.93
851.546	11634.92
851.869	11573.9
852.192	11725.31
852.515	11582.72
852.838	11570.06
853.161	11517.18
853.483	11450.52
853.806	11407.81
854.129	11375.04
854.451	11385.21
854.774	11241.48
855.096	11280.81
855.419	11203.52
855.741	11247.13
856.063	11092.79
856.385	11070.42
856.708	11113.13
857.03	11119.68
857.352	11050.53
857.674	10938.67
857.996	10932.34
858.318	10962.85
858.64	10952
858.961	10884.43
859.283	10882.17
859.605	10718.56
859.926	10789.52
860.248	10785.45
860.57	10719.46
860.891	10807.37
861.212	10719.01
861.534	10669.3
861.855	10582.74
862.176	10568.51
862.498	10713.81
862.819	10605.12
863.14	10521.28
863.461	10514.27
863.782	10514.27
864.103	10507.04
864.424	10491
864.745	10466.14
865.065	10422.97
865.386	10370.32
865.707	10432.92
866.027	10400.15
866.348	10404.44
866.668	10374.61
866.989	10355.41
867.309	10277.67
867.63	10293.94
867.95	10209.65
868.27	10247.39
868.59	10236.54
868.91	10175.52
869.23	10220.27
869.55	10110.67
869.87	10112.02
870.19	10171.23
870.51	10201.96
870.83	10131.23
871.15	10067.73
871.469	10065.02
871.789	10105.24
872.109	10062.98
872.428	10084.68
872.748	10072.7
873.067	9982.76
873.386	10030.22
873.706	9954.51
874.025	9959.03
874.344	9971.46
874.663	9994.51
874.982	9892.82
875.301	9938.69
875.62	9832.03
875.939	9874.29
876.258	9897.56
876.577	9809.66
876.896	9833.16
877.214	9822.76
877.533	9718.13
877.852	9762.65
878.17	9769.66
878.489	9706.84
878.807	9775.31
879.125	9726.95
879.444	9697.57
879.762	9689.66
880.08	9696.21
880.398	9576.44
880.716	9634.29
881.034	9630.23
881.352	9619.61
881.67	9521.76
881.988	9550.23
882.306	9511.81
882.624	9475.2
882.941	9463.23
883.259	9464.13
883.577	9453.06
883.894	9405.37
884.212	9379.84
884.529	9382.1
884.846	9296.45
885.164	9387.97
885.481	9320.86
885.798	9263.91
886.115	9233.4
886.432	9284.93
886.75	9213.97
887.067	9264.36
887.383	9174.42
887.7	9165.15
888.017	9142.78
888.334	9155.66
888.651	9061.88
888.967	9107.08
889.284	9055.33
889.6	8968.32
889.917	8952.28
890.233	8916.12
890.55	8940.75
890.866	8930.81
891.182	8871.83
891.498	8837.71
891.815	8800.19
892.131	8770.36
892.447	8766.52
892.763	8724.26
893.079	8755.9
893.395	8733.08
893.71	8649.46
894.026	8708.22
894.342	8611.5
894.657	8549.35
894.973	8513.65
895.289	8569.46
895.604	8583.93
895.92	8477.04
896.235	8385.74
896.55	8441.33
896.865	8382.8
897.181	8367.21
897.496	8338.74
897.811	8332.18
898.126	8326.53
898.441	8252.86
898.756	8233.88
899.071	8199.76
899.386	8217.83
899.7	8107.78
900.015	8077.95
900.33	8017.39
900.644	7999.54
900.959	8020.78
901.273	7971.74
901.588	7952.53
901.902	7894.23
902.216	7865.98
902.531	7824.62
902.845	7861.46
903.159	7818.75
903.473	7732.42
903.787	7674.57
904.101	7691.97
904.415	7662.6
904.729	7584.86
905.042	7611.97
905.356	7609.72
905.67	7543.05
905.984	7543.95
906.297	7540.34
906.611	7460.11
906.924	7472.09
907.237	7465.31
907.551	7449.49
907.864	7328.82
908.177	7340.8
908.491	7309.61
908.804	7284.75
909.117	7221.48
909.43	7273.45
909.743	7183.74
910.056	7157.52
910.368	7154.13
910.681	7136.28
910.994	7093.34
911.307	7084.31
911.619	7027.81
911.932	6994.59
912.244	6934.48
912.557	6887.7
912.869	6861.94
913.181	6880.02
913.494	6828.49
913.806	6844.09
914.118	6765.9
914.43	6755.27
914.742	6715.28
915.054	6687.48
915.366	6677.99
915.678	6699.23
915.99	6633.02
916.302	6592.34
916.613	6568.16
916.925	6547.82
917.236	6501.04
917.548	6493.36
917.859	6468.95
918.171	6427.6
918.482	6409.75
918.794	6401.84
919.105	6327.26
919.416	6252.91
919.727	6321.39
920.038	6302.4
920.349	6296.3
920.66	6293.37
920.971	6259.47
921.282	6162.52
921.593	6171.56
921.903	6132.92
922.214	6127.72
922.525	6082.75
922.835	6122.97
923.146	5993.26
923.456	6016.99
923.767	5953.49
924.077	5993.49
924.387	5962.53
924.697	5925.92
925.008	5935.86
925.318	5907.61
925.628	5886.6
925.938	5854.73
926.248	5804.56
926.558	5785.13
926.867	5730.89
927.177	5745.36
927.487	5712.36
927.796	5706.04
928.106	5644.57
928.416	5613.16
928.725	5703.32
929.034	5552.82
929.344	5563.89
929.653	5552.82
929.962	5515.08
930.271	5487.06
930.581	5490
930.89	5410.68
931.199	5385.82
931.508	5414.97
931.817	5398.47
932.125	5349.21
932.434	5364.35
932.743	5310.79
933.051	5308.76
933.36	5214.98
933.669	5238.25
933.977	5249.55
934.286	5191.25
934.594	5186.28
934.902	5155.99
935.21	5135.88
935.519	5081.87
935.827	5101.76
936.135	5116.22
936.443	5038.94
936.751	5050.46
937.059	5002.78
937.367	4991.48
937.674	4997.81
937.982	4991.03
938.29	4935.44
938.597	4925.49
938.905	4902.44
939.213	4870.35
939.52	4892.05
939.827	4859.73
940.135	4804.59
940.442	4805.5
940.749	4837.81
941.056	4792.84
941.363	4704.03
941.67	4693.63
941.977	4726.85
942.284	4666.06
942.591	4713.52
942.898	4659.06
943.205	4658.38
943.511	4579.51
943.818	4620.42
944.125	4550.81
944.431	4537.93
944.738	4549
945.044	4516.92
945.35	4457.26
945.657	4465.84
945.963	4488.44
946.269	4395.34
946.575	4415.45
946.881	4386.52
947.187	4415.45
947.493	4391.49
947.799	4362.79
948.105	4333.64
948.41	4262.01
948.716	4337.48
949.022	4270.14
949.327	4219.52
949.633	4239.86
949.938	4209.13
950.244	4181.33
950.549	4160.54
950.854	4157.15
951.16	4149.47
951.465	4108.79
951.77	4100.2
952.075	4050.71
952.38	4086.19
952.685	4057.72
952.99	3998.06
953.294	3987.44
953.599	3983.37
953.904	3990.6
954.209	3941.56
954.513	3976.59
954.818	3947.44
955.122	3944.05
955.426	3943.37
955.731	3867.67
956.035	3849.81
956.339	3853.88
956.643	3855.24
956.948	3827.44
957.252	3804.39
957.556	3758.52
957.86	3745.64
958.163	3773.21
958.467	3751.29
958.771	3720.78
959.075	3740.89
959.378	3689.37
959.682	3657.05
959.985	3671.51
960.289	3635.36
960.592	3617.73
960.896	3619.54
961.199	3594.91
961.502	3605.53
961.805	3543.61
962.108	3527.79
962.411	3516.04
962.714	3524.62
963.017	3509.48
963.32	3525.98
963.623	3454.57
963.926	3474
964.228	3428.13
964.531	3436.27
964.833	3402.82
965.136	3420.45
965.438	3371.18
965.741	3386.32
966.043	3371.18
966.345	3314.69
966.648	3344.29
966.95	3342.03
967.252	3273.11
967.554	3260
967.856	3271.52
968.158	3255.03
968.46	3238.76
968.761	3230.4
969.063	3214.35
969.365	3169.61
969.666	3226.33
969.968	3156.5
970.269	3157.4
970.571	3142.26
970.872	3156.27
971.174	3077.63
971.475	3092.09
971.776	3077.86
972.077	3123.51
972.378	3113.34
972.679	3032.66
972.98	3005.54
973.281	3027.24
973.582	2994.02
973.883	2993.79
974.183	2978.2
974.484	2998.76
974.785	2988.82
975.085	2991.53
975.386	2929.16
975.686	2934.13
975.986	2908.37
976.287	2906.56
976.587	2855.04
976.887	2886.22
977.187	2852.33
977.487	2840.35
977.787	2813.68
978.087	2796.73
978.387	2809.62
978.687	2825.43
978.987	2773.68
979.286	2754.25
979.586	2760.13
979.885	2781.14
980.185	2717.87
980.484	2734.36
980.784	2726.45
981.083	2690.75
981.382	2674.7
981.682	2666.79
981.981	2696.4
982.28	2656.17
982.579	2649.39
982.878	2654.37
983.177	2599.68
983.475	2637.19
983.774	2616.85
984.073	2581.82
984.372	2577.31
984.67	2567.59
984.969	2526.46
985.267	2554.03
985.566	2504.76
985.864	2518.1
986.162	2508.15
986.461	2503.18
986.759	2457.08
987.057	2481.71
987.355	2438.78
987.653	2440.59
987.951	2437.87
988.249	2453.24
988.547	2401.04
988.844	2395.39
989.142	2403.75
989.44	2370.53
989.737	2348.38
990.035	2385.9
990.332	2359.68
990.63	2356.75
990.927	2323.3
991.224	2337.99
991.521	2333.7
991.819	2265.9
992.116	2279.23
992.413	2294.83
992.71	2315.17
993.006	2270.87
993.303	2256.64
993.6	2204.43
993.897	2239.69
994.193	2222.06
994.49	2216.41
994.787	2170.31
995.083	2173.7
995.379	2164.43
995.676	2155.17
995.972	2137.09
996.268	2136.41
996.565	2105.91
996.861	2107.49
997.157	2095.06
997.453	2092.8
997.749	2076.3
998.044	2085.79
998.34	2069.07
998.636	2034.72
998.932	2041.95
999.227	2063.19
999.523	2015.96
999.818	2022.29
1000.114	1990.43
1000.409	1986.81
1000.704	1959.02
1001	1969.86
1001.295	1964.44
1001.59	1966.02
1001.885	1959.69
1002.18	1904.78
1002.475	1921.73
1002.77	1905.46
1003.065	1886.48
1003.359	1893.48
1003.654	1874.5
1003.949	1883.31
1004.243	1826.82
1004.538	1825.23
1004.832	1853.26
1005.127	1835.4
1005.421	1797.89
1005.715	1818.68
1006.009	1823.88
1006.304	1775.97
1006.598	1785.24
1006.892	1780.49
1007.186	1755.86
1007.48	1744.33
1007.773	1750.21
1008.067	1745.24
1008.361	1717.21
1008.655	1682.64
1008.948	1698.91
1009.242	1705.69
1009.535	1657.1
1009.829	1663.88
1010.122	1664.79
1010.415	1637.89
1010.708	1615.97
1011.001	1604
1011.295	1611.91
1011.588	1613.94
1011.881	1592.02
1012.173	1596.99
1012.466	1587.5
1012.759	1573.49
1013.052	1560.61
1013.344	1565.13
1013.637	1553.6
1013.93	1547.28
1014.222	1528.07
1014.514	1533.72
1014.807	1500.95
1015.099	1511.12
1015.391	1519.25
1015.683	1516.54
1015.976	1484.45
1016.268	1461.85
1016.56	1442.87
1016.851	1465.47
1017.143	1423.21
1017.435	1482.19
1017.727	1416.66
1018.018	1436.54
1018.31	1432.93
1018.602	1372.14
1018.893	1380.5
1019.185	1405.58
1019.476	1387.73
1019.767	1367.39
1020.058	1354.06
1020.35	1355.64
1020.641	1339.15
1020.932	1326.49
1021.223	1320.39
1021.514	1322.2
1021.804	1269.54
1022.095	1297.34
1022.386	1289.43
1022.677	1285.81
1022.967	1264.57
1023.258	1252.82
1023.548	1253.95
1023.839	1251.46
1024.129	1260.05
1024.419	1234.06
1024.709	1225.25
1025	1217.79
1025.29	1211.69
1025.58	1182.54
1025.87	1223.67
1026.16	1178.25
1026.449	1185.48
1026.739	1177.79
1027.029	1173.95
1027.319	1160.62
1027.608	1166.04
1027.898	1132.82
1028.187	1146.16
1028.477	1116.33
1028.766	1122.88
1029.055	1132.6
1029.344	1104.35
1029.634	1110.45
1029.923	1116.1
1030.212	1101.86
1030.501	1086.04
1030.79	1062.09
1031.078	1081.07
1031.367	1068.64
1031.656	1036.1
1031.945	1049.66
1032.233	1026.39
1032.522	1039.49
1032.81	1031.58
1033.099	1033.39
1033.387	1014.41
1033.675	1019.61
1033.963	1004.24
1034.251	972.6
1034.54	984.8
1034.828	992.94
1035.116	992.94
1035.403	973.96
1035.691	978.7
1035.979	984.58
1036.267	954.75
1036.554	976.44
1036.842	926.5
1037.129	928.53
1037.417	926.05
1037.704	918.59
1037.992	899.16
1038.279	935.77
1038.566	907.29
1038.853	907.29
1039.14	907.29
