Data from hue_34_FLMS001491_00069.txt Node
Date: Tue Feb 07 17:25:59 GMT 2017
User: dcchb
Spectrometer: FLMS00149
Trigger mode: 0
Integration Time (sec): 2.000000E-2
Scans to average: 10
Electric dark correction enabled: true
Nonlinearity correction enabled: false
Boxcar width: 0
XAxis mode: Wavelengths
Number of Pixels in Spectrum: 2048
>>>>>Begin Spectral Data<<<<<
341.393	-25.79
341.776	-25.79
342.16	-25.79
342.543	-43.87
342.927	-65.34
343.31	-67.6
343.693	-60.37
344.077	-71.66
344.46	-61.95
344.843	-59.91
345.226	-42.74
345.61	-40.93
345.993	-16.07
346.376	-0.25
346.759	11.72
347.142	27.54
347.525	53.08
347.908	47.2
348.291	98.05
348.674	83.59
349.057	100.31
349.44	114.09
349.823	147.54
350.206	148.22
350.588	178.05
350.971	220.3
351.354	237.03
351.737	224.15
352.119	247.65
352.502	263.24
352.884	268.44
353.267	291.26
353.65	273.18
354.032	316.8
354.414	297.59
354.797	298.04
355.179	329
355.562	325.84
355.944	349.57
356.326	355.22
356.709	337.36
357.091	331.71
357.473	348.89
357.855	341.66
358.238	359.74
358.62	340.98
359.002	341.21
359.384	338.27
359.766	343.01
360.148	340.08
360.53	330.36
360.912	351.37
361.294	321.55
361.676	330.36
362.057	373.97
362.439	320.64
362.821	345.95
363.203	326.97
363.584	324.71
363.966	330.81
364.348	332.84
364.729	346.4
365.111	344.82
365.493	319.51
365.874	317.48
366.256	316.35
366.637	326.97
367.019	313.64
367.4	326.06
367.781	300.53
368.163	309.57
368.544	318.61
368.925	315.44
369.306	308.21
369.688	305.27
370.069	326.97
370.45	305.27
370.831	324.26
371.212	314.54
371.593	323.81
371.974	314.77
372.355	316.35
372.736	347.31
373.117	317.93
373.498	329.68
373.879	311.38
374.26	324.71
374.641	300.3
375.021	317.7
375.402	343.47
375.783	330.36
376.163	321.77
376.544	322.9
376.925	358.83
377.305	354.99
377.686	335.1
378.066	350.25
378.447	351.6
378.827	334.88
379.208	330.13
379.588	356.57
379.968	328.32
380.349	334.2
380.729	349.12
381.109	340.53
381.489	330.58
381.87	343.01
382.25	346.63
382.63	343.69
383.01	359.51
383.39	364.48
383.77	324.48
384.15	346.18
384.53	343.69
384.91	346.63
385.29	356.35
385.67	354.31
386.049	380.75
386.429	346.4
386.809	354.76
387.189	366.52
387.568	368.32
387.948	365.39
388.328	360.19
388.707	363.58
389.087	360.64
389.466	386.18
389.846	366.74
390.225	371.04
390.605	364.71
390.984	371.71
391.363	387.31
391.743	374.2
392.122	368.78
392.501	360.64
392.881	359.06
393.26	376.69
393.639	383.69
394.018	372.84
394.397	393.63
394.776	383.01
395.155	387.98
395.534	383.69
395.913	378.72
396.292	402.22
396.671	386.18
397.05	369.68
397.429	389.57
397.808	385.5
398.186	410.58
398.565	401.54
398.944	396.8
399.323	405.16
399.701	394.76
400.08	402.9
400.458	397.25
400.837	394.76
401.215	423.01
401.594	387.76
401.972	405.61
402.351	397.25
402.729	427.98
403.107	404.48
403.486	425.27
403.864	429.56
404.242	402.22
404.62	422.56
404.999	432.05
405.377	414.65
405.755	416.46
406.133	424.37
406.511	437.47
406.889	459.62
407.267	456.23
407.645	436.8
408.023	443.12
408.401	440.64
408.779	460.52
409.156	460.3
409.534	457.81
409.912	464.37
410.29	449.9
410.667	455.33
411.045	442.67
411.422	462.33
411.8	458.94
412.178	451.94
412.555	471.6
412.933	445.84
413.31	481.77
413.687	465.04
414.065	505.27
414.442	507.76
414.819	468.21
415.197	512.5
415.574	515.66
415.951	514.31
416.328	489
416.705	515.21
417.082	513.86
417.46	500.52
417.837	524.93
418.214	529.22
418.591	524.03
418.967	524.25
419.344	495.1
419.721	529.22
420.098	533.07
420.475	546.4
420.852	569
421.228	524.48
421.605	543.01
421.982	554.99
422.358	533.74
422.735	523.8
423.111	550.24
423.488	574.19
423.864	561.76
424.241	566.06
424.617	567.87
424.994	572.84
425.37	577.36
425.746	564.93
426.123	581.65
426.499	571.03
426.875	574.65
427.251	578.94
427.627	587.98
428.003	599.28
428.379	614.19
428.756	597.47
429.132	613.06
429.507	625.27
429.883	635.44
430.259	660.52
430.635	620.07
431.011	635.89
431.387	639.05
431.763	654.42
432.138	652.38
432.514	676.34
432.89	653.29
433.265	663.91
433.641	673.63
434.016	664.81
434.392	668.43
434.767	677.24
435.143	706.39
435.518	707.98
435.894	706.39
436.269	710.91
436.644	714.76
437.02	726.96
437.395	702.33
437.77	742.1
438.145	726.51
438.52	735.09
438.895	755.21
439.271	733.74
439.646	773.74
440.021	759.05
440.395	747.97
440.77	724.47
441.145	769.22
441.52	766.51
441.895	756.79
442.27	774.64
442.645	782.1
443.019	795.21
443.394	788.43
443.769	804.92
444.143	810.8
444.518	818.26
444.892	800.18
445.267	802.66
445.641	843.57
446.016	845.6
446.39	851.7
446.764	821.19
447.139	841.31
447.513	827.75
447.887	833.85
448.262	848.31
448.636	846.5
449.01	863
449.384	863.68
449.758	865.26
450.132	892.15
450.506	882.43
450.88	905.26
451.254	894.19
451.628	884.92
452.002	907.52
452.376	892.15
452.75	914.52
453.123	936.44
453.497	941.64
453.871	935.31
454.244	939.16
454.618	963.11
454.992	972.15
455.365	988.87
455.739	993.17
456.112	997.23
456.486	1020.06
456.859	992.94
457.232	1045.37
457.606	1041.53
457.979	1030
458.352	1039.49
458.725	1081.53
459.099	1089.66
459.472	1086.04
459.845	1116.78
460.218	1105.25
460.591	1133.95
460.964	1136.67
461.337	1159.49
461.71	1162.43
462.083	1160.85
462.456	1203.33
462.829	1187.29
463.201	1209.43
463.574	1219.6
463.947	1217.11
464.32	1266.83
464.692	1280.16
465.065	1278.58
465.438	1303.44
465.81	1300.28
466.183	1351.12
466.555	1353.38
466.928	1383.44
467.3	1363.33
467.672	1396.32
468.045	1413.04
468.417	1421.86
468.789	1442.87
469.161	1470.44
469.534	1506.6
469.906	1502.08
470.278	1497.79
470.65	1540.95
471.022	1606.48
471.394	1608.97
471.766	1620.04
472.138	1670.21
472.51	1701.85
472.882	1762.41
473.253	1730.77
473.625	1774.61
473.997	1822.3
474.369	1842.64
474.74	1888.28
475.112	1902.97
475.484	1924.21
475.855	1987.49
476.227	2011.67
476.598	2078.56
476.97	2124.89
477.341	2154.27
477.713	2189.29
478.084	2239.23
478.455	2309.06
478.827	2344.09
479.198	2374.82
479.569	2399.23
479.94	2473.81
480.311	2553.8
480.682	2620.02
481.053	2674.03
481.424	2726
481.795	2776.62
482.166	2851.42
482.537	2893
482.908	3020.46
483.279	3073.79
483.65	3126.22
484.021	3210.28
484.391	3278.53
484.762	3303.39
485.133	3383.16
485.503	3489.15
485.874	3587.9
486.244	3646.66
486.615	3710.61
486.985	3771.17
487.356	3901.56
487.726	3906.31
488.097	4070.6
488.467	4148.79
488.837	4265.62
489.207	4352.17
489.578	4406.86
489.948	4521.89
490.318	4575.67
490.688	4633.97
491.058	4708.55
491.428	4851.6
491.798	4904.02
492.168	5060.4
492.538	5116.9
492.908	5212.26
493.278	5292.94
493.648	5343.33
494.017	5450.22
494.387	5507.85
494.757	5631.24
495.126	5682.53
495.496	5779.93
495.866	5806.15
496.235	5937.89
496.605	6001.4
496.974	6098.12
497.344	6117.1
497.713	6220.6
498.082	6322.74
498.452	6427.83
498.821	6478.45
499.19	6456.98
499.559	6600.02
499.928	6637.09
500.298	6725.67
500.667	6812.22
501.036	6851.09
501.405	6931.77
501.774	6944.2
502.143	7030.3
502.512	7119.33
502.88	7150.74
503.249	7201.36
503.618	7339.67
503.987	7341.93
504.356	7405.2
504.724	7452.66
505.093	7552.09
505.462	7507.57
505.83	7631.18
506.199	7673.22
506.567	7845.64
506.936	7863.72
507.304	7926.77
507.672	7973.77
508.041	8066.88
508.409	8148.01
508.777	8193.2
509.145	8193.2
509.514	8294.67
509.882	8314.56
510.25	8321.56
510.618	8396.36
510.986	8451.5
511.354	8510.93
511.722	8644.72
512.09	8721.32
512.458	8723.13
512.826	8781.44
513.193	8796.35
513.561	8838.61
513.929	8897.59
514.297	8978.49
514.664	9041.32
515.032	9114.76
515.4	9165.61
515.767	9192.5
516.135	9257.58
516.502	9244.47
516.869	9346.62
517.237	9417.13
517.604	9406.73
517.972	9473.62
518.339	9519.5
518.706	9540.29
519.073	9572.83
519.44	9629.78
519.808	9701.86
520.175	9700.73
520.542	9887.62
520.909	9918.81
521.276	9862.09
521.643	10004.68
522.009	10011.23
522.376	10138.24
522.743	10182.75
523.11	10282.64
523.477	10334.39
523.843	10426.36
524.21	10413.03
524.577	10536.64
524.943	10583.42
525.31	10678.34
525.676	10758.33
526.043	10791.78
526.409	10798.33
526.776	11000.36
527.142	11008.04
527.508	11048.95
527.874	11129.17
528.241	11140.24
528.607	11189.28
528.973	11331.88
529.339	11300.24
529.705	11488.71
530.071	11466.34
530.437	11550.63
530.803	11682.15
531.169	11658.42
531.535	11670.4
531.901	11737.29
532.267	11796.27
532.632	11861.81
532.998	11905.65
533.364	11994.46
533.73	11990.62
534.095	12098.41
534.461	12099.99
534.826	12186.77
535.192	12254.56
535.557	12364.84
535.923	12311.29
536.288	12304.28
536.653	12422.24
537.019	12398.74
537.384	12416.59
537.749	12589.92
538.114	12634.67
538.479	12612.3
538.845	12720.77
539.21	12806.64
539.575	12709.47
539.94	12832.4
540.305	12867.66
540.67	12902.68
541.034	13007.99
541.399	13066.29
541.764	13075.56
542.129	13157.14
542.494	13147.65
542.858	13287.98
543.223	13184.26
543.587	13343.12
543.952	13327.53
544.316	13408.21
544.681	13450.24
545.045	13511.48
545.41	13563
545.774	13557.81
546.138	13609.33
546.503	13650.91
546.867	13687.3
547.231	13842.77
547.595	13948.76
547.959	13916.22
548.324	13924.35
548.688	13980.17
549.052	14101.3
549.416	14111.24
549.779	14143.78
550.143	14218.58
550.507	14271.01
550.871	14315.3
551.235	14265.59
551.599	14428.97
551.962	14461.96
552.326	14430.33
552.689	14558.46
553.053	14484.79
553.417	14562.3
553.78	14716.65
554.143	14604.33
554.507	14723.65
554.87	14795.97
555.234	14916.19
555.597	14894.72
555.96	14992.12
556.323	15012.01
556.686	15024.21
557.05	15071.67
557.413	15184.21
557.776	15166.35
558.139	15298.55
558.502	15291.32
558.865	15437.31
559.228	15410.87
559.59	15449.51
559.953	15491.54
560.316	15705.32
560.679	15658.77
561.041	15713
561.404	15765.66
561.767	15831.19
562.129	15856.73
562.492	16011.08
562.854	15963.85
563.217	16099.66
563.579	16118.42
563.941	16097.85
564.304	16283.16
564.666	16443.83
565.028	16417.39
565.39	16435.47
565.753	16538.75
566.115	16515.47
566.477	16613.55
566.839	16736.71
567.201	16834.33
567.563	16764.05
567.925	16923.59
568.287	16940.09
568.648	16922.24
569.01	17016.25
569.372	17131.72
569.734	17079.3
570.095	17229.58
570.457	17344.83
570.819	17341.89
571.18	17373.98
571.542	17535.33
571.903	17539.85
572.265	17678.83
572.626	17698.72
572.987	17760.63
573.349	17888.54
573.71	17933.29
574.071	18083.34
574.432	18059.38
574.794	18299.83
575.155	18323.11
575.516	18399.71
575.877	18481.75
576.238	18600.39
576.599	18710.67
576.96	18864.33
577.32	18985.01
577.681	19054.84
578.042	19110.2
578.403	19286.24
578.763	19375.06
579.124	19557.42
579.485	19700.7
579.845	19896.62
580.206	19929.84
580.566	20059.56
580.927	20199.21
581.287	20403.73
581.648	20493.22
582.008	20724.17
582.368	20893.21
582.728	21087.1
583.089	21178.17
583.449	21357.38
583.809	21557.82
584.169	21838.95
584.529	21915.55
584.889	22209.56
585.249	22304.7
585.609	22451.36
585.969	22773.38
586.329	22949.88
586.688	23233.71
587.048	23469.19
587.408	23588.28
587.768	23619.01
588.127	23955.73
588.487	24127.92
588.846	24538.99
589.206	24592.77
589.565	24879.77
589.925	25197.5
590.284	25323.83
590.643	25648.34
591.003	25987.54
591.362	26234.99
591.721	26386.17
592.08	26603.34
592.44	27015.53
592.799	27201.29
593.158	27311.34
593.517	27614.61
593.876	28021.83
594.235	27995.62
594.593	28352.9
594.952	28641.03
595.311	28684.42
595.67	29003.95
596.029	29439.2
596.387	29682.58
596.746	29787.66
597.104	30048.45
597.463	30251.83
597.822	30593.29
598.18	30711.93
598.538	31017.91
598.897	31352.59
599.255	31259.04
599.613	31810.66
599.972	31903.31
600.33	32251.1
600.688	32245
601.046	32671.2
601.404	32935.15
601.762	33037.75
602.12	33324.07
602.478	33552.54
602.836	33620.56
603.194	33824.85
603.552	34035.24
603.91	34104.16
604.268	34482.68
604.625	34656.01
604.983	34883.35
605.341	34809.45
605.698	35271.36
606.056	35368.76
606.413	35408.53
606.771	35767.84
607.128	35991.34
607.485	35964
607.843	36182.07
608.2	36472.01
608.557	36729.18
608.914	36512.23
609.272	37005.1
609.629	37158.99
609.986	37471.53
610.343	37356.96
610.7	37761.69
611.057	37796.72
611.414	38004.17
611.771	37999.2
612.127	38195.13
612.484	38493.42
612.841	38646.41
613.198	38681.21
613.554	38666.53
613.911	38914.43
614.267	39000.08
614.624	39181.77
614.98	39226.06
615.337	39493.4
615.693	39530.23
616.05	39651.36
616.406	39814.74
616.762	39847.51
617.118	40057.22
617.475	40093.15
617.831	40176.54
618.187	40206.37
618.543	40426.03
618.899	40723.87
619.255	40628.28
619.611	40689.52
619.967	40948.05
620.323	41052.45
620.678	40976.75
621.034	40965.67
621.39	41088.38
621.746	41205.44
622.101	41560.46
622.457	41338.32
622.812	41329.51
623.168	41669.84
623.523	41586.9
623.879	41778.99
624.234	41560.69
624.589	41880.23
624.945	41838.19
625.3	41981.92
625.655	42016.27
626.01	42089.03
626.365	42220.33
626.72	42058.3
627.075	42238.41
627.43	42117.06
627.785	42032.09
628.14	42238.41
628.495	42351.85
628.85	42197.96
629.205	42148.02
629.559	42389.14
629.914	42274.79
630.269	42338.07
630.623	42274.11
630.978	42138.3
631.332	42332.64
631.687	42515.46
632.041	42281.8
632.396	42445.64
632.75	42159.54
633.104	42361.57
633.459	42145.98
633.813	42311.4
634.167	42251.06
634.521	42255.36
634.875	42398.86
635.229	42358.63
635.583	42053.78
635.937	42272.98
636.291	42312.98
636.645	42221.46
636.999	42233.66
637.352	42311.18
637.706	42135.14
638.06	42328.35
638.413	42190.5
638.767	42135.59
639.121	42177.17
639.474	42043.39
639.828	42104.18
640.181	42199.31
640.534	42111.86
640.888	41996.61
641.241	41889.27
641.594	41962.48
641.947	42186.89
642.301	41982.82
642.654	41955.93
643.007	42018.98
643.36	41764.07
643.713	41802.26
644.066	42010.39
644.419	41915.48
644.771	41600.01
645.124	41259.68
645.477	41202.28
645.83	40949.4
646.182	40836.64
646.535	40650.88
646.888	40855.39
647.24	40490.66
647.593	40734.72
647.945	40603.42
648.298	40509.64
648.65	40553.26
649.002	40271.23
649.355	40549.41
649.707	40492.24
650.059	40734.49
650.411	41233.24
650.763	41152.79
651.115	41513.68
651.467	41278.21
651.819	41423.29
652.171	41203.18
652.523	41281.15
652.875	41325.66
653.227	40939.23
653.578	41418.54
653.93	41334.7
654.282	41059.46
654.633	41077.54
654.985	41193.46
655.337	41167.25
655.688	41198.44
656.039	41249.28
656.391	41034.37
656.742	41080.25
657.094	41157.99
657.445	41139.91
657.796	41144.43
658.147	41035.95
658.498	40894.72
658.849	41077.08
659.2	41026.24
659.551	40912.79
659.902	40999.8
660.253	41064.65
660.604	41033.7
660.955	40992.57
661.306	41004.77
661.656	40917.54
662.007	40871.44
662.358	40830.99
662.708	40909.18
663.059	40987.37
663.409	40592.35
663.76	41036.18
664.11	40834.38
664.461	40933.13
664.811	40845.68
665.161	40955.73
665.511	40769.75
665.862	40722.74
666.212	40755.06
666.562	40897.65
666.912	40700.82
667.262	40585.8
667.612	40748.96
667.962	40815.85
668.312	40679.58
668.662	40936.52
669.011	40735.17
669.361	40668.51
669.711	40649.07
670.06	40523.65
670.41	40642.97
670.76	40575.63
671.109	40659.92
671.459	40503.54
671.808	40492.47
672.157	40550.54
672.507	40351
672.856	40415.63
673.205	40489.3
673.554	40611.56
673.904	40477.33
674.253	40579.47
674.602	40554.39
674.951	39851.13
675.3	39755.54
675.649	40336.99
675.998	40327.05
676.346	40366.14
676.695	40524.1
677.044	40191.01
677.393	40242.76
677.741	40284.34
678.09	40210.44
678.438	40158.92
678.787	40366.82
679.135	40163.89
679.484	40043.44
679.832	40112.14
680.181	39806.38
680.529	39847.29
680.877	39811.81
681.225	39857
681.573	40127.28
681.922	39751.24
682.27	39679.38
682.618	39857
682.966	39562.55
683.314	39819.72
683.661	39459.5
684.009	39328.88
684.357	39453.62
684.705	39368.65
685.053	39325.27
685.4	39278.94
685.748	39109.23
686.095	39150.13
686.443	38980.64
686.79	39035.56
687.138	38830.59
687.485	38963.47
687.832	38836.69
688.18	38851.61
688.527	38643.02
688.874	38622.91
689.221	38417.94
689.568	38390.6
689.915	38292.98
690.262	38360.77
690.609	38238.97
690.956	38111.06
691.303	37996.26
691.65	37968.92
691.997	37954
692.344	37662.94
692.69	37595.14
693.037	37653.22
693.383	37397.18
693.73	37640.11
694.077	37361.93
694.423	37316.28
694.769	37338.88
695.116	37278.31
695.462	37182.5
695.808	36885.33
696.155	37071.77
696.501	36726.01
696.847	36667.93
697.193	36592.46
697.539	36654.6
697.885	36483.98
698.231	36451.44
698.577	36410.31
698.923	36246.25
699.269	36076.31
699.614	35976.88
699.96	35822.76
700.306	35898.01
700.651	35643.78
700.997	35465.93
701.342	35533.05
701.688	35481.52
702.033	35356.1
702.379	35295.31
702.724	35300.51
703.069	35271.59
703.415	34814.88
703.76	34999.5
704.105	34894.65
704.45	34986.85
704.795	34561.77
705.14	34630.7
705.485	34484.71
705.83	34456.24
706.175	34418.95
706.52	34269.13
706.865	34175.12
707.209	34209.02
707.554	34092.41
707.899	34234.1
708.243	33864.62
708.588	33893.32
708.932	33656.49
709.277	33721.8
709.621	33724.06
709.966	33508.92
710.31	33581.46
710.654	33228.25
710.998	33315.03
711.342	33351.19
711.687	33251.75
712.031	33108.25
712.375	33058.99
712.719	33097.18
713.063	32933.57
713.407	33029.61
713.75	32880.01
714.094	32877.07
714.438	32633.01
714.782	32634.59
715.125	32597.76
715.469	32706
715.812	32433.24
716.156	32380.14
716.499	32337.88
716.843	32225.79
717.186	32102.63
717.53	32310.53
717.873	32235.51
718.216	32184.66
718.559	31955.52
718.902	31811.11
719.246	31731.79
719.589	31710.32
719.932	31619.03
720.275	31699.7
720.617	31554.85
720.96	31547.84
721.303	31533.15
721.646	31551.46
721.989	31404.34
722.331	31414.96
722.674	31371.12
723.016	31369.09
723.359	31313.95
723.701	31348.75
724.044	31181.52
724.386	30935.88
724.729	31065.14
725.071	31100.62
725.413	31084.8
725.755	31040.51
726.097	30871.48
726.439	30574.31
726.782	30669.67
727.124	30975.88
727.465	30685.49
727.807	30736.56
728.149	30552.61
728.491	30647.75
728.833	30507.64
729.175	30415.9
729.516	30448.44
729.858	30373.86
730.199	30392.62
730.541	30313.98
730.882	30282.57
731.224	30330.47
731.565	30093.87
731.906	30053.87
732.248	30132.06
732.589	29937.04
732.93	29837.38
733.271	29955.34
733.612	29960.54
733.953	29911.5
734.294	29806.65
734.635	29744.95
734.976	29785.63
735.317	29685.29
735.658	29612.75
735.999	29584.28
736.339	29449.59
736.68	29504.28
737.021	29458.41
737.361	29401.91
737.702	29508.35
738.042	29316.72
738.383	29241.91
738.723	29291.4
739.063	29216.6
739.404	29269.03
739.744	29139.32
740.084	29180.45
740.424	29239.2
740.764	29012.77
741.104	29085.08
741.444	29064.29
741.784	28878.99
742.124	28955.37
742.464	28945.2
742.804	28885.99
743.143	28834.47
743.483	28765.32
743.823	28626.56
744.162	28658.88
744.502	28808.71
744.841	28531.2
745.181	28546.79
745.52	28535.72
745.86	28473.57
746.199	28418.43
746.538	28417.76
746.877	28488.94
747.216	28399.68
747.556	28332.56
747.895	28176.18
748.234	28191.09
748.573	28182.96
748.911	28114.26
749.25	28072.68
749.589	27926.7
749.928	27981.61
750.267	27998.78
750.605	27912.46
750.944	27914.49
751.283	27789.3
751.621	27765.57
751.96	27675.85
752.298	27721.95
752.636	27606.25
752.975	27537.1
753.313	27482.19
753.651	27550.66
753.989	27368.97
754.327	27335.07
754.666	27328.52
755.004	27258.92
755.342	27239.71
755.679	27180.73
756.017	26997.45
756.355	27144.34
756.693	27034.52
757.031	27026.38
757.368	26921.3
757.706	26666.84
758.044	26610.8
758.381	26677.24
758.719	26623.9
759.056	26686.95
759.394	26576.22
759.731	26261.65
760.068	26270.92
760.405	26243.58
760.743	26192.73
761.08	26277.02
761.417	25993.19
761.754	25981.66
762.091	25959.06
762.428	25852.4
762.765	25705.28
763.102	25782.57
763.438	25634.1
763.775	25548.9
764.112	25624.61
764.449	25561.56
764.785	25406.31
765.122	25346.2
765.458	25159.08
765.795	25201.79
766.131	25066.21
766.467	24993.21
766.804	24881.58
767.14	24757.29
767.476	24844.06
767.812	24669.38
768.148	24728.36
768.485	24420.57
768.821	24495.37
769.157	24338.99
769.492	24390.29
769.828	24320.69
770.164	24056.29
770.5	24003.86
770.836	24039.34
771.171	23870.3
771.507	23759.8
771.842	23590.31
772.178	23680.25
772.513	23584.66
772.849	23464.67
773.184	23430.32
773.519	23431.22
773.855	23308.96
774.19	23187.61
774.525	23100.38
774.86	23041.85
775.195	23051.12
775.53	22864.23
775.865	22792.82
776.2	22649.09
776.535	22422.43
776.87	22603.45
777.205	22520.06
777.539	22289.1
777.874	22372.49
778.209	22113.74
778.543	22159.39
778.878	21930.47
779.212	22046.4
779.547	21893.18
779.881	21858.83
780.215	21694.99
780.55	21668.33
780.884	21525.28
781.218	21493.19
781.552	21475.34
781.886	21328
782.22	21262.01
782.554	21167.55
782.888	21079.19
783.222	20865.64
783.556	20981.57
783.889	20880.78
784.223	20729.6
784.557	20756.04
784.89	20642.37
785.224	20652.31
785.557	20477.4
785.891	20456.16
786.224	20442.15
786.558	20289.83
786.891	20156.05
787.224	20045.55
787.557	20099.33
787.891	20117.41
788.224	20032.67
788.557	20023.85
788.89	19870.41
789.223	19903.63
789.556	19671.32
789.888	19687.82
790.221	19598.1
790.554	19406.69
790.887	19392
791.219	19327.15
791.552	19333.47
791.884	19206.92
792.217	19122.63
792.549	19051.9
792.882	19020.49
793.214	18909.08
793.546	18798.8
793.879	18711.57
794.211	18690.33
794.543	18698.24
794.875	18612.36
795.207	18715.41
795.539	18502.54
795.871	18449.88
796.203	18338.92
796.535	18308.19
796.867	18227.52
797.198	18250.11
797.53	18247.85
797.862	18117.46
798.193	18104.81
798.525	17961.53
798.856	18011.93
799.188	17768.54
799.519	17890.57
799.85	17699.17
800.182	17639.28
800.513	17593.63
800.844	17471.38
801.175	17563.35
801.506	17570.36
801.837	17443.58
802.168	17408.33
802.499	17268.67
802.83	17222.34
803.161	17245.62
803.491	17166.75
803.822	17174.44
804.153	17065.96
804.483	16964.95
804.814	16928.79
805.145	16931.96
805.475	16806.76
805.805	16698.74
806.136	16822.58
806.466	16642.02
806.796	16750.94
807.126	16552.98
807.457	16495.58
807.787	16560.67
808.117	16434.12
808.447	16382.14
808.777	16465.08
809.107	16305.08
809.436	16212.65
809.766	16246.78
810.096	16208.81
810.426	16118.19
810.755	16094.92
811.085	16084.29
811.414	16072.32
811.744	15961.59
812.073	15968.37
812.403	15883.85
812.732	15838.43
813.061	15877.75
813.39	15717.75
813.719	15689.05
814.049	15694.47
814.378	15637.07
814.707	15485.89
815.036	15628.71
815.365	15565.44
815.693	15374.71
816.022	15442.28
816.351	15295.84
816.68	15280.25
817.008	15320.47
817.337	15174.94
817.665	15200.7
817.994	15269.85
818.322	15221.27
818.651	15116.86
818.979	15011.78
819.307	15049.52
819.636	15031.67
819.964	14925.23
820.292	14988.5
820.62	14923.42
820.948	14835.29
821.276	14896.3
821.604	14888.17
821.932	15026.02
822.259	14941.95
822.587	14899.47
822.915	14851.78
823.243	14892.24
823.57	14797.77
823.898	14849.98
824.225	14752.58
824.553	14786.48
824.88	14826.47
825.207	14850.43
825.535	14811.33
825.862	14901.27
826.189	14717.55
826.516	14856.76
826.843	14823.08
827.17	14886.36
827.497	14865.34
827.824	14800.94
828.151	14807.49
828.478	14798.9
828.805	14830.09
829.131	14748.74
829.458	14703.99
829.785	14765.01
830.111	14764.33
830.438	14809.3
830.764	14705.8
831.09	14764.56
831.417	14703.99
831.743	14738.79
832.069	14768.62
832.395	14680.72
832.722	14750.09
833.048	14654.95
833.374	14670.09
833.7	14575.41
834.026	14636.2
834.351	14689.75
834.677	14592.36
835.003	14626.71
835.329	14616.99
835.654	14605.01
835.98	14532.47
836.306	14484.34
836.631	14509.65
836.956	14518.69
837.282	14483.66
837.607	14466.71
837.932	14459.48
838.258	14358.92
838.583	14350.55
838.908	14289.09
839.233	14309.88
839.558	14260.39
839.883	14252.48
840.208	14193.95
840.533	14195.3
840.858	14190.79
841.182	14184.01
841.507	14054.74
841.832	14131.58
842.156	14134.06
842.481	14095.19
842.805	14023.33
843.13	13935.42
843.454	13950.34
843.778	14008.87
844.103	13886.61
844.427	13881.64
844.751	13868.31
845.075	13815.43
845.399	13751.25
845.723	13660.4
846.047	13667.63
846.371	13473.97
846.695	13594.64
847.019	13499.5
847.343	13434.65
847.666	13402.78
847.99	13368.66
848.313	13344.03
848.637	13193.07
848.96	13128.44
849.284	13106.52
849.607	13017.48
849.931	13004.38
850.254	12936.13
850.577	12876.02
850.9	12823.36
851.223	12773.65
851.546	12753.31
851.869	12564.84
852.192	12689.36
852.515	12550.6
852.838	12521
853.161	12532.75
853.483	12461.56
853.806	12361.23
854.129	12390.38
854.451	12307.22
854.774	12283.04
855.096	12303.38
855.419	12241.91
855.741	12165.3
856.063	12081.46
856.385	12054.34
856.708	12073.33
857.03	11964.4
857.352	11971.41
857.674	12001.69
857.996	11883.5
858.318	11818.87
858.64	11841.47
858.961	11710.62
859.283	11767.8
859.605	11714.01
859.926	11716.5
860.248	11703.62
860.57	11624.75
860.891	11586.11
861.212	11512.21
861.534	11511.08
861.855	11511.31
862.176	11574.36
862.498	11554.92
862.819	11468.6
863.14	11383.85
863.461	11410.07
863.782	11434.7
864.103	11443.06
864.424	11329.84
864.745	11363.74
865.065	11256.4
865.386	11277.42
865.707	11288.71
866.027	11286.45
866.348	11143.86
866.668	11173.69
866.989	11179.56
867.309	11123.07
867.63	11152.22
867.95	11165.33
868.27	10997.2
868.59	11026.12
868.91	11080.36
869.23	10988.61
869.55	10937.76
869.87	11027.48
870.19	11051.43
870.51	11041.04
870.83	10967.59
871.15	10917.42
871.469	10974.15
871.789	10939.12
872.109	10842.4
872.428	10779.12
872.748	10821.61
873.067	10834.49
873.386	10853.02
873.706	10782.97
874.025	10759.46
874.344	10765.11
874.663	10719.69
874.982	10751.78
875.301	10752.23
875.62	10657.54
875.939	10637.66
876.258	10642.63
876.577	10571.9
876.896	10607.83
877.214	10553.59
877.533	10528.06
877.852	10557.43
878.17	10511.33
878.489	10545.01
878.807	10540.03
879.125	10513.82
879.444	10425.46
879.762	10408.51
880.08	10423.65
880.398	10346.37
880.716	10434.5
881.034	10350.66
881.352	10295.29
881.67	10279.7
881.988	10333.94
882.306	10205.35
882.624	10268.63
882.941	10167.39
883.259	10202.19
883.577	10148.86
883.894	10196.09
884.212	10151.8
884.529	10123.77
884.846	10105.92
885.164	10049.88
885.481	10084.68
885.798	10050.78
886.115	9883.1
886.432	9917.45
886.75	9945.7
887.067	9945.47
887.383	9893.72
887.7	9865.02
888.017	9888.98
888.334	9916.77
888.651	9867.73
888.967	9750
889.284	9764.46
889.6	9680.62
889.917	9636.33
890.233	9698.02
890.55	9660.06
890.866	9616.44
891.182	9571.7
891.498	9529.66
891.815	9520.63
892.131	9453.73
892.447	9464.13
892.763	9364.02
893.079	9440.4
893.395	9363.12
893.71	9337.13
894.026	9370.35
894.342	9322.21
894.657	9300.52
894.973	9246.06
895.289	9258.26
895.604	9232.5
895.92	9150.92
896.235	9113.18
896.55	9100.07
896.865	9117.47
897.181	9040.86
897.496	9031.15
897.811	8946.86
898.126	8923.13
898.441	8912.73
898.756	8907.08
899.071	8866.41
899.386	8873.64
899.7	8784.37
900.015	8851.72
900.33	8679.52
900.644	8648.33
900.959	8660.76
901.273	8609.91
901.588	8663.02
901.902	8637.71
902.216	8491.05
902.531	8479.3
902.845	8530.82
903.159	8418.96
903.473	8425.74
903.787	8325.85
904.101	8355.23
904.415	8388.9
904.729	8331.05
905.042	8254.22
905.356	8261.68
905.67	8196.14
905.984	8232.98
906.297	8133.09
906.611	8100.55
906.924	8087.44
907.237	8006.54
907.551	8036.14
907.864	8008.8
908.177	7981.91
908.491	7933.77
908.804	7882.48
909.117	7893.32
909.43	7798.64
909.743	7808.13
910.056	7766.1
910.368	7810.84
910.681	7729.94
910.994	7706.21
911.307	7625.99
911.619	7574.91
911.932	7629.15
912.244	7529.72
912.557	7522.94
912.869	7486.1
913.181	7432.09
913.494	7519.77
913.806	7388.48
914.118	7359.55
914.43	7338.99
914.742	7268.71
915.054	7325.43
915.366	7235.49
915.678	7242.72
915.99	7178.77
916.302	7143.06
916.613	7108.49
916.925	7041.59
917.236	7079.33
917.548	7042.27
917.859	7061.48
918.171	6938.32
918.482	6917.98
918.794	6897.87
919.105	6883.63
919.416	6825.33
919.727	6868.94
920.038	6812.22
920.349	6773.35
920.66	6704.65
920.971	6748.72
921.282	6714.6
921.593	6617.42
921.903	6631.21
922.214	6630.08
922.525	6584.21
922.835	6529.97
923.146	6518.22
923.456	6478.67
923.767	6425.57
924.077	6464.66
924.387	6459.91
924.697	6393.25
925.008	6359.35
925.318	6333.59
925.628	6282.97
925.938	6282.52
926.248	6217.44
926.558	6208.85
926.867	6176.31
927.177	6148.74
927.487	6112.35
927.796	6066.25
928.106	6057.44
928.416	6050.21
928.725	6057.89
929.034	5983.32
929.344	6046.82
929.653	5981.51
929.962	5946.93
930.271	5925.69
930.581	5926.82
930.89	5858.8
931.199	5874.17
931.508	5782.42
931.817	5807.95
932.125	5784.68
932.434	5741.06
932.743	5699.48
933.051	5652.03
933.36	5707.17
933.669	5621.74
933.977	5615.42
934.286	5591.69
934.594	5610.22
934.902	5555.31
935.21	5481.86
935.519	5505.82
935.827	5490.67
936.135	5433.95
936.443	5422.43
936.751	5416.33
937.059	5361.86
937.367	5356.44
937.674	5365.93
937.982	5324.8
938.29	5289.32
938.597	5309.21
938.905	5219.04
939.213	5213.39
939.52	5168.42
939.827	5184.92
940.135	5161.64
940.442	5165.71
940.749	5165.26
941.056	5062.89
941.363	5025.83
941.67	5032.83
941.977	5022.89
942.284	4939.28
942.591	4974.08
942.898	4986.73
943.205	4981.08
943.511	4922.33
943.818	4916.9
944.125	4829.9
944.431	4851.37
944.738	4808.21
945.044	4772.28
945.35	4826.06
945.657	4767.98
945.963	4763.46
946.269	4705.84
946.575	4675.1
946.881	4663.8
947.187	4652.28
947.493	4638.95
947.799	4635.78
948.105	4605.5
948.41	4557.82
948.716	4603.69
949.022	4610.02
949.327	4560.98
949.633	4517.14
949.938	4498.84
950.244	4473.53
950.549	4506.07
950.854	4391.27
951.16	4414.54
951.465	4389.91
951.77	4379.52
952.075	4372.51
952.38	4322.8
952.685	4346.07
952.99	4322.8
953.294	4303.59
953.599	4256.13
953.904	4255.68
954.209	4208
954.513	4283.47
954.818	4184.72
955.122	4191.05
955.426	4178.17
955.731	4140.65
956.035	4113.54
956.339	4099.3
956.643	4108.11
956.948	4083.48
957.252	4047.77
957.556	3989.7
957.86	4003.48
958.163	4005.52
958.467	3993.31
958.771	3945.4
959.075	3989.47
959.378	3921.45
959.682	3912.86
959.985	3899.08
960.289	3887.1
960.592	3868.8
960.896	3858.4
961.199	3809.14
961.502	3784.96
961.805	3796.48
962.108	3801.68
962.411	3763.94
962.714	3723.26
963.017	3737.73
963.32	3729.37
963.623	3692.53
963.926	3711.74
964.228	3682.36
964.531	3681
964.833	3649.14
965.136	3588.35
965.438	3605.75
965.741	3581.35
966.043	3575.7
966.345	3549.93
966.648	3559.43
966.95	3555.81
967.252	3498.18
967.554	3449.15
967.856	3486.43
968.158	3434.91
968.46	3465.42
968.761	3429.03
969.063	3392.88
969.365	3376.38
969.666	3365.76
969.968	3391.97
970.269	3361.47
970.571	3343.61
970.872	3323.5
971.174	3278.53
971.475	3335.48
971.776	3315.36
972.077	3258.64
972.378	3262.03
972.679	3239.43
972.98	3231.07
973.281	3263.61
973.582	3210.06
973.883	3201.24
974.183	3157.18
974.484	3174.13
974.785	3154.01
975.085	3122.83
975.386	3133.67
975.686	3102.04
975.986	3079.89
976.287	3082.15
976.587	3044.64
976.887	3055.03
977.187	3055.94
977.487	3037.63
977.787	3022.27
978.087	3002.6
978.387	2985.43
978.687	3007.58
978.987	2947.69
979.286	2953.79
979.586	2934.36
979.885	2910.63
980.185	2896.84
980.484	2888.71
980.784	2855.49
981.083	2826.56
981.382	2832.89
981.682	2852.1
981.981	2835.6
982.28	2814.59
982.579	2782.95
982.878	2780.24
983.177	2773.46
983.475	2758.54
983.774	2743.18
984.073	2725.78
984.372	2713.57
984.67	2746.34
984.969	2733.01
985.267	2701.37
985.566	2704.53
985.864	2660.47
986.162	2692.56
986.461	2629.73
986.759	2595.38
987.057	2624.31
987.355	2581.82
987.653	2603.75
987.951	2572.11
988.249	2584.31
988.547	2573.24
988.844	2573.46
989.142	2547.93
989.44	2538.66
989.737	2486.91
990.035	2525.78
990.332	2499.12
990.63	2494.82
990.927	2470.42
991.224	2462.05
991.521	2432.68
991.819	2457.99
992.116	2426.12
992.413	2446.01
992.71	2398.55
993.006	2421.6
993.303	2392.9
993.6	2395.16
993.897	2342.74
994.193	2356.07
994.49	2345.67
994.787	2318.1
995.083	2305.45
995.379	2294.37
995.676	2280.59
995.972	2259.35
996.268	2252.57
996.565	2276.3
996.861	2253.92
997.157	2234.04
997.453	2229.97
997.749	2205.79
998.044	2198.33
998.34	2187.03
998.636	2184.77
998.932	2174.38
999.227	2167.15
999.523	2146.58
999.818	2142.29
1000.114	2112.91
1000.409	2106.13
1000.704	2088.96
1001	2097.54
1001.295	2085.79
1001.59	2065.68
1001.885	2090.76
1002.18	2060.71
1002.475	2027.26
1002.77	2045.12
1003.065	2000.37
1003.359	2008.73
1003.654	2001.5
1003.949	1976.42
1004.243	1972.35
1004.538	1968.51
1004.832	1943.65
1005.127	1950.65
1005.421	1929.64
1005.715	1916.08
1006.009	1907.27
1006.304	1890.32
1006.598	1897.55
1006.892	1887.83
1007.186	1861.84
1007.48	1846.93
1007.773	1865.01
1008.067	1838.12
1008.361	1831.56
1008.655	1793.82
1008.948	1774.61
1009.242	1810.77
1009.535	1778.91
1009.829	1742.07
1010.122	1772.13
1010.415	1759.7
1010.708	1727.38
1011.001	1707.27
1011.295	1728.74
1011.588	1698.68
1011.881	1709.98
1012.173	1700.49
1012.466	1710.89
1012.759	1676.99
1013.052	1699.59
1013.344	1654.39
1013.637	1649.87
1013.93	1634.51
1014.222	1649.19
1014.514	1619.82
1014.807	1593.83
1015.099	1585.92
1015.391	1603.55
1015.683	1592.02
1015.976	1575.3
1016.268	1559.48
1016.56	1540.72
1016.851	1563.32
1017.143	1533.04
1017.435	1543.43
1017.727	1532.13
1018.018	1522.19
1018.31	1493.94
1018.602	1487.84
1018.893	1527.84
1019.185	1442.87
1019.476	1488.52
1019.767	1420.73
1020.058	1416.66
1020.35	1431.57
1020.641	1392.03
1020.932	1391.57
1021.223	1418.47
1021.514	1398.58
1021.804	1389.99
1022.095	1412.59
1022.386	1397.45
1022.677	1352.7
1022.967	1319.26
1023.258	1332.37
1023.548	1321.07
1023.839	1313.16
1024.129	1309.99
1024.419	1309.09
1024.709	1288.07
1025	1272.93
1025.29	1291.69
1025.58	1258.02
1025.87	1252.82
1026.16	1257.11
1026.449	1220.96
1026.739	1244.46
1027.029	1241.07
1027.319	1221.63
1027.608	1211.92
1027.898	1229.32
1028.187	1221.63
1028.477	1168.08
1028.766	1186.38
1029.055	1180.96
1029.344	1184.12
1029.634	1180.28
1029.923	1174.86
1030.212	1130.79
1030.501	1149.77
1030.79	1124.01
1031.078	1142.09
1031.367	1121.07
1031.656	1109.1
1031.945	1112.26
1032.233	1121.75
1032.522	1095.54
1032.81	1092.6
1033.099	1071.58
1033.387	1075.65
1033.675	1026.84
1033.963	1044.69
1034.251	1055.99
1034.54	1035.65
1034.828	1058.25
1035.116	1003.11
1035.403	1032.49
1035.691	986.61
1035.979	1025.03
1036.267	1004.24
1036.554	992.26
1036.842	993.39
1037.129	992.94
1037.417	972.38
1037.704	981.19
1037.992	951.13
1038.279	946.61
1038.566	959.49
1038.853	959.49
1039.14	959.49
