Data from hue_90_FLMS001491_67.txt Node
Date: Mon Feb 06 15:25:28 GMT 2017
User: dcchb
Spectrometer: FLMS00149
Trigger mode: 0
Integration Time (sec): 2.000000E-2
Scans to average: 10
Electric dark correction enabled: true
Nonlinearity correction enabled: false
Boxcar width: 0
XAxis mode: Wavelengths
Number of Pixels in Spectrum: 2048
>>>>>Begin Spectral Data<<<<<
341.393	-3.64
341.776	-3.64
342.16	-3.64
342.543	-39.8
342.927	-58.56
343.31	-68.28
343.693	-80.03
344.077	-69.18
344.46	-60.14
344.843	-56.75
345.226	-36.86
345.61	-23.53
345.993	4.72
346.376	-7.94
346.759	15.79
347.142	21.21
347.525	46.3
347.908	48.78
348.291	67.54
348.674	93.98
349.057	104.38
349.44	128.78
349.823	147.99
350.206	157.26
350.588	190.25
350.971	211.49
351.354	216.69
351.737	236.58
352.119	268.89
352.502	264.15
352.884	291.04
353.267	258.72
353.65	317.48
354.032	315.9
354.414	315.44
354.797	319.51
355.179	296.46
355.562	326.97
355.944	353.86
356.326	339.85
356.709	350.02
357.091	349.12
357.473	374.65
357.855	360.41
358.238	346.86
358.62	348.89
359.002	343.01
359.384	355.44
359.766	347.76
360.148	342.79
360.53	350.7
360.912	333.97
361.294	349.57
361.676	345.95
362.057	347.53
362.439	345.73
362.821	319.29
363.203	331.94
363.584	334.88
363.966	326.52
364.348	339.4
364.729	330.81
365.111	343.47
365.493	324.71
365.874	330.36
366.256	323.58
366.637	312.73
367.019	323.58
367.4	348.21
367.781	313.18
368.163	312.51
368.544	312.51
368.925	315.67
369.306	341.43
369.688	308.66
370.069	307.08
370.45	335.78
370.831	326.97
371.212	310.92
371.593	328.78
371.974	330.81
372.355	322.68
372.736	317.48
373.117	325.39
373.498	324.26
373.879	322.45
374.26	319.96
374.641	334.88
375.021	324.71
375.402	338.49
375.783	329.68
376.163	327.19
376.544	350.92
376.925	320.42
377.305	332.84
377.686	324.03
378.066	338.72
378.447	325.84
378.827	368.1
379.208	336.46
379.588	346.4
379.968	354.09
380.349	347.76
380.729	341.66
381.109	355.22
381.489	347.53
381.87	356.35
382.25	353.41
382.63	362.45
383.01	346.4
383.39	357.93
383.77	330.36
384.15	343.24
384.53	361.32
384.91	359.06
385.29	366.29
385.67	364.93
386.049	364.93
386.429	354.99
386.809	365.39
387.189	366.74
387.568	356.12
387.948	345.5
388.328	369.23
388.707	389.57
389.087	359.51
389.466	386.63
389.846	372.62
390.225	383.92
390.605	376.01
390.984	378.72
391.363	385.5
391.743	370.58
392.122	366.06
392.501	385.5
392.881	377.59
393.26	384.82
393.639	385.5
394.018	398.15
394.397	384.59
394.776	399.51
395.155	394.09
395.534	407.64
395.913	397.02
396.292	394.09
396.671	384.37
397.05	399.06
397.429	413.07
397.808	397.02
398.186	396.57
398.565	404.03
398.944	423.69
399.323	409.23
399.701	414.2
400.08	409
400.458	413.52
400.837	447.42
401.215	418.72
401.594	400.19
401.972	430.24
402.351	443.12
402.729	422.33
403.107	433.41
403.486	423.92
403.864	443.8
404.242	426.85
404.62	426.18
404.999	449.9
405.377	432.28
405.755	433.86
406.133	422.56
406.511	443.58
406.889	436.57
407.267	457.81
407.645	443.8
408.023	444.93
408.401	456.68
408.779	452.16
409.156	454.42
409.534	476.57
409.912	477.93
410.29	458.26
410.667	476.8
411.045	476.34
411.422	494.87
411.8	486.51
412.178	480.19
412.555	491.48
412.933	495.78
413.31	499.62
413.687	501.65
414.065	493.07
414.442	520.86
414.819	523.35
415.197	511.6
415.574	506.17
415.951	512.73
416.328	511.82
416.705	516.34
417.082	534.87
417.46	552.73
417.837	532.84
418.214	561.31
418.591	533.97
418.967	516.34
419.344	531.26
419.721	532.39
420.098	533.52
420.475	522.67
420.852	557.47
421.228	557.47
421.605	557.7
421.982	547.08
422.358	550.92
422.735	569.9
423.111	586.17
423.488	594.31
423.864	578.26
424.241	609
424.617	568.32
424.994	571.03
425.37	589.79
425.746	598.15
426.123	610.35
426.499	618.03
426.875	619.39
427.251	629.79
427.627	647.86
428.003	623.91
428.379	654.42
428.756	628.2
429.132	666.39
429.507	657.58
429.883	650.58
430.259	668.43
430.635	650.58
431.011	661.65
431.387	675.89
431.763	688.32
432.138	698.48
432.514	694.87
432.89	697.13
433.265	709.11
433.641	726.05
434.016	716.34
434.392	719.95
434.767	727.86
435.143	733.51
435.518	757.01
435.894	767.86
436.269	755.21
436.644	767.18
437.02	773.96
437.395	760.63
437.77	780.52
438.145	759.05
438.52	810.12
438.895	802.44
439.271	807.41
439.646	789.78
440.021	823.68
440.395	828.2
440.77	837.46
441.145	825.49
441.52	846.28
441.895	830.23
442.27	854.86
442.645	888.99
443.019	880.4
443.394	870.46
443.769	892.15
444.143	876.11
444.518	878.14
444.892	890.12
445.267	894.64
445.641	907.52
446.016	900.97
446.39	901.19
446.764	909.55
447.139	940.29
447.513	906.61
447.887	908.42
448.262	919.72
448.636	948.65
449.01	934.86
449.384	964.92
449.758	968.08
450.132	945.48
450.506	952.72
450.88	955.65
451.254	979.83
451.628	975.54
452.002	1003.79
452.376	1008.53
452.75	989.32
453.123	1010.34
453.497	1054.41
453.871	1045.37
454.244	1062.99
454.618	1083.11
454.992	1085.37
455.365	1076.55
455.739	1118.13
456.112	1122.43
456.486	1135.54
456.859	1142.54
457.232	1161.75
457.606	1148.87
457.979	1158.36
458.352	1163.11
458.725	1210.34
459.099	1187.96
459.472	1229.32
459.845	1248.98
460.218	1289.66
460.591	1268.41
460.964	1271.58
461.337	1282.42
461.71	1340.73
462.083	1344.57
462.456	1334.85
462.829	1340.73
463.201	1385.02
463.574	1415.08
463.947	1421.18
464.32	1462.53
464.692	1431.57
465.065	1455.3
465.438	1494.17
465.81	1502.08
466.183	1531.68
466.555	1590.89
466.928	1576.43
467.3	1597.44
467.672	1619.14
468.045	1657.1
468.417	1698.91
468.789	1712.7
469.161	1700.72
469.534	1758.57
469.906	1784.78
470.278	1796.76
470.65	1831.34
471.022	1872.92
471.394	1900.26
471.766	1945.91
472.138	1979.58
472.51	2049.86
472.882	2069.75
473.253	2102.29
473.625	2175.73
473.997	2203.76
474.369	2247.6
474.74	2260.7
475.112	2319.68
475.484	2403.3
475.855	2434.94
476.227	2469.74
476.598	2568.72
476.97	2604.65
477.341	2689.84
477.713	2755.61
478.084	2783.85
478.455	2902.72
478.827	2926
479.198	3060.68
479.569	3089.61
479.94	3194.69
480.311	3258.64
480.682	3347.68
481.053	3488.24
481.424	3588.8
481.795	3675.13
482.166	3743.83
482.537	3821.57
482.908	3975.46
483.279	4084.61
483.65	4158.28
484.021	4316.02
484.391	4393.98
484.762	4513.3
485.133	4598.49
485.503	4708.1
485.874	4862.44
486.244	4946.96
486.615	5087.3
486.985	5242.32
487.356	5409.77
487.726	5524.57
488.097	5668.3
488.467	5710.1
488.837	5933.38
489.207	6082.3
489.578	6178.57
489.948	6346.25
490.318	6532.46
490.688	6671.43
491.058	6748.95
491.428	6903.75
491.798	7007.7
492.168	7239.33
492.538	7302.6
492.908	7542.6
493.278	7686.55
493.648	7797.28
494.017	7946.66
494.387	8101.91
494.757	8230.26
495.126	8378.28
495.496	8513.19
495.866	8523.36
496.235	8706.41
496.605	8904.82
496.974	9044.93
497.344	9156.34
497.713	9280.86
498.082	9375.77
498.452	9585.26
498.821	9672.26
499.19	9722.2
499.559	9919.94
499.928	10082.87
500.298	10118.58
500.667	10351.56
501.036	10269.76
501.405	10542.29
501.774	10574.38
502.143	10701.16
502.512	10740.93
502.88	10863.87
503.249	10966.46
503.618	11068.61
503.987	11142.5
504.356	11304.53
504.724	11319.67
505.093	11446.9
505.462	11509.05
505.83	11617.29
506.199	11697.74
506.567	11829.27
506.936	11882.6
507.304	11996.27
507.672	12130.5
508.041	12109.71
508.409	12250.05
508.777	12410.04
509.145	12495.69
509.514	12462.69
509.882	12506.76
510.25	12607.32
510.618	12657.49
510.986	12742.46
511.354	12775.68
511.722	12901.78
512.09	12986.97
512.458	13010.7
512.826	13144.26
513.193	13126.63
513.561	13184.48
513.929	13303.8
514.297	13470.8
514.664	13391.48
515.032	13512.84
515.4	13526.62
515.767	13572.72
516.135	13564.59
516.502	13609.33
516.869	13843
517.237	13749.67
517.604	13690.69
517.972	13857.69
518.339	14010.45
518.706	13943.56
519.073	13919.83
519.44	14076.66
519.808	14151.69
520.175	14049.32
520.542	14160.96
520.909	14245.25
521.276	14221.07
521.643	14273.72
522.009	14399.14
522.376	14426.49
522.743	14452.93
523.11	14565.24
523.477	14557.1
523.843	14641.85
524.21	14711.22
524.577	14695.63
524.943	14715.52
525.31	14752.35
525.676	14840.26
526.043	14830.09
526.409	15002.52
526.776	15060.14
527.142	15019.01
527.508	15024.89
527.874	15057.88
528.241	15020.37
528.607	15015.85
528.973	15140.82
529.339	15066.24
529.705	15107.15
530.071	15162.74
530.437	15207.03
530.803	15165
531.169	15349.85
531.535	15101.95
531.901	15197.76
532.267	15223.53
532.632	15255.84
532.998	15175.62
533.364	15230.31
533.73	15162.06
534.095	15223.75
534.461	15219.23
534.826	15179.91
535.192	15231.66
535.557	15187.14
535.923	15176.52
536.288	15193.7
536.653	15273.24
537.019	15000.48
537.384	15044.77
537.749	15124.09
538.114	15115.73
538.479	15040.25
538.845	14998.45
539.21	14894.5
539.575	14905.57
539.94	14980.14
540.305	14942.18
540.67	14859.47
541.034	14829.86
541.399	14857.43
541.764	14729.75
542.129	14783.99
542.494	14744.22
542.858	14752.35
543.223	14680.04
543.587	14725.01
543.952	14612.69
544.316	14582.19
544.681	14452.7
545.045	14535.86
545.41	14585.12
545.774	14480.04
546.138	14451.57
546.503	14383.32
546.867	14385.13
547.231	14473.04
547.595	14380.16
547.959	14369.99
548.324	14279.14
548.688	14222.42
549.052	14145.36
549.416	14139.94
549.779	14118.02
550.143	14129.09
550.507	14177
550.871	14121.63
551.235	14031.24
551.599	14068.53
551.962	14047.96
552.326	13988.08
552.689	14090.67
553.053	13922.32
553.417	13922.09
553.78	14139.04
554.143	13877.8
554.507	13809.1
554.87	13915.09
555.234	13939.72
555.597	13812.04
555.96	13857.01
556.323	13908.76
556.686	13727.52
557.05	13751.47
557.413	13732.04
557.776	13710.35
558.139	13774.52
558.502	13690.01
558.865	13739.72
559.228	13749.89
559.59	13789.89
559.953	13721.64
560.316	13841.64
560.679	13831.02
561.041	13763.23
561.404	13759.61
561.767	13813.85
562.129	13720.51
562.492	13744.7
562.854	13750.8
563.217	13739.72
563.579	13772.94
563.941	13773.85
564.304	13859.27
564.666	13914.18
565.028	13828.53
565.39	13831.02
565.753	13824.24
566.115	13802.55
566.477	13989.21
566.839	13897.91
567.201	13839.38
567.563	13937.23
567.925	13924.58
568.287	13914.18
568.648	13914.18
569.01	13954.41
569.372	13991.24
569.734	14005.93
570.095	14116.89
570.457	14109.88
570.819	14049.09
571.18	14020.17
571.542	14131.8
571.903	14077.79
572.265	14068.98
572.626	14117.79
572.987	14156.89
573.349	14102.88
573.71	14154.63
574.071	14148.07
574.432	14206.15
574.794	14287.51
575.155	14199.6
575.516	14140.62
575.877	14220.16
576.238	14167.06
576.599	14278.47
576.96	14187.17
577.32	14179.71
577.681	14227.39
578.042	14185.14
578.403	14214.97
578.763	14152.14
579.124	14253.16
579.485	14274.62
579.845	14290.44
580.206	14267.17
580.566	14238.24
580.927	14265.36
581.287	14320.5
581.648	14220.84
582.008	14299.93
582.368	14238.02
582.728	14198.02
583.089	14200.28
583.449	14191.24
583.809	14181.75
584.169	14216.1
584.529	14118.47
584.889	14291.57
585.249	14176.77
585.609	14123.89
585.969	14205.93
586.329	14139.26
586.688	14118.7
587.048	14116.89
587.408	14047.51
587.768	14066.04
588.127	14107.17
588.487	14021.52
588.846	14177.45
589.206	14026.72
589.565	13966.38
589.925	13982.2
590.284	14053.16
590.643	14077.12
591.003	14021.07
591.362	14073.95
591.721	13957.57
592.08	13954.86
592.44	14028.98
592.799	14013.61
593.158	13980.62
593.517	13953.96
593.876	13959.15
594.235	13891.58
594.593	14055.87
594.952	13976.1
595.311	13821.53
595.67	13935.65
596.029	14050.45
596.387	13960.96
596.746	13974.07
597.104	13878.02
597.463	13920.51
597.822	13926.39
598.18	13929.32
598.538	13941.75
598.897	13917.8
599.255	13785.82
599.613	13977.68
599.972	13941.07
600.33	13880.96
600.688	13840.96
601.046	13841.87
601.404	13870.79
601.762	13854.3
602.12	13991.92
602.478	13904.01
602.836	13978.59
603.194	13819.72
603.552	13889.78
603.91	13809.1
604.268	13858.36
604.625	13774.98
604.983	13893.17
605.341	13885.03
605.698	13941.53
606.056	13870.12
606.413	13844.58
606.771	13898.36
607.128	13941.07
607.485	13908.08
607.843	13852.49
608.2	13954.63
608.557	13915.31
608.914	13907.63
609.272	13955.99
609.629	13955.99
609.986	14002.77
610.343	13927.52
610.7	14061.52
611.057	14047.96
611.414	13930.23
611.771	14037.57
612.127	14058.59
612.484	14030.34
612.841	14056.1
613.198	13995.08
613.554	14088.87
613.911	14103.1
614.267	14060.39
614.624	13999.38
614.98	14079.6
615.337	14191.46
615.693	14189.66
616.05	14160.05
616.406	14245.02
616.762	14106.72
617.118	14077.79
617.475	14177.23
617.831	14153.5
618.187	14176.77
618.543	14199.6
618.899	14269.88
619.255	14129.32
619.611	14183.55
619.967	14226.72
620.323	14285.47
620.678	14197.56
621.034	14291.35
621.39	14123.22
621.746	14163.67
622.101	14328.41
622.457	14265.81
622.812	14298.35
623.168	14376.09
623.523	14262.2
623.879	14291.57
624.234	14221.29
624.589	14299.93
624.945	14299.26
625.3	14230.56
625.655	14229.43
626.01	14313.72
626.365	14274.62
626.72	14262.87
627.075	14275.3
627.43	14178.81
627.785	14295.87
628.14	14299.48
628.495	14124.35
628.85	14281.18
629.205	14172.71
629.559	14221.07
629.914	14211.58
630.269	14144.46
630.623	14094.97
630.978	14076.66
631.332	14163.67
631.687	14220.16
632.041	14130.45
632.396	14081.64
632.75	14054.74
633.104	14079.83
633.459	14014.97
633.813	14027.17
634.167	13926.16
634.521	14007.29
634.875	14008.64
635.229	14021.75
635.583	13984.69
635.937	13975.88
636.291	13977.23
636.645	13905.82
636.999	13919.38
637.352	13869.44
637.706	13870.79
638.06	13888.19
638.413	13896.56
638.767	13731.36
639.121	13853.39
639.474	13706.73
639.828	13807.52
640.181	13777.01
640.534	13778.59
640.888	13756.45
641.241	13659.5
641.594	13640.29
641.947	13667.41
642.301	13741.53
642.654	13645.26
643.007	13644.13
643.36	13642.1
643.713	13659.05
644.066	13678.93
644.419	13635.09
644.771	13438.71
645.124	13353.52
645.477	13363.01
645.83	13316.23
646.182	13199.17
646.535	13189.46
646.888	13196.91
647.24	13189.23
647.593	13183.13
647.945	13122.34
648.298	13121.43
648.65	13159.4
649.002	13109.68
649.355	13175.67
649.707	13097.48
650.059	13219.29
650.411	13334.31
650.763	13323.69
651.115	13457.25
651.467	13477.81
651.819	13449.11
652.171	13502.67
652.523	13436.68
652.875	13409.34
653.227	13319.85
653.578	13501.99
653.93	13439.39
654.282	13442.33
654.633	13384.93
654.985	13449.56
655.337	13427.87
655.688	13454.99
656.039	13530.46
656.391	13373.41
656.742	13454.53
657.094	13447.3
657.445	13506.51
657.796	13431.71
658.147	13444.59
658.498	13453.86
658.849	13460.63
659.2	13523.46
659.551	13444.36
659.902	13523.46
660.253	13460.41
660.604	13514.19
660.955	13419.96
661.306	13498.15
661.656	13470.13
662.007	13488.43
662.358	13414.31
662.708	13416.34
663.059	13458.15
663.409	13386.29
663.76	13516.9
664.11	13509.9
664.461	13618.14
664.811	13556.68
665.161	13543.8
665.511	13572.27
665.862	13560.75
666.212	13574.98
666.562	13605.49
666.912	13499.5
667.262	13581.08
667.612	13533.63
667.962	13594.87
668.312	13546.51
668.662	13568.43
669.011	13524.81
669.361	13534.76
669.711	13550.12
670.06	13513.51
670.41	13494.76
670.76	13473.97
671.109	13588.32
671.459	13449.34
671.808	13504.93
672.157	13502.44
672.507	13392.16
672.856	13426.96
673.205	13411.82
673.554	13531.82
673.904	13385.83
674.253	13496.79
674.602	13389.22
674.951	13216.57
675.3	13146.29
675.649	13379.05
675.998	13361.65
676.346	13344.25
676.695	13277.81
677.044	13195.56
677.393	13289.34
677.741	13391.26
678.09	13306.97
678.438	13241.43
678.787	13281.66
679.135	13298.38
679.484	13202.11
679.832	13157.59
680.181	13083.24
680.529	13049.8
680.877	13095.45
681.225	13102.45
681.573	13235.78
681.922	12970.93
682.27	13065.16
682.618	13049.8
682.966	12930.48
683.314	13010.03
683.661	12909.91
684.009	12899.07
684.357	12928.45
684.705	12840.09
685.053	12789.92
685.4	12780.65
685.748	12780.88
686.095	12718.28
686.443	12655.68
686.79	12694.78
687.138	12698.39
687.485	12643.03
687.832	12662.24
688.18	12564.16
688.527	12502.47
688.874	12569.81
689.221	12493.43
689.568	12467.21
689.915	12394.45
690.262	12394.9
690.609	12350.16
690.956	12364.84
691.303	12256.6
691.65	12178.41
691.997	12218.63
692.344	12177.05
692.69	12098.86
693.037	12147.45
693.383	12043.04
693.73	12067.68
694.077	11911.3
694.423	11936.16
694.769	11899.32
695.116	11862.26
695.462	11845.54
695.808	11786.33
696.155	11750.17
696.501	11681.25
696.847	11676.73
697.193	11590.18
697.539	11567.13
697.885	11543.62
698.231	11447.35
698.577	11424.53
698.923	11384.98
699.269	11375.94
699.614	11246.46
699.96	11261.14
700.306	11233.12
700.651	11208.04
700.997	11158.32
701.342	11137.31
701.688	11085.56
702.033	11066.57
702.379	11006.91
702.724	10971.21
703.069	10930.53
703.415	10828.16
703.76	10862.96
704.105	10825.68
704.45	10778.67
704.795	10679.92
705.14	10789.07
705.485	10643.53
705.83	10602.63
706.175	10643.08
706.52	10623.87
706.865	10546.59
707.209	10529.86
707.554	10494.61
707.899	10453.93
708.243	10413.71
708.588	10385.91
708.932	10312.47
709.277	10321.96
709.621	10365.8
709.966	10315.86
710.31	10328.74
710.654	10315.63
710.998	10237.67
711.342	10258.01
711.687	10181.4
712.031	10159.03
712.375	10044.91
712.719	10018.24
713.063	10173.26
713.407	10092.36
713.75	10100.05
714.094	10051.91
714.438	9963.55
714.782	10039.71
715.125	9941.86
715.469	9926.04
715.812	9907.51
716.156	9857.57
716.499	9868.19
716.843	9916.1
717.186	9869.77
717.53	9901.41
717.873	9806.72
718.216	9868.64
718.559	9749.32
718.902	9712.03
719.246	9785.48
719.589	9734.41
719.932	9673.16
720.275	9659.83
720.617	9670.9
720.96	9654.86
721.303	9657.12
721.646	9663.67
721.989	9604.24
722.331	9619.83
722.674	9622.54
723.016	9599.27
723.359	9643.33
723.701	9598.59
724.044	9555.88
724.386	9518.82
724.729	9593.84
725.071	9529.89
725.413	9506.61
725.755	9540.29
726.097	9448.54
726.439	9364.02
726.782	9492.6
727.124	9472.27
727.465	9427.07
727.807	9424.36
728.149	9473.85
728.491	9369.89
728.833	9433.85
729.175	9424.81
729.516	9379.16
729.858	9436.33
730.199	9424.81
730.541	9436.11
730.882	9330.35
731.224	9451.47
731.565	9323.12
731.906	9369.44
732.248	9390.23
732.589	9289.9
732.93	9361.99
733.271	9366.28
733.612	9372.38
733.953	9431.36
734.294	9372.15
734.635	9281.76
734.976	9394.75
735.317	9321.76
735.658	9326.05
735.999	9409.22
736.339	9360.63
736.68	9408.76
737.021	9356.79
737.361	9382.1
737.702	9364.25
738.042	9438.37
738.383	9459.84
738.723	9460.06
739.063	9431.14
739.404	9479.27
739.744	9371.7
740.084	9455.32
740.424	9470.23
740.764	9474.07
741.104	9525.37
741.444	9557.01
741.784	9513.85
742.124	9565.6
742.464	9559.95
742.804	9545.71
743.143	9551.81
743.483	9610.11
743.823	9592.04
744.162	9602.43
744.502	9698.7
744.841	9699.83
745.181	9704.35
745.52	9750
745.86	9838.36
746.199	9847.4
746.538	9834.29
746.877	9968.98
747.216	10011.23
747.556	9937.56
747.895	10066.6
748.234	10148.18
748.573	10166.48
748.911	10277.67
749.25	10262.75
749.589	10324.22
749.928	10450.54
750.267	10540.94
750.605	10559.02
750.944	10625.68
751.283	10693.7
751.621	10782.06
751.96	10894.6
752.298	10921.94
752.636	11071.09
752.975	11159.68
753.313	11282.61
753.651	11424.08
753.989	11482.38
754.327	11608.71
754.666	11670.85
755.004	11879.66
755.342	11987
755.679	12118.52
756.017	12335.24
756.355	12402.81
756.693	12612.3
757.031	12704.27
757.368	12835.11
757.706	12977.48
758.044	13129.34
758.381	13282.56
758.719	13428.77
759.056	13635.55
759.394	13669.67
759.731	13903.79
760.068	14054.97
760.405	14125.48
760.743	14366.6
761.08	14550.1
761.417	14640.04
761.754	14760.49
762.091	14965.91
762.428	15127.71
762.765	15215.84
763.102	15462.84
763.438	15607.24
763.775	15835.04
764.112	15980.79
764.449	16116.84
764.785	16302.14
765.122	16396.38
765.458	16536.71
765.795	16738.97
766.131	16796.59
766.467	16899.87
766.804	17046.08
767.14	17205.4
767.476	17366.29
767.812	17480.42
768.148	17669.56
768.485	17663.46
768.821	17737.13
769.157	17931.03
769.492	18048.76
769.828	18229.55
770.164	18230.23
770.5	18327.85
770.836	18472.71
771.171	18468.64
771.507	18682.42
771.842	18634.74
772.178	18777.11
772.513	18909.98
772.849	18973.94
773.184	18974.61
773.519	19057.78
773.855	19163.08
774.19	19270.2
774.525	19218.22
774.86	19343.64
775.195	19365.79
775.53	19361.72
775.865	19372.8
776.2	19388.84
776.535	19375.96
776.87	19575.28
777.205	19395.85
777.539	19452.57
777.874	19703.63
778.209	19556.52
778.543	19526.01
778.878	19595.16
779.212	19705.89
779.547	19638.1
779.881	19735.27
780.215	19644.43
780.55	19779.79
780.884	19639.68
781.218	19667.93
781.552	19720.58
781.886	19698.89
782.22	19615.95
782.554	19721.71
782.888	19549.06
783.222	19505.22
783.556	19516.75
783.889	19440.59
784.223	19398.33
784.557	19441.49
784.89	19524.2
785.224	19382.06
785.557	19358.78
785.891	19334.38
786.224	19253.7
786.558	19377.77
786.891	19272.69
787.224	19232.91
787.557	19167.38
787.891	19206.02
788.224	19159.02
788.557	19365.34
788.89	19227.49
789.223	19208.96
789.556	19087.38
789.888	19085.35
790.221	19070.43
790.554	18984.78
790.887	18993.14
791.219	18874.96
791.552	18894.16
791.884	18854.84
792.217	18857.33
792.549	18807.16
792.882	18665.24
793.214	18637.67
793.546	18630.44
793.879	18543.21
794.211	18531.24
794.543	18557.68
794.875	18533.04
795.207	18593.61
795.539	18453.5
795.871	18446.49
796.203	18265.93
796.535	18197.69
796.867	18271.13
797.198	18222.09
797.53	18217.12
797.862	18174.86
798.193	18132.38
798.525	18038.59
798.856	18124.92
799.188	17911.82
799.519	17834.08
799.85	17886.28
800.182	17751.14
800.513	17767.19
800.844	17554.76
801.175	17701.65
801.506	17661.2
801.837	17632.05
802.168	17538.27
802.499	17595.89
802.83	17470.47
803.161	17406.29
803.491	17366.29
803.822	17343.24
804.153	17312.06
804.483	17237.48
804.814	17165.62
805.145	17239.29
805.475	17055.57
805.805	17091.95
806.136	17039.75
806.466	17078.39
806.796	17020.77
807.126	16873.65
807.457	16814.67
807.787	16889.47
808.117	16786.65
808.447	16749.14
808.777	16761.34
809.107	16740.77
809.436	16632.53
809.766	16622.59
810.096	16722.47
810.426	16555.47
810.755	16535.13
811.085	16540.33
811.414	16569.71
811.744	16301.01
812.073	16358.41
812.403	16357.51
812.732	16248.36
813.061	16338.07
813.39	16224.86
813.719	16148.02
814.049	16275.02
814.378	16204.07
814.707	16121.36
815.036	16154.8
815.365	16059.44
815.693	15899.67
816.022	15964.52
816.351	15838.43
816.68	15764.08
817.008	15837.75
817.337	15696.51
817.665	15687.47
817.994	15662.61
818.322	15663.74
818.651	15715.94
818.979	15683.18
819.307	15659
819.636	15623.29
819.964	15496.29
820.292	15607.7
820.62	15568.6
820.948	15517.3
821.276	15559.11
821.604	15453.58
821.932	15590.07
822.259	15460.36
822.587	15444.09
822.915	15428.49
823.243	15551.65
823.57	15524.54
823.898	15477.98
824.225	15454.71
824.553	15416.52
824.88	15457.42
825.207	15510.3
825.535	15474.59
825.862	15573.35
826.189	15369.29
826.516	15475.95
826.843	15555.72
827.17	15558.21
827.497	15564.08
827.824	15479.34
828.151	15521.15
828.478	15482.28
828.805	15540.58
829.131	15487.47
829.458	15466.01
829.785	15386.23
830.111	15424.88
830.438	15622.16
830.764	15506
831.09	15462.39
831.417	15445.22
831.743	15480.24
832.069	15541.48
832.395	15383.52
832.722	15499.45
833.048	15369.29
833.374	15418.78
833.7	15339.23
834.026	15379
834.351	15390.3
834.677	15374.93
835.003	15401.15
835.329	15331.09
835.654	15347.82
835.98	15233.7
836.306	15265.79
836.631	15085.68
836.956	15225.11
837.282	15229.18
837.607	15100.82
837.932	15165.67
838.258	15272.79
838.583	15170.87
838.908	14989.86
839.233	15032.34
839.558	15047.94
839.883	14980.14
840.208	15013.81
840.533	14979.01
840.858	14964.78
841.182	14899.69
841.507	14856.53
841.832	14950.99
842.156	14822.63
842.481	14841.16
842.805	14764.33
843.13	14738.34
843.454	14744.67
843.778	14666.7
844.103	14698.34
844.427	14616.54
844.751	14657.89
845.075	14594.62
845.399	14487.95
845.723	14504
846.047	14476.88
846.371	14373.38
846.695	14363.44
847.019	14299.03
847.343	14177.23
847.666	14139.94
847.99	14064.23
848.313	13950.57
848.637	13938.59
848.96	13904.01
849.284	13933.84
849.607	13798.03
849.931	13810.68
850.254	13615.66
850.577	13530.69
850.9	13489.79
851.223	13481.43
851.546	13409.56
851.869	13386.06
852.192	13396
852.515	13297.48
852.838	13212.51
853.161	13213.41
853.483	13108.55
853.806	13064.49
854.129	13069.68
854.451	13031.49
854.774	12887.99
855.096	12843.25
855.419	12848.67
855.741	12786.75
856.063	12868.11
856.385	12785.17
856.708	12786.08
857.03	12734.78
857.352	12636.48
857.674	12619.53
857.996	12503.15
858.318	12501.79
858.64	12581.34
858.961	12531.39
859.283	12465.18
859.605	12411.4
859.926	12404.17
860.248	12360.32
860.57	12294.34
860.891	12255.69
861.212	12319.2
861.534	12252.98
861.855	12243.04
862.176	12178.63
862.498	12205.53
862.819	12220.67
863.14	12114.91
863.461	12074.46
863.782	12035.59
864.103	12067
864.424	11964.4
864.745	12008.47
865.065	11915.82
865.386	11881.69
865.707	11912.2
866.027	11916.72
866.348	11879.43
866.668	11887.57
866.989	11881.02
867.309	11683.73
867.63	11783.16
867.95	11815.48
868.27	11720.34
868.59	11804.63
868.91	11639.44
869.23	11658.42
869.55	11579.33
869.87	11669.5
870.19	11588.37
870.51	11617.29
870.83	11596.28
871.15	11621.81
871.469	11576.39
871.789	11558.09
872.109	11547.46
872.428	11469.5
872.748	11540.01
873.067	11547.24
873.386	11463.17
873.706	11466.56
874.025	11395.38
874.344	11412.55
874.663	11454.59
874.982	11351.54
875.301	11345.66
875.62	11291.2
875.939	11260.92
876.258	11308.6
876.577	11193.12
876.896	11227.02
877.214	11224.54
877.533	11160.81
877.852	11172.56
878.17	11174.37
878.489	11098.21
878.807	11112.22
879.125	11125.78
879.444	11080.58
879.762	11063.64
880.08	11054.37
880.398	11031.09
880.716	11073.8
881.034	10996.74
881.352	10945.67
881.67	10997.87
881.988	10932.57
882.306	10931.66
882.624	10910.19
882.941	10780.03
883.259	10745
883.577	10702.97
883.894	10731.44
884.212	10730.09
884.529	10698.67
884.846	10632.69
885.164	10653.7
885.481	10608.28
885.798	10684.21
886.115	10597.43
886.432	10580.48
886.75	10469.08
887.067	10505.46
887.383	10440.6
887.7	10468.17
888.017	10429.3
888.334	10438.57
888.651	10338.23
888.967	10389.76
889.284	10263.66
889.6	10277.22
889.917	10262.07
890.233	10233.83
890.55	10201.96
890.866	10245.35
891.182	10153.38
891.498	10151.8
891.815	10096.2
892.131	10050.78
892.447	9995.64
892.763	10011.91
893.079	9961.97
893.395	10039.26
893.71	9950.9
894.026	9876.1
894.342	9854.4
894.657	9726.72
894.973	9756.33
895.289	9778.92
895.604	9749.55
895.92	9720.62
896.235	9616.89
896.55	9654.86
896.865	9633.84
897.181	9571.7
897.496	9571.02
897.811	9494.86
898.126	9453.28
898.441	9454.64
898.756	9412.61
899.071	9398.14
899.386	9374.87
899.7	9370.35
900.015	9242.89
900.33	9190.46
900.644	9131.03
900.959	9177.58
901.273	9126.96
901.588	9080.86
901.902	9013.52
902.216	9002.67
902.531	8938.27
902.845	8977.81
903.159	8902.11
903.473	8895.78
903.787	8830.47
904.101	8791.15
904.415	8764.71
904.729	8743.02
905.042	8698.5
905.356	8730.36
905.67	8672.29
905.984	8652.4
906.297	8576.24
906.611	8509.8
906.924	8538.28
907.237	8453.53
907.551	8499.41
907.864	8471.39
908.177	8390.94
908.491	8423.25
908.804	8321.11
909.117	8287.21
909.43	8238.17
909.743	8218.96
910.056	8177.61
910.368	8156.14
910.681	8146.2
910.994	8074.56
911.307	8046.31
911.619	7962.93
911.932	8000.67
912.244	7984.39
912.557	7921.8
912.869	7913.89
913.181	7851.06
913.494	7826.88
913.806	7840.9
914.118	7810.61
914.43	7683.84
914.742	7680.67
915.054	7649.71
915.366	7602.71
915.678	7555.25
915.99	7586.44
916.302	7468.48
916.613	7525.2
916.925	7450.4
917.236	7458.53
917.548	7358.87
917.859	7427.57
918.171	7367.46
918.482	7299.44
918.794	7291.76
919.105	7293.79
919.416	7199.33
919.727	7164.08
920.038	7172.66
920.349	7054.25
920.66	7091.08
920.971	7098.77
921.282	7062.61
921.593	7046.34
921.903	6971.09
922.214	6889.51
922.525	7003.4
922.835	6882.5
923.146	6844.54
923.456	6880.02
923.767	6835.5
924.077	6859
924.387	6791.21
924.697	6722.73
925.008	6759.34
925.318	6707.37
925.628	6644.09
925.938	6675.95
926.248	6597.99
926.558	6565.9
926.867	6553.92
927.177	6497.88
927.487	6467.37
927.796	6433.02
928.106	6430.76
928.416	6415.17
928.725	6411.78
929.034	6334.72
929.344	6359.58
929.653	6270.54
929.962	6249.98
930.271	6215.85
930.581	6244.33
930.89	6158.45
931.199	6143.77
931.508	6161.39
931.817	6114.39
932.125	6099.02
932.434	6118.68
932.743	6061.51
933.051	5982.64
933.36	5976.31
933.669	5983.54
933.977	5957.56
934.286	5894.51
934.594	5890.21
934.902	5850.89
935.21	5847.73
935.519	5808.63
935.827	5827.84
936.135	5754.4
936.443	5724.79
936.751	5738.35
937.059	5726.37
937.367	5704.68
937.674	5654.29
937.982	5605.47
938.29	5616.77
938.597	5593.27
938.905	5537.45
939.213	5503.33
939.52	5508.08
939.827	5472.14
940.135	5458.81
940.442	5453.16
940.749	5408.42
941.056	5413.16
941.363	5352.37
941.67	5316.89
941.977	5326.61
942.284	5247.97
942.591	5319.61
942.898	5227.18
943.205	5255.2
943.511	5179.5
943.818	5156.45
944.125	5142.66
944.431	5113.06
944.738	5132.72
945.044	5097.46
945.35	5100.85
945.657	5087.97
945.963	5014.08
946.269	4980.86
946.575	5014.76
946.881	4993.96
947.187	5013.85
947.493	4935.44
947.799	4931.82
948.105	4918.26
948.41	4820.86
948.716	4873.29
949.022	4870.8
949.327	4826.06
949.633	4738.38
949.938	4731.15
950.244	4760.52
950.549	4707.87
950.854	4670.58
951.16	4686.85
951.465	4687.08
951.77	4620.87
952.075	4639.4
952.38	4570.25
952.685	4610.25
952.99	4552.39
953.294	4534.09
953.599	4498.61
953.904	4508.33
954.209	4492.28
954.513	4469.68
954.818	4429.46
955.122	4433.98
955.426	4371.61
955.731	4403.02
956.035	4360.76
956.339	4369.8
956.643	4340.2
956.948	4322.12
957.252	4285.28
957.556	4264.72
957.86	4238.96
958.163	4249.35
958.467	4263.36
958.771	4248.9
959.075	4198.51
959.378	4175.91
959.682	4154.21
959.985	4143.14
960.289	4115.12
960.592	4109.92
960.896	4108.56
961.199	4076.25
961.502	4051.16
961.805	4033.76
962.108	3993.54
962.411	3976.14
962.714	4030.15
963.017	3966.42
963.32	3942.47
963.623	3880.32
963.926	3935.24
964.228	3868.34
964.531	3870.6
964.833	3858.63
965.136	3784.73
965.438	3799.65
965.741	3808.91
966.043	3801.23
966.345	3722.13
966.648	3717.61
966.95	3774.11
967.252	3691.17
967.554	3726.2
967.856	3687.11
968.158	3647.33
968.46	3643.94
968.761	3655.92
969.063	3653.66
969.365	3645.98
969.666	3627.9
969.968	3571.63
970.269	3577.5
970.571	3568.69
970.872	3550.16
971.174	3517.39
971.475	3519.65
971.776	3490.05
972.077	3480.56
972.378	3479.2
972.679	3487.56
972.98	3460.9
973.281	3449.37
973.582	3374.8
973.883	3382.26
974.183	3365.76
974.484	3350.62
974.785	3354.01
975.085	3303.39
975.386	3343.61
975.686	3309.72
975.986	3278.76
976.287	3263.61
976.587	3216.84
976.887	3215.93
977.187	3223.39
977.487	3228.59
977.787	3171.41
978.087	3169.38
978.387	3185.88
978.687	3160.34
978.987	3164.86
979.286	3118.31
979.586	3093.9
979.885	3062.04
980.185	3045.09
980.484	3082.83
980.784	3050.29
981.083	3055.94
981.382	3014.36
981.682	2988.37
981.981	2973.68
982.28	2955.37
982.579	2965.09
982.878	2979.33
983.177	2941.14
983.475	2993.34
983.774	2922.83
984.073	2884.42
984.372	2858.43
984.67	2869.27
984.969	2881.93
985.267	2833.57
985.566	2860.01
985.864	2819.56
986.162	2853.23
986.461	2813.68
986.759	2809.39
987.057	2782.05
987.355	2782.72
987.653	2722.61
987.951	2730.97
988.249	2721.71
988.547	2721.26
988.844	2720.58
989.142	2726
989.44	2674.93
989.737	2660.92
990.035	2659.56
990.332	2630.41
990.63	2626.57
990.927	2608.49
991.224	2613.01
991.521	2607.59
991.819	2562.62
992.116	2543.86
992.413	2525.56
992.71	2510.41
993.006	2530.3
993.303	2510.87
993.6	2497.31
993.897	2502.73
994.193	2493.92
994.49	2491.21
994.787	2429.29
995.083	2440.59
995.379	2444.2
995.676	2451.21
995.972	2424.09
996.268	2419.34
996.565	2407.14
996.861	2370.3
997.157	2349.74
997.453	2350.19
997.749	2384.77
998.044	2319.91
998.34	2335.05
998.636	2308.16
998.932	2302.51
999.227	2274.04
999.523	2246.69
999.818	2251.89
1000.114	2258.9
1000.409	2253.92
1000.704	2211.67
1001	2217.99
1001.295	2185.45
1001.59	2184.77
1001.885	2187.03
1002.18	2151.55
1002.475	2158.33
1002.77	2149.07
1003.065	2103.19
1003.359	2160.82
1003.654	2116.07
1003.949	2110.65
1004.243	2072.69
1004.538	2076.75
1004.832	2042.18
1005.127	2031.33
1005.421	2050.77
1005.715	2037.43
1006.009	2059.13
1006.304	2004.89
1006.598	1973.03
1006.892	1969.64
1007.186	1973.25
1007.48	1972.12
1007.773	1962.18
1008.067	1910.66
1008.361	1904.78
1008.655	1905.01
1008.948	1877.66
1009.242	1916.76
1009.535	1875.18
1009.829	1864.56
1010.122	1877.89
1010.415	1827.04
1010.708	1851.67
1011.001	1847.15
1011.295	1795.4
1011.588	1804.44
1011.881	1812.58
1012.173	1785.91
1012.466	1799.92
1012.759	1767.83
1013.052	1760.6
1013.344	1768.51
1013.637	1742.3
1013.93	1740.94
1014.222	1695.97
1014.514	1678.8
1014.807	1680.38
1015.099	1685.13
1015.391	1674.5
1015.683	1654.84
1015.976	1665.46
1016.268	1633.38
1016.56	1615.3
1016.851	1648.97
1017.143	1618.23
1017.435	1621.62
1017.727	1601.29
1018.018	1559.93
1018.31	1578.01
1018.602	1550.21
1018.893	1549.31
1019.185	1542.08
1019.476	1528.52
1019.767	1509.76
1020.058	1503.44
1020.35	1511.57
1020.641	1486.71
1020.932	1488.52
1021.223	1471.57
1021.514	1461.18
1021.804	1448.3
1022.095	1465.02
1022.386	1456.88
1022.677	1413.72
1022.967	1399.93
1023.258	1394.06
1023.548	1388.18
1023.839	1383.89
1024.129	1434.74
1024.419	1364.91
1024.709	1352.93
1025	1370.78
1025.29	1347.05
1025.58	1362.87
1025.87	1317
1026.16	1302.31
1026.449	1297.79
1026.739	1285.14
1027.029	1293.5
1027.319	1288.98
1027.608	1256.21
1027.898	1276.55
1028.187	1249.2
1028.477	1246.72
1028.766	1269.77
1029.055	1224.57
1029.344	1213.95
1029.634	1217.57
1029.923	1229.09
1030.212	1204.23
1030.501	1184.12
1030.79	1204.23
1031.078	1196.1
1031.367	1178.47
1031.656	1176.66
1031.945	1154.74
1032.233	1168.3
1032.522	1128.53
1032.81	1124.01
1033.099	1150.9
1033.387	1108.42
1033.675	1113.84
1033.963	1100.96
1034.251	1115.2
1034.54	1091.47
1034.828	1079.72
1035.116	1099.6
1035.403	1084.01
1035.691	1074.52
1035.979	1077.68
1036.267	1060.28
1036.554	1028.42
1036.842	1036.33
1037.129	1015.99
1037.417	1009.66
1037.704	1041.07
1037.992	1018.7
1038.279	988.65
1038.566	992.26
1038.853	992.26
1039.14	992.26
