Data from hue_340_FLMS001491_60.txt Node
Date: Mon Feb 06 15:43:19 GMT 2017
User: dcchb
Spectrometer: FLMS00149
Trigger mode: 0
Integration Time (sec): 2.000000E-2
Scans to average: 10
Electric dark correction enabled: true
Nonlinearity correction enabled: false
Boxcar width: 0
XAxis mode: Wavelengths
Number of Pixels in Spectrum: 2048
>>>>>Begin Spectral Data<<<<<
341.393	3.15
341.776	3.15
342.16	3.15
342.543	-80.01
342.927	-58.54
343.31	-58.32
343.693	-63.52
344.077	-42.5
344.46	-69.39
344.843	-47.24
345.226	-42.72
345.61	-18.54
345.993	-5.21
346.376	-8.38
346.759	8.8
347.142	6.99
347.525	30.04
347.908	53.32
348.291	62.81
348.674	84.28
349.057	109.59
349.44	116.82
349.823	131.96
350.206	161.11
350.588	184.84
350.971	199.08
351.354	214.22
351.737	228.23
352.119	253.54
352.502	264.39
352.884	263.03
353.267	269.58
353.65	291.96
354.032	283.37
354.414	293.99
354.797	309.36
355.179	320.43
355.562	322.92
355.944	305.74
356.326	305.06
356.709	341.22
357.091	316.14
357.473	336.25
357.855	330.82
358.238	348
358.62	344.16
359.002	347.55
359.384	329.02
359.766	352.07
360.148	338.28
360.53	335.34
360.912	354.55
361.294	334.21
361.676	313.2
362.057	331.95
362.439	309.36
362.821	338.28
363.203	319.53
363.584	311.62
363.966	313.42
364.348	323.82
364.729	321.56
365.111	319.53
365.493	328.79
365.874	307.55
366.256	316.59
366.637	287.89
367.019	305.97
367.4	304.84
367.781	314.33
368.163	315.91
368.544	292.41
368.925	303.48
369.306	311.84
369.688	321.56
370.069	307.1
370.45	312.97
370.831	308.45
371.212	296.93
371.593	303.25
371.974	309.36
372.355	308.9
372.736	291.05
373.117	303.03
373.498	301.9
373.879	311.62
374.26	289.47
374.641	328.56
375.021	306.42
375.402	301.45
375.783	310.26
376.163	305.51
376.544	311.62
376.925	297.83
377.305	322.92
377.686	303.03
378.066	308.23
378.447	323.37
378.827	289.24
379.208	322.92
379.588	337.6
379.968	324.05
380.349	307.1
380.729	326.76
381.109	341.45
381.489	319.3
381.87	303.25
382.25	327.21
382.63	323.37
383.01	312.52
383.39	334.89
383.77	341.22
384.15	349.36
384.53	316.59
384.91	339.86
385.29	327.21
385.67	338.06
386.049	342.35
386.429	332.86
386.809	340.09
387.189	348.9
387.568	342.58
387.948	325.85
388.328	338.28
388.707	337.83
389.087	357.72
389.466	343.93
389.846	348.68
390.225	351.39
390.605	336.25
390.984	344.61
391.363	351.62
391.743	343.25
392.122	371.95
392.501	376.47
392.881	352.07
393.26	357.72
393.639	376.7
394.018	340.77
394.397	343.03
394.776	349.81
395.155	360.2
395.534	376.93
395.913	380.99
396.292	368.34
396.671	377.38
397.05	392.29
397.429	358.39
397.808	357.04
398.186	368.56
398.565	404.27
398.944	384.83
399.323	379.86
399.701	376.47
400.08	375.12
400.458	395.46
400.837	393.87
401.215	368.34
401.594	368.34
401.972	390.48
402.351	387.55
402.729	381.44
403.107	386.42
403.486	370.37
403.864	385.29
404.242	412.86
404.62	385.29
404.999	407.43
405.377	379.41
405.755	431.84
406.133	406.98
406.511	414.44
406.889	407.66
407.267	422.12
407.645	406.53
408.023	420.31
408.401	441.1
408.779	432.97
409.156	456.02
409.534	449.01
409.912	437.26
410.29	435.23
410.667	431.61
411.045	450.82
411.422	448.11
411.8	468
412.178	439.75
412.555	465.06
412.933	485.17
413.31	468
413.687	474.32
414.065	488.79
414.442	480.65
414.819	511.16
415.197	501.22
415.574	502.57
415.951	495.34
416.328	511.84
416.705	499.63
417.082	494.89
417.46	502.35
417.837	512.06
418.214	531.95
418.591	506.41
418.967	533.76
419.344	536.24
419.721	536.47
420.098	543.25
420.475	555
420.852	544.15
421.228	574.66
421.605	550.48
421.982	568.11
422.358	530.82
422.735	594.55
423.111	569.01
423.488	590.25
423.864	569.46
424.241	594.55
424.617	609.24
424.994	605.17
425.37	619.86
425.746	611.27
426.123	589.35
426.499	608.56
426.875	635.68
427.251	629.8
427.627	644.49
428.003	612.85
428.379	647.88
428.756	649.46
429.132	648.33
429.507	669.35
429.883	675.45
430.259	680.87
430.635	669.57
431.011	688.78
431.387	693.53
431.763	703.24
432.138	704.6
432.514	717.71
432.89	720.19
433.265	723.81
433.641	727.88
434.016	752.06
434.392	733.75
434.767	771.27
435.143	735.11
435.518	753.86
435.894	749.34
436.269	776.46
436.644	796.12
437.02	782.11
437.395	798.61
437.77	808.55
438.145	797.71
438.52	837.25
438.895	831.15
439.271	814.88
439.646	849
440.021	842
440.395	829.57
440.77	858.27
441.145	846.97
441.52	853.75
441.895	840.19
442.27	856.01
442.645	862.11
443.019	875.22
443.394	869.57
443.769	884.93
444.143	913.41
444.518	899.85
444.892	879.51
445.267	907.53
445.641	895.56
446.016	905.72
446.39	926.06
446.764	899.4
447.139	905.95
447.513	921.32
447.887	907.76
448.262	916.8
448.636	941.43
449.01	945.5
449.384	929
449.758	958.6
450.132	954.76
450.506	965.61
450.88	962.22
451.254	972.16
451.628	954.76
452.002	959.51
452.376	989.34
452.75	1002.22
453.123	984.59
453.497	986.85
453.871	1003.35
454.244	1015.78
454.618	1013.07
454.992	1038.6
455.365	1035.89
455.739	1045.83
456.112	1037.25
456.486	1069.56
456.859	1086.51
457.232	1092.84
457.606	1114.31
457.979	1107.53
458.352	1093.74
458.725	1117.47
459.099	1150.01
459.472	1135.78
459.845	1139.62
460.218	1136.45
460.591	1142.33
460.964	1136.45
461.337	1190.92
461.71	1173.29
462.083	1198.15
462.456	1192.5
462.829	1168.54
463.201	1221.42
463.574	1236.56
463.947	1227.98
464.32	1287.41
464.692	1255.09
465.065	1276.56
465.438	1300.06
465.81	1308.65
466.183	1317.01
466.555	1331.7
466.928	1341.19
467.3	1352.94
467.672	1365.6
468.045	1400.4
468.417	1399.5
468.789	1408.31
469.161	1428.87
469.534	1456.22
469.906	1452.15
470.278	1472.94
470.65	1505.93
471.022	1505.03
471.394	1527.18
471.766	1528.08
472.138	1573.73
472.51	1567.18
472.882	1578.93
473.253	1604.01
473.625	1613.28
473.997	1648.76
474.369	1652.37
474.74	1674.74
475.112	1723.1
475.484	1706.61
475.855	1757.91
476.227	1773.72
476.598	1799.49
476.97	1824.57
477.341	1837
477.713	1858.47
478.084	1902.99
478.455	1942.08
478.827	1932.36
479.198	1988.86
479.569	1977.56
479.94	2045.36
480.311	2025.47
480.682	2111.57
481.053	2182.53
481.424	2162.41
481.795	2168.74
482.166	2234.96
482.537	2253.71
482.908	2274.05
483.279	2272.92
483.65	2340.49
484.021	2380.26
484.391	2395.63
484.762	2410.32
485.133	2488.96
485.503	2484.67
485.874	2554.49
486.244	2563.99
486.615	2585.23
486.985	2612.35
487.356	2695.28
487.726	2673.81
488.097	2707.49
488.467	2743.19
488.837	2801.72
489.207	2838.33
489.578	2848.95
489.948	2887.59
490.318	2901.38
490.688	2919.91
491.058	2951.09
491.428	3013.01
491.798	3043.3
492.168	3081.26
492.538	3057.08
492.908	3096.85
493.278	3155.61
493.648	3159.9
494.017	3225.44
494.387	3218.21
494.757	3304.31
495.126	3285.1
495.496	3281.26
495.866	3348.37
496.235	3346.79
496.605	3392.67
496.974	3415.26
497.344	3446.67
497.713	3412.1
498.082	3469.95
498.452	3502.27
498.821	3509.72
499.19	3561.47
499.559	3574.81
499.928	3580.23
500.298	3612.77
500.667	3628.82
501.036	3618.42
501.405	3642.38
501.774	3675.82
502.143	3688.02
502.512	3697.52
502.88	3732.32
503.249	3756.95
503.618	3754.01
503.987	3765.76
504.356	3770.73
504.724	3815.93
505.093	3826.55
505.462	3796.27
505.83	3854.57
506.199	3880.34
506.567	3910.62
506.936	3885.31
507.304	3980.45
507.672	3955.14
508.041	3974.8
508.409	3969.6
508.777	3968.24
509.145	4092.99
509.514	4027.45
509.882	4049.37
510.25	4076.49
510.618	4091.4
510.986	4113.55
511.354	4097.96
511.722	4187.67
512.09	4147.9
512.458	4156.26
512.826	4204.4
513.193	4214.11
513.561	4212.3
513.929	4209.14
514.297	4278.07
514.664	4263.6
515.032	4320.1
515.4	4289.59
515.767	4305.41
516.135	4275.35
516.502	4293.88
516.869	4333.21
517.237	4324.84
517.604	4354.9
517.972	4390.83
518.339	4394.9
518.706	4413.43
519.073	4412.3
519.44	4406.2
519.808	4465.63
520.175	4468.79
520.542	4538.4
520.909	4509.92
521.276	4511.51
521.643	4532.97
522.009	4539.98
522.376	4602.8
522.743	4592.41
523.11	4654.78
523.477	4698.17
523.843	4648
524.21	4708.34
524.577	4751.95
524.943	4719.41
525.31	4760.54
525.676	4845.28
526.043	4821.55
526.409	4839.41
526.776	4896.13
527.142	4896.58
527.508	4919.4
527.874	4879.41
528.241	4984.94
528.607	4990.59
528.973	5019.74
529.339	5004.15
529.705	5048.21
530.071	5125.73
530.437	5113.3
530.803	5104.94
531.169	5135.44
531.535	5169.79
531.901	5155.78
532.267	5212.96
532.632	5216.35
532.998	5275.1
533.364	5273.07
533.73	5335.44
534.095	5328.89
534.461	5347.64
534.826	5367.53
535.192	5373.18
535.557	5368.66
535.923	5430.13
536.288	5466.96
536.653	5496.34
537.019	5472.38
537.384	5456.57
537.749	5550.12
538.114	5560.97
538.479	5604.36
538.845	5588.09
539.21	5593.06
539.575	5641.65
539.94	5635.54
540.305	5651.81
540.67	5684.58
541.034	5677.35
541.399	5733.85
541.764	5770.23
542.129	5796.67
542.494	5831.02
542.858	5790.79
543.223	5860.4
543.587	5873.28
543.952	5887.29
544.316	5906.27
544.681	5915.76
545.045	5966.38
545.41	6001.41
545.774	6011.35
546.138	5979.26
546.503	6058.36
546.867	6040.28
547.231	6072.82
547.595	6126.83
547.959	6107.17
548.324	6126.6
548.688	6197.56
549.052	6191.46
549.416	6219.94
549.779	6228.97
550.143	6242.31
550.507	6243.66
550.871	6322.08
551.235	6366.6
551.599	6322.98
551.962	6416.54
552.326	6328.86
552.689	6359.37
553.053	6405.47
553.417	6417.44
553.78	6491.11
554.143	6485.69
554.507	6513.49
554.87	6504.45
555.234	6618.79
555.597	6551.23
555.96	6628.29
556.323	6589.87
556.686	6577.44
557.05	6659.7
557.413	6686.82
557.776	6648.4
558.139	6706.7
558.502	6720.71
558.865	6734.5
559.228	6795.51
559.59	6760.03
559.953	6796.42
560.316	6847.26
560.679	6900.6
561.041	6875.29
561.404	6913.93
561.767	6978.79
562.129	6905.57
562.492	6965.23
562.854	7014.94
563.217	7001.84
563.579	7051.1
563.941	7089.74
564.304	7110.99
564.666	7132.68
565.028	7160.02
565.39	7142.85
565.753	7168.38
566.115	7191.89
566.477	7247.03
566.839	7224.2
567.201	7263.98
567.563	7323.86
567.925	7420.58
568.287	7383.75
568.648	7379.45
569.01	7420.81
569.372	7480.47
569.734	7394.37
570.095	7522.27
570.457	7554.59
570.819	7637.07
571.18	7621.25
571.542	7581.93
571.903	7709.61
572.265	7686.11
572.626	7786.9
572.987	7827.12
573.349	7863.28
573.71	7938.08
574.071	7932.88
574.432	7964.52
574.794	8102.37
575.155	8075.25
575.516	8128.36
575.877	8194.57
576.238	8211.97
576.599	8364.29
576.96	8330.16
577.32	8398.64
577.681	8520.67
578.042	8576.94
578.403	8612.41
578.763	8775.12
579.124	8828.45
579.485	8931.73
579.845	8987.32
580.206	9042.91
580.566	9186.19
580.927	9297.14
581.287	9367.2
581.648	9473.18
582.008	9677.25
582.368	9693.52
582.728	9886.73
583.089	10018.48
583.449	10194.52
583.809	10301.41
584.169	10482.42
584.529	10585.24
584.889	10924.67
585.249	10954.5
585.609	11164.21
585.969	11356.75
586.329	11526.24
586.688	11714.25
587.048	11897.53
587.408	12116.73
587.768	12276.73
588.127	12567.79
588.487	12767.33
588.846	13024.28
589.206	13171.16
589.565	13388.79
589.925	13718.27
590.284	13920.3
590.643	14222.66
591.003	14496.55
591.362	14731.35
591.721	14935.19
592.08	15173.37
592.44	15457.21
592.799	15759.35
593.158	16011.77
593.517	16293.57
593.876	16614.92
594.235	16793.44
594.593	17067.79
594.952	17393.88
595.311	17577.83
595.67	17961.1
596.029	18247.42
596.387	18525.15
596.746	18762.66
597.104	19144.57
597.463	19445.12
597.822	19685.8
598.18	19895.96
598.538	20070.64
598.897	20502.72
599.255	20634.02
599.613	21133.44
599.972	21335.47
600.33	21598.29
600.688	21736.36
601.046	22143.81
601.404	22487.08
601.762	22605.27
602.12	23095.42
602.478	23246.15
602.836	23565.47
603.194	23698.8
603.552	23867.38
603.91	24217.2
604.268	24473.69
604.625	24766.34
604.983	25029.16
605.341	25069.16
605.698	25528.35
606.056	25729.48
606.413	25936.25
606.771	26251.5
607.128	26509.35
607.485	26608.1
607.843	26880.18
608.2	27161.31
608.557	27380.28
608.914	27479.04
609.272	27932.81
609.629	28068.85
609.986	28396.98
610.343	28443.08
610.7	28735.05
611.057	28852.79
611.414	29041.48
611.771	29210.74
612.127	29540.45
612.484	29645.08
612.841	29872.65
613.198	29958.52
613.554	30073.55
613.911	30362.13
614.267	30538.84
614.624	30720.31
614.98	30900.42
615.337	31100.19
615.693	31179.96
616.05	31348.31
616.406	31497.46
616.762	31547.4
617.118	31664.92
617.475	31992.37
617.831	32070.33
618.187	32341.06
618.543	32288.63
618.899	32688.84
619.255	32748.28
619.611	32801.38
619.967	32940.59
620.323	33248.38
620.678	33058.55
621.034	33127.48
621.39	33127.48
621.746	33306.91
622.101	33751.19
622.457	33631.42
622.812	33704.64
623.168	33873.22
623.523	34006.1
623.879	34108.24
624.234	34038.19
624.589	34120.9
624.945	34350.27
625.3	34343.72
625.655	34387.56
626.01	34579.64
626.365	34630.94
626.72	34644.95
627.075	34679.98
627.43	34780.99
627.785	34689.02
628.14	34956.35
628.495	34912.29
628.85	34994.77
629.205	34973.98
629.559	35211.26
629.914	35136.46
630.269	35124.71
630.623	35138.72
630.978	35032.51
631.332	35324.93
631.687	35334.88
632.041	35136.46
632.396	35500.3
632.75	35285.39
633.104	35363.8
633.459	35352.95
633.813	35225.27
634.167	35318.38
634.521	35311.6
634.875	35478.6
635.229	35354.31
635.583	35247.42
635.937	35321.99
636.291	35264.14
636.645	35444.93
636.999	35357.02
637.352	35326.97
637.706	35303.92
638.06	35421.88
638.413	35257.36
638.767	35215.11
639.121	35511.14
639.474	35240.42
639.828	35321.32
640.181	35390.92
640.534	35235.22
640.888	35288.78
641.241	35112.96
641.594	35217.82
641.947	35368.1
642.301	35309.34
642.654	35293.07
643.007	35236.57
643.36	35312.73
643.713	35206.74
644.066	35409.68
644.419	35088.1
644.771	34965.85
645.124	34534.45
645.477	34642.01
645.83	34364.73
646.182	34232.08
646.535	34173.1
646.888	34258.97
647.24	34067.79
647.593	34308.46
647.945	34184.17
648.298	34115.25
648.65	34104.17
649.002	33944.63
649.355	34166.77
649.707	34036.61
650.059	34315.02
650.411	34578.51
650.763	34624.84
651.115	34957.71
651.467	34891.5
651.819	34943.02
652.171	34786.19
652.523	34726.53
652.875	34771.5
653.227	34670.49
653.578	34961.55
653.93	34900.99
654.282	34669.81
654.633	34550.26
654.985	34842.01
655.337	34769.69
655.688	34701.9
656.039	34893.76
656.391	34359.99
656.742	34580.09
657.094	34596.82
657.445	34696.47
657.796	34657.15
658.147	34483.82
658.498	34441.11
658.849	34545.74
659.2	34559.53
659.551	34497.84
659.902	34547.78
660.253	34508.68
660.604	34624.16
660.955	34453.54
661.306	34565.63
661.656	34458.29
662.007	34538.29
662.358	34492.86
662.708	34443.37
663.059	34607.66
663.409	34263.49
663.76	34596.59
664.11	34478.18
664.461	34545.07
664.811	34537.61
665.161	34555.91
665.511	34403.15
665.862	34399.31
666.212	34731.95
666.562	34455.13
666.912	34406.31
667.262	34426.2
667.612	34428.91
667.962	34549.13
668.312	34412.64
668.662	34466.88
669.011	34407.89
669.361	34399.31
669.711	34306.43
670.06	34304.85
670.41	34251.97
670.76	34400.89
671.109	34336.71
671.459	34333.32
671.808	34295.58
672.157	34416.03
672.507	34121.57
672.856	34155.25
673.205	34134
673.554	34379.87
673.904	34205.64
674.253	34408.8
674.602	34137.39
674.951	33653.34
675.3	33607.01
675.649	34035.93
675.998	34084.74
676.346	34093.78
676.695	34140.56
677.044	33922.26
677.393	33989.83
677.741	34110.95
678.09	34025.08
678.438	34033.67
678.787	33999.54
679.135	34016.04
679.484	33681.59
679.832	33891.07
680.181	33755.48
680.529	33942.14
680.877	33685.2
681.225	33642.94
681.573	33947.12
681.922	33519.78
682.27	33628.48
682.618	33541.93
682.966	33560.46
683.314	33509.61
683.661	33400.69
684.009	33319.56
684.357	33232.11
684.705	33191.88
685.053	33203.86
685.4	33095.16
685.748	33010.64
686.095	33086.8
686.443	32823.53
686.79	32856.3
687.138	33008.16
687.485	32949.85
687.832	32708.28
688.18	32713.7
688.527	32652.69
688.874	32616.76
689.221	32560.71
689.568	32521.39
689.915	32341.51
690.262	32360.72
690.609	32253.38
690.956	32289.08
691.303	32052.93
691.65	32028.75
691.997	32058.13
692.344	31827.62
692.69	31851.58
693.037	31904.01
693.383	31546.5
693.73	31705.59
694.077	31523.9
694.423	31542.21
694.769	31344.47
695.116	31306.28
695.462	31393.06
695.808	31171.6
696.155	31161.2
696.501	31014.31
696.847	30897.7
697.193	30724.15
697.539	30901.09
697.885	30702.91
698.231	30632.63
698.577	30663.36
698.923	30514.21
699.269	30375.01
699.614	30298.17
699.96	30289.36
700.306	30323.03
700.651	30113.32
700.997	30137.27
701.342	29998.97
701.688	29979.08
702.033	29859.99
702.379	29708.36
702.724	29704.97
703.069	29687.11
703.415	29442.38
703.76	29422.26
704.105	29453
704.45	29261.36
704.795	29080.58
705.14	29014.82
705.485	29172.33
705.83	28928.04
706.175	28910.19
706.52	29065.89
706.865	28830.19
707.209	28773.69
707.554	28684.88
707.899	28811.66
708.243	28533.25
708.588	28534.38
708.932	28382.29
709.277	28340.26
709.621	28305.23
709.966	28260.71
710.31	28199.47
710.654	28049.87
710.998	28200.37
711.342	28079.25
711.687	27971
712.031	27976.65
712.375	27848.07
712.719	27821.63
713.063	27787.96
713.407	27914.73
713.75	27705.47
714.094	27528.3
714.438	27531.01
714.782	27662.76
715.125	27525.82
715.469	27411.02
715.812	27297.57
716.156	27238.37
716.499	27150.23
716.843	27226.16
717.186	27034.53
717.53	27176.45
717.873	27098.03
718.216	27029.56
718.559	26975.1
718.902	26766.06
719.246	26828.21
719.589	26827.98
719.932	26644.71
720.275	26609.46
720.617	26618.5
720.96	26543.02
721.303	26587.08
721.646	26547.08
721.989	26444.26
722.331	26577.37
722.674	26461.66
723.016	26480.19
723.359	26197.49
723.701	26380.99
724.044	26241.33
724.386	25989.58
724.729	26170.37
725.071	26016.25
725.413	25990.26
725.755	26030.71
726.097	25874.56
726.439	25818.52
726.782	25875.46
727.124	25950.94
727.465	25803.15
727.807	25700.33
728.149	25717.73
728.491	25699.88
728.833	25664.4
729.175	25486.55
729.516	25494.91
729.858	25442.03
730.199	25424.18
730.541	25470.05
730.882	25359.32
731.224	25397.74
731.565	25354.8
731.906	25324.74
732.248	25295.82
732.589	25168.82
732.93	25087.69
733.271	25111.42
733.612	25044.3
733.953	25205.88
734.294	24942.15
734.635	24979.89
734.976	24964.08
735.317	24865.32
735.658	24892.66
735.999	24810.63
736.339	24895.6
736.68	24942.15
737.021	24748.26
737.361	24716.85
737.702	24851.99
738.042	24729.05
738.383	24688.38
738.723	24668.72
739.063	24613.35
739.404	24626.68
739.744	24547.14
740.084	24415.62
740.424	24477.99
740.764	24331.32
741.104	24536.29
741.444	24291.32
741.784	24315.73
742.124	24366.35
742.464	24210.65
742.804	24171.78
743.143	24196.64
743.483	24130.88
743.823	24120.26
744.162	24043.65
744.502	24004.1
744.841	23877.78
745.181	24056.75
745.52	23954.16
745.86	23933.59
746.199	23857.89
746.538	23886.14
746.877	23940.6
747.216	23911.9
747.556	23778.8
747.895	23803.88
748.234	23659.48
748.573	23660.61
748.911	23593.26
749.25	23645.01
749.589	23499.71
749.928	23506.26
750.267	23509.88
750.605	23414.51
750.944	23386.49
751.283	23348.3
751.621	23396.88
751.96	23264.01
752.298	23208.42
752.636	23186.49
752.975	23061.98
753.313	22983.34
753.651	23216.32
753.989	23000.51
754.327	22911.93
754.666	22836.9
755.004	22807.52
755.342	22922.77
755.679	22823.34
756.017	22720.29
756.355	22692.95
756.693	22604.36
757.031	22616.57
757.368	22532.27
757.706	22512.16
758.044	22320.75
758.381	22409.11
758.719	22338.83
759.056	22334.09
759.394	22269.46
759.731	22117.37
760.068	22052.74
760.405	21993.31
760.743	21974.78
761.08	22093.64
761.417	21909.24
761.754	21819.3
762.091	21842.58
762.428	21597.38
762.765	21613.2
763.102	21713.09
763.438	21528.23
763.775	21424.51
764.112	21382.02
764.449	21407.33
764.785	21288.01
765.122	21167.56
765.458	21127.57
765.795	20962.15
766.131	21074.69
766.467	21000.11
766.804	20939.77
767.14	20798.31
767.476	20815.26
767.812	20691.65
768.148	20700.46
768.485	20561.25
768.821	20451.2
769.157	20387.02
769.492	20384.08
769.828	20353.12
770.164	20079.23
770.5	20155.39
770.836	20110.42
771.171	19986.8
771.507	20043.75
771.842	19779.35
772.178	19977.99
772.513	19675.85
772.849	19688.73
773.184	19618.23
773.519	19566.93
773.855	19504.33
774.19	19359.48
774.525	19274.96
774.86	19383.21
775.195	19312.7
775.53	19151.57
775.865	19086.72
776.2	18943.89
776.535	18895.76
776.87	18820.06
777.205	18772.15
777.539	18760.85
777.874	18617.12
778.209	18545.26
778.543	18536
778.878	18384.81
779.212	18380.07
779.547	18367.86
779.881	18338.26
780.215	18161.32
780.55	18176.91
780.884	18140.3
781.218	18125.38
781.552	18006.74
781.886	17952.28
782.22	17784.15
782.554	17660.99
782.888	17558.62
783.222	17545.97
783.556	17469.58
783.889	17540.54
784.223	17395.46
784.557	17299.64
784.89	17349.59
785.224	17273.88
785.557	17150.04
785.891	17061.23
786.224	17037.96
786.558	17042.25
786.891	16842.71
787.224	16775.82
787.557	16819.66
787.891	16688.81
788.224	16759.55
788.557	16703.73
788.89	16651.3
789.223	16618.08
789.556	16469.38
789.888	16397.52
790.221	16350.97
790.554	16258.77
790.887	16186.23
791.219	16144.87
791.552	16169.28
791.884	16072.56
792.217	16014.03
792.549	15984.42
792.882	15864.65
793.214	15786.46
793.546	15841.6
793.879	15732.45
794.211	15577.43
794.543	15654.94
794.875	15591.89
795.207	15645.22
795.539	15505.34
795.871	15502.4
796.203	15328.62
796.535	15300.15
796.867	15122.75
797.198	15217.66
797.53	15266.7
797.862	15057.9
798.193	15151.23
798.525	14988.29
798.856	15102.19
799.188	14870.56
799.519	14854.74
799.85	14821.52
800.182	14812.48
800.513	14803.66
800.844	14608.64
801.175	14735.42
801.506	14738.13
801.837	14572.48
802.168	14523.67
802.499	14479.83
802.83	14423.34
803.161	14336.11
803.491	14307.41
803.822	14371.81
804.153	14293.17
804.483	14127.52
804.814	14099.73
805.145	14083.68
805.475	14073.97
805.805	14054.53
806.136	14002.1
806.466	14029.22
806.796	13934.99
807.126	13810.47
807.457	13813.86
807.787	13892.28
808.117	13747.2
808.447	13695.44
808.777	13679.4
809.107	13709.23
809.436	13657.93
809.766	13661.55
810.096	13569.57
810.426	13589.01
810.755	13495.22
811.085	13510.82
811.414	13465.17
811.744	13421.78
812.073	13363.48
812.403	13328.9
812.732	13189.24
813.061	13315.57
813.39	13236.25
813.719	13127.1
814.049	13202.8
814.378	13096.82
814.707	12981.34
815.036	13079.42
815.365	13028.12
815.693	12882.13
816.022	12920.55
816.351	12902.02
816.68	12764.17
817.008	12841.23
817.337	12707.22
817.665	12677.17
817.994	12775.47
818.322	12692.31
818.651	12524.18
818.979	12601.69
819.307	12619.54
819.636	12635.13
819.964	12528.02
820.292	12552.2
820.62	12479.43
820.948	12462.48
821.276	12551.07
821.604	12476.95
821.932	12473.78
822.259	12491.63
822.587	12469.94
822.915	12453.9
823.243	12526.66
823.57	12427
823.898	12469.49
824.225	12387.46
824.553	12371.86
824.88	12436.27
825.207	12447.57
825.535	12448.25
825.862	12452.54
826.189	12356.27
826.516	12401.24
826.843	12489.6
827.17	12482.6
827.497	12449.6
827.824	12401.02
828.151	12470.84
828.478	12408.7
828.805	12415.48
829.131	12351.07
829.458	12337.74
829.785	12300.68
830.111	12390.85
830.438	12408.7
830.764	12332.09
831.09	12344.07
831.417	12307.68
831.743	12351.53
832.069	12421.35
832.395	12346.1
832.722	12347.91
833.048	12304.52
833.374	12267.01
833.7	12187.91
834.026	12232.66
834.351	12259.55
834.677	12248.03
835.003	12229.04
835.329	12196.95
835.654	12242.38
835.98	12159.44
836.306	12238.53
836.631	12074.47
836.956	12234.92
837.282	12104.3
837.607	12035.6
837.932	12141.14
838.258	12028.14
838.583	12120.8
838.908	11999.9
839.233	11854.82
839.558	11969.61
839.883	11983.17
840.208	11962.16
840.533	11864.31
840.858	11908.15
841.182	11925.32
841.507	11918.32
841.832	11805.1
842.156	11807.36
842.481	11779.56
842.805	11676.97
843.13	11663.18
843.454	11728.27
843.778	11679.23
844.103	11594.48
844.427	11596.74
844.751	11495.95
845.075	11587.48
845.399	11572.56
845.723	11423.87
846.047	11528.27
846.371	11375.05
846.695	11386.81
847.019	11240.59
847.343	11155.4
847.666	11190.88
847.99	11100.48
848.313	11110.65
848.637	11081.28
848.96	11067.04
849.284	11055.29
849.607	10967.16
849.931	10947.04
850.254	10858.23
850.577	10693.49
850.9	10739.82
851.223	10682.42
851.546	10662.08
851.869	10635.19
852.192	10627.96
852.515	10541.63
852.838	10460.28
853.161	10497.56
853.483	10368.75
853.806	10390.9
854.129	10399.26
854.451	10310.9
854.774	10227.51
855.096	10244.91
855.419	10223.67
855.741	10141.19
856.063	10135.09
856.385	10169.66
856.708	10067.52
857.03	10087.86
857.352	10060.51
857.674	10071.59
857.996	9968.54
858.318	9994.07
858.64	9927.86
858.961	9910.69
859.283	9839.73
859.605	9762.44
859.926	9798.37
860.248	9837.02
860.57	9779.16
860.891	9794.53
861.212	9688.77
861.534	9771.71
861.855	9627.3
862.176	9633.18
862.498	9599.96
862.819	9602.22
863.14	9560.64
863.461	9627.76
863.782	9525.84
864.103	9605.16
864.424	9525.16
864.745	9530.36
865.065	9465.73
865.386	9431.38
865.707	9383.02
866.027	9400.19
866.348	9390.02
866.668	9406.52
866.989	9319.97
867.309	9265.5
867.63	9326.52
867.95	9346.18
868.27	9344.15
868.59	9376.46
868.91	9311.61
869.23	9309.8
869.55	9254.21
869.87	9297.82
870.19	9196.13
870.51	9245.84
870.83	9223.92
871.15	9192.51
871.469	9186.86
871.789	9169.24
872.109	9148.22
872.428	9113.42
872.748	9059.86
873.067	9147.09
873.386	9102.57
873.706	9042.69
874.025	9023.03
874.344	8962.46
874.663	8987.55
874.982	8985.29
875.301	8963.14
875.62	8975.57
875.939	8948.45
876.258	9020.54
876.577	8883.82
876.896	8860.77
877.214	8883.82
877.533	8899.64
877.852	8851.28
878.17	8837.04
878.489	8849.92
878.807	8875.46
879.125	8790.04
879.444	8830.49
879.762	8798.62
880.08	8778.96
880.398	8733.54
880.716	8739.42
881.034	8671.4
881.352	8676.14
881.67	8705.97
881.988	8680.89
882.306	8646.09
882.624	8618.97
882.941	8613.09
883.259	8536.48
883.577	8602.02
883.894	8564.96
884.212	8463.49
884.529	8484.06
884.846	8519.31
885.164	8419.2
885.481	8463.72
885.798	8449.93
886.115	8346.66
886.432	8397.73
886.75	8338.52
887.067	8357.73
887.383	8277.28
887.7	8316.38
888.017	8241.35
888.334	8398.64
888.651	8233.22
888.967	8222.82
889.284	8159.77
889.6	8196.83
889.917	8116.61
890.233	8129.94
890.55	8027.35
890.866	8114.57
891.182	8076.61
891.498	8052.43
891.815	7984.63
892.131	7980.12
892.447	7978.31
892.763	7908.93
893.079	7890.4
893.395	7927.24
893.71	7847.01
894.026	7840.23
894.342	7834.81
894.657	7741.03
894.973	7774.24
895.289	7737.18
895.604	7766.34
895.92	7662.84
896.235	7663.97
896.55	7662.61
896.865	7635.72
897.181	7609.5
897.496	7528.15
897.811	7523.86
898.126	7479.34
898.441	7487.7
898.756	7508.94
899.071	7453.8
899.386	7434.59
899.7	7334.93
900.015	7333.13
900.33	7254.26
900.644	7263.3
900.959	7251.09
901.273	7200.25
901.588	7233.69
901.902	7219.46
902.216	7208.16
902.531	7137.2
902.845	7105.79
903.159	7096.97
903.473	7049.74
903.787	6958.22
904.101	6995.06
904.415	7036.64
904.729	7003.64
905.042	6921.16
905.356	6896.08
905.67	6865.57
905.984	6927.26
906.297	6872.12
906.611	6816.76
906.924	6743.99
907.237	6787.83
907.551	6752.8
907.864	6717.1
908.177	6680.49
908.491	6656.53
908.804	6636.42
909.117	6666.48
909.43	6565.69
909.743	6567.95
910.056	6539.25
910.368	6524.56
910.681	6468.97
910.994	6473.49
911.307	6413.15
911.619	6406.15
911.932	6400.72
912.244	6334.06
912.557	6355.07
912.869	6329.31
913.181	6310.1
913.494	6276.21
913.806	6169.32
914.118	6154.4
914.43	6161.18
914.742	6175.64
915.054	6099.26
915.366	6134.29
915.678	6099.26
915.99	6038.92
916.302	6036.66
916.613	6018.36
916.925	6029.66
917.236	5968.42
917.548	5942.2
917.859	5939.72
918.171	5855.2
918.482	5872.15
918.794	5769.1
919.105	5839.61
919.416	5803.9
919.727	5741.08
920.038	5723.45
920.349	5655.43
920.66	5716.67
920.971	5680.74
921.282	5617.47
921.593	5599.16
921.903	5617.69
922.214	5598.93
922.525	5593.29
922.835	5528.88
923.146	5511.48
923.456	5508.77
923.767	5456.57
924.077	5473.51
924.387	5485.94
924.697	5392.61
925.008	5372.05
925.318	5352.39
925.628	5343.12
925.938	5297.47
926.248	5272.84
926.558	5272.84
926.867	5269.68
927.177	5258.15
927.487	5226.29
927.796	5141.55
928.106	5148.1
928.416	5121.43
928.725	5100.42
929.034	5057.25
929.344	5039.18
929.653	5035.33
929.962	5043.47
930.271	4975.45
930.581	4965.51
930.89	4997.59
931.199	4940.42
931.508	4929.57
931.817	4878.95
932.125	4923.7
932.434	4846.41
932.743	4831.72
933.051	4788.79
933.36	4775
933.669	4783.59
933.977	4760.09
934.286	4720.54
934.594	4752.4
934.902	4690.48
935.21	4676.25
935.519	4673.08
935.827	4669.02
936.135	4617.04
936.443	4600.32
936.751	4556.7
937.059	4580.88
937.367	4549.02
937.674	4560.32
937.982	4507.89
938.29	4491.62
938.597	4440.55
938.905	4431.73
939.213	4403.26
939.52	4354.67
939.827	4398.97
940.135	4369.81
940.442	4350.61
940.749	4344.28
941.056	4331.62
941.363	4272.64
941.67	4270.38
941.977	4234.22
942.284	4226.32
942.591	4239.42
942.898	4205.75
943.205	4231.96
943.511	4157.62
943.818	4191.29
944.125	4119.65
944.431	4107.67
944.738	4069.03
945.044	4068.35
945.35	4090.5
945.657	4068.13
945.963	4040.56
946.269	4001.01
946.575	3967.34
946.881	3987
947.187	3967.11
947.493	3943.16
947.799	3930.73
948.105	3905.42
948.41	3905.87
948.716	3853.44
949.022	3885.53
949.327	3851.18
949.633	3801.24
949.938	3796.95
950.244	3814.8
950.549	3764.63
950.854	3751.75
951.16	3759.44
951.465	3753.11
951.77	3714.69
952.075	3708.59
952.38	3685.54
952.685	3730.51
952.99	3648.93
953.294	3668.82
953.599	3612.09
953.904	3629.49
954.209	3608.48
954.513	3608.93
954.818	3550.18
955.122	3545.66
955.426	3548.14
955.731	3525.54
956.035	3481.25
956.339	3469.27
956.643	3484.87
956.948	3444.87
957.252	3442.38
957.556	3464.08
957.86	3382.04
958.163	3413.68
958.467	3428.37
958.771	3341.37
959.075	3354.93
959.378	3380.01
959.682	3321.71
959.985	3295.04
960.289	3276.96
960.592	3284.19
960.896	3250.52
961.199	3204.2
961.502	3243.74
961.805	3245.32
962.108	3203.52
962.411	3168.72
962.714	3182.28
963.017	3153.35
963.32	3178.43
963.623	3107.7
963.926	3137.98
964.228	3140.02
964.531	3109.73
964.833	3076.06
965.136	3072.67
965.438	3028.38
965.741	3041.04
966.043	3000.36
966.345	3040.36
966.648	3012.79
966.95	3020.25
967.252	3028.38
967.554	2987.93
967.856	2986.8
968.158	2949.96
968.46	2927.37
968.761	2932.34
969.063	2894.15
969.365	2888.5
969.666	2878.33
969.968	2892.11
970.269	2823.64
970.571	2838.56
970.872	2865.67
971.174	2819.8
971.475	2819.57
971.776	2817.76
972.077	2768.95
972.378	2777.31
972.679	2776.18
972.98	2783.64
973.281	2743.87
973.582	2718.78
973.883	2730.31
974.183	2709.29
974.484	2695.73
974.785	2672.91
975.085	2660.03
975.386	2674.72
975.686	2629.52
975.986	2649.63
976.287	2617.77
976.587	2613.25
976.887	2581.61
977.187	2577.77
977.487	2606.47
977.787	2559.92
978.087	2549.3
978.387	2523.99
978.687	2526.02
978.987	2554.49
979.286	2523.08
979.586	2516.08
979.885	2506.36
980.185	2450.32
980.484	2487.83
980.784	2450.54
981.083	2467.04
981.382	2446.7
981.682	2430.88
981.981	2432.92
982.28	2395.63
982.579	2427.72
982.878	2430.43
983.177	2370.77
983.475	2361.51
983.774	2313.15
984.073	2384.33
984.372	2341.85
984.67	2329.19
984.969	2333.94
985.267	2324.67
985.566	2302.75
985.864	2289.42
986.162	2274.5
986.461	2222.75
986.759	2260.04
987.057	2225.46
987.355	2208.29
987.653	2225.69
987.951	2241.51
988.249	2210.55
988.547	2207.39
988.844	2211.23
989.142	2208.52
989.44	2140.04
989.737	2138.01
990.035	2146.82
990.332	2133.72
990.63	2127.16
990.927	2115.18
991.224	2100.72
991.521	2085.35
991.819	2080.61
992.116	2101.17
992.413	2048.75
992.71	2069.31
993.006	2031.34
993.303	2027.28
993.6	2031.12
993.897	2011.91
994.193	2029.09
994.49	2029.31
994.787	2008.29
995.083	1989.54
995.379	1993.38
995.676	1994.51
995.972	1959.48
996.268	1972.14
996.565	1930.78
996.861	1937.79
997.157	1932.36
997.453	1940.5
997.749	1932.36
998.044	1895.08
998.34	1908.18
998.636	1876.77
998.932	1887.17
999.227	1854.17
999.523	1864.34
999.818	1836.77
1000.114	1863.44
1000.409	1832.03
1000.704	1814.85
1001	1801.29
1001.295	1769.2
1001.59	1783.89
1001.885	1818.24
1002.18	1781.18
1002.475	1732.82
1002.77	1744.8
1003.065	1737.57
1003.359	1775.08
1003.654	1726.27
1003.949	1698.47
1004.243	1728.98
1004.538	1707.51
1004.832	1692.14
1005.127	1707.29
1005.421	1638.36
1005.715	1674.07
1006.009	1660.06
1006.304	1644.69
1006.598	1642.88
1006.892	1623.45
1007.186	1618.93
1007.48	1609.89
1007.773	1599.27
1008.067	1597.68
1008.361	1559.27
1008.655	1576.89
1008.948	1573.96
1009.242	1547.97
1009.535	1549.78
1009.829	1540.74
1010.122	1536.44
1010.415	1529.44
1010.708	1498.93
1011.001	1502.32
1011.295	1496.67
1011.588	1476.78
1011.881	1466.39
1012.173	1450.12
1012.466	1500.96
1012.759	1488.08
1013.052	1448.31
1013.344	1444.24
1013.637	1463.68
1013.93	1409.89
1014.222	1390.23
1014.514	1424.36
1014.807	1389.1
1015.099	1398.82
1015.391	1416.9
1015.683	1383.23
1015.976	1355.66
1016.268	1372.61
1016.56	1392.94
1016.851	1385.49
1017.143	1351.81
1017.435	1294.42
1017.727	1335.54
1018.018	1343
1018.31	1316.11
1018.602	1297.8
1018.893	1296.22
1019.185	1258.48
1019.476	1262.1
1019.767	1271.82
1020.058	1257.13
1020.35	1270.69
1020.641	1265.04
1020.932	1234.08
1021.223	1240.86
1021.514	1211.03
1021.804	1191.82
1022.095	1173.97
1022.386	1190.46
1022.677	1192.5
1022.967	1173.29
1023.258	1160.41
1023.548	1159.96
1023.839	1173.51
1024.129	1175.1
1024.419	1136.23
1024.709	1153.63
1025	1128.54
1025.29	1135.78
1025.58	1114.08
1025.87	1124.7
1026.16	1125.15
1026.449	1105.72
1026.739	1098.49
1027.029	1079.51
1027.319	1079.05
1027.608	1071.82
1027.898	1071.6
1028.187	1067.98
1028.477	1055.1
1028.766	1053.52
1029.055	1052.16
1029.344	1046.29
1029.634	1030.47
1029.923	1029.34
1030.212	1017.36
1030.501	999.73
1030.79	1027.3
1031.078	968.32
1031.367	989.11
1031.656	973.29
1031.945	988.89
1032.233	973.52
1032.522	970.36
1032.81	962.67
1033.099	936.68
1033.387	943.92
1033.675	950.7
1033.963	929
1034.251	940.98
1034.54	922.45
1034.828	916.35
1035.116	904.14
1035.403	918.61
1035.691	901.21
1035.979	899.17
1036.267	895.78
1036.554	885.61
1036.842	877.48
1037.129	884.03
1037.417	859.62
1037.704	870.92
1037.992	849.68
1038.279	869.12
1038.566	837.93
1038.853	837.93
1039.14	837.93
