Data from hue_100_FLMS001491_00043.txt Node
Date: Tue Feb 07 17:03:13 GMT 2017
User: dcchb
Spectrometer: FLMS00149
Trigger mode: 0
Integration Time (sec): 2.000000E-2
Scans to average: 10
Electric dark correction enabled: true
Nonlinearity correction enabled: false
Boxcar width: 0
XAxis mode: Wavelengths
Number of Pixels in Spectrum: 2048
>>>>>Begin Spectral Data<<<<<
341.393	1.84
341.776	1.84
342.16	1.84
342.543	-55.34
342.927	-48.78
343.31	-96.47
343.693	-60.76
344.077	-68.22
344.46	-30.48
344.843	-60.76
345.226	-38.61
345.61	-24.6
345.993	-3.36
346.376	-15.79
346.759	16.3
347.142	9.97
347.525	39.58
347.908	53.13
348.291	75.05
348.674	98.56
349.057	106.47
349.44	126.35
349.823	140.14
350.206	180.81
350.588	220.36
350.971	215.84
351.354	231.21
351.737	257.87
352.119	245.45
352.502	273.02
352.884	286.12
353.267	274.37
353.65	279.12
354.032	308.27
354.414	317.31
354.797	336.52
355.179	320.7
355.562	343.3
355.944	364.99
356.326	355.95
356.709	339.45
357.091	335.61
357.473	355.73
357.855	364.09
358.238	338.1
358.62	331.09
359.002	351.66
359.384	338.78
359.766	359.11
360.148	337.19
360.53	339.23
360.912	321.15
361.294	334.26
361.676	323.64
362.057	355.05
362.439	356.18
362.821	316.86
363.203	316.86
363.584	344.2
363.966	340.58
364.348	324.54
364.729	327.7
365.111	336.52
365.493	329.96
365.874	313.92
366.256	323.86
366.637	322.51
367.019	332
367.4	320.25
367.781	334.26
368.163	326.8
368.544	321.38
368.925	347.59
369.306	324.09
369.688	346.46
370.069	322.05
370.45	298.33
370.831	316.18
371.212	325.9
371.593	312.11
371.974	337.42
372.355	347.36
372.736	329.06
373.117	331.09
373.498	325.9
373.879	335.84
374.26	324.77
374.641	315.95
375.021	312.11
375.402	329.51
375.783	335.39
376.163	343.52
376.544	339.68
376.925	350.08
377.305	353.24
377.686	334.48
378.066	343.75
378.447	353.24
378.827	335.84
379.208	368.38
379.588	366.35
379.968	352.79
380.349	343.52
380.729	350.53
381.109	359.11
381.489	352.11
381.87	355.5
382.25	370.64
382.63	355.27
383.01	342.17
383.39	375.39
383.77	358.66
384.15	359.34
384.53	378.1
384.91	361.37
385.29	351.43
385.67	351.88
386.049	356.86
386.429	394.14
386.809	366.12
387.189	376.06
387.568	373.13
387.948	372
388.328	390.3
388.707	395.95
389.087	394.14
389.466	375.61
389.846	387.81
390.225	387.81
390.605	369.96
390.984	392.79
391.363	386.68
391.743	414.25
392.122	403.41
392.501	406.8
392.881	413.58
393.26	397.31
393.639	395.27
394.018	413.12
394.397	414.93
394.776	402.05
395.155	432.79
395.534	419.23
395.913	404.76
396.292	408.61
396.671	405.22
397.05	408.38
397.429	411.77
397.808	406.12
398.186	430.75
398.565	421.26
398.944	427.36
399.323	416.74
399.701	441.82
400.08	419.45
400.458	453.12
400.837	456.29
401.215	431.88
401.594	428.72
401.972	439.11
402.351	465.55
402.729	444.31
403.107	432.11
403.486	445.89
403.864	435.05
404.242	472.78
404.62	462.61
404.999	466.46
405.377	449.28
405.755	459.23
406.133	491.77
406.511	449.51
406.889	467.36
407.267	498.09
407.645	480.02
408.023	465.78
408.401	511.43
408.779	485.21
409.156	483.63
409.534	484.31
409.912	487.7
410.29	489.51
410.667	510.52
411.045	535.83
411.422	524.99
411.8	513.24
412.178	521.37
412.555	533.35
412.933	527.47
413.31	526.34
413.687	522.05
414.065	552.56
414.442	536.51
414.819	547.58
415.197	538.32
415.574	564.08
415.951	571.99
416.328	565.66
416.705	564.31
417.082	565.21
417.46	573.35
417.837	592.1
418.214	576.51
418.591	589.84
418.967	603.4
419.344	573.8
419.721	595.94
420.098	611.09
420.475	597.98
420.852	605.44
421.228	620.35
421.605	616.51
421.982	635.04
422.358	618.54
422.735	631.65
423.111	622.16
423.488	657.41
423.864	624.19
424.241	634.14
424.617	659.22
424.994	637.53
425.37	641.82
425.746	663.51
426.123	668.26
426.499	683.85
426.875	666
427.251	683.85
427.627	718.2
428.003	709.39
428.379	729.95
428.756	705.32
429.132	706.9
429.507	712.1
429.883	730.86
430.259	737.86
430.635	717.3
431.011	756.84
431.387	776.73
431.763	775.15
432.138	790.74
432.514	758.2
432.89	756.62
433.265	770.86
433.641	786.45
434.016	823.28
434.392	807.24
434.767	790.97
435.143	844.07
435.518	828.26
435.894	837.07
436.269	866.45
436.644	873.68
437.02	858.54
437.395	873.45
437.77	887.46
438.145	867.12
438.52	891.98
438.895	915.03
439.271	901.93
439.646	930.63
440.021	913.9
440.395	923.39
440.77	913.9
441.145	934.24
441.52	944.64
441.895	979.66
442.27	959.78
442.645	985.54
443.019	965.88
443.394	982.15
443.769	989.61
444.143	975.82
444.518	991.87
444.892	999.1
445.267	1029.38
445.641	1013.56
446.016	1013.56
446.39	1018.76
446.764	1036.39
447.139	1011.08
447.513	1054.92
447.887	1045.2
448.262	1082.26
448.636	1079.55
449.01	1087.01
449.384	1094.24
449.758	1114.12
450.132	1099.43
450.506	1126.55
450.88	1130.17
451.254	1132.43
451.628	1135.14
452.002	1143.95
452.376	1163.39
452.75	1165.42
453.123	1179.21
453.497	1208.81
453.871	1182.37
454.244	1244.29
454.618	1231.41
454.992	1241.8
455.365	1274.8
455.739	1261.92
456.112	1300.11
456.486	1298.3
456.859	1333.55
457.232	1350.28
457.606	1333.55
457.979	1336.72
458.352	1416.71
458.725	1408.13
459.099	1418.97
459.472	1455.36
459.845	1449.03
460.218	1452.42
460.591	1500.33
460.964	1490.61
461.337	1524.51
461.71	1545.98
462.083	1566.77
462.456	1571.06
462.829	1601.34
463.201	1622.36
463.574	1613.77
463.947	1635.92
464.32	1662.36
464.692	1673.2
465.065	1718.63
465.438	1754.11
465.81	1745.52
466.183	1788
466.555	1844.05
466.928	1875.69
467.3	1868.91
467.672	1864.61
468.045	1940.54
468.417	1948.9
468.789	1966.76
469.161	2009.47
469.534	2035.91
469.906	2090.37
470.278	2116.81
470.65	2142.8
471.022	2182.8
471.394	2256.24
471.766	2263.25
472.138	2319.74
472.51	2358.16
472.882	2390.25
473.253	2468.66
473.625	2491.26
473.997	2577.14
474.369	2593.63
474.74	2642.22
475.112	2752.5
475.484	2792.27
475.855	2869.78
476.227	2898.71
476.598	2974.41
476.97	3046.28
477.341	3117.01
477.713	3178.93
478.084	3242.65
478.455	3349.32
478.827	3407.17
479.198	3551.35
479.569	3579.37
479.94	3705.02
480.311	3815.97
480.682	3941.85
481.053	4046.93
481.424	4113.59
481.795	4221.61
482.166	4337.77
482.537	4391.55
482.908	4509.29
483.279	4624.99
483.65	4790.64
484.021	4907.7
484.391	5019.33
484.762	5143.85
485.133	5257.52
485.503	5372.99
485.874	5510.62
486.244	5581.12
486.615	5785.19
486.985	5910.38
487.356	6124.61
487.726	6247.55
488.097	6366.41
488.467	6494.09
488.837	6742.45
489.207	6863.35
489.578	7028.32
489.948	7118.03
490.318	7319.84
490.688	7471.92
491.058	7617.68
491.428	7752.37
491.798	7913.49
492.168	8181.73
492.538	8252.69
492.908	8384.67
493.278	8613.59
493.648	8658.11
494.017	8858.33
494.387	8956.63
494.757	9185.78
495.126	9306.22
495.496	9406.11
495.866	9555.94
496.235	9705.99
496.605	9954.79
496.974	9970.39
497.344	10158.63
497.713	10250.15
498.082	10359.53
498.452	10576.47
498.821	10669.35
499.19	10837.03
499.559	10966.97
499.928	11050.13
500.298	11243.57
500.667	11360.63
501.036	11412.84
501.405	11549.78
501.774	11638.59
502.143	11755.2
502.512	11884.46
502.88	12003.55
503.249	12108.18
503.618	12205.58
503.987	12295.75
504.356	12394.96
504.724	12456.65
505.093	12566.03
505.462	12634.95
505.83	12734.38
506.199	12841.72
506.567	13090.98
506.936	13069.74
507.304	13284.88
507.672	13307.7
508.041	13370.3
508.409	13474.25
508.777	13630.4
509.145	13669.05
509.514	13605.77
509.882	13757.86
510.25	13807.35
510.618	13850.74
510.986	13938.87
511.354	14138.87
511.722	14292.76
512.09	14417.95
512.458	14314.91
512.826	14451.4
513.193	14469.7
513.561	14472.87
513.929	14614.56
514.297	14765.29
514.664	14748.12
515.032	14837.15
515.4	14891.61
515.767	14947.21
516.135	15064.94
516.502	14880.09
516.869	15169.8
517.237	15244.37
517.604	15248.44
517.972	15311.26
518.339	15294.99
518.706	15430.13
519.073	15461.09
519.44	15552.84
519.808	15531.82
520.175	15545.83
520.542	15712.84
520.909	15729.78
521.276	15692.05
521.643	15845.26
522.009	15913.73
522.376	15942.66
522.743	16058.82
523.11	16171.58
523.477	16251.58
523.843	16213.16
524.21	16400.5
524.577	16450.44
524.943	16464
525.31	16519.37
525.676	16644.11
526.043	16582.64
526.409	16594.85
526.776	16746.71
527.142	16736.09
527.508	16795.29
527.874	16855.18
528.241	16883.43
528.607	16900.83
528.973	17000.26
529.339	16900.15
529.705	17011.56
530.071	17051.33
530.437	17026.7
530.803	17099.92
531.169	17178.56
531.535	17077.32
531.901	17111.22
532.267	17070.09
532.632	17251.1
532.998	17095.17
533.364	17224.89
533.73	17152.8
534.095	17280.25
534.461	17263.3
534.826	17249.29
535.192	17247.26
535.557	17248.61
535.923	17247.48
536.288	17250.2
536.653	17168.16
537.019	17096.98
537.384	17167.03
537.749	17173.36
538.114	17208.16
538.479	17066.7
538.845	17169.97
539.21	16986.47
539.575	17046.36
539.94	17068.51
540.305	17067.15
540.67	17034.38
541.034	17038.9
541.399	17027.15
541.764	17027.15
542.129	17023.99
542.494	16925.68
542.858	16920.49
543.223	16845.24
543.587	16817.89
543.952	16890.43
544.316	16845.91
544.681	16786.93
545.045	16814.05
545.41	16785.58
545.774	16879.81
546.138	16810.89
546.503	16681.17
546.867	16708.97
547.231	16806.59
547.595	16680.27
547.959	16628.07
548.324	16621.74
548.688	16565.24
549.052	16624
549.416	16504.68
549.779	16485.47
550.143	16476.88
550.507	16502.42
550.871	16574.96
551.235	16382.65
551.599	16454.06
551.962	16463.1
552.326	16480.72
552.689	16527.73
553.053	16341.29
553.417	16413.38
553.78	16495.64
554.143	16354.4
554.507	16318.7
554.87	16397.34
555.234	16440.5
555.597	16292.03
555.96	16291.58
556.323	16336.32
556.686	16316.66
557.05	16397.34
557.413	16301.52
557.776	16325.7
558.139	16418.81
558.502	16282.99
558.865	16389.65
559.228	16409.31
559.59	16381.07
559.953	16318.02
560.316	16448.86
560.679	16406.83
561.041	16442.31
561.404	16508.07
561.767	16449.31
562.129	16423.1
562.492	16590.1
562.854	16499.71
563.217	16461.29
563.579	16517.56
563.941	16646.82
564.304	16588.74
564.666	16643.88
565.028	16587.16
565.39	16712.36
565.753	16701.96
566.115	16746.03
566.477	16753.94
566.839	16835.07
567.201	16824.9
567.563	16876.87
567.925	16982.86
568.287	16885.69
568.648	16928.4
569.01	16930.66
569.372	16949.64
569.734	16856.99
570.095	16996.87
570.457	16996.42
570.819	16927.27
571.18	16916.87
571.542	17085.91
571.903	16995.06
572.265	17063.99
572.626	17142.85
572.987	17148.5
573.349	17125.68
573.71	17216.07
574.071	17269.4
574.432	17219.46
574.794	17340.36
575.155	17294.71
575.516	17228.05
575.877	17311.21
576.238	17197.09
576.599	17289.07
576.96	17345.33
577.32	17403.64
577.681	17242.06
578.042	17339.01
578.403	17447.93
578.763	17399.12
579.124	17390.76
579.485	17454.03
579.845	17455.39
580.206	17481.38
580.566	17272.34
580.927	17409.06
581.287	17519.79
581.648	17360.48
582.008	17413.13
582.368	17339.91
582.728	17474.37
583.089	17444.09
583.449	17409.74
583.809	17370.64
584.169	17388.95
584.529	17334.26
584.889	17477.76
585.249	17295.84
585.609	17228.95
585.969	17288.16
586.329	17319.8
586.688	17389.18
587.048	17347.14
587.408	17251.33
587.768	17273.92
588.127	17268.95
588.487	17236.19
588.846	17374.71
589.206	17309.86
589.565	17309.4
589.925	17242.51
590.284	17311.21
590.643	17299.01
591.003	17227.37
591.362	17274.38
591.721	17177.66
592.08	17294.94
592.44	17297.65
592.799	17231.67
593.158	17136.75
593.517	17242.51
593.876	17257.2
594.235	17229.41
594.593	17179.92
594.952	17139.24
595.311	17256.3
595.67	17152.57
596.029	17266.01
596.387	17200.71
596.746	17189.18
597.104	17134.72
597.463	17081.61
597.822	17221.04
598.18	17115.96
598.538	17142.63
598.897	17131.1
599.255	17065.57
599.613	17239.12
599.972	17135.62
600.33	17182.63
600.688	17085.91
601.046	17239.8
601.404	17166.13
601.762	17205.23
602.12	17237.54
602.478	17254.04
602.836	17310.76
603.194	17173.14
603.552	17134.27
603.91	17117.54
604.268	17224.43
604.625	17120.03
604.983	17234.6
605.341	17047.04
605.698	17219.69
606.056	17213.36
606.413	17235.28
606.771	17229.86
607.128	17317.31
607.485	17167.71
607.843	17215.85
608.2	17320.25
608.557	17379.01
608.914	17342.62
609.272	17309.18
609.629	17400.7
609.986	17400.7
610.343	17341.72
610.7	17440.7
611.057	17404.54
611.414	17440.47
611.771	17443.41
612.127	17563.63
612.484	17399.57
612.841	17544.88
613.198	17534.26
613.554	17575.84
613.911	17599.57
614.267	17432.56
614.624	17377.88
614.98	17469.85
615.337	17659.9
615.693	17552.11
616.05	17566.35
616.406	17658.1
616.762	17656.74
617.118	17603.41
617.475	17593.24
617.831	17711.43
618.187	17679.56
618.543	17702.39
618.899	17843.4
619.255	17825.32
619.611	17718.88
619.967	17871.2
620.323	17790.97
620.678	17739.45
621.034	17742.84
621.39	17671.43
621.746	17691.77
622.101	17890.63
622.457	17701.26
622.812	17756.4
623.168	17795.27
623.523	17767.47
623.879	17838.88
624.234	17741.93
624.589	17777.87
624.945	17671.43
625.3	17754.36
625.655	17724.76
626.01	17759.79
626.365	17813.12
626.72	17688.6
627.075	17811.31
627.43	17788.26
627.785	17711.43
628.14	17706.23
628.495	17707.36
628.85	17726.57
629.205	17668.04
629.559	17743.97
629.914	17691.77
630.269	17702.16
630.623	17667.36
630.978	17493.81
631.332	17662.16
631.687	17635.95
632.041	17583.29
632.396	17662.39
632.75	17487.25
633.104	17523.86
633.459	17573.58
633.813	17414.94
634.167	17500.13
634.521	17482.05
634.875	17575.16
635.229	17482.96
635.583	17392.34
635.937	17428.5
636.291	17455.39
636.645	17250.42
636.999	17421.72
637.352	17370.42
637.706	17311.66
638.06	17411.32
638.413	17342.17
638.767	17313.92
639.121	17263.53
639.474	17102.63
639.828	17254.72
640.181	17172.23
640.534	17241.61
640.888	17150.54
641.241	17033.03
641.594	17059.47
641.947	17163.19
642.301	17080.03
642.654	17155.06
643.007	17036.87
643.36	17061.95
643.713	17049.75
644.066	17063.53
644.419	16960.03
644.771	16804.11
645.124	16807.72
645.477	16729.31
645.83	16618.8
646.182	16609.08
646.535	16460.61
646.888	16494.51
647.24	16442.53
647.593	16498.58
647.945	16424.46
648.298	16403.44
648.65	16441.4
649.002	16308.3
649.355	16440.73
649.707	16461.97
650.059	16506.26
650.411	16689.08
650.763	16680.04
651.115	16870.55
651.467	16941.96
651.819	16824.9
652.171	16779.47
652.523	16813.82
652.875	16776.08
653.227	16645.69
653.578	16880.04
653.93	16755.52
654.282	16639.36
654.633	16632.36
654.985	16704
655.337	16719.59
655.688	16756.2
656.039	16849.08
656.391	16658.8
656.742	16696.54
657.094	16770.43
657.445	16791.23
657.796	16832.13
658.147	16763.2
658.498	16644.34
658.849	16754.84
659.2	16678.69
659.551	16654.73
659.902	16708.52
660.253	16719.81
660.604	16843.88
660.955	16599.37
661.306	16841.39
661.656	16646.14
662.007	16790.55
662.358	16713.71
662.708	16819.02
663.059	16730.21
663.409	16637.78
663.76	16747.61
664.11	16740.15
664.461	16767.05
664.811	16793.26
665.161	16842.52
665.511	16816.31
665.862	16774.73
666.212	16794.16
666.562	16853.82
666.912	16814.95
667.262	16802.3
667.612	16832.81
667.962	16852.92
668.312	16778.57
668.662	16865.35
669.011	16819.02
669.361	16797.55
669.711	16695.63
670.06	16655.64
670.41	16773.6
670.76	16714.39
671.109	16777.89
671.459	16697.44
671.808	16696.54
672.157	16704.22
672.507	16641.4
672.856	16656.54
673.205	16638.69
673.554	16627.39
673.904	16651.34
674.253	16640.04
674.602	16595.75
674.951	16386.49
675.3	16256.55
675.649	16570.44
675.998	16568.41
676.346	16566.82
676.695	16658.57
677.044	16475.98
677.393	16556.2
677.741	16532.25
678.09	16451.12
678.438	16473.49
678.787	16462.65
679.135	16483.89
679.484	16277.34
679.832	16277.57
680.181	16243.22
680.529	16313.95
680.877	16187.17
681.225	16228.75
681.573	16344.68
681.922	16147.4
682.27	16101.3
682.618	16097.68
682.966	16097.91
683.314	16060.17
683.661	15969.55
684.009	15909.44
684.357	15896.11
684.705	15959.16
685.053	15963.68
685.4	15846.62
685.748	15834.19
686.095	15825.15
686.443	15765.04
686.79	15740.86
687.138	15839.16
687.485	15686.62
687.832	15671.25
688.18	15758.71
688.527	15576.57
688.874	15556.68
689.221	15536.34
689.568	15540.86
689.915	15417.48
690.262	15417.7
690.609	15403.69
690.956	15323.02
691.303	15339.96
691.65	15282.79
691.997	15244.37
692.344	15081.67
692.69	15085.28
693.037	15030.37
693.383	14878.06
693.73	15055.23
694.077	14885.74
694.423	14804.38
694.769	14867.43
695.116	14796.7
695.462	14692.98
695.808	14704.73
696.155	14644.84
696.501	14536.37
696.847	14603.94
697.193	14466.54
697.539	14399.65
697.885	14328.01
698.231	14316.26
698.577	14199.88
698.923	14359.42
699.269	14160.79
699.614	14068.81
699.96	14036.04
700.306	14003.28
700.651	14049.6
700.997	13900
701.342	13998.98
701.688	13832.88
702.033	13821.59
702.379	13812.32
702.724	13700.91
703.069	13815.03
703.415	13558.54
703.76	13598.31
704.105	13613.46
704.45	13463.63
704.795	13442.16
705.14	13338.21
705.485	13410.52
705.83	13389.73
706.175	13377.76
706.52	13264.54
706.865	13242.17
707.209	13269.74
707.554	13161.94
707.899	13156.07
708.243	13050.76
708.588	13009.4
708.932	12983.42
709.277	12922.4
709.621	12921.95
709.966	12774.38
710.31	12850.31
710.654	12786.36
710.998	12733.93
711.342	12818.67
711.687	12784.78
712.031	12723.31
712.375	12648.96
712.719	12643.31
713.063	12620.49
713.407	12641.96
713.75	12546.37
714.094	12488.74
714.438	12514.73
714.782	12499.59
715.125	12485.12
715.469	12516.99
715.812	12342.08
716.156	12344.79
716.499	12286.26
716.843	12366.71
717.186	12268.86
717.53	12272.47
717.873	12259.82
718.216	12201.74
718.559	12196.09
718.902	12187.73
719.246	12219.14
719.589	12126.04
719.932	12150.9
720.275	12206.71
720.617	12156.32
720.96	12052.37
721.303	12019.37
721.646	12047.4
721.989	12053.72
722.331	12119.71
722.674	12091.46
723.016	12016.89
723.359	11944.8
723.701	11976.89
724.044	11966.95
724.386	11880.62
724.729	11917.91
725.071	11904.12
725.413	11869.32
725.755	11771.24
726.097	11853.28
726.439	11789.77
726.782	11735.99
727.124	11863.22
727.465	11755.43
727.807	11817.34
728.149	11752.49
728.491	11726.27
728.833	11786.61
729.175	11712.71
729.516	11700.96
729.858	11682.43
730.199	11771.7
730.541	11664.13
730.882	11684.24
731.224	11707.07
731.565	11645.15
731.906	11708.65
732.248	11702.09
732.589	11611.93
732.93	11576.22
733.271	11632.94
733.612	11672.26
733.953	11721.75
734.294	11649.44
734.635	11650.8
734.976	11711.81
735.317	11658.93
735.658	11620.97
735.999	11642.43
736.339	11608.76
736.68	11683.34
737.021	11647.18
737.361	11645.6
737.702	11661.42
738.042	11629.78
738.383	11583.45
738.723	11627.29
739.063	11696.44
739.404	11669.33
739.744	11631.81
740.084	11654.64
740.424	11675.2
740.764	11658.48
741.104	11709.32
741.444	11691.02
741.784	11701.64
742.124	11673.17
742.464	11699.16
742.804	11704.13
743.143	11751.13
743.483	11765.37
743.823	11762.43
744.162	11817.57
744.502	11825.03
744.841	11864.35
745.181	11936.66
745.52	11858.93
745.86	12026.15
746.199	11996.77
746.538	12073.61
746.877	12230.67
747.216	12128.52
747.556	12218.69
747.895	12261.4
748.234	12231.57
748.573	12309.76
748.911	12363.09
749.25	12514.28
749.589	12471.11
749.928	12584.1
750.267	12702.29
750.605	12768.28
750.944	12725.8
751.283	12818.67
751.621	12988.16
751.96	13003.98
752.298	13095.5
752.636	13258.21
752.975	13262.5
753.313	13333.91
753.651	13536.85
753.989	13460.92
754.327	13655.04
754.666	13789.72
755.004	13985.2
755.342	14083.27
755.679	14228.35
756.017	14325.75
756.355	14527.1
756.693	14593.77
757.031	14787.44
757.368	14868.79
757.706	15065.39
758.044	15121.21
758.381	15339.06
758.719	15448.44
759.056	15659.5
759.394	15736.79
759.731	15825.83
760.068	16023.34
760.405	16183.11
760.743	16398.02
761.08	16588.29
761.417	16747.61
761.754	16941.28
762.091	17061.5
762.428	17230.76
762.765	17303.3
763.102	17566.8
763.438	17628.27
763.775	17740.13
764.112	17988.03
764.449	18163.84
764.785	18235.03
765.122	18318.87
765.458	18408.36
765.795	18538.07
766.131	18851.74
766.467	18830.27
766.804	18929.7
767.14	19039.08
767.476	19203.59
767.812	19265.74
768.148	19555.67
768.485	19649.68
768.821	19609
769.157	19804.25
769.492	19929
769.828	20072.72
770.164	20020.74
770.5	20022.55
770.836	20263.68
771.171	20284.92
771.507	20382.77
771.842	20346.16
772.178	20560.84
772.513	20524.23
772.849	20686.49
773.184	20671.8
773.519	20809.88
773.855	20804.23
774.19	20935.75
774.525	20957.9
774.86	20971.68
775.195	21064.11
775.53	21103.2
775.865	21046.25
776.2	20979.14
776.535	21073.37
776.87	20908.41
777.205	21113.6
777.539	21056.2
777.874	21166.93
778.209	21079.47
778.543	21175.74
778.878	21029.08
779.212	21156.31
779.547	21211.45
779.881	21293.48
780.215	21179.58
780.55	21331.22
780.884	21264.1
781.218	21161.73
781.552	21234.27
781.886	21115.63
782.22	21231.79
782.554	21223.43
782.888	20980.04
783.222	21052.58
783.556	20970.32
783.889	21064.33
784.223	20907.05
784.557	20899.59
784.89	20982.53
785.224	20869.99
785.557	20843.1
785.891	20832.25
786.224	20756.54
786.558	20861.4
786.891	20619.6
787.224	20617.34
787.557	20553.84
787.891	20639.03
788.224	20543.67
788.557	20627.96
788.89	20516.78
789.223	20541.64
789.556	20514.29
789.888	20398.14
790.221	20452.37
790.554	20213.06
790.887	20349.78
791.219	20220.29
791.552	20162.66
791.884	20097.35
792.217	20130.57
792.549	20074.98
792.882	20000.86
793.214	19917.92
793.546	19981.88
793.879	19860.07
794.211	19734.42
794.543	19873.4
794.875	19774.2
795.207	19814.2
795.539	19716.57
795.871	19700.75
796.203	19570.36
796.535	19408.11
796.867	19574.88
797.198	19346.64
797.53	19487.2
797.862	19357.03
798.193	19312.06
798.525	19234.55
798.856	19287.43
799.188	19104.84
799.519	18943.94
799.85	18909.36
800.182	18936.71
800.513	18955.69
800.844	18820.32
801.175	18889.25
801.506	18925.18
801.837	18749.82
802.168	18786.43
802.499	18726.99
802.83	18566.77
803.161	18609.93
803.491	18627.56
803.822	18609.03
804.153	18531.29
804.483	18371.97
804.814	18324.97
805.145	18300.11
805.475	18311.64
805.805	18216.95
806.136	18266.21
806.466	18270.51
806.796	18182.15
807.126	18010.63
807.457	17984.64
807.787	18073.23
808.117	17953.45
808.447	17871.2
808.777	17876.85
809.107	17777.19
809.436	17829.84
809.766	17781.93
810.096	17657.42
810.426	17658.1
810.755	17690.86
811.085	17621.94
811.414	17590.07
811.744	17414.03
812.073	17410.87
812.403	17456.52
812.732	17281.61
813.061	17338.33
813.39	17158.45
813.719	17216.3
814.049	17317.54
814.378	17158.67
814.707	17128.84
815.036	17172.01
815.365	17146.92
815.693	16963.2
816.022	17001.84
816.351	16994.84
816.68	16931.79
817.008	16944.22
817.337	16698.35
817.665	16716.88
817.994	16751.9
818.322	16764.56
818.651	16625.35
818.979	16556.66
819.307	16727.72
819.636	16682.3
819.964	16649.08
820.292	16574.73
820.62	16589.2
820.948	16541.74
821.276	16587.61
821.604	16538.12
821.932	16651.12
822.259	16535.64
822.587	16526.15
822.915	16454.51
823.243	16525.47
823.57	16446.83
823.898	16497.9
824.225	16437.79
824.553	16454.74
824.88	16445.92
825.207	16461.74
825.535	16478.01
825.862	16534.51
826.189	16527.96
826.516	16604.11
826.843	16527.05
827.17	16478.01
827.497	16508.75
827.824	16503.55
828.151	16528.63
828.478	16485.24
828.805	16505.36
829.131	16541.97
829.458	16449.31
829.785	16394.85
830.111	16488.63
830.438	16528.63
830.764	16394.4
831.09	16478.69
831.417	16410.44
831.743	16542.19
832.069	16506.71
832.395	16424.46
832.722	16408.41
833.048	16339.49
833.374	16337.9
833.7	16278.92
834.026	16361.86
834.351	16388.98
834.677	16355.3
835.003	16370.22
835.329	16356.66
835.654	16209.32
835.98	16210.22
836.306	16326.6
836.631	16157.57
836.956	16234.86
837.282	16320.05
837.607	16152.6
837.932	16175.42
838.258	16172.71
838.583	16076.67
838.908	16035.31
839.233	16110.34
839.558	16012.26
839.883	15933.62
840.208	15947.18
840.533	15866.5
840.858	15803.68
841.182	15939.72
841.507	15863.57
841.832	15781.31
842.156	15784.25
842.481	15709.67
842.805	15752.38
843.13	15762.33
843.454	15644.14
843.778	15584.03
844.103	15551.94
844.427	15498.15
844.751	15577.47
845.075	15466.51
845.399	15419.28
845.723	15304.94
846.047	15321.21
846.371	15245.73
846.695	15259.97
847.019	15076.69
847.343	15071.72
847.666	15009.13
847.99	14907.43
848.313	14939.52
848.637	14782.24
848.96	14832.41
849.284	14743.6
849.607	14557.61
849.931	14608.91
850.254	14542.24
850.577	14419.99
850.9	14346.54
851.223	14286.43
851.546	14307
851.869	14202.37
852.192	14230.16
852.515	14011.64
852.838	14035.82
853.161	14140.9
853.483	14009.6
853.806	13950.17
854.129	13881.25
854.451	13843.28
854.774	13768.71
855.096	13768.93
855.419	13721.02
855.741	13720.35
856.063	13623.17
856.385	13575.49
856.708	13595.15
857.03	13472.44
857.352	13455.72
857.674	13457.98
857.996	13463.4
858.318	13339.34
858.64	13271.09
858.961	13308.15
859.283	13221.6
859.605	13085.56
859.926	13211.21
860.248	13179.57
860.57	13086.01
860.891	13090.53
861.212	13014.6
861.534	12961.95
861.855	12964.89
862.176	12934.6
862.498	12959.46
862.819	12962.4
863.14	12879.92
863.461	12855.74
863.782	12793.36
864.103	12855.51
864.424	12815.06
864.745	12838.79
865.065	12715.17
865.386	12625.01
865.707	12680.6
866.027	12664.78
866.348	12595.18
866.668	12597.89
866.989	12625.91
867.309	12581.39
867.63	12573.26
867.95	12535.74
868.27	12505.46
868.59	12483.99
868.91	12394.73
869.23	12478.34
869.55	12406.26
869.87	12471.79
870.19	12404.67
870.51	12433.83
870.83	12443.54
871.15	12331
871.469	12333.26
871.789	12356.99
872.109	12351.57
872.428	12202.87
872.748	12217.56
873.067	12255.75
873.386	12267.73
873.706	12184.11
874.025	12164.68
874.344	12032.48
874.663	12124.68
874.982	12059.15
875.301	12036.32
875.62	12026.15
875.939	12087.85
876.258	12060.73
876.577	11943.67
876.896	11867.51
877.214	11900.28
877.533	11879.04
877.852	11919.94
878.17	11738.48
878.489	11821.41
878.807	11831.36
879.125	11810.11
879.444	11844.91
879.762	11728.31
880.08	11838.36
880.398	11641.98
880.716	11718.14
881.034	11602.21
881.352	11676.33
881.67	11581.42
881.988	11630.23
882.306	11553.85
882.624	11458.71
882.941	11484.25
883.259	11391.82
883.577	11481.99
883.894	11420.52
884.212	11407.64
884.529	11487.18
884.846	11356.57
885.164	11311.37
885.481	11213.97
885.798	11315.44
886.115	11233.41
886.432	11180.3
886.75	11203.35
887.067	11247.87
887.383	11211.48
887.7	11222.56
888.017	11135.78
888.334	11136.91
888.651	11048.55
888.967	11063.69
889.284	11053.75
889.6	10951.38
889.917	10998.16
890.233	10905.73
890.55	10756.13
890.866	10886.97
891.182	10794.77
891.498	10851.95
891.815	10770.59
892.131	10667.77
892.447	10672.97
892.763	10582.8
893.079	10617.38
893.395	10573.99
893.71	10558.85
894.026	10546.64
894.342	10511.84
894.657	10406.76
894.973	10463.48
895.289	10389.81
895.604	10417.83
895.92	10285.63
896.235	10239.31
896.55	10296.71
896.865	10251.96
897.181	10220.55
897.496	10167.9
897.811	10091.51
898.126	10060.55
898.441	10052.19
898.756	10004.96
899.071	9951.41
899.386	9950.5
899.7	9919.09
900.015	9854.01
900.33	9753.9
900.644	9732.65
900.959	9728.36
901.273	9673.22
901.588	9691.3
901.902	9610.17
902.216	9597.97
902.531	9576.5
902.845	9562.49
903.159	9520.23
903.473	9442.94
903.787	9378.09
904.101	9305.32
904.415	9355.26
904.729	9284.3
905.042	9314.13
905.356	9265.77
905.67	9257.41
905.984	9193.23
906.297	9204.31
906.611	9136.06
906.924	9122.73
907.237	9070.07
907.551	9055.84
907.864	8941.71
908.177	8952.34
908.491	8953.24
908.804	8835.73
909.117	8828.04
909.43	8771.32
909.743	8747.14
910.056	8741.04
910.368	8652.23
910.681	8633.47
910.994	8652.23
911.307	8624.43
911.619	8555.96
911.932	8551.44
912.244	8449.98
912.557	8498.56
912.869	8428.96
913.181	8357.77
913.494	8358.9
913.806	8261.51
914.118	8253.82
914.43	8176.31
914.742	8156.88
915.054	8177.67
915.366	8169.76
915.678	8064.67
915.99	8028.29
916.302	7992.81
916.613	7974.06
916.925	7934.51
917.236	7908.75
917.548	7885.7
917.859	7866.71
918.171	7814.29
918.482	7808.41
918.794	7749.88
919.105	7752.59
919.416	7721.41
919.727	7682.09
920.038	7653.16
920.349	7533.39
920.66	7567.51
920.971	7598.02
921.282	7501.3
921.593	7478.93
921.903	7462.2
922.214	7401.64
922.525	7366.16
922.835	7367.74
923.146	7247.07
923.456	7253.4
923.767	7231.7
924.077	7254.07
924.387	7194.19
924.697	7075.55
925.008	7142.44
925.318	7092.27
925.628	7113.74
925.938	6999.39
926.248	6970.01
926.558	6999.17
926.867	6969.34
927.177	6902.45
927.487	6923.91
927.796	6827.87
928.106	6892.5
928.416	6843.69
928.725	6793.75
929.034	6749
929.344	6848.44
929.653	6725.73
929.962	6667.88
930.271	6588.56
930.581	6598.72
930.89	6575
931.199	6522.34
931.508	6471.5
931.817	6482.12
932.125	6468.33
932.434	6505.85
932.743	6405.96
933.051	6400.99
933.36	6396.92
933.669	6338.17
933.977	6345.4
934.286	6327.77
934.594	6278.28
934.902	6218.17
935.21	6190.37
935.519	6213.42
935.827	6137.49
936.135	6126.65
936.443	6041.68
936.751	6101.34
937.059	6044.16
937.367	5974.56
937.674	6037.61
937.982	6038.06
938.29	6008.68
938.597	5940.89
938.905	5925.97
939.213	5874.22
939.52	5886.2
939.827	5888.24
940.135	5852.98
940.442	5756.26
940.749	5786.54
941.056	5735.92
941.363	5680.56
941.67	5666.55
941.977	5683.49
942.284	5635.36
942.591	5635.81
942.898	5595.36
943.205	5591.75
943.511	5506.32
943.818	5527.34
944.125	5497.51
944.431	5445.31
944.738	5434.24
945.044	5433.33
945.35	5376.61
945.657	5327.8
945.963	5371.86
946.269	5336.39
946.575	5264.3
946.881	5282.15
947.187	5284.64
947.493	5213.45
947.799	5204.86
948.105	5175.26
948.41	5124.64
948.716	5164.19
949.022	5103.62
949.327	5067.01
949.633	5064.3
949.938	5044.19
950.244	4996.73
950.549	4979.11
950.854	5030.63
951.16	4972.1
951.465	4950.41
951.77	4937.75
952.075	4879
952.38	4880.13
952.685	4894.81
952.99	4854.59
953.294	4827.25
953.599	4798.77
953.904	4811.43
954.209	4758.55
954.513	4774.59
954.818	4718.1
955.122	4711.54
955.426	4653.01
955.731	4671.32
956.035	4648.72
956.339	4664.31
956.643	4623.41
956.948	4593.13
957.252	4580.92
957.556	4500.25
957.86	4499.57
958.163	4490.98
958.467	4519.01
958.771	4455.96
959.075	4474.26
959.378	4394.94
959.682	4394.49
959.985	4371.89
960.289	4404.21
960.592	4346.35
960.896	4376.86
961.199	4337.77
961.502	4267.71
961.805	4261.61
962.108	4229.97
962.411	4236.08
962.714	4227.26
963.017	4192.46
963.32	4215.06
963.623	4176.64
963.926	4174.16
964.228	4134.83
964.531	4128.73
964.833	4093.48
965.136	4060.71
965.438	4039.92
965.741	4025.23
966.043	4022.3
966.345	3987.72
966.648	3972.58
966.95	3935.97
967.252	3952.24
967.554	3939.36
967.856	3944.78
968.158	3896.87
968.46	3863.88
968.761	3846.93
969.063	3850.32
969.365	3876.08
969.666	3837.67
969.968	3754.28
970.269	3768.52
970.571	3785.47
970.872	3778.69
971.174	3732.36
971.475	3684.68
971.776	3671.8
972.077	3685.13
972.378	3637.9
972.679	3637.45
972.98	3626.37
973.281	3648.97
973.582	3615.75
973.883	3586.15
974.183	3575.75
974.484	3511.57
974.785	3558.58
975.085	3522.65
975.386	3527.85
975.686	3498.69
975.986	3497.34
976.287	3464.12
976.587	3441.07
976.887	3402.42
977.187	3438.36
977.487	3396.55
977.787	3378.47
978.087	3392.03
978.387	3390.45
978.687	3326.27
978.987	3298.25
979.286	3277.23
979.586	3307.06
979.885	3275.65
980.185	3261.86
980.484	3248.3
980.784	3259.15
981.083	3241.3
981.382	3209.89
981.682	3163.11
981.981	3199.49
982.28	3185.26
982.579	3138.93
982.878	3147.06
983.177	3155.88
983.475	3116.78
983.774	3085.6
984.073	3053.28
984.372	3056.22
984.67	3032.94
984.969	3057.35
985.267	3034.3
985.566	3008.54
985.864	2993.62
986.162	2968.31
986.461	2952.27
986.759	2964.92
987.057	2931.02
987.355	2910.46
987.653	2919.95
987.951	2894.42
988.249	2900.52
988.547	2879.73
988.844	2840.41
989.142	2850.35
989.44	2799.05
989.737	2800.86
990.035	2780.97
990.332	2802.21
990.63	2776.9
990.927	2759.28
991.224	2790.24
991.521	2734.87
991.819	2767.19
992.116	2719.05
992.413	2681.09
992.71	2699.17
993.006	2669.56
993.303	2664.59
993.6	2670.92
993.897	2638.38
994.193	2612.16
994.49	2594.31
994.787	2605.16
995.083	2593.41
995.379	2560.64
995.676	2565.38
995.972	2592.73
996.268	2515.44
996.565	2532.17
996.861	2496.69
997.157	2489.91
997.453	2458.27
997.749	2483.8
998.044	2475.9
998.34	2478.83
998.636	2448.55
998.932	2442
999.227	2438.61
999.523	2381.21
999.818	2383.47
1000.114	2370.36
1000.409	2362.45
1000.704	2344.37
1001	2335.56
1001.295	2314.32
1001.59	2326.97
1001.885	2319.74
1002.18	2281.1
1002.475	2298.5
1002.77	2245.39
1003.065	2244.71
1003.359	2223.02
1003.654	2215.79
1003.949	2219.4
1004.243	2214.89
1004.538	2178.05
1004.832	2166.52
1005.127	2150.93
1005.421	2160.88
1005.715	2135.11
1006.009	2134.66
1006.304	2079.3
1006.598	2137.37
1006.892	2120.42
1007.186	2087.88
1007.48	2063.25
1007.773	2049.47
1008.067	2047.21
1008.361	2024.83
1008.655	2018.73
1008.948	1998.17
1009.242	1990.71
1009.535	1986.19
1009.829	1970.6
1010.122	1982.57
1010.415	1950.71
1010.708	1914.55
1011.001	1906.64
1011.295	1915.91
1011.588	1916.14
1011.881	1874.33
1012.173	1889.92
1012.466	1861.67
1012.759	1866.87
1013.052	1849.47
1013.344	1847.89
1013.637	1820.55
1013.93	1832.3
1014.222	1812.41
1014.514	1802.47
1014.807	1802.47
1015.099	1775.35
1015.391	1766.99
1015.683	1760.21
1015.976	1749.59
1016.268	1718.85
1016.56	1697.16
1016.851	1724.5
1017.143	1701.68
1017.435	1681.34
1017.727	1668.23
1018.018	1678.4
1018.31	1663.04
1018.602	1646.76
1018.893	1627.33
1019.185	1607.9
1019.476	1593.43
1019.767	1606.09
1020.058	1627.33
1020.35	1566.09
1020.641	1595.24
1020.932	1546.65
1021.223	1555.24
1021.514	1553.43
1021.804	1521.12
1022.095	1517.05
1022.386	1511.85
1022.677	1535.58
1022.967	1477.73
1023.258	1507.56
1023.548	1485.19
1023.839	1484.73
1024.129	1470.05
1024.419	1444.74
1024.709	1431.63
1025	1437.96
1025.29	1442.25
1025.58	1407.45
1025.87	1382.14
1026.16	1395.25
1026.449	1387.11
1026.739	1385.53
1027.029	1350.05
1027.319	1358.41
1027.608	1350.95
1027.898	1329.03
1028.187	1335.81
1028.477	1298.3
1028.766	1301.24
1029.055	1289.49
1029.344	1294.91
1029.634	1270.73
1029.923	1273.44
1030.212	1225.98
1030.501	1255.14
1030.79	1240.45
1031.078	1237.74
1031.367	1231.18
1031.656	1264.4
1031.945	1229.6
1032.233	1201.58
1032.522	1211.3
1032.81	1190.51
1033.099	1172.2
1033.387	1173.78
1033.675	1160.45
1033.963	1178.53
1034.251	1164.07
1034.54	1143.95
1034.828	1136.5
1035.116	1104.86
1035.403	1118.87
1035.691	1115.25
1035.979	1113.45
1036.267	1085.42
1036.554	1082.26
1036.842	1096.72
1037.129	1068.02
1037.417	1061.7
1037.704	1054.46
1037.992	1044.07
1038.279	1037.74
1038.566	1046.1
1038.853	1046.1
1039.14	1046.1
