Data from hue_40_FLMS001491_98.txt Node
Date: Mon Feb 06 15:08:51 GMT 2017
User: dcchb
Spectrometer: FLMS00149
Trigger mode: 0
Integration Time (sec): 2.000000E-2
Scans to average: 10
Electric dark correction enabled: true
Nonlinearity correction enabled: false
Boxcar width: 0
XAxis mode: Wavelengths
Number of Pixels in Spectrum: 2048
>>>>>Begin Spectral Data<<<<<
341.393	-28.98
341.776	-28.98
342.16	-28.98
342.543	-62.65
342.927	-70.11
343.31	-67.17
343.693	-69.21
344.077	-54.29
344.46	-52.03
344.843	-42.32
345.226	-40.28
345.61	-36.44
345.993	-28.76
346.376	-7.06
346.759	-10.68
347.142	26.38
347.525	45.82
347.908	55.54
348.291	77.23
348.674	88.3
349.057	114.97
349.44	140.73
349.823	144.8
350.206	152.48
350.588	202.65
350.971	202.2
351.354	231.8
351.737	253.27
352.119	257.79
352.502	260.73
352.884	287.17
353.267	295.75
353.65	281.52
354.032	310.67
354.414	331.23
354.797	319.26
355.179	329.43
355.562	350.67
355.944	323.55
356.326	350.44
356.709	348.18
357.091	322.65
357.473	362.65
357.855	347.73
358.238	354.28
358.62	341.18
359.002	348.86
359.384	358.8
359.766	345.47
360.148	346.6
360.53	356.09
360.912	343.44
361.294	350.22
361.676	361.52
362.057	347.05
362.439	345.25
362.821	325.58
363.203	312.93
363.584	335.98
363.966	357.9
364.348	323.78
364.729	321.97
365.111	342.31
365.493	332.59
365.874	320.84
366.256	338.01
366.637	313.61
367.019	349.09
367.4	314.29
367.781	299.6
368.163	312.48
368.544	325.36
368.925	312.7
369.306	331.91
369.688	316.32
370.069	320.39
370.45	323.1
370.831	331.23
371.212	319.71
371.593	335.08
371.974	330.1
372.355	331.91
372.736	321.29
373.117	316.77
373.498	305.7
373.879	311.57
374.26	297.56
374.641	327.84
375.021	325.36
375.402	337.34
375.783	354.06
376.163	342.99
376.544	319.03
376.925	340.95
377.305	341.63
377.686	327.62
378.066	333.04
378.447	336.66
378.827	328.3
379.208	352.93
379.588	337.34
379.968	331.46
380.349	349.09
380.729	339.82
381.109	345.02
381.489	356.32
381.87	333.04
382.25	358.58
382.63	355.87
383.01	353.38
383.39	367.17
383.77	351.12
384.15	367.84
384.53	350.22
384.91	365.81
385.29	347.5
385.67	350.67
386.049	379.59
386.429	357.67
386.809	368.3
387.189	358.58
387.568	368.3
387.948	387.05
388.328	378.69
388.707	375.3
389.087	355.41
389.466	381.85
389.846	377.33
390.225	371.01
390.605	373.72
390.984	362.42
391.363	370.56
391.743	389.09
392.122	374.85
392.501	387.73
392.881	401.51
393.26	385.24
393.639	392.25
394.018	374.17
394.397	387.05
394.776	397
395.155	399.03
395.534	391.12
395.913	411.46
396.292	385.24
396.671	403.77
397.05	393.38
397.429	385.92
397.808	394.51
398.186	406.94
398.565	408.29
398.944	421.63
399.323	427.05
399.701	395.41
400.08	426.6
400.458	415.07
400.837	431.57
401.215	418.24
401.594	400.38
401.972	416.2
402.351	416.43
402.729	417.56
403.107	422.76
403.486	431.12
403.864	441.06
404.242	421.63
404.62	431.34
404.999	419.82
405.377	431.57
405.755	461.63
406.133	443.1
406.511	446.49
406.889	443.55
407.267	441.97
407.645	467.05
408.023	460.27
408.401	463.21
408.779	459.37
409.156	469.99
409.534	471.12
409.912	466.6
410.29	469.99
410.667	480.38
411.045	477.67
411.422	477.9
411.8	474.73
412.178	484
412.555	482.87
412.933	483.77
413.31	481.29
413.687	486.26
414.065	506.14
414.442	509.08
414.819	498.91
415.197	524.22
415.574	518.12
415.951	507.27
416.328	540.49
416.705	532.36
417.082	541.85
417.46	541.62
417.837	537.56
418.214	538.69
418.591	562.64
418.967	522.64
419.344	539.82
419.721	551.12
420.098	543.88
420.475	554.51
420.852	558.12
421.228	579.36
421.605	569.42
421.982	552.02
422.358	573.26
422.735	569.65
423.111	576.2
423.488	581.17
423.864	594.73
424.241	593.6
424.617	603.77
424.994	597.22
425.37	606.71
425.746	604.45
426.123	614.84
426.499	596.54
426.875	597.22
427.251	636.31
427.627	619.36
428.003	641.96
428.379	633.15
428.756	638.34
429.132	638.8
429.507	643.77
429.883	653.03
430.259	671.34
430.635	661.4
431.011	668.63
431.387	678.12
431.763	671.79
432.138	704.33
432.514	705.24
432.89	712.69
433.265	700.26
433.641	723.54
434.016	699.36
434.392	742.07
434.767	722.41
435.143	719.02
435.518	740.04
435.894	745.01
436.269	757.44
436.644	776.42
437.02	755.18
437.395	771.45
437.77	751.79
438.145	778.91
438.52	789.53
438.895	771.9
439.271	774.39
439.646	828.4
440.021	806.7
440.395	814.39
440.77	805.35
441.145	802.86
441.52	846.93
441.895	845.35
442.27	847.15
442.645	853.03
443.019	843.99
443.394	863.42
443.769	834.05
444.143	865.91
444.518	868.17
444.892	869.3
445.267	864.78
445.641	882.63
446.016	898.68
446.39	888.28
446.764	894.84
447.139	891.9
447.513	905.23
447.887	912.01
448.262	913.37
448.636	918.56
449.01	915.17
449.384	914.95
449.758	971.22
450.132	919.47
450.506	959.01
450.88	968.73
451.254	947.26
451.628	959.92
452.002	935.51
452.376	968.28
452.75	970.54
453.123	994.72
453.497	993.14
453.871	1001.95
454.244	1038.11
454.618	1040.82
454.992	1043.98
455.365	1044.89
455.739	1077.2
456.112	1069.29
456.486	1103.42
456.859	1126.02
457.232	1105
457.606	1110.2
457.979	1135.05
458.352	1168.95
458.725	1154.04
459.099	1164.88
459.472	1173.92
459.845	1213.47
460.218	1211.89
460.591	1204.66
460.964	1226.8
461.337	1231.1
461.71	1274.94
462.083	1275.16
462.456	1293.47
462.829	1279.23
463.201	1312.45
463.574	1326.01
463.947	1339.8
464.32	1369.85
464.692	1376.86
465.065	1391.09
465.438	1433.13
465.81	1435.39
466.183	1434.48
466.555	1488.49
466.928	1480.58
467.3	1507.7
467.672	1517.64
468.045	1555.83
468.417	1536.63
468.789	1566
469.161	1581.6
469.534	1600.13
469.906	1639
470.278	1664.08
470.65	1711.99
471.022	1729.84
471.394	1769.16
471.766	1806.9
472.138	1810.97
472.51	1842.15
472.882	1889.84
473.253	1913.79
473.625	1957.41
473.997	1974.35
474.369	1984.52
474.74	2026.78
475.112	2101.13
475.484	2177.06
475.855	2165.99
476.227	2234.24
476.598	2276.49
476.97	2331.18
477.341	2362.37
477.713	2415.47
478.084	2472.87
478.455	2532.53
478.827	2577.28
479.198	2685.07
479.569	2728.23
479.94	2784.05
480.311	2843.94
480.682	2947.89
481.053	2991.73
481.424	3097.49
481.795	3136.13
482.166	3209.35
482.537	3235.34
482.908	3402.57
483.279	3483.47
483.65	3542.45
484.021	3640.53
484.391	3756.91
484.762	3759.39
485.133	3855.44
485.503	3967.52
485.874	4041.65
486.244	4115.77
486.615	4254.97
486.985	4341.98
487.356	4491.8
487.726	4528.19
488.097	4661.74
488.467	4732.25
488.837	4879.36
489.207	4920.72
489.578	5138.79
489.948	5169.3
490.318	5286.36
490.688	5378.79
491.058	5516.41
491.428	5598.21
491.798	5693.13
492.168	5844.08
492.538	5924.31
492.908	6040.46
493.278	6183.51
493.648	6200.91
494.017	6321.36
494.387	6425.54
494.757	6538.53
495.126	6696.94
495.496	6676.83
495.866	6864.62
496.235	6979.42
496.605	7054.67
496.974	7175.8
497.344	7254.44
497.713	7368.56
498.082	7397.94
498.452	7635.9
498.821	7633.64
499.19	7779.17
499.559	7836.12
499.928	7939.4
500.298	7968.1
500.667	8123.35
501.036	8104.82
501.405	8299.84
501.774	8321.98
502.143	8435.65
502.512	8517.91
502.88	8620.73
503.249	8685.82
503.618	8742.31
503.987	8797.23
504.356	8882.87
504.724	9047.84
505.093	9055.3
505.462	9200.83
505.83	9293.48
506.199	9341.84
506.567	9474.95
506.936	9475.63
507.304	9607.6
507.672	9678.79
508.041	9729.63
508.409	9851.89
508.777	9910.42
509.145	10004.2
509.514	10092.33
509.882	10139.11
510.25	10176.85
510.618	10234.48
510.986	10311.08
511.354	10500.68
511.722	10525.99
512.09	10604.64
512.458	10698.42
512.826	10720.11
513.193	10808.7
513.561	10842.37
513.929	10927.34
514.297	11054.57
514.664	11153.32
515.032	11124.17
515.4	11234
515.767	11334.33
516.135	11419.3
516.502	11337.72
516.869	11539.75
517.237	11594.89
517.604	11561.22
517.972	11676.92
518.339	11835.11
518.706	11832.17
519.073	11846.64
519.44	11949.23
519.808	12056.58
520.175	12042.34
520.542	12226.29
520.909	12350.13
521.276	12327.08
521.643	12450.92
522.009	12553.96
522.376	12590.8
522.743	12761.64
523.11	12791.7
523.477	12923.9
523.843	13001.41
524.21	13134.51
524.577	13202.08
524.943	13264.45
525.31	13311.46
525.676	13443.43
526.043	13513.49
526.409	13652.24
526.776	13789.19
527.142	13793.71
527.508	13915.74
527.874	13886.81
528.241	14031.66
528.607	14086.8
528.973	14147.14
529.339	14131.55
529.705	14308.27
530.071	14375.61
530.437	14543.52
530.803	14578.32
531.169	14621.93
531.535	14629.16
531.901	14698.99
532.267	14807.46
532.632	14893.79
532.998	14970.4
533.364	15068.7
533.73	15007.91
534.095	15149.83
534.461	15173.78
534.826	15290.39
535.192	15364.51
535.557	15450.84
535.923	15549.37
536.288	15479.08
536.653	15582.58
537.019	15633.88
537.384	15675.92
537.749	15822.8
538.114	15887.21
538.479	15916.14
538.845	16046.75
539.21	16016.25
539.575	16105.06
539.94	16034.78
540.305	16217.14
540.67	16292.17
541.034	16387.54
541.399	16394.54
541.764	16418.72
542.129	16456.91
542.494	16629.79
542.858	16681.99
543.223	16665.72
543.587	16937.35
543.952	16873.62
544.316	16874.75
544.681	16965.6
545.045	17082.88
545.41	17068.65
545.774	17140.06
546.138	17162.2
546.503	17258.47
546.867	17228.19
547.231	17389.54
547.595	17408.3
547.959	17557.22
548.324	17493.04
548.688	17576.88
549.052	17719.03
549.416	17707.27
549.779	17790.66
550.143	17809.87
550.507	17984.33
550.871	18006.48
551.235	17964.67
551.599	18194.49
551.962	18086.25
552.326	18304.32
552.689	18337.31
553.053	18273.36
553.417	18310.87
553.78	18530.53
554.143	18494.15
554.507	18601.04
554.87	18678.32
555.234	18776.4
555.597	18643.3
555.96	18746.12
556.323	18942.27
556.686	18948.15
557.05	19122.6
557.413	19055.71
557.776	19116.73
558.139	19163.73
558.502	19276.72
558.865	19262.04
559.228	19455.03
559.59	19519.88
559.953	19486.21
560.316	19723.49
560.679	19777.05
561.041	19822.7
561.404	19840.55
561.767	20032.19
562.129	19918.74
562.492	20162.58
562.854	20211.39
563.217	20161.9
563.579	20350.37
563.941	20420.65
564.304	20443.7
564.666	20611.15
565.028	20595.56
565.39	20685.5
565.753	20814.76
566.115	20887.08
566.477	20967.98
566.839	21091.14
567.201	21080.75
567.563	21085.49
567.925	21386.95
568.287	21298.37
568.648	21362.09
569.01	21433.28
569.372	21580.39
569.734	21612.26
570.095	21574.74
570.457	21844.57
570.819	21888.41
571.18	21809.09
571.542	22121.62
571.903	22189.19
572.265	22310.54
572.626	22295.4
572.987	22392.58
573.349	22485.68
573.71	22510.76
574.071	22658.33
574.432	22733.36
574.794	22999.79
575.155	22842.96
575.516	23007.25
575.877	23242.95
576.238	23335.6
576.599	23505.77
576.96	23534.01
577.32	23614.69
577.681	23731.97
578.042	24072.08
578.403	24032.53
578.763	24065.75
579.124	24280.21
579.485	24452.63
579.845	24588
580.206	24684.27
580.566	24811.27
580.927	24940.3
581.287	25228.43
581.648	25312.5
582.008	25557.24
582.368	25675.65
582.728	25842.43
583.089	25921.75
583.449	26095.98
583.809	26278.12
584.169	26507.27
584.529	26737.32
584.889	26948.84
585.249	27031.78
585.609	27140.7
585.969	27576.39
586.329	27557.41
586.688	27798.31
587.048	28060.45
587.408	28127.79
587.768	28394.9
588.127	28550.15
588.487	28697.72
588.846	29135.22
589.206	29092.96
589.565	29415.22
589.925	29754.64
590.284	29974.52
590.643	30014.3
591.003	30276.89
591.362	30616.09
591.721	30598.46
592.08	30917.77
592.44	31200.93
592.799	31418.78
593.158	31439.34
593.517	31735.83
593.876	32089.27
594.235	32103.96
594.593	32387.79
594.952	32676.6
595.311	32736.26
595.67	32818.06
596.029	33239.97
596.387	33477.93
596.746	33585.05
597.104	33684.48
597.463	33869.56
597.822	34176.9
598.18	34088.76
598.538	34413.28
598.897	34624.8
599.255	34619.82
599.613	35325.79
599.972	35133.03
600.33	35486.92
600.688	35462.06
601.046	35673.13
601.404	35977.98
601.762	35993.35
602.12	36389.72
602.478	36428.59
602.836	36741.8
603.194	36649.83
603.552	36792.65
603.91	36740.45
604.268	37142.92
604.625	37163.26
604.983	37454.55
605.341	37455
605.698	37713.08
606.056	37916.01
606.413	37991.26
606.771	38132.27
607.128	38374.98
607.485	38201.42
607.843	38379.27
608.2	38780.17
608.557	38881.86
608.914	38936.77
609.272	39302.64
609.629	39257.89
609.986	39473.48
610.343	39474.16
610.7	39661.73
611.057	39830.99
611.414	39774.94
611.771	39942.4
612.127	40198.21
612.484	40198.21
612.841	40409.28
613.198	40307.81
613.554	40335.38
613.911	40677.29
614.267	40833.9
614.624	40816.27
614.98	41017.4
615.337	41117.51
615.693	41192.31
616.05	41242.47
616.406	41498.74
616.762	41340.1
617.118	41395.92
617.475	41619.64
617.831	41642.01
618.187	41879.29
618.543	42015.34
618.899	42195.44
619.255	42084.03
619.611	42179.17
619.967	42235.9
620.323	42514.31
620.678	42386.63
621.034	42314.99
621.39	42325.38
621.746	42335.1
622.101	42891.02
622.457	42486.96
622.812	42743.9
623.168	42853.28
623.523	42888.31
623.879	42868.42
624.234	42787.75
624.589	43008.53
624.945	42969.44
625.3	43143.44
625.655	43025.7
626.01	43140.73
626.365	43175.98
626.72	43213.95
627.075	43225.47
627.43	43288.07
627.785	43236.55
628.14	43231.35
628.495	43481.74
628.85	43443.32
629.205	43220.05
629.559	43556.31
629.914	43270.9
630.269	43438.58
630.623	43405.13
630.978	43248.75
631.332	43442.87
631.687	43553.83
632.041	43330.78
632.396	43381.85
632.75	43445.35
633.104	43459.59
633.459	43165.36
633.813	43347.05
634.167	43325.81
634.521	43323.78
634.875	43365.81
635.229	43365.58
635.583	43194.29
635.937	43201.97
636.291	43059.38
636.645	43168.3
636.999	43063.67
637.352	43230.45
637.706	42853.73
638.06	43102.31
638.413	43085.59
638.767	42996.33
639.121	43029.55
639.474	42921.75
639.828	42795.43
640.181	43112.03
640.534	42987.29
640.888	42847.18
641.241	42699.39
641.594	42866.84
641.947	42924.46
642.301	42840.62
642.654	42843.34
643.007	42788.42
643.36	42683.79
643.713	42796.78
644.066	42855.09
644.419	42606.51
644.771	42408.77
645.124	41923.13
645.477	42003.36
645.83	41697.15
646.182	41729.69
646.535	41430.49
646.888	41404.05
647.24	41275.02
647.593	41656.48
647.945	41516.82
648.298	41253.55
648.65	41164.28
649.002	41153.66
649.355	41298.07
649.707	41265.75
650.059	41452.64
650.411	41804.49
650.763	41915.68
651.115	42359.96
651.467	42114.09
651.819	42100.31
652.171	42161.09
652.523	42063.24
652.875	42034.09
653.227	41931.72
653.578	42065.5
653.93	42002.45
654.282	41844.49
654.633	41794.78
654.985	41885.85
655.337	41835.68
655.688	41748.22
656.039	41853.98
656.391	41573.09
656.742	41888.79
657.094	41651.5
657.445	41755
657.796	41847.66
658.147	41685.85
658.498	41793.65
658.849	41770.37
659.2	41678.4
659.551	41524.5
659.902	41682.92
660.253	41603.14
660.604	41737.38
660.955	41555.24
661.306	41573.54
661.656	41594.33
662.007	41592.97
662.358	41545.07
662.708	41630.94
663.059	41492.86
663.409	41308.69
663.76	41586.42
664.11	41541.45
664.461	41601.11
664.811	41589.81
665.161	41555.24
665.511	41491.73
665.862	41412.64
666.212	41740.99
666.562	41512.52
666.912	41569.7
667.262	41441.34
667.612	41545.74
667.962	41570.15
668.312	41442.02
668.662	41562.01
669.011	41487.89
669.361	41356.37
669.711	41371.74
670.06	41498.06
670.41	41270.72
670.76	41199.54
671.109	41410.83
671.459	41271.4
671.808	41122.25
672.157	41262.59
672.507	40993.89
672.856	41107.34
673.205	41174.45
673.554	41188.01
673.904	41043.38
674.253	41279.31
674.602	41121.8
674.951	40568.37
675.3	40412.21
675.649	41032.08
675.998	41033.67
676.346	41009.94
676.695	40933.1
677.044	40675.71
677.393	40946.66
677.741	41025.08
678.09	40860.56
678.438	40671.87
678.787	40850.39
679.135	40777.4
679.484	40651.08
679.832	40697.18
680.181	40469.39
680.529	40610.85
680.877	40418.77
681.225	40409.5
681.573	40669.38
681.922	40355.94
682.27	40213.35
682.618	40357.3
682.966	40216.97
683.314	40327.24
683.661	40193.46
684.009	39942.62
684.357	39966.8
684.705	39848.84
685.053	39933.81
685.4	39827.37
685.748	39586.25
686.095	39638.68
686.443	39628.96
686.79	39558.68
687.138	39570.88
687.485	39547.83
687.832	39449.08
688.18	39446.59
688.527	39273.49
688.874	39209.99
689.221	39031.46
689.568	39030.78
689.915	38911.01
690.262	38946.04
690.609	38781.97
690.956	38576.1
691.303	38618.36
691.65	38455.43
691.997	38503.56
692.344	38294.76
692.69	38302.89
693.037	38346.73
693.383	37922.11
693.73	38247.53
694.077	37834.43
694.423	37853.41
694.769	37758.05
695.116	37669.24
695.462	37577.94
695.808	37440.77
696.155	37628.33
696.501	37281.68
696.847	37359.64
697.193	37029.48
697.539	37086.2
697.885	36926.43
698.231	36815.92
698.577	36825.64
698.923	36603.73
699.269	36545.2
699.614	36378.42
699.96	36327.12
700.306	36369.83
700.651	36184.3
700.997	36184.98
701.342	35986.57
701.688	35976.17
702.033	35759
702.379	35846.68
702.724	35724.43
703.069	35758.78
703.415	35336.87
703.76	35381.39
704.105	35269.75
704.45	35184.78
704.795	34989.76
705.14	34940.27
705.485	35017.55
705.83	34832.7
706.175	34852.13
706.52	34742.53
706.865	34683.33
707.209	34661.86
707.554	34486.72
707.899	34581.63
708.243	34338.7
708.588	34324.69
708.932	34075.43
709.277	34220.29
709.621	34074.3
709.966	33867.75
710.31	34105.71
710.654	33642.22
710.998	33861.2
711.342	33861.2
711.687	33679.51
712.031	33437.48
712.375	33383.25
712.719	33498.72
713.063	33307.54
713.407	33508.44
713.75	33337.37
714.094	33214.21
714.438	33093.99
714.782	33143.48
715.125	32883.15
715.469	33051.73
715.812	32825.3
716.156	32683.6
716.499	32742.13
716.843	32713.21
717.186	32501.69
717.53	32717.5
717.873	32668.69
718.216	32464.17
718.559	32445.42
718.902	32167.23
719.246	32278.64
719.589	32232.09
719.932	31966.79
720.275	32032.1
720.617	31870.97
720.96	31970.18
721.303	31995.94
721.646	31827.58
721.989	31760.46
722.331	31840.46
722.674	31718.66
723.016	31684.76
723.359	31474.37
723.701	31611.09
724.044	31424.65
724.386	31320.7
724.729	31464.65
725.071	31270.76
725.413	31378.78
725.755	31243.42
726.097	31187.37
726.439	30967.94
726.782	31118
727.124	31205
727.465	30985.12
727.807	30931.33
728.149	30912.13
728.491	30716.2
728.833	30786.93
729.175	30731.79
729.516	30698.8
729.858	30626.48
730.199	30677.1
730.541	30623.55
730.882	30532.93
731.224	30551.46
731.565	30540.38
731.906	30435.75
732.248	30413.61
732.589	30215.42
732.93	30147.17
733.271	30116.89
733.612	30250.22
733.953	30273.5
734.294	29984.01
734.635	29929.55
734.976	30097.68
735.317	29803
735.658	29984.69
735.999	29850.46
736.339	29835.32
736.68	29892.49
737.021	29763.91
737.361	29638.94
737.702	29869.44
738.042	29689.33
738.383	29579.28
738.723	29728.88
739.063	29550.8
739.404	29533.18
739.744	29536.34
740.084	29300.42
740.424	29320.53
740.764	29316.46
741.104	29488.89
741.444	29199.4
741.784	29118.27
742.124	29132.96
742.464	29119.63
742.804	29105.84
743.143	28995.79
743.483	29040.54
743.823	28875.34
744.162	28713.31
744.502	28932.74
744.841	28778.17
745.181	28909.01
745.52	28663.14
745.86	28797.83
746.199	28722.35
746.538	28561.23
746.877	28663.6
747.216	28680.77
747.556	28569.59
747.895	28599.64
748.234	28403.49
748.573	28523.49
748.911	28344.51
749.25	28417.95
749.589	28207.34
749.928	28277.39
750.267	28131.41
750.605	28267.9
750.944	28027.68
751.283	27885.76
751.621	28033.56
751.96	27877.85
752.298	27841.47
752.636	27909.72
752.975	27758.99
753.313	27516.73
753.651	27763.73
753.989	27575.04
754.327	27508.82
754.666	27244.88
755.004	27472.89
755.342	27458.43
755.679	27257.31
756.017	27257.53
756.355	27296.17
756.693	27079.91
757.031	27324.2
757.368	26977.99
757.706	26985.45
758.044	26863.42
758.381	26964.88
758.719	26733.03
759.056	26844.21
759.394	26740.26
759.731	26566.48
760.068	26570.09
760.405	26378.46
760.743	26334.84
761.08	26440.38
761.417	26202.64
761.754	26201.06
762.091	26192.7
762.428	26088.75
762.765	25864.8
763.102	25941.18
763.438	25737.8
763.775	25690.12
764.112	25721.98
764.449	25700.74
764.785	25490.35
765.122	25385.94
765.458	25357.24
765.795	25230.47
766.131	25313.4
766.467	25180.98
766.804	24979.63
767.14	24931.04
767.476	24999.29
767.812	24772.4
768.148	24815.34
768.485	24709.35
768.821	24497.83
769.157	24406.08
769.492	24508.68
769.828	24405.63
770.164	24298.51
770.5	24151.4
770.836	24190.27
771.171	23981.91
771.507	23889.03
771.842	23770.17
772.178	23698.76
772.513	23743.73
772.849	23597.06
773.184	23464.19
773.519	23639.77
773.855	23403.17
774.19	23424.41
774.525	23306.45
774.86	23241.82
775.195	23274.13
775.53	22968.38
775.865	22910.3
776.2	22716.86
776.535	22700.59
776.87	22539.46
777.205	22513.25
777.539	22401.16
777.874	22503.53
778.209	22280.26
778.543	22227.38
778.878	22119.81
779.212	22163.65
779.547	21889.31
779.881	22008.18
780.215	21820.84
780.55	21858.8
780.884	21701.07
781.218	21617.45
781.552	21637.79
781.886	21532.26
782.22	21420.4
782.554	21294.98
782.888	21155.55
783.222	21087.98
783.556	20981.09
783.889	20979.5
784.223	20786.06
784.557	20780.19
784.89	20809.57
785.224	20645.05
785.557	20599.4
785.891	20514.43
786.224	20482.57
786.558	20340.65
786.891	20193.31
787.224	20268.34
787.557	20136.14
787.891	20074.22
788.224	19986.54
788.557	20051.39
788.89	19979.98
789.223	19869.03
789.556	19804.17
789.888	19723.49
790.221	19645.75
790.554	19568.47
790.887	19457.74
791.219	19353.33
791.552	19319.21
791.884	19232.21
792.217	19144.3
792.549	19000.12
792.882	19118.54
793.214	18862.27
793.546	18940.69
793.879	18904.98
794.211	18744.99
794.543	18818.43
794.875	18739.11
795.207	18735.95
795.539	18650.98
795.871	18538.89
796.203	18358.1
796.535	18432.45
796.867	18396.75
797.198	18285.79
797.53	18344.77
797.862	18014.16
798.193	18210.54
798.525	18048.73
798.856	18088.73
799.188	17722.87
799.519	17775.52
799.85	17742.75
800.182	17757.44
800.513	17741.4
800.844	17560.39
801.175	17693.26
801.506	17637.67
801.837	17512.48
802.168	17437.23
802.499	17345.02
802.83	17277.91
803.161	17238.81
803.491	17243.78
803.822	17257.12
804.153	17110.23
804.483	16967.18
804.814	16931.02
805.145	16985.49
805.475	16955.2
805.805	16850.12
806.136	16818.94
806.466	16882.21
806.796	16816.45
807.126	16609.45
807.457	16608.55
807.787	16519.96
808.117	16464.82
808.447	16489.45
808.777	16402.9
809.107	16426.18
809.436	16312.06
809.766	16330.14
810.096	16275.67
810.426	16210.14
810.755	16174.43
811.085	16146.86
811.414	16130.37
811.744	16054.21
812.073	16002.01
812.403	15962.46
812.732	15756.59
813.061	15844.95
813.39	15833.43
813.719	15800.43
814.049	15745.74
814.378	15672.53
814.707	15664.39
815.036	15532.64
815.365	15590.95
815.693	15416.71
816.022	15397.05
816.351	15383.27
816.68	15258.98
817.008	15358.18
817.337	15233.44
817.665	15185.76
817.994	15204.29
818.322	15247.45
818.651	15089.49
818.979	15029.6
819.307	15082.71
819.636	15056.04
819.964	14893.34
820.292	15029.83
820.62	14944.86
820.948	14903.96
821.276	14961.58
821.604	14984.41
821.932	14941.92
822.259	14889.72
822.587	14856.73
822.915	14904.86
823.243	14865.99
823.57	14882.49
823.898	14900.79
824.225	14770.63
824.553	14883.39
824.88	14810.85
825.207	14823.28
825.535	14761.14
825.862	14815.83
826.189	14777.63
826.516	14830.06
826.843	14869.16
827.17	14841.36
827.497	14875.94
827.824	14931.08
828.151	14870.74
828.478	14931.08
828.805	14831.42
829.131	14812.66
829.458	14843.4
829.785	14714.36
830.111	14728.14
830.438	14884.75
830.764	14778.76
831.09	14838.42
831.417	14711.42
831.743	14892.21
832.069	14786.9
832.395	14656.06
832.722	14777.18
833.048	14687.92
833.374	14689.73
833.7	14620.35
834.026	14641.37
834.351	14675.72
834.677	14600.92
835.003	14677.98
835.329	14667.13
835.654	14631.42
835.98	14573.8
836.306	14539.9
836.631	14442.05
836.956	14552.78
837.282	14518.43
837.607	14388.94
837.932	14387.14
838.258	14463.29
838.583	14425.55
838.908	14300.58
839.233	14383.29
839.558	14328.38
839.883	14209.06
840.208	14182.62
840.533	14225.78
840.858	14261.72
841.182	14236.41
841.507	14197.99
841.832	14126.13
842.156	14136.52
842.481	14003.19
842.805	14056.75
843.13	14033.7
843.454	13910.31
843.778	13886.58
844.103	13926.13
844.427	13861.95
844.751	13851.1
845.075	13845.68
845.399	13757.32
845.723	13636.2
846.047	13718.23
846.371	13609.08
846.695	13542.19
847.019	13392.81
847.343	13479.36
847.666	13409.31
847.99	13298.35
848.313	13366.82
848.637	13174.51
848.96	13144.46
849.284	13171.57
849.607	13054.06
849.931	13073.27
850.254	12980.62
850.577	12893.84
850.9	12713.06
851.223	12761.19
851.546	12677.12
851.869	12643.45
852.192	12710.12
852.515	12627.18
852.838	12546.28
853.161	12570.01
853.483	12434.87
853.806	12453.85
854.129	12414.53
854.451	12312.84
854.774	12323.69
855.096	12258.6
855.419	12130.25
855.741	12223.58
856.063	12078.5
856.385	12058.84
856.708	12109.68
857.03	12065.39
857.352	12008.44
857.674	11930.7
857.996	11838.73
858.318	11853.87
858.64	11851.16
858.961	11851.84
859.283	11760.99
859.605	11645.51
859.926	11761.89
860.248	11770.03
860.57	11592.63
860.891	11567.32
861.212	11551.73
861.534	11595.57
861.855	11568
862.176	11519.64
862.498	11530.49
862.819	11589.47
863.14	11454.78
863.461	11451.85
863.782	11351.51
864.103	11398.06
864.424	11365.75
864.745	11403.49
865.065	11274
865.386	11286.88
865.707	11322.13
866.027	11248.91
866.348	11212.98
866.668	11212.76
866.989	11170.27
867.309	11138.63
867.63	11191.97
867.95	11130.72
868.27	11126.88
868.59	11118.07
868.91	11059.31
869.23	11028.81
869.55	10985.87
869.87	11066.09
870.19	10964.4
870.51	11018.86
870.83	11031.29
871.15	10957.62
871.469	10914.23
871.789	10907.23
872.109	10898.87
872.428	10843.27
872.748	10910.39
873.067	10842.82
873.386	10883.05
873.706	10868.81
874.025	10779.32
874.344	10784.52
874.663	10838.53
874.982	10720.79
875.301	10745.88
875.62	10633.56
875.939	10602.15
876.258	10669.95
876.577	10612.32
876.896	10618.87
877.214	10575.26
877.533	10570.06
877.852	10579.1
878.17	10573.22
878.489	10568.93
878.807	10527.35
879.125	10546.11
879.444	10457.97
879.762	10447.58
880.08	10530.74
880.398	10378.43
880.716	10344.53
881.034	10368.26
881.352	10415.49
881.67	10393.34
881.988	10311.76
882.306	10372.33
882.624	10260.69
882.941	10274.7
883.259	10247.81
883.577	10144.31
883.894	10150.64
884.212	10157.64
884.529	10195.16
884.846	10118.1
885.164	10084.42
885.481	10092.11
885.798	10060.02
886.115	9999.23
886.432	10023.41
886.75	9957.42
887.067	9975.73
887.383	9887.14
887.7	9917.42
888.017	9895.5
888.334	9911.1
888.651	9842.4
888.967	9764.21
889.284	9776.64
889.6	9691.67
889.917	9650.31
890.233	9677.66
890.55	9638.79
890.866	9674.49
891.182	9583.19
891.498	9549.3
891.815	9576.19
892.131	9507.94
892.447	9460.49
892.763	9465.23
893.079	9453.48
893.395	9406.25
893.71	9352.01
894.026	9338.46
894.342	9326.03
894.657	9238.34
894.973	9242.41
895.289	9298.68
895.604	9302.3
895.92	9181.85
896.235	9137.56
896.55	9095.07
896.865	9084.45
897.181	9104.34
897.496	9077.67
897.811	8974.4
898.126	8972.36
898.441	8889.2
898.756	8916.55
899.071	8838.81
899.386	8888.52
899.7	8817.56
900.015	8797.23
900.33	8716.55
900.644	8764.23
900.959	8653.95
901.273	8664.35
901.588	8619.15
901.902	8550.45
902.216	8521.08
902.531	8537.35
902.845	8490.12
903.159	8465.03
903.473	8439.27
903.787	8390.01
904.101	8397.69
904.415	8317.24
904.729	8319.95
905.042	8293.96
905.356	8251.03
905.67	8261.42
905.984	8198.82
906.297	8127.41
906.611	8083.35
906.924	8180.52
907.237	8037.92
907.551	8101.43
907.864	8009.22
908.177	8012.16
908.491	8002.44
908.804	7964.93
909.117	7825.73
909.43	7908.44
909.743	7849
910.056	7827.53
910.368	7785.05
910.681	7769.46
910.994	7711.83
911.307	7682
911.619	7602
911.932	7601.78
912.244	7510.03
912.557	7599.07
912.869	7481.1
913.181	7379.41
913.494	7493.98
913.806	7395.23
914.118	7367.89
914.43	7341.22
914.742	7262.58
915.054	7318.62
915.366	7215.57
915.678	7207.89
915.99	7173.77
916.302	7152.3
916.613	7097.84
916.925	7118.85
917.236	7076.37
917.548	7069.59
917.859	7057.84
918.171	7016.71
918.482	6949.59
918.794	6943.72
919.105	6927.9
919.416	6871.4
919.727	6839.54
920.038	6846.77
920.349	6749.82
920.66	6703.95
920.971	6749.82
921.282	6714.8
921.593	6666.21
921.903	6641.58
922.214	6595.02
922.525	6581.92
922.835	6594.8
923.146	6522.71
923.456	6530.17
923.767	6442.49
924.077	6429.15
924.387	6448.36
924.697	6357.74
925.008	6406.55
925.318	6329.04
925.628	6317.74
925.938	6333.11
926.248	6265.09
926.558	6210.18
926.867	6155.49
927.177	6167.01
927.487	6172.44
927.796	6102.61
928.106	6093.57
928.416	6082.27
928.725	6055.15
929.034	5987.13
929.344	6010.41
929.653	5990.07
929.962	5908.04
930.271	5931.31
930.581	5855.61
930.89	5855.61
931.199	5840.24
931.508	5802.95
931.817	5838.89
932.125	5729.51
932.434	5777.19
932.743	5674.14
933.051	5685.44
933.36	5662.62
933.669	5615.62
933.977	5616.52
934.286	5594.6
934.594	5579.01
934.902	5464.88
935.21	5473.92
935.519	5510.31
935.827	5534.04
936.135	5474.15
936.443	5387.82
936.751	5424.43
937.059	5387.37
937.367	5358.22
937.674	5329.97
937.982	5329.75
938.29	5338.79
938.597	5315.96
938.905	5226.02
939.213	5218.34
939.52	5165.23
939.827	5248.39
940.135	5180.6
940.442	5149.86
940.749	5097.44
941.056	5144.44
941.363	5021.73
941.67	5036.87
941.977	5078.68
942.284	5033.03
942.591	5016.31
942.898	4966.82
943.205	4985.12
943.511	4898.12
943.818	4901.51
944.125	4877.78
944.431	4852.7
944.738	4851.57
945.044	4803.43
945.35	4801.63
945.657	4737.22
945.963	4764.34
946.269	4720.05
946.575	4728.18
946.881	4713.27
947.187	4718.01
947.493	4700.38
947.799	4628.52
948.105	4564.57
948.41	4587.85
948.716	4648.18
949.022	4547.17
949.327	4544.68
949.633	4506.72
949.938	4506.04
950.244	4472.37
950.549	4479.15
950.854	4453.39
951.16	4417.68
951.465	4377.46
951.77	4377.91
952.075	4385.82
952.38	4324.35
952.685	4347.17
952.99	4309.66
953.294	4275.54
953.599	4261.53
953.904	4224.69
954.209	4208.87
954.513	4218.36
954.818	4159.61
955.122	4178.36
955.426	4188.08
955.731	4172.72
956.035	4081.87
956.339	4082.55
956.643	4094.75
956.948	4047.29
957.252	4049.1
957.556	4028.09
957.86	4036
958.163	4000.29
958.467	3941.53
958.771	3940.86
959.075	4007.75
959.378	3938.37
959.682	3936.79
959.985	3901.76
960.289	3889.78
960.592	3876.9
960.896	3809.79
961.199	3826.06
961.502	3818.6
961.805	3773.63
962.108	3755.32
962.411	3744.03
962.714	3695.89
963.017	3751.94
963.32	3727.98
963.623	3705.38
963.926	3690.69
964.228	3671.94
964.531	3654.08
964.833	3654.54
965.136	3632.16
965.438	3589.23
965.741	3610.02
966.043	3550.13
966.345	3570.02
966.648	3520.98
966.95	3528.21
967.252	3521.43
967.554	3509.68
967.856	3498.61
968.158	3442.11
968.46	3456.12
968.761	3465.39
969.063	3378.84
969.365	3404.15
969.666	3356.01
969.968	3368.67
970.269	3385.62
970.571	3347.43
970.872	3342.68
971.174	3297.71
971.475	3334.55
971.776	3308.33
972.077	3250.25
972.378	3257.03
972.679	3238.5
972.98	3235.79
973.281	3188.56
973.582	3201.89
973.883	3172.97
974.183	3175.45
974.484	3163.93
974.785	3172.52
975.085	3156.7
975.386	3138.17
975.686	3118.05
975.986	3074.66
976.287	3121.22
976.587	3012.07
976.887	3057.94
977.187	3023.59
977.487	3037.38
977.787	2963.26
978.087	3002.12
978.387	3011.39
978.687	2926.87
978.987	2934.78
979.286	2948.34
979.586	2927.32
979.885	2926.65
980.185	2890.71
980.484	2878.06
980.784	2880.32
981.083	2907.89
981.382	2828.8
981.682	2881
981.981	2831.51
982.28	2798.29
982.579	2798.29
982.878	2785.63
983.177	2801.45
983.475	2780.44
983.774	2790.83
984.073	2726.2
984.372	2718.29
984.67	2723.26
984.969	2730.49
985.267	2693.43
985.566	2701.34
985.864	2686.2
986.162	2705.86
986.461	2663.83
986.759	2638.29
987.057	2596.49
987.355	2598.07
987.653	2610.04
987.951	2584.28
988.249	2556.03
988.547	2578.86
988.844	2537.05
989.142	2545.41
989.44	2532.98
989.737	2511.06
990.035	2507.22
990.332	2484.17
990.63	2473.32
990.927	2477.39
991.224	2476.94
991.521	2429.94
991.819	2425.64
992.116	2410.5
992.413	2443.27
992.71	2383.84
993.006	2346.1
993.303	2385.42
993.6	2378.19
993.897	2364.4
994.193	2349.94
994.49	2341.58
994.787	2357.4
995.083	2311.3
995.379	2308.81
995.676	2303.39
995.972	2290.28
996.268	2289.37
996.565	2255.93
996.861	2238.98
997.157	2255.93
997.453	2225.42
997.749	2222.71
998.044	2194.24
998.34	2221.13
998.636	2194.24
998.932	2167.34
999.227	2181.81
999.523	2161.92
999.818	2156.27
1000.114	2107.68
1000.409	2126.67
1000.704	2081.02
1001	2088.93
1001.295	2104.07
1001.59	2077.4
1001.885	2050.29
1002.18	2048.03
1002.475	2041.7
1002.77	2044.18
1003.065	2028.82
1003.359	1995.15
1003.654	1977.74
1003.949	1971.19
1004.243	1998.54
1004.538	1945.88
1004.832	1978.87
1005.127	1930.29
1005.421	1932.32
1005.715	1941.59
1006.009	1941.36
1006.304	1903.85
1006.598	1863.85
1006.892	1870.63
1007.186	1864.98
1007.48	1865.88
1007.773	1870.63
1008.067	1861.14
1008.361	1831.08
1008.655	1824.08
1008.948	1806.9
1009.242	1811.65
1009.535	1790.86
1009.829	1778.43
1010.122	1757.19
1010.415	1754.25
1010.708	1753.34
1011.001	1733.46
1011.295	1726
1011.588	1726.45
1011.881	1680.8
1012.173	1665.66
1012.466	1700.01
1012.759	1654.59
1013.052	1696.62
1013.344	1684.64
1013.637	1650.97
1013.93	1625.89
1014.222	1627.02
1014.514	1636.74
1014.807	1634.25
1015.099	1603.52
1015.391	1594.93
1015.683	1567.81
1015.976	1555.38
1016.268	1565.1
1016.56	1557.64
1016.851	1532.11
1017.143	1536.85
1017.435	1537.3
1017.727	1530.07
1018.018	1524.65
1018.31	1526.01
1018.602	1479.45
1018.893	1468.15
1019.185	1475.61
1019.476	1480.36
1019.767	1444.43
1020.058	1456.18
1020.35	1428.83
1020.641	1436.97
1020.932	1432
1021.223	1390.42
1021.514	1384.77
1021.804	1394.48
1022.095	1385.22
1022.386	1389.51
1022.677	1373.47
1022.967	1381.38
1023.258	1336.18
1023.548	1342.06
1023.839	1334.6
1024.129	1293.24
1024.419	1313.36
1024.709	1293.92
1025	1286.69
1025.29	1289.85
1025.58	1264.77
1025.87	1280.36
1026.16	1249.85
1026.449	1246.01
1026.739	1246.01
1027.029	1229.52
1027.319	1213.24
1027.608	1224.77
1027.898	1188.39
1028.187	1209.4
1028.477	1187.48
1028.766	1169.86
1029.055	1177.54
1029.344	1164.88
1029.634	1179.12
1029.923	1188.84
1030.212	1138.22
1030.501	1186.35
1030.79	1154.49
1031.078	1136.64
1031.367	1149.52
1031.656	1109.07
1031.945	1107.03
1032.233	1087.37
1032.522	1070.88
1032.81	1078.56
1033.099	1090.54
1033.387	1091.44
1033.675	1074.49
1033.963	1048.96
1034.251	1068.84
1034.54	1045.11
1034.828	1019.8
1035.116	1048.5
1035.403	1038.79
1035.691	1041.27
1035.979	1035.17
1036.267	991.56
1036.554	1003.76
1036.842	1009.63
1037.129	987.49
1037.417	973.25
1037.704	972.35
1037.992	966.92
1038.279	969.18
1038.566	956.98
1038.853	956.98
1039.14	956.98
