Data from hue_32_FLMS001491_00020.txt Node
Date: Tue Feb 07 17:22:59 GMT 2017
User: dcchb
Spectrometer: FLMS00149
Trigger mode: 0
Integration Time (sec): 2.000000E-2
Scans to average: 10
Electric dark correction enabled: true
Nonlinearity correction enabled: false
Boxcar width: 0
XAxis mode: Wavelengths
Number of Pixels in Spectrum: 2048
>>>>>Begin Spectral Data<<<<<
341.393	-24.75
341.776	-24.75
342.16	-24.75
342.543	-48.47
342.927	-63.61
343.31	-84.63
343.693	-83.73
344.077	-62.03
344.46	-60.22
344.843	-63.61
345.226	-45.08
345.61	-37.4
345.993	-9.38
346.376	-13.67
346.759	18.42
347.142	42.82
347.525	38.53
347.908	59.32
348.291	62.03
348.674	105.87
349.057	132.76
349.44	123.5
349.823	156.49
350.206	161.24
350.588	207.57
350.971	229.26
351.354	238.07
351.737	242.37
352.119	274.23
352.502	271.29
352.884	304.51
353.267	289.37
353.65	309.26
354.032	311.97
354.414	314.46
354.797	336.38
355.179	322.82
355.562	328.69
355.944	317.39
356.326	334.57
356.709	349.93
357.091	347.9
357.473	353.1
357.855	352.87
358.238	361.91
358.62	367.33
359.002	344.28
359.384	329.82
359.766	347.9
360.148	349.26
360.53	343.15
360.912	349.48
361.294	326.88
361.676	334.57
362.057	319.43
362.439	334.57
362.821	361.69
363.203	318.52
363.584	322.14
363.966	329.6
364.348	337.51
364.729	351.06
365.111	341.57
365.493	347.67
365.874	322.59
366.256	318.75
366.637	299.54
367.019	317.84
367.4	334.34
367.781	317.62
368.163	328.92
368.544	311.74
368.925	348.13
369.306	335.92
369.688	322.82
370.069	331.63
370.45	313.33
370.831	345.64
371.212	310.39
371.593	320.33
371.974	307.9
372.355	337.96
372.736	338.86
373.117	322.59
373.498	319.65
373.879	333.21
374.26	309.48
374.641	297.05
375.021	332.76
375.402	309.26
375.783	340.89
376.163	330.73
376.544	341.8
376.925	321.69
377.305	324.17
377.686	321.46
378.066	330.95
378.447	335.47
378.827	324.4
379.208	337.28
379.588	334.34
379.968	339.09
380.349	331.4
380.729	341.12
381.109	339.77
381.489	348.58
381.87	333.66
382.25	358.97
382.63	347
383.01	341.57
383.39	357.39
383.77	365.3
384.15	353.32
384.53	355.81
384.91	358.75
385.29	354.45
385.67	353.55
386.049	367.79
386.429	352.65
386.809	367.79
387.189	365.75
387.568	367.33
387.948	366.21
388.328	355.81
388.707	374.11
389.087	375.47
389.466	370.72
389.846	392.65
390.225	389.26
390.605	373.89
390.984	365.3
391.363	366.21
391.743	377.96
392.122	385.19
392.501	389.48
392.881	395.58
393.26	392.42
393.639	376.15
394.018	384.51
394.397	409.37
394.776	398.07
395.155	392.87
395.534	362.14
395.913	399.2
396.292	411.4
396.671	392.19
397.05	401.23
397.429	388.35
397.808	399.88
398.186	389.48
398.565	384.28
398.944	426.99
399.323	405.98
399.701	410.72
400.08	403.49
400.458	398.07
400.837	408.24
401.215	415.24
401.594	417.05
401.972	400.1
402.351	418.18
402.729	397.84
403.107	438.97
403.486	421.8
403.864	416.37
404.242	418.63
404.62	463.15
404.999	422.7
405.377	443.04
405.755	425.19
406.133	420.21
406.511	426.09
406.889	437.39
407.267	444.17
407.645	453.43
408.023	446.65
408.401	449.59
408.779	445.3
409.156	432.19
409.534	444.62
409.912	478.07
410.29	481.23
410.667	446.65
411.045	487.78
411.422	461.34
411.8	460.44
412.178	471.74
412.555	500.66
412.933	467.45
413.31	489.37
413.687	477.61
414.065	483.04
414.442	479.2
414.819	491.4
415.197	486.65
415.574	495.69
415.951	497.28
416.328	517.16
416.705	517.39
417.082	507.44
417.46	523.72
417.837	506.09
418.214	526.65
418.591	520.78
418.967	518.07
419.344	543.38
419.721	530.95
420.098	528.91
420.475	555.13
420.852	546.31
421.228	532.53
421.605	561.68
421.982	563.94
422.358	546.09
422.735	554.22
423.111	564.62
423.488	553.54
423.864	570.04
424.241	578.85
424.617	583.6
424.994	558.52
425.37	568.69
425.746	583.15
426.123	589.25
426.499	565.52
426.875	591.74
427.251	594.45
427.627	585.18
428.003	591.28
428.379	610.04
428.756	632.19
429.132	628.57
429.507	618.18
429.883	615.24
430.259	627.22
430.635	645.29
431.011	633.32
431.387	629.7
431.763	636.03
432.138	667.89
432.514	667.21
432.89	659.53
433.265	689.81
433.641	672.19
434.016	680.1
434.392	709.02
434.767	695.01
435.143	692.75
435.518	714.22
435.894	692.07
436.269	723.48
436.644	711.51
437.02	733.43
437.395	721.45
437.77	716.7
438.145	750.38
438.52	751.51
438.895	754.22
439.271	761.45
439.646	769.36
440.021	762.13
440.395	782.01
440.77	785.4
441.145	777.72
441.52	772.97
441.895	791.28
442.27	809.58
442.645	796.48
443.019	797.38
443.394	817.04
443.769	818.62
444.143	819.07
444.518	820.2
444.892	797.15
445.267	843.93
445.641	822.69
446.016	818.17
446.39	848.45
446.764	855.23
447.139	836.93
447.513	836.7
447.887	870.6
448.262	852.52
448.636	866.98
449.01	871.05
449.384	881.45
449.758	892.52
450.132	902.46
450.506	902.24
450.88	900.65
451.254	903.59
451.628	920.77
452.002	906.08
452.376	928.68
452.75	929.13
453.123	947.43
453.497	949.47
453.871	968.22
454.244	982.23
454.618	968.45
454.992	952.18
455.365	986.75
455.739	982.46
456.112	1006.87
456.486	1002.57
456.859	1028.56
457.232	1041.22
457.606	1038.05
457.979	1050.48
458.352	1078.95
458.725	1072.85
459.099	1102.23
459.472	1096.58
459.845	1113.98
460.218	1117.6
460.591	1129.12
460.964	1150.82
461.337	1133.19
461.71	1164.6
462.083	1209.57
462.456	1206.18
462.829	1189.46
463.201	1202.79
463.574	1220.19
463.947	1236.92
464.32	1255.9
464.692	1267.2
465.065	1282.11
465.438	1272.62
465.81	1297.25
466.183	1337.48
466.555	1361.43
466.928	1362.11
467.3	1362.79
467.672	1388.33
468.045	1426.29
468.417	1424.48
468.789	1429.91
469.161	1456.8
469.534	1501.09
469.906	1512.39
470.278	1529.34
470.65	1540.86
471.022	1567.3
471.394	1567.76
471.766	1616.57
472.138	1634.65
472.51	1686.4
472.882	1713.29
473.253	1728.2
473.625	1748.54
473.997	1812.49
474.369	1817.92
474.74	1835.54
475.112	1878.03
475.484	1936.11
475.855	1975.65
476.227	1983.11
476.598	2048.87
476.97	2040.06
477.341	2150.11
477.713	2175.42
478.084	2210.22
478.455	2265.36
478.827	2305.36
479.198	2361.18
479.569	2395.3
479.94	2461.52
480.311	2497
480.682	2584
481.053	2623.09
481.424	2724.79
481.795	2745.35
482.166	2797.78
482.537	2852.02
482.908	2928.4
483.279	2981.5
483.65	3063.99
484.021	3165.45
484.391	3242.06
484.762	3256.98
485.133	3306.69
485.503	3386.69
485.874	3494.94
486.244	3590.53
486.615	3619.68
486.985	3724.76
487.356	3836.17
487.726	3871.2
488.097	3939.44
488.467	4061.02
488.837	4160.91
489.207	4274.8
489.578	4258.76
489.948	4383.95
490.318	4432.54
490.688	4563.61
491.058	4613.55
491.428	4720.89
491.798	4755.02
492.168	4900.78
492.538	4972.64
492.908	5055.12
493.278	5160.2
493.648	5202.46
494.017	5300.31
494.387	5311.39
494.757	5453.08
495.126	5498.73
495.496	5557.48
495.866	5639.29
496.235	5729
496.605	5841.77
496.974	5826.17
497.344	5920.18
497.713	6011.25
498.082	6039.73
498.452	6156.11
498.821	6203.34
499.19	6226.62
499.559	6308.87
499.928	6360.62
500.298	6470.9
500.667	6514.52
501.036	6559.71
501.405	6613.95
501.774	6682.42
502.143	6805.81
502.512	6860.05
502.88	6896.65
503.249	6923.09
503.618	7000.15
503.987	7072.7
504.356	7116.31
504.724	7166.25
505.093	7199.02
505.462	7235.4
505.83	7294.16
506.199	7399.69
506.567	7472.23
506.936	7474.94
507.304	7648.73
507.672	7634.04
508.041	7653.47
508.409	7697.09
508.777	7772.34
509.145	7845.33
509.514	7831.32
509.882	7953.8
510.25	7996.74
510.618	8041.48
510.986	8078.77
511.354	8191.99
511.722	8255.94
512.09	8303.17
512.458	8257.52
512.826	8394.47
513.193	8394.92
513.561	8357.41
513.929	8533.45
514.297	8590.4
514.664	8587.23
515.032	8687.12
515.4	8746.78
515.767	8762.59
516.135	8800.11
516.502	8762.14
516.869	8894.12
517.237	8944.06
517.604	8945.19
517.972	8995.58
518.339	9070.38
518.706	9019.31
519.073	9115.81
519.44	9196.93
519.808	9250.49
520.175	9294.78
520.542	9327.55
520.909	9393.76
521.276	9425.18
521.643	9466.3
522.009	9598.05
522.376	9526.64
522.743	9657.26
523.11	9687.77
523.477	9785.84
523.843	9858.61
524.21	9920.08
524.577	9945.39
524.943	10045.72
525.31	10007.53
525.676	10084.14
526.043	10231.26
526.409	10233.97
526.776	10358.94
527.142	10335.89
527.508	10466.05
527.874	10552.6
528.241	10581.3
528.607	10560.97
528.973	10705.59
529.339	10688.19
529.705	10808.19
530.071	10931.13
530.437	10951.24
530.803	10990.56
531.169	11076.43
531.535	11064.68
531.901	11082.76
532.267	11041.86
532.632	11249.76
532.998	11224.45
533.364	11310.1
533.73	11358.68
534.095	11438.46
534.461	11467.16
534.826	11575.63
535.192	11629.64
535.557	11624.67
535.923	11679.81
536.288	11705.34
536.653	11711.22
537.019	11721.39
537.384	11826.69
537.749	11809.75
538.114	11923.19
538.479	11933.58
538.845	11924.77
539.21	11948.27
539.575	12130.19
539.94	12137.42
540.305	12267.36
540.67	12174.26
541.034	12338.32
541.399	12318.43
541.764	12316.85
542.129	12373.12
542.494	12436.85
542.858	12480.01
543.223	12575.83
543.587	12670.51
543.952	12693.56
544.316	12709.38
544.681	12685.88
545.045	12802.26
545.41	12796.16
545.774	12857.4
546.138	12932.2
546.503	12943.95
546.867	13107.11
547.231	13121.12
547.595	13148.47
547.959	13134.23
548.324	13152.54
548.688	13214.23
549.052	13296.49
549.416	13303.04
549.779	13451.06
550.143	13356.37
550.507	13449.02
550.871	13491.96
551.235	13528.34
551.599	13609.02
551.962	13700.54
552.326	13709.13
552.689	13807.89
553.053	13809.02
553.417	13816.02
553.78	14028.67
554.143	13927.88
554.507	13948.9
554.87	14009.24
555.234	14155.9
555.597	14122.23
555.96	14118.39
556.323	14211.26
556.686	14170.14
557.05	14272.05
557.413	14301.88
557.776	14328.1
558.139	14452.61
558.502	14503.91
558.865	14521.77
559.228	14560.63
559.59	14587.53
559.953	14577.36
560.316	14747.52
560.679	14804.47
561.041	14841.08
561.404	15011.24
561.767	15044.69
562.129	14923.79
562.492	15111.81
562.854	15112.71
563.217	15105.7
563.579	15244.01
563.941	15324
564.304	15309.54
564.666	15387.51
565.028	15438.13
565.39	15458.69
565.753	15610.55
566.115	15611
566.477	15751.79
566.839	15711.34
567.201	15821.84
567.563	15820.49
567.925	15866.59
568.287	15915.63
568.648	15998.11
569.01	16063.87
569.372	16168.73
569.734	16075.17
570.095	16247.6
570.457	16275.39
570.819	16395.61
571.18	16434.03
571.542	16585.44
571.903	16567.81
572.265	16664.76
572.626	16758.99
572.987	16852.55
573.349	16852.33
573.71	16968.25
574.071	17037.86
574.432	17135.93
574.794	17434
575.155	17268.36
575.516	17339.09
575.877	17408.92
576.238	17497.51
576.599	17695.69
576.96	17762.81
577.32	17892.3
577.681	17960.32
578.042	18128.9
578.403	18191.95
578.763	18433.75
579.124	18458.38
579.485	18676.01
579.845	18751.48
580.206	18941.08
580.566	18953.06
580.927	19308.76
581.287	19384.69
581.648	19491.35
582.008	19808.63
582.368	20006.37
582.728	20163.2
583.089	20175.63
583.449	20558.67
583.809	20664.43
584.169	20871.2
584.529	20951.65
584.889	21481.36
585.249	21469.38
585.609	21626.66
585.969	21936.03
586.329	22015.58
586.688	22329.92
587.048	22546.19
587.408	22716.13
587.768	22953.41
588.127	23196.57
588.487	23464.58
588.846	23889.43
589.206	23982.31
589.565	24153.83
589.925	24669.07
590.284	24747.48
590.643	25069.74
591.003	25316.28
591.362	25777.29
591.721	25951.75
592.08	26208.92
592.44	26611.39
592.799	26842.35
593.158	27119.4
593.517	27393.74
593.876	27653.85
594.235	27852.49
594.593	28174.06
594.952	28538.8
595.311	28618.34
595.67	29057.88
596.029	29376.29
596.387	29640.24
596.746	29923.17
597.104	30007.01
597.463	30305.98
597.822	30676.14
598.18	30699.64
598.538	31098.96
598.897	31430.47
599.255	31533.75
599.613	32057.12
599.972	32129.21
600.33	32397
600.688	32535.3
601.046	32887.38
601.404	33219.8
601.762	33432.45
602.12	33638.32
602.478	33852.78
602.836	34141.81
603.194	34170.51
603.552	34438.98
603.91	34440.11
604.268	35019.53
604.625	35045.97
604.983	35424.72
605.341	35358.05
605.698	35785.61
606.056	36054.76
606.413	36143.8
606.771	36556.21
607.128	36716.89
607.485	36704.46
607.843	36942.19
608.2	37286.59
608.557	37466.47
608.914	37592.34
609.272	37808.38
609.629	38070.75
609.986	38285.66
610.343	38209.73
610.7	38687.91
611.057	38720.45
611.414	38863.95
611.771	38983.72
612.127	39286.76
612.484	39378.29
612.841	39643.36
613.198	39623.25
613.554	39708.45
613.911	40040.42
614.267	40158.15
614.624	40240.64
614.98	40352.72
615.337	40647.18
615.693	40732.83
616.05	40792.71
616.406	41159.03
616.762	41079.71
617.118	41186.83
617.475	41352.02
617.831	41595.18
618.187	41559.92
618.543	41730.54
618.899	41958.11
619.255	42074.49
619.611	41959.24
619.967	42324.2
620.323	42416.4
620.678	42403.97
621.034	42462.73
621.39	42416.62
621.746	42475.38
622.101	43128.02
622.457	42831.98
622.812	43033.33
623.168	43055.03
623.523	43056.83
623.879	43257.73
624.234	43148.36
624.589	43346.77
624.945	43385.86
625.3	43465.41
625.655	43400.1
626.01	43582.7
626.365	43634.22
626.72	43731.17
627.075	43733.2
627.43	43737.04
627.785	43543.6
628.14	43772.97
628.495	43906.98
628.85	43993.08
629.205	43862.01
629.559	43969.35
629.914	43904.72
630.269	44045.73
630.623	43805.06
630.978	43815.01
631.332	44163.02
631.687	44167.54
632.041	43980.88
632.396	44176.13
632.75	44008.9
633.104	44112.4
633.459	44006.87
633.813	43885.96
634.167	44059.52
634.521	44120.08
634.875	44165.96
635.229	44039.63
635.583	43958.05
635.937	43947.66
636.291	43918.28
636.645	43942.46
636.999	43897.49
637.352	43950.37
637.706	43903.14
638.06	44086.64
638.413	43952.86
638.767	43927.55
639.121	43918.05
639.474	43733.88
639.828	43941.33
640.181	43978.84
640.534	43864.95
640.888	43864.04
641.241	43494.11
641.594	43805.29
641.947	43755.12
642.301	43751.73
642.654	43778.85
643.007	43754.22
643.36	43711.51
643.713	43638.97
644.066	43843.48
644.419	43557.39
644.771	43339.31
645.124	43028.36
645.477	43012.99
645.83	42615.04
646.182	42507.92
646.535	42540.69
646.888	42679.89
647.24	42293.24
647.593	42426.12
647.945	42520.12
648.298	42318.77
648.65	42330.07
649.002	42032.45
649.355	42324.65
649.707	42305.22
650.059	42436.74
650.411	42989.27
650.763	42918.53
651.115	43401.68
651.467	43226.1
651.819	43221.12
652.171	43197.4
652.523	43018.42
652.875	43100.45
653.227	42984.29
653.578	43183.61
653.93	43114.01
654.282	42872.43
654.633	42882.15
654.985	43045.08
655.337	43075.14
655.688	42950.85
656.039	43159.2
656.391	42785.88
656.742	43019.77
657.094	42940.23
657.445	42934.8
657.796	42871.75
658.147	42980.23
658.498	42836.27
658.849	42920.34
659.2	42900
659.551	42711.31
659.902	43012.54
660.253	42703.17
660.604	42904.97
660.955	42671.08
661.306	42808.03
661.656	42731.87
662.007	42827.01
662.358	42853
662.708	42761.93
663.059	42786.33
663.409	42428.6
663.76	42783.62
664.11	42741.36
664.461	42822.49
664.811	42758.31
665.161	42707.69
665.511	42590.18
665.862	42676.05
666.212	42800.12
666.562	42820.23
666.912	42590.18
667.262	42569.84
667.612	42733.23
667.962	42591.54
668.312	42559.9
668.662	42778.65
669.011	42665.88
669.361	42428.6
669.711	42454.36
670.06	42460.92
670.41	42505.21
670.76	42286.23
671.109	42430.41
671.459	42594.47
671.808	42445.1
672.157	42564.42
672.507	42273.13
672.856	42292.79
673.205	42330.98
673.554	42431.77
673.904	42354.71
674.253	42486.45
674.602	42376.63
674.951	41870.65
675.3	41602.63
675.649	42280.81
675.998	42255.05
676.346	42218.66
676.695	42493.91
677.044	42038.33
677.393	42204.2
677.741	42314.48
678.09	42093.02
678.438	42065.67
678.787	42026.58
679.135	42034.26
679.484	41921.72
679.832	41905.45
680.181	41755.63
680.529	42013.25
680.877	41678.57
681.225	41845.57
681.573	41769.18
681.922	41602.86
682.27	41592.47
682.618	41432.02
682.966	41260.5
683.314	41503.88
683.661	41363.55
684.009	41301.85
684.357	41205.81
684.705	41208.97
685.053	41135.98
685.4	41139.6
685.748	40953.84
686.095	40920.62
686.443	40865.25
686.79	40810.11
687.138	40820.73
687.485	40834.52
687.832	40696.9
688.18	40808.53
688.527	40508.2
688.874	40534.41
689.221	40403.8
689.568	40265.27
689.915	40232.95
690.262	40172.84
690.609	40074.54
690.956	39879.06
691.303	40017.14
691.65	39849.01
691.997	39803.36
692.344	39690.59
692.69	39517.94
693.037	39619.41
693.383	39302.58
693.73	39425.97
694.077	39206.54
694.423	39053.78
694.769	38980.11
695.116	38870.73
695.462	38948.24
695.808	38773.56
696.155	39009.48
696.501	38630.51
696.847	38547.35
697.193	38249.95
697.539	38369.05
697.885	38168.83
698.231	38078.89
698.577	38078.89
698.923	37997.76
699.269	37833.47
699.614	37664.66
699.96	37563.87
700.306	37727.93
700.651	37524.78
700.997	37403.88
701.342	37317.1
701.688	37221.28
702.033	37176.99
702.379	37213.6
702.724	37108.52
703.069	37139.93
703.415	36695.87
703.76	36755.98
704.105	36831.91
704.45	36465.14
704.795	36495.88
705.14	36277.58
705.485	36224.25
705.83	36102.21
706.175	36159.39
706.52	36202.1
706.865	36057.7
707.209	35848.66
707.554	35770.7
707.899	35872.62
708.243	35589.69
708.588	35475.56
708.932	35423.14
709.277	35311.73
709.621	35401.89
709.966	35104.5
710.31	35153.09
710.654	34970.72
710.998	34997.61
711.342	35072.86
711.687	34791.06
712.031	34780.22
712.375	34589.94
712.719	34707.9
713.063	34658.86
713.407	34807.11
713.75	34365.76
714.094	34431.98
714.438	34358.53
714.782	34434.46
715.125	34250.51
715.469	34351.3
715.812	33999.9
716.156	34007.58
716.499	34101.82
716.843	34133.23
717.186	33749.96
717.53	33910.41
717.873	34017.52
718.216	33682.17
718.559	33629.51
718.902	33360.59
719.246	33605.56
719.589	33367.6
719.932	33170.31
720.275	33368.5
720.617	33175.29
720.96	33255.28
721.303	33157.43
721.646	33164.21
721.989	32949.76
722.331	33072.46
722.674	33038.79
723.016	33073.82
723.359	32907.72
723.701	33007.15
724.044	32694.17
724.386	32500.73
724.729	32831.11
725.071	32546.6
725.413	32563.55
725.755	32540.05
726.097	32350.9
726.439	32156.1
726.782	32260.06
727.124	32424.57
727.465	32140.06
727.807	32159.72
728.149	32077.46
728.491	32031.59
728.833	32105.26
729.175	31968.54
729.516	32071.36
729.858	31962.89
730.199	31921.08
730.541	31756.11
730.882	31723.57
731.224	31848.09
731.565	31559.28
731.906	31744.82
732.248	31690.58
732.589	31448.78
732.93	31460.3
733.271	31344.6
733.612	31496.01
733.953	31543.69
734.294	31396.35
734.635	31225.73
734.976	31354.32
735.317	31142.57
735.658	31124.94
735.999	31136.24
736.339	31057.38
736.68	31073.87
737.021	31016.47
737.361	30826.65
737.702	31007.89
738.042	30995
738.383	30825.52
738.723	30873.43
739.063	30774.9
739.404	30727.21
739.744	30806.53
740.084	30576.48
740.424	30647.89
740.764	30593.21
741.104	30529.93
741.444	30355.02
741.784	30380.78
742.124	30393.21
742.464	30429.82
742.804	30340.56
743.143	30203.84
743.483	30324.74
743.823	30058.53
744.162	30123.84
744.502	30103.95
744.841	29997.06
745.181	30053.33
745.52	29845.66
745.86	30088.36
746.199	29984.41
746.538	29812.89
746.877	29941.92
747.216	29856.28
747.556	29727.01
747.895	29792.78
748.234	29566.12
748.573	29575.15
748.911	29638.88
749.25	29454.03
749.589	29437.53
749.928	29466.91
750.267	29461.71
750.605	29492.9
750.944	29348.04
751.283	29267.37
751.621	29350.98
751.96	29134.26
752.298	29096.07
752.636	29150.31
752.975	29000.03
753.313	28919.8
753.651	29007.26
753.989	28825.12
754.327	28805.46
754.666	28670.09
755.004	28625.12
755.342	28721.39
755.679	28607.04
756.017	28501.28
756.355	28544.45
756.693	28453.83
757.031	28405.24
757.368	28214.06
757.706	28302.87
758.044	28131.35
758.381	28063.33
758.719	28033.5
759.056	28157.34
759.394	28028.08
759.731	27779.95
760.068	27670.12
760.405	27637.58
760.743	27520.07
761.08	27493.63
761.417	27343.8
761.754	27441.43
762.091	27410.24
762.428	27156.01
762.765	26964.15
763.102	27116.24
763.438	27010.25
763.775	26865.85
764.112	26866.98
764.449	26900.2
764.785	26767.54
765.122	26645.97
765.458	26455.24
765.795	26511.51
766.131	26404.62
766.467	26348.35
766.804	26229.25
767.14	26220.21
767.476	26236.03
767.812	25967.11
768.148	25944.97
768.485	25877.85
768.821	25735.26
769.157	25721.24
769.492	25530.74
769.828	25616.61
770.164	25412.55
770.5	25371.65
770.836	25335.04
771.171	25079.68
771.507	25160.13
771.842	24904.32
772.178	25015.05
772.513	24924.88
772.849	24709.52
773.184	24575.29
773.519	24631.1
773.855	24532.8
774.19	24371
774.525	24305.69
774.86	24271.57
775.195	24287.16
775.53	24187.27
775.865	24001.74
776.2	23785.48
776.535	23736.21
776.87	23663.45
777.205	23641.53
777.539	23432.94
777.874	23488.99
778.209	23378.26
778.543	23302.55
778.878	23205.15
779.212	23235.89
779.547	23022.56
779.881	23152.5
780.215	23039.28
780.55	22885.61
780.884	22711.61
781.218	22712.51
781.552	22767.65
781.886	22493.31
782.22	22478.39
782.554	22470.48
782.888	22172.86
783.222	22086.09
783.556	22097.39
783.889	21995.69
784.223	21820.56
784.557	21813.78
784.89	21893.1
785.224	21595.25
785.557	21554.8
785.891	21487.91
786.224	21421.7
786.558	21447.91
786.891	21143.51
787.224	21204.53
787.557	21067.81
787.891	21169.95
788.224	21083.4
788.557	20993.23
788.89	20895.61
789.223	20861.71
789.556	20797.08
789.888	20634.6
790.221	20637.54
790.554	20394.83
790.887	20443.87
791.219	20363.19
791.552	20323.19
791.884	20333.14
792.217	20173.82
792.549	20115.74
792.882	19940.61
793.214	19875.3
793.546	19955.97
793.879	19759.59
794.211	19729.99
794.543	19717.56
794.875	19575.42
795.207	19636.21
795.539	19514.85
795.871	19472.82
796.203	19339.49
796.535	19294.07
796.867	19132.49
797.198	19238.93
797.53	19177.69
797.862	19036.67
798.193	19028.09
798.525	18945.83
798.856	18952.38
799.188	18769.56
799.519	18705.84
799.85	18577.48
800.182	18664.03
800.513	18617.93
800.844	18400.53
801.175	18527.08
801.506	18484.6
801.837	18364.83
802.168	18240.09
802.499	18279.41
802.83	18167.32
803.161	18173.87
803.491	18155.57
803.822	18102.69
804.153	17937.95
804.483	17930.04
804.814	17843.71
805.145	17789.7
805.475	17771.85
805.805	17736.37
806.136	17631.74
806.466	17702.47
806.796	17641.01
807.126	17503.38
807.457	17428.36
807.787	17457.73
808.117	17418.86
808.447	17306.55
808.777	17395.59
809.107	17269.49
809.436	17184.07
809.766	17188.59
810.096	17078.31
810.426	17090.29
810.755	17043.05
811.085	17043.51
811.414	16996.95
811.744	16851.42
812.073	16890.29
812.403	16806.22
812.732	16700.01
813.061	16777.07
813.39	16660.92
813.719	16617.53
814.049	16680.58
814.378	16588.38
814.707	16415.95
815.036	16486.46
815.365	16345.67
815.693	16208.95
816.022	16293.92
816.351	16241.49
816.68	16100.71
817.008	16203.75
817.337	16021.61
817.665	15917.43
817.994	16000.37
818.322	16053.7
818.651	15888.51
818.979	15917.21
819.307	15933.48
819.636	15857.55
819.964	15773.03
820.292	15805.35
820.62	15738
820.948	15752.02
821.276	15797.21
821.604	15702.3
821.932	15711.11
822.259	15656.2
822.587	15771.68
822.915	15631.57
823.243	15641.51
823.57	15599.7
823.898	15660.27
824.225	15563.09
824.553	15624.11
824.88	15606.48
825.207	15625.24
825.535	15558.8
825.862	15780.72
826.189	15524.9
826.516	15664.56
826.843	15653.49
827.17	15604
827.497	15614.62
827.824	15646.26
828.151	15643.09
828.478	15555.64
828.805	15699.36
829.131	15619.14
829.458	15643.32
829.785	15450.1
830.111	15611.68
830.438	15648.06
830.764	15619.14
831.09	15516.09
831.417	15435.19
831.743	15557.44
832.069	15512.25
832.395	15511.12
832.722	15503.89
833.048	15529.2
833.374	15507.73
833.7	15471.12
834.026	15459.59
834.351	15422.31
834.677	15453.72
835.003	15508.63
835.329	15365.58
835.654	15366.49
835.98	15345.25
836.306	15331.91
836.631	15293.04
836.956	15388.18
837.282	15336.21
837.607	15245.36
837.932	15200.39
838.258	15249.43
838.583	15246.94
838.908	15110.22
839.233	15112.48
839.558	15030.45
839.883	15101.64
840.208	14995.42
840.533	14934.86
840.858	14864.35
841.182	15029.1
841.507	14901.64
841.832	14845.82
842.156	14872.94
842.481	14844.92
842.805	14771.48
843.13	14688.54
843.454	14719.73
843.778	14628.43
844.103	14726.28
844.427	14574.19
844.751	14604.47
845.075	14561.09
845.399	14474.53
845.723	14346.85
846.047	14442.22
846.371	14170.36
846.695	14244.94
847.019	14164.49
847.343	14159.97
847.666	14117.26
847.99	13930.82
848.313	13998.39
848.637	13830.71
848.96	13831.84
849.284	13832.52
849.607	13725.85
849.931	13697.83
850.254	13672.75
850.577	13643.82
850.9	13546.42
851.223	13449.7
851.546	13447.67
851.869	13290.39
852.192	13332.64
852.515	13249.03
852.838	13171.97
853.161	13256.04
853.483	13162.93
853.806	13011.75
854.129	13086.32
854.451	13091.97
854.774	12957.96
855.096	12923.39
855.419	12908.25
855.741	12857.85
856.063	12741.7
856.385	12727.69
856.708	12703.28
857.03	12662.38
857.352	12667.35
857.674	12642.04
857.996	12588.03
858.318	12491.99
858.64	12519.33
858.961	12465.77
859.283	12322.73
859.605	12302.61
859.926	12339.45
860.248	12312.56
860.57	12284.08
860.891	12337.42
861.212	12220.81
861.534	12131.55
861.855	12122.51
862.176	12096.97
862.498	12132.68
862.819	12031.44
863.14	11968.84
863.461	12071.21
863.782	11986.01
864.103	12007.03
864.424	11972.23
864.745	12027.37
865.065	11980.81
865.386	11892.46
865.707	11852.46
866.027	11838.9
866.348	11789.18
866.668	11810.88
866.989	11849.29
867.309	11643.2
867.63	11786.24
867.95	11732.69
868.27	11620.82
868.59	11657.21
868.91	11646.36
869.23	11631.22
869.55	11571.79
869.87	11687.94
870.19	11539.7
870.51	11647.94
870.83	11668.05
871.15	11496.31
871.469	11445.46
871.789	11528.4
872.109	11471.22
872.428	11400.49
872.748	11440.04
873.067	11412.02
873.386	11458.34
873.706	11438.68
874.025	11412.92
874.344	11322.08
874.663	11390.55
874.982	11306.26
875.301	11269.87
875.62	11287.95
875.939	11271
876.258	11230.33
876.577	11205.92
876.896	11149.88
877.214	11227.84
877.533	11192.14
877.852	11158.46
878.17	11164.79
878.489	11116.43
878.807	11116.88
879.125	11097.22
879.444	11087.73
879.762	11017.22
880.08	11082.53
880.398	10994.85
880.716	10971.35
881.034	10940.16
881.352	10913.27
881.67	10891.13
881.988	10883.22
882.306	10877.57
882.624	10816.78
882.941	10766.16
883.259	10723.45
883.577	10770.9
883.894	10699.72
884.212	10668.76
884.529	10680.06
884.846	10599.38
885.164	10647.06
885.481	10523.68
885.798	10589.89
886.115	10458.14
886.432	10512.38
886.75	10488.88
887.067	10473.51
887.383	10405.72
887.7	10405.26
888.017	10345.38
888.334	10468.99
888.651	10328.43
888.967	10295.21
889.284	10316
889.6	10237.58
889.917	10273.52
890.233	10212.5
890.55	10140.41
890.866	10155.55
891.182	10083.69
891.498	10094.54
891.815	10077.81
892.131	10034.88
892.447	9966.63
892.763	9987.87
893.079	9888.44
893.395	9883.92
893.71	9867.88
894.026	9918.72
894.342	9775
894.657	9774.09
894.973	9799.63
895.289	9696.81
895.604	9710.82
895.92	9742.46
896.235	9663.59
896.55	9628.11
896.865	9556.25
897.181	9572.97
897.496	9538.62
897.811	9521.44
898.126	9497.49
898.441	9448
898.756	9370.94
899.071	9325.74
899.386	9361
899.7	9218.18
900.015	9237.61
900.33	9183.37
900.644	9153.32
900.959	9175.69
901.273	9095.69
901.588	9073.32
901.902	9004.17
902.216	9010.72
902.531	8958.3
902.845	8949.48
903.159	8963.49
903.473	8903.16
903.787	8816.83
904.101	8792.65
904.415	8851.18
904.729	8700.68
905.042	8744.06
905.356	8688.7
905.67	8667.23
905.984	8677.17
906.297	8645.76
906.611	8563.73
906.924	8613.45
907.237	8521.24
907.551	8446.9
907.864	8444.41
908.177	8426.33
908.491	8413.23
908.804	8381.36
909.117	8321.02
909.43	8247.58
909.743	8252.78
910.056	8175.27
910.368	8148.37
910.681	8124.19
910.994	8091.88
911.307	8092.78
911.619	8016.4
911.932	8047.36
912.244	7976.85
912.557	7931.88
912.869	7886.69
913.181	7842.84
913.494	7883.97
913.806	7800.36
914.118	7787.03
914.43	7729.18
914.742	7729.85
915.054	7687.82
915.366	7635.17
915.678	7630.19
915.99	7557.2
916.302	7495.51
916.613	7590.87
916.925	7535.28
917.236	7471.1
917.548	7475.17
917.859	7462.52
918.171	7398.11
918.482	7347.26
918.794	7274.95
919.105	7299.36
919.416	7213.71
919.727	7259.13
920.038	7131.68
920.349	7171.22
920.66	7106.14
920.971	7060.27
921.282	7070.66
921.593	7006.71
921.903	6994.28
922.214	6907.28
922.525	6923.77
922.835	6948.4
923.146	6838.13
923.456	6844.45
923.767	6857.79
924.077	6778.47
924.387	6799.71
924.697	6711.57
925.008	6672.48
925.318	6613.5
925.628	6665.47
925.938	6629.09
926.248	6525.14
926.558	6543.44
926.867	6607.17
927.177	6556.1
927.487	6473.16
927.796	6394.3
928.106	6436.1
928.416	6362.66
928.725	6415.54
929.034	6316.33
929.344	6366.95
929.653	6279.72
929.962	6277.69
930.271	6200.63
930.581	6201.53
930.89	6165.15
931.199	6107.3
931.508	6131.03
931.817	6057.35
932.125	6070.69
932.434	6074.76
932.743	5997.47
933.051	5971.03
933.36	6004.7
933.669	5886.51
933.977	5911.82
934.286	5903.69
934.594	5854.2
934.902	5824.59
935.21	5834.54
935.519	5815.78
935.827	5774.2
936.135	5696.69
936.443	5712.05
936.751	5632.51
937.059	5621.89
937.367	5642.22
937.674	5659.85
937.982	5585.05
938.29	5562.68
938.597	5572.85
938.905	5486.75
939.213	5485.62
939.52	5457.6
939.827	5469.35
940.135	5426.19
940.442	5387.99
940.749	5394.55
941.056	5376.24
941.363	5296.24
941.67	5324.04
941.977	5274.32
942.284	5247.21
942.591	5228.45
942.898	5221.44
943.205	5226.64
943.511	5140.77
943.818	5185.06
944.125	5150.71
944.431	5110.49
944.738	5089.7
945.044	5057.83
945.35	5025.97
945.657	4983.48
945.963	4957.72
946.269	4949.81
946.575	4957.27
946.881	4945.97
947.187	4943.94
947.493	4926.54
947.799	4877.72
948.105	4891.51
948.41	4844.96
948.716	4797.27
949.022	4816.71
949.327	4798.18
949.633	4747.78
949.938	4732.64
950.244	4716.6
950.549	4731.74
950.854	4672.31
951.16	4641.12
951.465	4608.13
951.77	4581.24
952.075	4601.8
952.38	4527.23
952.685	4559.99
952.99	4543.72
953.294	4489.71
953.599	4518.19
953.904	4398.42
954.209	4440.45
954.513	4422.37
954.818	4428.7
955.122	4382.37
955.426	4340.56
955.731	4353.44
956.035	4295.59
956.339	4329.94
956.643	4297.63
956.948	4184.41
957.252	4256.72
957.556	4256.72
957.86	4261.47
958.163	4208.36
958.467	4186.22
958.771	4166.56
959.075	4133.56
959.378	4139.44
959.682	4166.33
959.985	4064.86
960.289	4112.1
960.592	4040.68
960.896	4029.16
961.199	4044.98
961.502	4064.41
961.805	3992.32
962.108	3962.27
962.411	3991.42
962.714	3908.48
963.017	3954.81
963.32	3898.32
963.623	3849.28
963.926	3898.99
964.228	3877.07
964.531	3859.9
964.833	3846.11
965.136	3819.45
965.438	3795.49
965.741	3805.66
966.043	3759.11
966.345	3730.64
966.648	3744.42
966.95	3695.38
967.252	3690.19
967.554	3638.66
967.856	3666.46
968.158	3656.06
968.46	3658.77
968.761	3575.39
969.063	3598.66
969.365	3593.69
969.666	3553.47
969.968	3576.29
970.269	3539.23
970.571	3486.57
970.872	3484.09
971.174	3479.8
971.475	3428.95
971.776	3471.21
972.077	3434.15
972.378	3424.2
972.679	3424.66
972.98	3448.16
973.281	3388.5
973.582	3374.71
973.883	3365
974.183	3338.56
974.484	3338.56
974.785	3311.66
975.085	3310.31
975.386	3299.01
975.686	3285.22
975.986	3231.44
976.287	3254.72
976.587	3220.37
976.887	3148.05
977.187	3210.65
977.487	3164.1
977.787	3147.15
978.087	3162.97
978.387	3139.92
978.687	3132.46
978.987	3075.74
979.286	3089.07
979.586	3075.96
979.885	3067.38
980.185	3026.93
980.484	3027.15
980.784	3018.79
981.083	2997.32
981.382	2974.72
981.682	2985.8
981.981	2939.24
982.28	2934.73
982.579	2936.08
982.878	2972.46
983.177	2910.77
983.475	2926.59
983.774	2854.28
984.073	2880.49
984.372	2892.92
984.67	2835.74
984.969	2861.05
985.267	2844.78
985.566	2779.47
985.864	2796.88
986.162	2773.15
986.461	2782.41
986.759	2736.76
987.057	2723.43
987.355	2718.69
987.653	2698.35
987.951	2755.52
988.249	2691.79
988.547	2686.14
988.844	2687.05
989.142	2645.24
989.44	2674.39
989.737	2686.37
990.035	2615.41
990.332	2631.46
990.63	2595.07
990.927	2597.56
991.224	2566.15
991.521	2568.86
991.819	2548.29
992.116	2590.78
992.413	2545.81
992.71	2537
993.006	2492.7
993.303	2494.74
993.6	2452.7
993.897	2469.43
994.193	2454.96
994.49	2473.49
994.787	2443.89
995.083	2446.83
995.379	2413.16
995.676	2390.33
995.972	2377.23
996.268	2381.52
996.565	2342.42
996.861	2352.37
997.157	2344.68
997.453	2364.8
997.749	2306.49
998.044	2320.28
998.34	2338.36
998.636	2274.4
998.932	2247.96
999.227	2257.45
999.523	2257.91
999.818	2225.37
1000.114	2245.93
1000.409	2212.48
1000.704	2216.33
1001	2197.8
1001.295	2193.95
1001.59	2167.51
1001.885	2172.26
1002.18	2141.53
1002.475	2139.94
1002.77	2131.36
1003.065	2134.07
1003.359	2068.99
1003.654	2083.22
1003.949	2050.68
1004.243	2112.6
1004.538	2059.04
1004.832	2037.12
1005.127	2040.96
1005.421	2011.59
1005.715	2022.88
1006.009	2004.13
1006.304	1968.65
1006.598	1988.76
1006.892	1945.82
1007.186	1956.45
1007.48	1953.96
1007.773	1927.07
1008.067	1920.74
1008.361	1929.55
1008.655	1908.09
1008.948	1883.23
1009.242	1887.52
1009.535	1861.76
1009.829	1850.69
1010.122	1844.13
1010.415	1826.51
1010.708	1831.48
1011.001	1819.27
1011.295	1807.75
1011.588	1772.72
1011.881	1796
1012.173	1769.56
1012.466	1768.2
1012.759	1763.91
1013.052	1755.1
1013.344	1757.58
1013.637	1752.16
1013.93	1701.54
1014.222	1679.62
1014.514	1690.24
1014.807	1680.29
1015.099	1665.38
1015.391	1655.44
1015.683	1656.34
1015.976	1653.85
1016.268	1639.17
1016.56	1629.22
1016.851	1603.01
1017.143	1619.51
1017.435	1621.54
1017.727	1557.59
1018.018	1569.56
1018.31	1556.68
1018.602	1556.68
1018.893	1554.2
1019.185	1534.76
1019.476	1535.67
1019.767	1537.7
1020.058	1530.24
1020.35	1492.96
1020.641	1497.93
1020.932	1481.43
1021.223	1471.94
1021.514	1443.69
1021.804	1438.95
1022.095	1444.37
1022.386	1424.71
1022.677	1418.61
1022.967	1443.92
1023.258	1420.64
1023.548	1431.04
1023.839	1378.38
1024.129	1397.14
1024.419	1391.71
1024.709	1338.83
1025	1360.76
1025.29	1351.26
1025.58	1350.13
1025.87	1318.04
1026.16	1314.43
1026.449	1316.01
1026.739	1310.36
1027.029	1299.29
1027.319	1294.77
1027.608	1257.93
1027.898	1256.8
1028.187	1238.27
1028.477	1273.53
1028.766	1234.66
1029.055	1219.74
1029.344	1235.11
1029.634	1228.78
1029.923	1178.84
1030.212	1231.49
1030.501	1192.62
1030.79	1197.14
1031.078	1178.39
1031.367	1171.16
1031.656	1144.94
1031.945	1170.03
1032.233	1143.59
1032.522	1135
1032.81	1122.8
1033.099	1118.95
1033.387	1111.5
1033.675	1109.91
1033.963	1124.38
1034.251	1090.03
1034.54	1085.96
1034.828	1077.6
1035.116	1089.12
1035.403	1066.53
1035.691	1064.72
1035.979	1050.71
1036.267	1048.67
1036.554	1057.94
1036.842	1026.3
1037.129	1026.07
1037.417	990.37
1037.704	1019.75
1037.992	1029.69
1038.279	1023.81
1038.566	1000.54
1038.853	1000.54
1039.14	1000.54
