Data from hue_10_FLMS001491_42.txt Node
Date: Mon Feb 06 15:31:58 GMT 2017
User: dcchb
Spectrometer: FLMS00149
Trigger mode: 0
Integration Time (sec): 2.000000E-2
Scans to average: 10
Electric dark correction enabled: true
Nonlinearity correction enabled: false
Boxcar width: 0
XAxis mode: Wavelengths
Number of Pixels in Spectrum: 2048
>>>>>Begin Spectral Data<<<<<
341.393	-3.01
341.776	-3.01
342.16	-3.01
342.543	-70.35
342.927	-68.77
343.31	-75.32
343.693	-74.42
344.077	-58.6
344.46	-51.59
344.843	-55.44
345.226	-53.63
345.61	-19.73
345.993	-21.31
346.376	11.91
346.759	-0.3
347.142	18.23
347.525	41.74
347.908	61.4
348.291	68.85
348.674	92.58
349.057	115.63
349.44	128.97
349.823	156.31
350.206	178
350.588	197.44
350.971	221.62
351.354	246.93
351.737	236.76
352.119	243.31
352.502	272.46
352.884	288.28
353.267	281.73
353.65	289.41
354.032	272.46
354.414	302.29
354.797	321.95
355.179	319.69
355.562	321.73
355.944	330.54
356.326	351.56
356.709	350.88
357.091	344.33
357.473	352.69
357.855	360.37
358.238	356.76
358.62	355.4
359.002	339.36
359.384	345.68
359.766	345.23
360.148	340.94
360.53	363.54
360.912	331.67
361.294	328.73
361.676	329.19
362.057	347.94
362.439	333.71
362.821	326.25
363.203	336.87
363.584	334.38
363.966	326.02
364.348	333.25
364.729	319.47
365.111	332.58
365.493	334.84
365.874	318.57
366.256	315.63
366.637	309.53
367.019	314.27
367.4	325.8
367.781	322.63
368.163	337.55
368.544	312.69
368.925	321.28
369.306	306.59
369.688	313.37
370.069	301.16
370.45	281.73
370.831	313.82
371.212	331.22
371.593	324.44
371.974	333.48
372.355	331.22
372.736	312.92
373.117	315.63
373.498	333.93
373.879	335.74
374.26	315.18
374.641	324.89
375.021	303.88
375.402	319.92
375.783	339.81
376.163	323.76
376.544	309.07
376.925	312.92
377.305	353.14
377.686	319.02
378.066	345.68
378.447	326.25
378.827	337.32
379.208	323.31
379.588	333.93
379.968	335.74
380.349	327.6
380.729	327.38
381.109	321.28
381.489	356.08
381.87	321.95
382.25	345.68
382.63	345.46
383.01	352.69
383.39	349.3
383.77	337.55
384.15	347.72
384.53	349.07
384.91	318.34
385.29	349.75
385.67	335.97
386.049	349.52
386.429	353.82
386.809	345.68
387.189	338.9
387.568	349.75
387.948	326.93
388.328	354.27
388.707	345.68
389.087	344.33
389.466	368.06
389.846	335.97
390.225	362.18
390.605	374.38
390.984	373.7
391.363	354.5
391.743	371.22
392.122	356.08
392.501	353.14
392.881	361.05
393.26	385.46
393.639	371.9
394.018	357.21
394.397	362.18
394.776	367.15
395.155	379.58
395.534	379.13
395.913	371.67
396.292	392.24
396.671	385.68
397.05	364.44
397.429	357.43
397.808	381.39
398.186	361.05
398.565	368.28
398.944	384.33
399.323	398.56
399.701	368.06
400.08	383.42
400.458	393.82
400.837	376.64
401.215	388.62
401.594	400.14
401.972	395.4
402.351	388.62
402.729	409.41
403.107	394.95
403.486	397.21
403.864	376.87
404.242	405.57
404.62	415.51
404.999	401.27
405.377	394.72
405.755	410.99
406.133	391.78
406.511	393.14
406.889	425.45
407.267	413.03
407.645	425.91
408.023	430.65
408.401	403.31
408.779	414.38
409.156	410.54
409.534	419.81
409.912	420.48
410.29	420.26
410.667	420.03
411.045	432.91
411.422	425
411.8	436.3
412.178	439.01
412.555	413.93
412.933	460.93
413.31	437.66
413.687	463.87
414.065	457.09
414.442	453.48
414.819	443.76
415.197	468.84
415.574	476.08
415.951	479.46
416.328	478.11
416.705	460.48
417.082	453.25
417.46	459.13
417.837	483.08
418.214	500.71
418.591	492.12
418.967	475.85
419.344	491.22
419.721	486.24
420.098	483.76
420.475	484.89
420.852	501.16
421.228	474.49
421.605	523.53
421.982	500.26
422.358	490.31
422.735	500.03
423.111	508.84
423.488	512.68
423.864	506.81
424.241	510.42
424.617	524.21
424.994	537.32
425.37	519.92
425.746	545.23
426.123	555.62
426.499	548.39
426.875	546.13
427.251	519.46
427.627	536.64
428.003	572.34
428.379	564.43
428.756	559.69
429.132	573.25
429.507	558.11
429.883	574.38
430.259	576.86
430.635	573.7
431.011	581.83
431.387	585
431.763	600.59
432.138	577.77
432.514	593.36
432.89	592
433.265	603.76
433.641	616.64
434.016	598.78
434.392	610.53
434.767	599.01
435.143	630.2
435.518	630.2
435.894	632
436.269	634.71
436.644	650.31
437.02	660.48
437.395	645.11
437.77	663.19
438.145	656.18
438.52	658.22
438.895	673.36
439.271	660.25
439.646	696.63
440.021	681.04
440.395	659.12
440.77	700.02
441.145	659.12
441.52	697.76
441.895	690.98
442.27	701.61
442.645	688.05
443.019	718.33
443.394	723.53
443.769	723.98
444.143	731.44
444.518	720.14
444.892	724.43
445.267	730.98
445.641	730.08
446.016	712.23
446.39	721.27
446.764	726.92
447.139	713.13
447.513	766.69
447.887	753.58
448.262	758.55
448.636	745.22
449.01	755.16
449.384	764.2
449.758	776.41
450.132	778.89
450.506	773.02
450.88	764.66
451.254	799
451.628	783.19
452.002	797.2
452.376	793.81
452.75	800.81
453.123	809.17
453.497	813.69
453.871	830.87
454.244	840.81
454.618	836.07
454.992	862.05
455.365	820.02
455.739	852.79
456.112	852.11
456.486	860.02
456.859	871.32
457.232	883.52
457.606	894.82
457.979	894.14
458.352	900.7
458.725	884.43
459.099	894.14
459.472	906.57
459.845	918.78
460.218	936.63
460.591	938.21
460.964	968.27
461.337	963.97
461.71	981.37
462.083	963.97
462.456	1011.2
462.829	1005.55
463.201	1001.71
463.574	1003.97
463.947	1020.69
464.32	1027.02
464.692	1045.33
465.065	1045.55
465.438	1080.13
465.81	1060.47
466.183	1079.68
466.555	1095.27
466.928	1115.61
467.3	1111.09
467.672	1139.11
468.045	1147.24
468.417	1151.76
468.789	1142.27
469.161	1153.8
469.534	1213.91
469.906	1214.81
470.278	1220.69
470.65	1237.86
471.022	1276.73
471.394	1279.9
471.766	1292.32
472.138	1312.89
472.51	1318.54
472.882	1368.93
473.253	1370.06
473.625	1386.11
473.997	1410.06
474.369	1447.12
474.74	1456.61
475.112	1480.34
475.484	1494.58
475.855	1534.13
476.227	1557.63
476.598	1567.57
476.97	1600.11
477.341	1628.81
477.713	1677.17
478.084	1682.6
478.455	1749.26
478.827	1739.32
479.198	1785.42
479.569	1772.76
479.94	1827.68
480.311	1859.99
480.682	1918.52
481.053	1956.49
481.424	1965.98
481.795	1989.48
482.166	2023.6
482.537	2092.08
482.908	2128.46
483.279	2168.46
483.65	2180.44
484.021	2236.71
484.391	2263.6
484.762	2293.65
485.133	2311.51
485.503	2317.61
485.874	2391.28
486.244	2432.41
486.615	2449.13
486.985	2536.36
487.356	2567.55
487.726	2580.88
488.097	2669.69
488.467	2682.57
488.837	2727.54
489.207	2758.05
489.578	2796.24
489.948	2831.27
490.318	2871.72
490.688	2913.07
491.058	2933.64
491.428	3029.45
491.798	3055.67
492.168	3107.19
492.538	3099.96
492.908	3161.88
493.278	3238.71
493.648	3216.12
494.017	3243.46
494.387	3306.51
494.757	3380.86
495.126	3333.85
495.496	3384.02
495.866	3401.87
496.235	3440.97
496.605	3508.09
496.974	3492.72
497.344	3554.64
497.713	3576.78
498.082	3574.07
498.452	3621.08
498.821	3668.99
499.19	3665.82
499.559	3732.49
499.928	3731.36
500.298	3772.71
500.667	3782.2
501.036	3792.15
501.405	3790.34
501.774	3832.37
502.143	3842.09
502.512	3924.57
502.88	3917.11
503.249	3906.95
503.618	3967.73
503.987	3946.04
504.356	4042.99
504.724	4038.69
505.093	3999.15
505.462	4098.8
505.83	4074.17
506.199	4099.48
506.567	4167.28
506.936	4142.87
507.304	4179.48
507.672	4195.07
508.041	4267.61
508.409	4238.46
508.777	4286.14
509.145	4283.21
509.514	4326.37
509.882	4279.36
510.25	4368.18
510.618	4354.84
510.986	4339.25
511.354	4410.66
511.722	4407.5
512.09	4480.94
512.458	4488.62
512.826	4466.03
513.193	4494.27
513.561	4522.75
513.929	4528.62
514.297	4547.38
514.664	4564.78
515.032	4574.05
515.4	4630.99
515.767	4640.71
516.135	4646.81
516.502	4625.8
516.869	4699.92
517.237	4684.1
517.604	4634.38
517.972	4711.9
518.339	4701.5
518.706	4737.21
519.073	4734.72
519.44	4799.58
519.808	4796.64
520.175	4796.19
520.542	4886.58
520.909	4834.6
521.276	4828.73
521.643	4901.04
522.009	4903.76
522.376	4930.42
522.743	4950.08
523.11	4969.29
523.477	4975.84
523.843	5009.29
524.21	5103.75
524.577	5056.97
524.943	5040.02
525.31	5118.89
525.676	5117.76
526.043	5186.23
526.409	5195.27
526.776	5274.82
527.142	5261.26
527.508	5317.08
527.874	5295.16
528.241	5333.8
528.607	5282.05
528.973	5393.01
529.339	5405.21
529.705	5412.89
530.071	5479.79
530.437	5524.08
530.803	5552.78
531.169	5548.03
531.535	5530.18
531.901	5508.26
532.267	5585.77
532.632	5655.83
532.998	5625.77
533.364	5697.41
533.73	5642.72
534.095	5697.41
534.461	5732.89
534.826	5739.44
535.192	5784.41
535.557	5786.44
535.923	5864.41
536.288	5850.62
536.653	5840.68
537.019	5863.28
537.384	5917.74
537.749	5968.59
538.114	5976.95
538.479	5926.33
538.845	5970.85
539.21	5963.39
539.575	5996.61
539.94	6037.28
540.305	6047.68
540.67	6080
541.034	6087.23
541.399	6149.6
541.764	6141.46
542.129	6181.46
542.494	6253.32
542.858	6241.8
543.223	6279.54
543.587	6364.06
543.952	6294.91
544.316	6294.45
544.681	6340.33
545.045	6374.45
545.41	6363.15
545.774	6380.1
546.138	6496.48
546.503	6502.58
546.867	6477.73
547.231	6581.68
547.595	6577.38
547.959	6569.47
548.324	6626.2
548.688	6626.65
549.052	6666.87
549.416	6654.22
549.779	6735.35
550.143	6709.36
550.507	6746.87
550.871	6812.63
551.235	6793.2
551.599	6830.26
551.962	6807.89
552.326	6898.51
552.689	6877.94
553.053	6913.42
553.417	6913.87
553.78	6974.89
554.143	6994.32
554.507	7031.61
554.87	7033.19
555.234	7062.79
555.597	7006.75
555.96	7074.77
556.323	7072.29
556.686	7085.17
557.05	7131.95
557.413	7152.06
557.776	7139.63
558.139	7162.9
558.502	7194.09
558.865	7279.51
559.228	7297.82
559.59	7301.43
559.953	7345.27
560.316	7379.4
560.679	7388.21
561.041	7417.14
561.404	7410.13
561.767	7457.81
562.129	7463.91
562.492	7540.07
562.854	7510.01
563.217	7580.75
563.579	7561.99
563.941	7503.69
564.304	7629.79
564.666	7689.67
565.028	7719.95
565.39	7724.92
565.753	7767.41
566.115	7773.28
566.477	7803.79
566.839	7811.7
567.201	7880.4
567.563	7882.21
567.925	7956.78
568.287	7931.47
568.648	7985.93
569.01	7950.23
569.372	8051.47
569.734	8000.85
570.095	8098.7
570.457	8116.78
570.819	8157.91
571.18	8199.04
571.542	8229.32
571.903	8271.12
572.265	8316.55
572.626	8369.88
572.987	8382.53
573.349	8469.31
573.71	8472.25
574.071	8556.31
574.432	8583.21
574.794	8641.28
575.155	8695.07
575.516	8674.05
575.877	8836.53
576.238	8903.88
576.599	8982.74
576.96	9000.37
577.32	9083.98
577.681	9209.4
578.042	9246.69
578.403	9258.44
578.763	9446.01
579.124	9558.77
579.485	9563.75
579.845	9720.35
580.206	9857.07
580.566	9926.22
580.927	10048.48
581.287	10205.99
581.648	10368.47
582.008	10524.85
582.368	10606.88
582.728	10780.44
583.089	10885.74
583.449	11069.69
583.809	11273.98
584.169	11332.29
584.529	11564.15
584.889	11805.27
585.249	11977.92
585.609	12102.21
585.969	12429.66
586.329	12658.81
586.688	12798.24
587.048	13117.32
587.408	13367.26
587.768	13569.06
588.127	13750.75
588.487	14002.5
588.846	14339.21
589.206	14449.04
589.565	14780.11
589.925	15077.27
590.284	15307.32
590.643	15641.1
591.003	15985.05
591.362	16322.89
591.721	16580.96
592.08	16803.78
592.44	17131.46
592.799	17502.29
593.158	17842.17
593.517	18167.59
593.876	18538.2
594.235	18706.33
594.593	19156.71
594.952	19366.2
595.311	19807.32
595.67	20104.26
596.029	20637.58
596.387	20890.68
596.746	21368.63
597.104	21368.63
597.463	21727.72
597.822	22125.22
598.18	22412.22
598.538	22770.63
598.897	23274.35
599.255	23427.79
599.613	24078.84
599.972	24164.27
600.33	24607.87
600.688	24818.71
601.046	25207.4
601.404	25712.25
601.762	25913.6
602.12	26378.22
602.478	26697.08
602.836	26888.04
603.194	27166.9
603.552	27568.92
603.91	27651.41
604.268	28143.6
604.625	28355.34
604.983	28774.31
605.341	28878.94
605.698	29290.68
606.056	29718.24
606.413	29750.11
606.771	30220.6
607.128	30550.31
607.485	30671.67
607.843	31006.35
608.2	31314.13
608.557	31790.05
608.914	31869.6
609.272	32280.66
609.629	32436.59
609.986	32898.95
610.343	32985.5
610.7	33536.9
611.057	33545.94
611.414	33758.36
611.771	33922.43
612.127	34295.75
612.484	34446.26
612.841	34831.1
613.198	34923.98
613.554	35037.65
613.911	35578.65
614.267	35579.56
614.624	35777.07
614.98	36029.49
615.337	36302.93
615.693	36485.3
616.05	36504.51
616.406	36846.42
616.762	36921.67
617.118	37132.96
617.475	37221.1
617.831	37480.07
618.187	37755.32
618.543	37682.55
618.899	38245.7
619.255	38297.45
619.611	38477.79
619.967	38644.11
620.323	38842.52
620.678	38797.55
621.034	38918.91
621.39	39011.78
621.746	39070.77
622.101	39624.65
622.457	39361.83
622.812	39668.04
623.168	39804.98
623.523	39971.99
623.879	40075.03
624.234	39925.66
624.589	40185.99
624.945	40326.55
625.3	40338.98
625.655	40454.46
626.01	40598.86
626.365	40652.65
626.72	40685.64
627.075	40668.24
627.43	40783.04
627.785	40951.62
628.14	40990.26
628.495	41004.5
628.85	40991.62
629.205	40947.1
629.559	41419.41
629.914	41109.36
630.269	41226.87
630.623	41205.63
630.978	41167.43
631.332	41525.39
631.687	41570.81
632.041	41463.02
632.396	41596.58
632.75	41360.65
633.104	41516.13
633.459	41321.1
633.813	41450.59
634.167	41546.63
634.521	41589.34
634.875	41695.56
635.229	41708.21
635.583	41464.6
635.937	41619.63
636.291	41574.66
636.645	41598.38
636.999	41610.13
637.352	41725.61
637.706	41484.04
638.06	41727.42
638.413	41523.58
638.767	41547.76
639.121	41683.81
639.474	41465.73
639.828	41443.13
640.181	41592.51
640.534	41594.09
640.888	41367.43
641.241	41372.85
641.594	41432.29
641.947	41595.67
642.301	41374.66
642.654	41557.03
643.007	41653.98
643.36	41448.56
643.713	41469.8
644.066	41703.24
644.419	41306.19
644.771	41193.2
645.124	40668.46
645.477	40685.19
645.83	40560.67
646.182	40481.35
646.535	40250.85
646.888	40267.35
647.24	40216.05
647.593	40476.61
647.945	40248.14
648.298	40103.51
648.65	40148.48
649.002	40001.36
649.355	40294.24
649.707	40053.34
650.059	40350.28
650.411	40724.51
650.763	40752.53
651.115	41197.94
651.467	41113.2
651.819	41189.58
652.171	41068.45
652.523	40848.35
652.875	40968.8
653.227	40781.46
653.578	41159.98
653.93	41013.31
654.282	40889.02
654.633	40701.01
654.985	40823.04
655.337	40807.44
655.688	40830.49
656.039	40977.61
656.391	40540.56
656.742	40703.72
657.094	40663.04
657.445	40934.9
657.796	40676.6
658.147	40661.23
658.498	40684.74
658.849	40789.37
659.2	40861.91
659.551	40692.42
659.902	40810.61
660.253	40783.72
660.604	40808.35
660.955	40561.35
661.306	40716.15
661.656	40765.86
662.007	40703.72
662.358	40700.78
662.708	40671.63
663.059	40661.91
663.409	40234.35
663.76	40731.74
664.11	40631.18
664.461	40711.18
664.811	40635.47
665.161	40543.04
665.511	40608.35
665.862	40634.12
666.212	40604.51
666.562	40647
666.912	40449.71
667.262	40627.34
667.612	40550.5
667.962	40606.55
668.312	40546.21
668.662	40795.24
669.011	40498.3
669.361	40604.29
669.711	40448.81
670.06	40362.03
670.41	40263.73
670.76	40254.24
671.109	40515.7
671.459	40454.68
671.808	40290.62
672.157	40416.72
672.507	40284.29
672.856	40305.54
673.205	40320.23
673.554	40517.96
673.904	40160.46
674.253	40488.36
674.602	40289.27
674.951	39727.7
675.3	39602.5
675.649	40068.25
675.998	40184.64
676.346	40120
676.695	40270.06
677.044	39916.62
677.393	40003.85
677.741	40261.02
678.09	39997.97
678.438	39944.19
678.787	40067.35
679.135	39932.89
679.484	39830.75
679.832	39855.38
680.181	39607.7
680.529	39792.1
680.877	39545.1
681.225	39710.75
681.573	39896.96
681.922	39542.17
682.27	39467.14
682.618	39513.01
682.966	39467.59
683.314	39501.04
683.661	39280.48
684.009	39240.25
684.357	39076.42
684.705	39045.46
685.053	39104.66
685.4	39071.22
685.748	38840.26
686.095	38852.47
686.443	38662.42
686.79	38750.77
687.138	38725.92
687.485	38696.99
687.832	38656.09
688.18	38667.84
688.527	38547.62
688.874	38393.72
689.221	38349.88
689.568	38179.26
689.915	38140.62
690.262	38108.76
690.609	38113.5
690.956	37993.73
691.303	37941.98
691.65	37683.68
691.997	37785.6
692.344	37612.73
692.69	37494.76
693.037	37546.51
693.383	37148.11
693.73	37421.54
694.077	37100.87
694.423	37260.64
694.769	37053.19
695.116	36870.82
695.462	36925.96
695.808	36819.75
696.155	36848.68
696.501	36498.4
696.847	36492.08
697.193	36233.33
697.539	36352.65
697.885	36116.95
698.231	36051.41
698.577	36114.91
698.923	36038.98
699.269	35883.05
699.614	35750.85
699.96	35662.27
700.306	35633.12
700.651	35545.89
700.997	35451.43
701.342	35363.29
701.688	35259.34
702.033	35132.79
702.379	35212.34
702.724	35112.45
703.069	35138.89
703.415	34716.76
703.76	34747.72
704.105	34783.42
704.45	34675.4
704.795	34380.04
705.14	34394.51
705.485	34430.89
705.83	34234.96
706.175	34276.77
706.52	34182.53
706.865	34002.65
707.209	34032.48
707.554	33935.31
707.899	33997
708.243	33611.25
708.588	33674.98
708.932	33490.35
709.277	33441.99
709.621	33533.74
709.966	33246.74
710.31	33435.66
710.654	33077.03
710.998	33180.07
711.342	33230.02
711.687	33039.51
712.031	32916.13
712.375	32737.15
712.719	32801.78
713.063	32657.83
713.407	32802.91
713.75	32780.99
714.094	32634.55
714.438	32586.42
714.782	32677.94
715.125	32299.87
715.469	32292.87
715.812	32259.19
716.156	32099.2
716.499	32138.07
716.843	32114.34
717.186	31969.71
717.53	32106.88
717.873	32079.31
718.216	31940.78
718.559	31868.02
718.902	31707.34
719.246	31619.66
719.589	31547.35
719.932	31454.47
720.275	31726.33
720.617	31442.72
720.96	31508.25
721.303	31366.56
721.646	31383.96
721.989	31090.86
722.331	31229.62
722.674	31184.19
723.016	31099.68
723.359	31221.26
723.701	31106.68
724.044	30868.72
724.386	30751.66
724.729	30816.29
725.071	30695.85
725.413	30692
725.755	30630.76
726.097	30555.06
726.439	30415.63
726.782	30396.42
727.124	30614.72
727.465	30556.87
727.807	30428.73
728.149	30290.21
728.491	30290.88
728.833	30288.62
729.175	30224.45
729.516	30186.25
729.858	30099.7
730.199	30107.84
730.541	30012.25
730.882	29959.37
731.224	30048.86
731.565	29809.99
731.906	29845.25
732.248	29869.43
732.589	29712.14
732.93	29619.26
733.271	29581.98
733.612	29635.76
733.953	29648.87
734.294	29525.48
734.635	29508.53
734.976	29582.43
735.317	29345.15
735.658	29420.85
735.999	29407.97
736.339	29242.32
736.68	29439.16
737.021	29272.83
737.361	29118.49
737.702	29268.99
738.042	29278.03
738.383	28982.67
738.723	29031.93
739.063	28921.65
739.404	29019.28
739.744	28877.59
740.084	28878.27
740.424	28826.97
740.764	28735.67
741.104	28848.21
741.444	28666.29
741.784	28603.25
742.124	28720.53
742.464	28672.85
742.804	28544.04
743.143	28571.16
743.483	28568.44
743.823	28450.25
744.162	28404.15
744.502	28398.96
744.841	28283.25
745.181	28224.72
745.52	28185.4
745.86	28232.41
746.199	28269.02
746.538	28107.66
746.877	28284.16
747.216	28170.94
747.556	28058.63
747.895	28118.51
748.234	28036.03
748.573	27944.51
748.911	27887.11
749.25	27819.08
749.589	27749.26
749.928	27815.24
750.267	27825.86
750.605	27657.96
750.944	27572.76
751.283	27554.01
751.621	27559.88
751.96	27412.32
752.298	27408.02
752.636	27389.72
752.975	27271.53
753.313	27215.48
753.651	27344.52
753.989	27118.09
754.327	27183.4
754.666	27032.66
755.004	27143.62
755.342	27024.3
755.679	26975.49
756.017	27000.35
756.355	26888.04
756.693	26852.33
757.031	26903.4
757.368	26660.7
757.706	26721.26
758.044	26501.15
758.381	26554.71
758.719	26548.38
759.056	26534.15
759.394	26451.44
759.731	26225
760.068	26265.91
760.405	26128.51
760.743	26065.01
761.08	26069.98
761.417	25964.9
761.754	25947.04
762.091	25916.31
762.428	25685.13
762.765	25554.29
763.102	25689.2
763.438	25480.16
763.775	25361.97
764.112	25426.61
764.449	25473.61
764.785	25258.7
765.122	25045.37
765.458	25016.9
765.795	25074.52
766.131	25086.28
766.467	24899.39
766.804	24795.21
767.14	24737.81
767.476	24650.58
767.812	24618.04
768.148	24580.3
768.485	24513.64
768.821	24209.69
769.157	24405.39
769.492	24268.44
769.828	24221.44
770.164	24032.97
770.5	23917.49
770.836	23931.05
771.171	23838.4
771.507	23755.01
771.842	23633.21
772.178	23551.85
772.513	23473.66
772.849	23521.12
773.184	23336.72
773.519	23344.4
773.855	23220.79
774.19	23132.65
774.525	23072.54
774.86	23091.75
775.195	23025.54
775.53	22961.13
775.865	22782.83
776.2	22636.62
776.535	22499
776.87	22432.33
777.205	22315.05
777.539	22235.5
777.874	22353.69
778.209	22110.08
778.543	22035.51
778.878	22010.65
779.212	21967.04
779.547	21715.29
779.881	21885.46
780.215	21670.09
780.55	21624.45
780.884	21616.31
781.218	21544.22
781.552	21518.01
781.886	21390.55
782.22	21351.68
782.554	21152.14
782.888	20851.36
783.222	21011.81
783.556	20819.27
783.889	20813.39
784.223	20694.53
784.557	20622.66
784.89	20651.82
785.224	20550.58
785.557	20377.7
785.891	20362.78
786.224	20332.28
786.558	20286.85
786.891	20093.86
787.224	20007.31
787.557	20011.83
787.891	19937.26
788.224	19849.35
788.557	19943.36
788.89	19739.52
789.223	19788.79
789.556	19597.83
789.888	19618.85
790.221	19476.25
790.554	19452.75
790.887	19268.12
791.219	19258.86
791.552	19252.53
791.884	19113.33
792.217	19110.39
792.549	19026.32
792.882	18838.08
793.214	18878.08
793.546	18829.49
793.879	18755.82
794.211	18568.71
794.543	18697.52
794.875	18600.12
795.207	18694.58
795.539	18419.78
795.871	18530.06
796.203	18332.1
796.535	18151.99
796.867	18147.25
797.198	18226.12
797.53	18259.34
797.862	17908.39
798.193	17991.09
798.525	17899.35
798.856	17944.99
799.188	17661.39
799.519	17714.72
799.85	17644.21
800.182	17624.55
800.513	17713.14
800.844	17404.67
801.175	17488.96
801.506	17472.46
801.837	17483.54
802.168	17299.81
802.499	17273.6
802.83	17171
803.161	17187.95
803.491	17057.33
803.822	17087.84
804.153	17052.81
804.483	16888.52
804.814	16842.42
805.145	16861.86
805.475	16799.71
805.805	16764.23
806.136	16684.91
806.466	16656.67
806.796	16571.25
807.126	16471.81
807.457	16430.68
807.787	16428.88
808.117	16354.08
808.447	16315.66
808.777	16306.39
809.107	16263.46
809.436	16159.05
809.766	16195.44
810.096	16147.75
810.426	16020.3
810.755	16132.39
811.085	16000.19
811.414	15987.53
811.744	15855.33
812.073	15869.12
812.403	15840.87
812.732	15760.87
813.061	15728.1
813.39	15582.34
813.719	15614.43
814.049	15691.95
814.378	15540.76
814.707	15599.29
815.036	15498.05
815.365	15410.15
815.693	15339.64
816.022	15420.77
816.351	15306.19
816.68	15187.33
817.008	15187.78
817.337	15085.41
817.665	15132.41
817.994	15054.9
818.322	15061.68
818.651	15082.02
818.979	14901.46
819.307	15046.09
819.636	14888.58
819.964	14850.84
820.292	14888.8
820.62	14867.11
820.948	14868.01
821.276	14932.19
821.604	14787.11
821.932	14903.94
822.259	14842.25
822.587	14786.66
822.915	14818.97
823.243	14750.5
823.57	14780.78
823.898	14831.86
824.225	14781.46
824.553	14715.47
824.88	14733.55
825.207	14823.72
825.535	14709.15
825.862	14788.69
826.189	14619.21
826.516	14789.15
826.843	14779.88
827.17	14847.67
827.497	14773.1
827.824	14762.93
828.151	14817.84
828.478	14709.37
828.805	14788.02
829.131	14717.73
829.458	14706.21
829.785	14581.92
830.111	14669.15
830.438	14713.89
830.764	14659.66
831.09	14699.66
831.417	14723.16
831.743	14652.65
832.069	14737.17
832.395	14636.38
832.722	14604.52
833.048	14555.7
833.374	14668.92
833.7	14551.64
834.026	14637.74
834.351	14530.17
834.677	14528.36
835.003	14528.81
835.329	14588.7
835.654	14534.91
835.98	14412.21
836.306	14469.15
836.631	14387.12
836.956	14495.14
837.282	14431.19
837.607	14381.25
837.932	14353.22
838.258	14314.13
838.583	14322.72
838.908	14293.79
839.233	14249.72
839.558	14247.92
839.883	14201.14
840.208	14139.22
840.533	14178.77
840.858	14154.81
841.182	14109.84
841.507	14086.11
841.832	14014.48
842.156	14023.74
842.481	14045.66
842.805	13951.65
843.13	13906.23
843.454	13909.17
843.778	13814.03
844.103	13812
844.427	13804.99
844.751	13805.89
845.075	13732.22
845.399	13701.94
845.723	13566.13
846.047	13655.16
846.371	13504.21
846.695	13520.03
847.019	13385.11
847.343	13359.58
847.666	13286.59
847.99	13299.92
848.313	13335.85
848.637	13129.75
848.96	13128.62
849.284	13104.22
849.607	12977.67
849.931	13001.4
850.254	12881.17
850.577	12749.65
850.9	12752.14
851.223	12754.85
851.546	12671.69
851.869	12524.12
852.192	12639.15
852.515	12548.53
852.838	12362.09
853.161	12428.53
853.483	12422.2
853.806	12328.42
854.129	12364.35
854.451	12228.08
854.774	12215.2
855.096	12220.17
855.419	12160.06
855.741	12083.45
856.063	11976.34
856.385	12031.25
856.708	11933.63
857.03	11939.5
857.352	11954.42
857.674	11854.98
857.996	11802.56
858.318	11715.33
858.64	11827.87
858.961	11755.1
859.283	11731.82
859.605	11681.43
859.926	11621.77
860.248	11640.08
860.57	11567.53
860.891	11561.66
861.212	11564.15
861.534	11509.68
861.855	11394.43
862.176	11402.79
862.498	11483.92
862.819	11390.82
863.14	11417.93
863.461	11414.09
863.782	11297.26
864.103	11299.97
864.424	11241.44
864.745	11363.02
865.065	11261.33
865.386	11209.35
865.707	11237.37
866.027	11263.14
866.348	11155.79
866.668	11179.07
866.989	11139.75
867.309	11118.96
867.63	11066.08
867.95	11040.32
868.27	11026.76
868.59	11110.37
868.91	11048
869.23	11017.27
869.55	10921.45
869.87	11006.42
870.19	10935.69
870.51	10938.85
870.83	10911.51
871.15	10833.32
871.469	10892.07
871.789	10876.48
872.109	10874.67
872.428	10790.83
872.748	10795.35
873.067	10795.8
873.386	10805.07
873.706	10775.92
874.025	10705.41
874.344	10695.24
874.663	10687.78
874.982	10638.97
875.301	10609.14
875.62	10604.62
875.939	10619.09
876.258	10525.08
876.577	10532.31
876.896	10511.52
877.214	10506.77
877.533	10502.25
877.852	10548.13
878.17	10535.7
878.489	10486.43
878.807	10445.3
879.125	10479.65
879.444	10400.33
879.762	10372.54
880.08	10394.23
880.398	10370.28
880.716	10405.31
881.034	10323.5
881.352	10319.43
881.67	10261.58
881.988	10332.54
882.306	10223.84
882.624	10199.66
882.941	10158.98
883.259	10133.67
883.577	10165.31
883.894	10060.91
884.212	10058.87
884.529	10053
884.846	10059.55
885.164	10076.27
885.481	9986.79
885.798	10019.55
886.115	9904.53
886.432	9919.22
886.75	9980.01
887.067	9871.08
887.383	9825.66
887.7	9844.19
888.017	9815.26
888.334	9786.34
888.651	9771.65
888.967	9831.31
889.284	9760.58
889.6	9652.78
889.917	9636.06
890.233	9599.23
890.55	9558.77
890.866	9627.92
891.182	9569.85
891.498	9510.64
891.815	9457.08
892.131	9517.42
892.447	9411.66
892.763	9334.37
893.079	9379.8
893.395	9403.98
893.71	9267.93
894.026	9292.11
894.342	9285.79
894.657	9234.04
894.973	9235.39
895.289	9223.42
895.604	9152.23
895.92	9083.53
896.235	9089.63
896.55	9076.98
896.865	9058.45
897.181	9081.05
897.496	9027.71
897.811	8940.49
898.126	8970.31
898.441	8875.18
898.756	8871.33
899.071	8842.86
899.386	8789.98
899.7	8718.34
900.015	8718.8
900.33	8665.24
900.644	8667.05
900.959	8625.92
901.273	8622.98
901.588	8594.73
901.902	8507.73
902.216	8513.38
902.531	8531.46
902.845	8481.74
903.159	8427.5
903.473	8383.44
903.787	8439.03
904.101	8284.68
904.415	8287.4
904.729	8307.28
905.042	8302.31
905.356	8157
905.67	8162.65
905.984	8074.07
906.297	8128.08
906.611	8059.83
906.924	8046.27
907.237	8027.06
907.551	7959.04
907.864	8003.33
908.177	7950.45
908.491	7949.32
908.804	7852.38
909.117	7888.54
909.43	7808.31
909.743	7753.85
910.056	7770.8
910.368	7718.6
910.681	7696
910.994	7623.01
911.307	7627.75
911.619	7539.17
911.932	7575.55
912.244	7448.77
912.557	7472.5
912.869	7450.35
913.181	7489.22
913.494	7426.17
913.806	7374.2
914.118	7309.57
914.43	7303.92
914.742	7206.75
915.054	7239.51
915.366	7208.33
915.678	7153.41
915.99	7190.02
916.302	7080.65
916.613	7081.55
916.925	7055.11
917.236	7003.14
917.548	7021.44
917.859	7044.04
918.171	6896.25
918.482	6914.32
918.794	6860.99
919.105	6904.38
919.416	6828.68
919.727	6812.63
920.038	6773.54
920.349	6725.63
920.66	6702.58
920.971	6651.96
921.282	6645.63
921.593	6606.76
921.903	6581.68
922.214	6599.08
922.525	6576.25
922.835	6470.72
923.146	6482.02
923.456	6407.22
923.767	6441.79
924.077	6396.15
924.387	6390.95
924.697	6346.43
925.008	6331.97
925.318	6279.76
925.628	6365.64
925.938	6254.91
926.248	6217.17
926.558	6123.38
926.867	6127.23
927.177	6175.36
927.487	6096.04
927.796	6062.37
928.106	6028.47
928.416	6003.61
928.725	6019.66
929.034	5954.35
929.344	6027.79
929.653	5980.34
929.962	5928.59
930.271	5897.4
930.581	5868.48
930.89	5797.97
931.199	5863.5
931.508	5795.71
931.817	5833.67
932.125	5764.07
932.434	5721.36
932.743	5716.84
933.051	5681.59
933.36	5631.19
933.669	5583.51
933.977	5580.35
934.286	5550.97
934.594	5514.36
934.902	5522.72
935.21	5501.71
935.519	5477.75
935.827	5460.8
936.135	5425.78
936.443	5367.7
936.751	5373.12
937.059	5388.26
937.367	5326.34
937.674	5325.21
937.982	5315.72
938.29	5270.98
938.597	5231.2
938.905	5202.28
939.213	5216.52
939.52	5166.35
939.827	5177.19
940.135	5136.07
940.442	5112.34
940.749	5093.81
941.056	5079.57
941.363	5040.02
941.67	5061.94
941.977	4980.82
942.284	4939.69
942.591	5004.77
942.898	4938.78
943.205	4943.98
943.511	4901.27
943.818	4929.74
944.125	4816.07
944.431	4829.41
944.738	4841.84
945.044	4768.17
945.35	4790.54
945.657	4752.57
945.963	4711.22
946.269	4690.88
946.575	4709.86
946.881	4681.16
947.187	4615.4
947.493	4576.53
947.799	4599.81
948.105	4588.96
948.41	4553.03
948.716	4594.61
949.022	4528.4
949.327	4538.12
949.633	4440.72
949.938	4458.12
950.244	4480.04
950.549	4450.66
950.854	4412.69
951.16	4436.2
951.465	4319.36
951.77	4348.97
952.075	4335.41
952.38	4313.04
952.685	4354.84
952.99	4243.43
953.294	4291.79
953.599	4262.42
953.904	4245.47
954.209	4225.58
954.513	4195.75
954.818	4148.52
955.122	4165.92
955.426	4117.79
955.731	4088.64
956.035	4060.16
956.339	4082.53
956.643	4085.7
956.948	4031.91
957.252	4001.86
957.556	3982.2
957.86	3981.52
958.163	3957.79
958.467	3976.1
958.771	3925.02
959.075	3948.53
959.378	3930.9
959.682	3919.83
959.985	3860.84
960.289	3849.77
960.592	3832.15
960.896	3873.73
961.199	3797.34
961.502	3767.97
961.805	3770.45
962.108	3732.26
962.411	3753.5
962.714	3710.79
963.017	3701.3
963.32	3715.09
963.623	3717.35
963.926	3658.59
964.228	3646.16
964.531	3612.04
964.833	3624.24
965.136	3587.18
965.438	3587.86
965.741	3602.09
966.043	3555.32
966.345	3538.37
966.648	3515.54
966.95	3527.97
967.252	3489.78
967.554	3468.31
967.856	3451.82
968.158	3461.31
968.46	3396.9
968.761	3425.15
969.063	3385.38
969.365	3378.15
969.666	3375.66
969.968	3375.43
970.269	3341.31
970.571	3366.62
970.872	3341.76
971.174	3326.62
971.475	3271.48
971.776	3259.05
972.077	3261.31
972.378	3243.01
972.679	3246.4
972.98	3221.09
973.281	3205.72
973.582	3164.59
973.883	3199.39
974.183	3141.09
974.484	3146.51
974.785	3112.84
975.085	3096.12
975.386	3125.95
975.686	3093.86
975.986	3056.57
976.287	3087.31
976.587	3001.21
976.887	3047.98
977.187	3000.3
977.487	3000.08
977.787	3010.92
978.087	2982.9
978.387	2981.77
978.687	2963.02
978.987	2932.96
979.286	2930.25
979.586	2901.32
979.885	2904.71
980.185	2883.7
980.484	2843.92
980.784	2844.83
981.083	2839.85
981.382	2825.17
981.682	2824.26
981.981	2818.84
982.28	2784.71
982.579	2789.01
982.878	2776.81
983.177	2740.42
983.475	2782
983.774	2745.62
984.073	2713.98
984.372	2694.32
984.67	2719.86
984.969	2699.97
985.267	2715.56
985.566	2685.96
985.864	2683.93
986.162	2648
986.461	2619.52
986.759	2624.27
987.057	2575
987.355	2566.19
987.653	2572.74
987.951	2573.87
988.249	2538.62
988.547	2565.29
988.844	2544.04
989.142	2519.41
989.44	2508.11
989.737	2463.82
990.035	2462.24
990.332	2466.98
990.63	2476.25
990.927	2452.52
991.224	2431.28
991.521	2445.74
991.819	2423.59
992.116	2418.62
992.413	2395.35
992.71	2361
993.006	2389.7
993.303	2386.08
993.6	2364.61
993.897	2337.72
994.193	2345.4
994.49	2332.98
994.787	2324.61
995.083	2307.21
995.379	2296.59
995.676	2273.77
995.972	2282.36
996.268	2227.67
996.565	2253.43
996.861	2222.02
997.157	2271.06
997.453	2223.6
997.749	2207.1
998.044	2174.79
998.34	2185.86
998.636	2203.94
998.932	2157.16
999.227	2135.01
999.523	2132.53
999.818	2128.69
1000.114	2109.93
1000.409	2101.8
1000.704	2099.08
1001	2076.48
1001.295	2048.46
1001.59	2071.74
1001.885	2073.1
1002.18	2027.45
1002.475	2052.08
1002.77	1999.88
1003.065	1989.26
1003.359	1989.03
1003.654	1988.8
1003.949	1967.56
1004.243	1963.95
1004.538	1940.44
1004.832	1960.56
1005.127	1949.93
1005.421	1909.71
1005.715	1913.55
1006.009	1904.74
1006.304	1876.72
1006.598	1866.1
1006.892	1893.44
1007.186	1883.72
1007.48	1874
1007.773	1859.09
1008.067	1809.15
1008.361	1775.7
1008.655	1810.96
1008.948	1790.16
1009.242	1795.81
1009.535	1743.16
1009.829	1767.11
1010.122	1751.75
1010.415	1747.91
1010.708	1742.71
1011.001	1714.01
1011.295	1712.43
1011.588	1691.41
1011.881	1682.82
1012.173	1694.57
1012.466	1669.72
1012.759	1648.47
1013.052	1649.38
1013.344	1667.91
1013.637	1631.07
1013.93	1613.9
1014.222	1615.93
1014.514	1593.33
1014.807	1617.97
1015.099	1598.53
1015.391	1592.88
1015.683	1590.4
1015.976	1577.52
1016.268	1559.89
1016.56	1528.02
1016.851	1542.49
1017.143	1571.19
1017.435	1525.76
1017.727	1517.18
1018.018	1509.95
1018.31	1517.86
1018.602	1514.92
1018.893	1473.56
1019.185	1489.38
1019.476	1463.17
1019.767	1464.07
1020.058	1413.68
1020.35	1433.11
1020.641	1434.69
1020.932	1424.98
1021.223	1402.15
1021.514	1411.87
1021.804	1370.06
1022.095	1371.87
1022.386	1365.77
1022.677	1364.19
1022.967	1358.31
1023.258	1328.26
1023.548	1324.41
1023.839	1348.82
1024.129	1328.03
1024.419	1312.44
1024.709	1304.3
1025	1285.09
1025.29	1269.05
1025.58	1271.99
1025.87	1282.16
1026.16	1261.14
1026.449	1283.96
1026.739	1267.24
1027.029	1248.03
1027.319	1227.24
1027.608	1228.82
1027.898	1213.46
1028.187	1199.9
1028.477	1181.59
1028.766	1189.28
1029.055	1195.6
1029.344	1167.13
1029.634	1183.85
1029.923	1168.94
1030.212	1148.6
1030.501	1173.68
1030.79	1137.98
1031.078	1110.86
1031.367	1107.47
1031.656	1128.26
1031.945	1094.14
1032.233	1104.53
1032.522	1072.44
1032.81	1078.77
1033.099	1049.17
1033.387	1076.74
1033.675	1070.64
1033.963	1057.75
1034.251	1043.07
1034.54	1057.08
1034.828	1047.59
1035.116	1011.88
1035.403	1006.46
1035.691	1038.32
1035.979	1026.12
1036.267	998.55
1036.554	984.99
1036.842	1009.17
1037.129	977.98
1037.417	985.21
1037.704	977.98
1037.992	951.32
1038.279	963.75
1038.566	936.4
1038.853	936.4
1039.14	936.4
