Data from hue_220_FLMS001491_00036.txt Node
Date: Tue Feb 07 16:39:22 GMT 2017
User: dcchb
Spectrometer: FLMS00149
Trigger mode: 0
Integration Time (sec): 2.000000E-2
Scans to average: 10
Electric dark correction enabled: true
Nonlinearity correction enabled: false
Boxcar width: 0
XAxis mode: Wavelengths
Number of Pixels in Spectrum: 2048
>>>>>Begin Spectral Data<<<<<
341.393	-0.95
341.776	-0.95
342.16	-0.95
342.543	-68.06
342.927	-81.4
343.31	-80.49
343.693	-52.92
344.077	-56.99
344.46	-57.22
344.843	-59.02
345.226	-55.18
345.61	-22.87
345.993	-11.79
346.376	-4.34
346.759	-0.04
347.142	25.27
347.525	52.39
347.908	48.32
348.291	72.72
348.674	88.77
349.057	113.4
349.44	138.49
349.823	143
350.206	176.45
350.588	192.72
350.971	211.93
351.354	216.22
351.737	235.43
352.119	235.88
352.502	262.32
352.884	241.76
353.267	288.31
353.65	286.73
354.032	313.4
354.414	300.51
354.797	310.01
355.179	312.72
355.562	324.24
355.944	338.03
356.326	329.21
356.709	311.59
357.091	330.34
357.473	340.97
357.855	324.92
358.238	357.24
358.62	312.27
359.002	339.16
359.384	337.58
359.766	325.6
360.148	317.24
360.53	326.95
360.912	330.57
361.294	311.14
361.676	345.49
362.057	319.27
362.439	321.76
362.821	320.63
363.203	319.95
363.584	319.5
363.966	324.02
364.348	331.47
364.729	307.29
365.111	309.33
365.493	288.09
365.874	317.01
366.256	309.1
366.637	300.06
367.019	319.95
367.4	324.47
367.781	316.79
368.163	307.29
368.544	318.14
368.925	317.24
369.306	322.44
369.688	310.46
370.069	321.08
370.45	306.62
370.831	314.98
371.212	300.29
371.593	323.11
371.974	339.61
372.355	333.51
372.736	314.98
373.117	319.72
373.498	312.27
373.879	320.63
374.26	295.54
374.641	308.2
375.021	334.86
375.402	322.66
375.783	323.79
376.163	321.98
376.544	339.16
376.925	332.38
377.305	322.44
377.686	328.54
378.066	339.61
378.447	323.56
378.827	317.01
379.208	322.44
379.588	345.03
379.968	317.69
380.349	328.99
380.729	320.85
381.109	320.18
381.489	322.44
381.87	316.11
382.25	321.76
382.63	341.19
383.01	335.54
383.39	339.38
383.77	336.45
384.15	342.55
384.53	346.62
384.91	339.38
385.29	335.09
385.67	334.19
386.049	343.45
386.429	344.13
386.809	328.08
387.189	349.33
387.568	346.39
387.948	335.32
388.328	378.7
388.707	352.94
389.087	358.82
389.466	345.26
389.846	341.19
390.225	368.31
390.605	367.41
390.984	350.68
391.363	364.92
391.743	369.89
392.122	361.98
392.501	366.5
392.881	383.45
393.26	370.57
393.639	357.91
394.018	373.73
394.397	362.21
394.776	356.78
395.155	374.19
395.534	370.8
395.913	373.96
396.292	373.51
396.671	375.31
397.05	392.72
397.429	378.03
397.808	371.25
398.186	388.87
398.565	402.43
398.944	406.05
399.323	408.31
399.701	416.22
400.08	401.3
400.458	382.09
400.837	398.59
401.215	419.16
401.594	414.64
401.972	426.84
402.351	415.77
402.729	424.81
403.107	405.37
403.486	422.77
403.864	413.73
404.242	415.09
404.62	445.14
404.999	415.99
405.377	400.85
405.755	425.03
406.133	429.55
406.511	455.09
406.889	448.53
407.267	463.9
407.645	444.47
408.023	467.29
408.401	449.21
408.779	476.56
409.156	485.59
409.534	496.67
409.912	490.11
410.29	515.65
410.667	496.22
411.045	511.13
411.422	510.23
411.8	516.55
412.178	523.33
412.555	561.3
412.933	512.03
413.31	542.09
413.687	574.86
414.065	570.79
414.442	569.66
414.819	600.85
415.197	604.01
415.574	616.66
415.951	611.02
416.328	615.99
416.705	618.7
417.082	613.05
417.46	625.48
417.837	622.99
418.214	664.57
418.591	649.88
418.967	671.8
419.344	686.95
419.721	700.28
420.098	669.54
420.475	704.35
420.852	713.84
421.228	733.27
421.605	744.34
421.982	740.96
422.358	754.51
422.735	769.43
423.111	765.14
423.488	789.09
423.864	793.38
424.241	805.81
424.617	802.65
424.994	841.07
425.37	838.35
425.746	862.08
426.123	861.86
426.499	862.53
426.875	900.5
427.251	924
427.627	905.24
428.003	932.36
428.379	936.2
428.756	961.74
429.132	934.85
429.507	984.56
429.883	971.68
430.259	975.53
430.635	1017.11
431.011	1025.92
431.387	1013.72
431.763	1044.45
432.138	1068.63
432.514	1054.62
432.89	1074.05
433.265	1097.78
433.641	1119.7
434.016	1130.32
434.392	1167.16
434.767	1186.37
435.143	1196.08
435.518	1222.98
435.894	1241.96
436.269	1289.87
436.644	1261.62
437.02	1275.18
437.395	1314.73
437.77	1327.61
438.145	1373.71
438.52	1394.5
438.895	1408.51
439.271	1387.27
439.646	1441.73
440.021	1485.57
440.395	1482.86
440.77	1448.06
441.145	1486.92
441.52	1545.23
441.895	1511.56
442.27	1605.34
442.645	1552.01
443.019	1562.85
443.394	1618.45
443.769	1610.31
444.143	1621.38
444.518	1633.81
444.892	1641.04
445.267	1669.07
445.641	1647.6
446.016	1687.82
446.39	1703.64
446.764	1701.16
447.139	1716.3
447.513	1759.69
447.887	1738.22
448.262	1739.57
448.636	1751.32
449.01	1781.38
449.384	1808.95
449.758	1824.77
450.132	1839.46
450.506	1817.08
450.88	1843.75
451.254	1849.85
451.628	1893.47
452.002	1903.41
452.376	1907.7
452.75	1938.66
453.123	1934.6
453.497	1974.59
453.871	1974.59
454.244	2040.58
454.618	2022.05
454.992	2028.38
455.365	2053.01
455.739	2124.42
456.112	2126.23
456.486	2133.23
456.859	2178.43
457.232	2201.03
457.606	2214.59
457.979	2220.46
458.352	2262.05
458.725	2290.74
459.099	2284.87
459.472	2322.83
459.845	2385.66
460.218	2367.13
460.591	2412.78
460.964	2413.23
461.337	2443.51
461.71	2491.87
462.083	2494.36
462.456	2530.96
462.829	2518.99
463.201	2589.95
463.574	2559.44
463.947	2601.47
464.32	2676.95
464.692	2701.81
465.065	2713.11
465.438	2739.77
465.81	2735.03
466.183	2819.09
466.555	2855.25
466.928	2867.23
467.3	2873.55
467.672	2919.65
468.045	2971.86
468.417	2966.89
468.789	3022.03
469.161	3034.68
469.534	3080.78
469.906	3124.17
470.278	3118.97
470.65	3149.25
471.022	3220.44
471.394	3280.32
471.766	3301.34
472.138	3301.57
472.51	3408.23
472.882	3457.27
473.253	3459.98
473.625	3509.7
473.997	3560.54
474.369	3608.9
474.74	3612.52
475.112	3655.45
475.484	3729.58
475.855	3789.69
476.227	3814.09
476.598	3885.51
476.97	3886.41
477.341	4001.43
477.713	4043.47
478.084	4064.71
478.455	4146.74
478.827	4142.22
479.198	4288.88
479.569	4265.83
479.94	4403.46
480.311	4456.34
480.682	4525.71
481.053	4576.33
481.424	4651.59
481.795	4669.21
482.166	4763.22
482.537	4742.43
482.908	4852.26
483.279	4919.38
483.65	4987.17
484.021	5075.3
484.391	5122.76
484.762	5124.12
485.133	5178.8
485.503	5239.59
485.874	5321.4
486.244	5384.22
486.615	5461.06
486.985	5498.57
487.356	5582.86
487.726	5644.55
488.097	5668.74
488.467	5712.8
488.837	5878.9
489.207	5934.72
489.578	5942.63
489.948	5966.81
490.318	6104.2
490.688	6050.19
491.058	6202.05
491.428	6227.14
491.798	6256.52
492.168	6358.66
492.538	6403.18
492.908	6484.98
493.278	6550.52
493.648	6544.87
494.017	6559.79
494.387	6612.21
494.757	6705.09
495.126	6704.19
495.496	6769.95
495.866	6716.84
496.235	6815.15
496.605	6910.96
496.974	6881.13
497.344	6928.14
497.713	6972.88
498.082	6957.51
498.452	7086.55
498.821	7074.35
499.19	7094.91
499.559	7115.93
499.928	7171.29
500.298	7189.37
500.667	7225.08
501.036	7221.46
501.405	7287
501.774	7267.11
502.143	7321.35
502.512	7321.8
502.88	7433.43
503.249	7407.67
503.618	7452.64
503.987	7365.87
504.356	7456.94
504.724	7492.42
505.093	7424.4
505.462	7490.16
505.83	7556.14
506.199	7577.39
506.567	7595.24
506.936	7599.76
507.304	7675.46
507.672	7679.53
508.041	7760.21
508.409	7665.52
508.777	7754.78
509.145	7802.46
509.514	7704.84
509.882	7797.49
510.25	7820.99
510.618	7826.87
510.986	7856.25
511.354	7875.23
511.722	7895.34
512.09	7941.9
512.458	7957.49
512.826	7944.83
513.193	7958.17
513.561	8002.46
513.929	8003.59
514.297	8041.78
514.664	8016.02
515.032	8071.16
515.4	8048.79
515.767	8087.88
516.135	8049.24
516.502	7988.22
516.869	8116.81
517.237	8102.34
517.604	8095.34
517.972	8123.59
518.339	8085.39
518.706	8093.98
519.073	8128.78
519.44	8136.47
519.808	8094.66
520.175	8129.01
520.542	8211.04
520.909	8235.22
521.276	8178.05
521.643	8156.13
522.009	8244.49
522.376	8208.78
522.743	8232.74
523.11	8276.8
523.477	8290.81
523.843	8343.02
524.21	8321.55
524.577	8308.67
524.943	8384.14
525.31	8377.59
525.676	8374.65
526.043	8342.11
526.409	8439.96
526.776	8451.94
527.142	8360.42
527.508	8398.15
527.874	8444.93
528.241	8430.92
528.607	8367.42
528.973	8412.17
529.339	8378.04
529.705	8488.32
530.071	8428.21
530.437	8442.45
530.803	8448.55
531.169	8457.59
531.535	8472.5
531.901	8408.55
532.267	8404.03
532.632	8468.44
532.998	8386.4
533.364	8384.6
533.73	8373.75
534.095	8358.83
534.461	8319.96
534.826	8403.58
535.192	8391.15
535.557	8411.49
535.923	8326.07
536.288	8416.23
536.653	8346.63
537.019	8263.7
537.384	8327.2
537.749	8314.32
538.114	8256.92
538.479	8231.15
538.845	8209.23
539.21	8191.61
539.575	8172.4
539.94	8196.8
540.305	8166.52
540.67	8103.47
541.034	8129.69
541.399	8065.51
541.764	8072.97
542.129	8090.37
542.494	8104.83
542.858	8027.09
543.223	8032.74
543.587	8062.12
543.952	8023.7
544.316	8004.72
544.681	7978.05
545.045	7970.14
545.41	7960.65
545.774	7884.95
546.138	7903.25
546.503	7839.75
546.867	7793.2
547.231	7906.64
547.595	7836.81
547.959	7793.65
548.324	7704.61
548.688	7736.25
549.052	7790.94
549.416	7709.13
549.779	7672.52
550.143	7620.32
550.507	7693.54
550.871	7632.3
551.235	7633.66
551.599	7672.07
551.962	7585.29
552.326	7610.83
552.689	7547.56
553.053	7519.76
553.417	7520.21
553.78	7576.93
554.143	7521.34
554.507	7433.89
554.87	7430.5
555.234	7475.92
555.597	7433.43
555.96	7440.44
556.323	7408.8
556.686	7416.26
557.05	7400.22
557.413	7453.55
557.776	7370.39
558.139	7380.1
558.502	7364.28
558.865	7391.63
559.228	7384.17
559.59	7321.35
559.953	7345.08
560.316	7455.13
560.679	7391.4
561.041	7393.89
561.404	7425.75
561.767	7383.94
562.129	7321.35
562.492	7404.73
562.854	7389.37
563.217	7377.84
563.579	7372.65
563.941	7388.92
564.304	7405.86
564.666	7402.02
565.028	7410.16
565.39	7396.15
565.753	7456.48
566.115	7468.69
566.477	7418.52
566.839	7397.5
567.201	7454
567.563	7425.98
567.925	7505.52
568.287	7515.01
568.648	7508.69
569.01	7446.77
569.372	7508.23
569.734	7468.69
570.095	7539.19
570.457	7523.38
570.819	7604.96
571.18	7534.45
571.542	7588.68
571.903	7577.84
572.265	7572.87
572.626	7554.79
572.987	7646.54
573.349	7573.54
573.71	7655.35
574.071	7648.12
574.432	7651.28
574.794	7673.43
575.155	7703.71
575.516	7708.23
575.877	7733.77
576.238	7753.65
576.599	7749.13
576.96	7749.13
577.32	7716.14
577.681	7719.53
578.042	7865.97
578.403	7775.12
578.763	7859.19
579.124	7819.41
579.485	7875.91
579.845	7901.9
580.206	7888.79
580.566	7841.33
580.927	7895.57
581.287	7940.99
581.648	7917.49
582.008	7979.86
582.368	7943.93
582.728	7996.36
583.089	8010.82
583.449	8042.91
583.809	8053.53
584.169	8030.48
584.529	8104.6
584.889	8168.1
585.249	8066.86
585.609	8090.14
585.969	8105.96
586.329	8101.44
586.688	8094.89
587.048	8123.81
587.408	8112.51
587.768	8166.07
588.127	8164.71
588.487	8193.19
588.846	8189.8
589.206	8111.83
589.565	8214.43
589.925	8193.64
590.284	8217.14
590.643	8283.13
591.003	8260.53
591.362	8325.39
591.721	8337.37
592.08	8292.17
592.44	8349.12
592.799	8348.21
593.158	8281.77
593.517	8270.25
593.876	8387.99
594.235	8347.31
594.593	8343.24
594.952	8375.33
595.311	8430.47
595.67	8424.59
596.029	8448.1
596.387	8429.57
596.746	8555.66
597.104	8386.4
597.463	8429.34
597.822	8540.3
598.18	8413.97
598.538	8446.97
598.897	8522.45
599.255	8423.24
599.613	8584.82
599.972	8495.78
600.33	8566.06
600.688	8475.89
601.046	8588.43
601.404	8605.83
601.762	8565.83
602.12	8554.99
602.478	8631.14
602.836	8577.59
603.194	8541.88
603.552	8540.98
603.91	8534.2
604.268	8572.16
604.625	8491.26
604.983	8571.03
605.341	8530.81
605.698	8636.79
606.056	8599.73
606.413	8614.65
606.771	8626.62
607.128	8652.39
607.485	8637.24
607.843	8675.66
608.2	8708.66
608.557	8712.27
608.914	8667.98
609.272	8755.66
609.629	8736.68
609.986	8736.68
610.343	8683.8
610.7	8749.33
611.057	8756.11
611.414	8716.11
611.771	8742.55
612.127	8747.52
612.484	8782.33
612.841	8792.49
613.198	8786.62
613.554	8705.04
613.911	8866.17
614.267	8817.35
614.624	8829.1
614.98	8807.41
615.337	8871.81
615.693	8824.13
616.05	8814.19
616.406	8935.09
616.762	8879.5
617.118	8868.2
617.475	8901.19
617.831	8899.38
618.187	8888.54
618.543	8920.18
618.899	8977.57
619.255	8949.33
619.611	8880.4
619.967	8965.82
620.323	8986.39
620.678	8928.99
621.034	8891.02
621.39	8883.57
621.746	8915.66
622.101	9025.03
622.457	8901.42
622.812	8950
623.168	8966.05
623.523	8900.29
623.879	8987.07
624.234	8955.88
624.589	8919.5
624.945	8924.92
625.3	8976.22
625.655	8928.31
626.01	9059.83
626.365	8950.91
626.72	8947.29
627.075	8916.33
627.43	8934.19
627.785	8899.38
628.14	8937.8
628.495	8911.36
628.85	8851.7
629.205	8892.83
629.559	8926.73
629.914	8880.63
630.269	8924.92
630.623	8874.53
630.978	8900.51
631.332	8856.67
631.687	8893.51
632.041	8889.22
632.396	8947.07
632.75	8832.27
633.104	8855.54
633.459	8808.77
633.813	8781.2
634.167	8730.8
634.521	8791.82
634.875	8850.8
635.229	8787.75
635.583	8754.76
635.937	8730.12
636.291	8731.03
636.645	8714.76
636.999	8692.16
637.352	8758.82
637.706	8681.99
638.06	8714.53
638.413	8645.61
638.767	8675.21
639.121	8644.48
639.474	8644.93
639.828	8636.34
640.181	8632.27
640.534	8621.2
640.888	8584.59
641.241	8527.87
641.594	8545.5
641.947	8619.62
642.301	8560.64
642.654	8565.38
643.007	8583.46
643.36	8555.89
643.713	8558.6
644.066	8599.96
644.419	8591.37
644.771	8475.44
645.124	8447.19
645.477	8418.27
645.83	8367.65
646.182	8295.33
646.535	8338.04
646.888	8349.34
647.24	8253.75
647.593	8339.4
647.945	8316.8
648.298	8309.34
648.65	8256.92
649.002	8271.6
649.355	8312.96
649.707	8283.13
650.059	8302.56
650.411	8420.3
650.763	8413.07
651.115	8481.54
651.467	8418.95
651.819	8504.14
652.171	8475.22
652.523	8486.74
652.875	8437.48
653.227	8436.57
653.578	8487.87
653.93	8565.38
654.282	8418.27
654.633	8472.5
654.985	8494.88
655.337	8548.66
655.688	8488.55
656.039	8500.75
656.391	8406.52
656.742	8409.45
657.094	8425.27
657.445	8509.34
657.796	8482.9
658.147	8421.88
658.498	8475.67
658.849	8486.29
659.2	8513.41
659.551	8439.06
659.902	8493.97
660.253	8401.77
660.604	8555.21
660.955	8518.15
661.306	8538.04
661.656	8507.98
662.007	8538.94
662.358	8560.41
662.708	8522.45
663.059	8534.87
663.409	8529
663.76	8599.28
664.11	8542.56
664.461	8605.61
664.811	8594.76
665.161	8581.88
665.511	8552.5
665.862	8531.71
666.212	8571.94
666.562	8595.44
666.912	8529
667.262	8543.69
667.612	8569
667.962	8550.47
668.312	8525.61
668.662	8561.54
669.011	8536.23
669.361	8562.9
669.711	8539.17
670.06	8507.3
670.41	8488.1
670.76	8499.85
671.109	8491.94
671.459	8463.24
671.808	8486.74
672.157	8547.53
672.507	8432.96
672.856	8446.52
673.205	8458.94
673.554	8492.39
673.904	8464.14
674.253	8521.99
674.602	8444.26
674.951	8363.13
675.3	8317.48
675.649	8384.37
675.998	8460.07
676.346	8443.13
676.695	8499.17
677.044	8387.08
677.393	8441.32
677.741	8347.99
678.09	8406.52
678.438	8372.84
678.787	8408.1
679.135	8325.39
679.484	8332.62
679.832	8304.15
680.181	8316.35
680.529	8291.94
680.877	8314.99
681.225	8237.03
681.573	8366.07
681.922	8207.65
682.27	8207.2
682.618	8154.32
682.966	8278.61
683.314	8248.33
683.661	8143.02
684.009	8094.89
684.357	8096.69
684.705	8119.07
685.053	8119.74
685.4	8035.9
685.748	7995.45
686.095	8058.95
686.443	7972.86
686.79	7966.3
687.138	7969.24
687.485	8034.77
687.832	7919.07
688.18	7973.76
688.527	7921.78
688.874	7883.14
689.221	7896.02
689.568	7853.76
689.915	7856.25
690.262	7859.19
690.609	7790.71
690.956	7716.14
691.303	7758.17
691.65	7691.51
691.997	7672.98
692.344	7638.85
692.69	7625.29
693.037	7589.36
693.383	7515.69
693.73	7639.08
694.077	7533.32
694.423	7500.78
694.769	7479.08
695.116	7427.33
695.462	7407.67
695.808	7443.15
696.155	7436.82
696.501	7336.26
696.847	7372.19
697.193	7345.3
697.539	7330.84
697.885	7244.06
698.231	7250.39
698.577	7201.35
698.923	7167.68
699.269	7171.75
699.614	7143.72
699.96	7122.26
700.306	7095.82
700.651	7019.21
700.997	7042.94
701.342	7020.79
701.688	6996.16
702.033	6956.84
702.379	6945.99
702.724	6897.86
703.069	6945.54
703.415	6845.43
703.76	6945.09
704.105	6791.87
704.45	6816.28
704.795	6760.01
705.14	6784.19
705.485	6721.59
705.83	6728.59
706.175	6715.71
706.52	6638.65
706.865	6668.93
707.209	6645.21
707.554	6581.93
707.899	6619.67
708.243	6588.71
708.588	6538.09
708.932	6510.29
709.277	6524.31
709.621	6521.37
709.966	6405.66
710.31	6425.55
710.654	6405.89
710.998	6433.69
711.342	6424.2
711.687	6442.5
712.031	6393.91
712.375	6383.97
712.719	6348.04
713.063	6397.53
713.407	6351.88
713.75	6259.68
714.094	6338.32
714.438	6293.8
714.782	6292
715.125	6179.23
715.469	6252.67
715.812	6219.68
716.156	6237.31
716.499	6210.19
716.843	6200.47
717.186	6166.8
717.53	6151.66
717.873	6182.85
718.216	6143.52
718.559	6144.65
718.902	6141.04
719.246	6125.67
719.589	6131.55
719.932	6041.61
720.275	6079.57
720.617	6116.18
720.96	6090.42
721.303	6096.52
721.646	6078.22
721.989	6034.15
722.331	6082.06
722.674	6046.13
723.016	6021.72
723.359	6087.71
723.701	6010.65
724.044	6012.23
724.386	6004.32
724.729	6031.66
725.071	5965.9
725.413	6014.49
725.755	5984.89
726.097	5998.44
726.439	5998.44
726.782	5970.42
727.124	5955.73
727.465	5995.51
727.807	6007.26
728.149	5925.45
728.491	5974.26
728.833	5967.26
729.175	5980.59
729.516	5996.18
729.858	5940.37
730.199	5974.72
730.541	5959.57
730.882	5927.94
731.224	6046.8
731.565	5907.82
731.906	5932.01
732.248	5917.99
732.589	5940.59
732.93	5935.62
733.271	5924.32
733.612	5953.93
733.953	5944.66
734.294	5947.15
734.635	5946.92
734.976	5953.7
735.317	5970.87
735.658	5937.65
735.999	5976.07
736.339	5993.47
736.68	6016.75
737.021	5982.63
737.361	5988.05
737.702	6018.1
738.042	5979.24
738.383	5946.02
738.723	6029.18
739.063	6003.42
739.404	6018.1
739.744	6063.3
740.084	6075.28
740.424	6064.2
740.764	6032.57
741.104	6118.67
741.444	6043.41
741.784	6116.86
742.124	6081.61
742.464	6131.1
742.804	6149.4
743.143	6142.62
743.483	6147.14
743.823	6196.63
744.162	6197.99
744.502	6256.97
744.841	6283.86
745.181	6363.86
745.52	6277.31
745.86	6315.05
746.199	6367.25
746.538	6415.16
746.877	6440.47
747.216	6519.56
747.556	6593
747.895	6599.78
748.234	6605.21
748.573	6637.75
748.911	6712.32
749.25	6758.65
749.589	6779.67
749.928	6879.1
750.267	7013.33
750.605	7001.13
750.944	7103.05
751.283	7149.6
751.621	7226.89
751.96	7270.95
752.298	7396.15
752.636	7426.88
752.975	7509.59
753.313	7661.45
753.651	7793.65
753.989	7882.46
754.327	7924.27
754.666	8056.47
755.004	8134.43
755.342	8342.79
755.679	8434.09
756.017	8556.79
756.355	8649
756.693	8747.75
757.031	8959.95
757.368	9016.44
757.706	9147.74
758.044	9275.87
758.381	9514.28
758.719	9591.57
759.056	9701.4
759.394	9863.2
759.731	10006.93
760.068	10191.78
760.405	10281.5
760.743	10441.04
761.08	10646.46
761.417	10714.48
761.754	11012.55
762.091	11139.55
762.428	11281.92
762.765	11401.01
763.102	11650.72
763.438	11716.71
763.775	11910.15
764.112	12093.88
764.449	12336.58
764.785	12438.73
765.122	12554.88
765.458	12676.91
765.795	12870.58
766.131	13008.2
766.467	13237.58
766.804	13307.4
767.14	13379.72
767.476	13530.22
767.812	13709.88
768.148	13947.61
768.485	14051.34
768.821	14078.01
769.157	14302.41
769.492	14377.66
769.828	14565.45
770.164	14592.12
770.5	14693.13
770.836	14818.78
771.171	14920.7
771.507	15028.26
771.842	15101.48
772.178	15190.97
772.513	15271.19
772.849	15317.29
773.184	15448.14
773.519	15521.58
773.855	15626.21
774.19	15664.18
774.525	15789.15
774.86	15891.07
775.195	15890.61
775.53	16011.29
775.865	16016.49
776.2	15909.6
776.535	15949.59
776.87	16150.72
777.205	16192.53
777.539	16161.57
777.874	16363.14
778.209	16285.63
778.543	16312.07
778.878	16320.43
779.212	16388.23
779.547	16413.76
779.881	16543.25
780.215	16413.54
780.55	16575.12
780.884	16545.29
781.218	16618.28
781.552	16603.14
781.886	16621.22
782.22	16580.54
782.554	16607.66
782.888	16448.34
783.222	16566.3
783.556	16424.16
783.889	16612.85
784.223	16491.95
784.557	16512.74
784.89	16499.64
785.224	16555.68
785.557	16459.86
785.891	16493.31
786.224	16498.05
786.558	16555.68
786.891	16396.59
787.224	16384.39
787.557	16389.81
787.891	16378.96
788.224	16477.26
788.557	16551.16
788.89	16486.53
789.223	16490.15
789.556	16419.86
789.888	16410.15
790.221	16314.1
790.554	16153.66
790.887	16320.66
791.219	16217.61
791.552	16152.3
791.884	16166.09
792.217	16139.19
792.549	16170.15
792.882	16042.7
793.214	15989.37
793.546	16078.63
793.879	15976.26
794.211	15873.21
794.543	15952.98
794.875	15926.54
795.207	16058.07
795.539	15927.22
795.871	15929.26
796.203	15821.24
796.535	15802.03
796.867	15789.82
797.198	15708.7
797.53	15749.15
797.862	15727.23
798.193	15606.1
798.525	15529.49
798.856	15656.27
799.188	15436.16
799.519	15447.69
799.85	15401.59
800.182	15346.22
800.513	15432.32
800.844	15251.99
801.175	15338.54
801.506	15347.12
801.837	15292.89
802.168	15285.21
802.499	15231.87
802.83	15120.69
803.161	15069.62
803.491	15176.28
803.822	15061.03
804.153	15125.44
804.483	14946.68
804.814	14898.32
805.145	14922.05
805.475	14928.15
805.805	14763.19
806.136	14834.14
806.466	14828.27
806.796	14842.73
807.126	14743.52
807.457	14582.4
807.787	14820.13
808.117	14652
808.447	14525.9
808.777	14614.71
809.107	14530.2
809.436	14518.67
809.766	14468.05
810.096	14518.22
810.426	14444.1
810.755	14442.29
811.085	14430.99
811.414	14406.81
811.744	14382.18
812.073	14317.1
812.403	14286.81
812.732	14191
813.061	14169.75
813.39	14139.25
813.719	14112.35
814.049	14134.95
814.378	14153.71
814.707	14112.35
815.036	14029.19
815.365	13998.69
815.693	13906.71
816.022	13932.25
816.351	13900.61
816.68	13758.01
817.008	13889.31
817.337	13717.56
817.665	13751.69
817.994	13812.7
818.322	13778.8
818.651	13684.12
818.979	13629.66
819.307	13722.31
819.636	13768.18
819.964	13619.26
820.292	13674.85
820.62	13660.62
820.948	13613.38
821.276	13723.66
821.604	13638.24
821.932	13692.48
822.259	13608.41
822.587	13604.35
822.915	13579.49
823.243	13664.68
823.57	13536.1
823.898	13587.62
824.225	13588.53
824.553	13573.61
824.88	13547.4
825.207	13690.9
825.535	13553.05
825.862	13561.63
826.189	13541.07
826.516	13623.78
826.843	13627.85
827.17	13701.52
827.497	13649.54
827.824	13569.09
828.151	13668.52
828.478	13717.34
828.805	13660.16
829.131	13650.9
829.458	13646.83
829.785	13588.98
830.111	13607.96
830.438	13566.61
830.764	13654.51
831.09	13718.24
831.417	13518.25
831.743	13674.4
832.069	13579.04
832.395	13498.36
832.722	13584.23
833.048	13501.52
833.374	13508.3
833.7	13537.68
834.026	13511.01
834.351	13484.12
834.677	13500.85
835.003	13560.96
835.329	13450.23
835.654	13565.48
835.98	13459.94
836.306	13511.69
836.631	13396.89
836.956	13471.69
837.282	13479.15
837.607	13354.63
837.932	13319.16
838.258	13339.49
838.583	13411.36
838.908	13312.83
839.233	13293.39
839.558	13298.82
839.883	13208.65
840.208	13221.3
840.533	13226.95
840.858	13236.9
841.182	13132.95
841.507	13115.09
841.832	13140.4
842.156	13070.35
842.481	13077.81
842.805	12997.81
843.13	12996.23
843.454	12969.79
843.778	12918.26
844.103	12925.04
844.427	12852.28
844.751	12860.64
845.075	12836.23
845.399	12792.62
845.723	12688.44
846.047	12760.53
846.371	12616.8
846.695	12651.6
847.019	12516.24
847.343	12487.31
847.666	12448.67
847.99	12425.85
848.313	12342.68
848.637	12223.82
848.96	12280.31
849.284	12345.4
849.607	12154.67
849.931	12117.15
850.254	12161.22
850.577	12029.7
850.9	11913.09
851.223	11899.76
851.546	11872.41
851.869	11706.32
852.192	11893.88
852.515	11800.1
852.838	11671.74
853.161	11745.64
853.483	11619.31
853.806	11572.08
854.129	11598.3
854.451	11489.83
854.774	11480.11
855.096	11395.59
855.419	11400.56
855.741	11431.52
856.063	11373.44
856.385	11344.52
856.708	11254.12
857.03	11195.37
857.352	11259.32
857.674	11167.12
857.996	11149.49
858.318	11117.86
858.64	11116.73
858.961	11062.72
859.283	11009.16
859.605	10959.9
859.926	10985.43
860.248	10928.26
860.57	10875.38
860.891	10863.85
861.212	10887.58
861.534	10826.79
861.855	10718.77
862.176	10773.01
862.498	10752.22
862.819	10798.77
863.14	10759.22
863.461	10680.13
863.782	10683.97
864.103	10651.65
864.424	10671.77
864.745	10598.55
865.065	10656.4
865.386	10488.04
865.707	10518.55
866.027	10573.01
866.348	10530.75
866.668	10499.79
866.989	10518.33
867.309	10385.9
867.63	10479.91
867.95	10434.71
868.27	10417.08
868.59	10376.18
868.91	10330.76
869.23	10321.49
869.55	10276.98
869.87	10304.09
870.19	10298.9
870.51	10232.46
870.83	10333.47
871.15	10265.22
871.469	10289.4
871.789	10263.87
872.109	10208.95
872.428	10139.35
872.748	10193.81
873.067	10194.94
873.386	10205.34
873.706	10185
874.025	10046.02
874.344	10043.99
874.663	10065.91
874.982	10062.74
875.301	10041.5
875.62	10031.33
875.939	9981.39
876.258	9984.33
876.577	9957.21
876.896	9927.15
877.214	9914.95
877.533	9968.06
877.852	9858
878.17	9893.93
878.489	9882.86
878.807	9863.88
879.125	9883.99
879.444	9806.03
879.762	9835.86
880.08	9836.31
880.398	9773.94
880.716	9770.1
881.034	9761.51
881.352	9684
881.67	9758.8
881.988	9647.84
882.306	9697.33
882.624	9586.15
882.941	9588.18
883.259	9580.72
883.577	9579.59
883.894	9577.33
884.212	9587.5
884.529	9469.77
884.846	9473.83
885.164	9452.82
885.481	9424.79
885.798	9491.91
886.115	9326.94
886.432	9364.01
886.75	9324.68
887.067	9416.21
887.383	9352.71
887.7	9319.49
888.017	9264.35
888.334	9330.56
888.651	9249.21
888.967	9192.48
889.284	9121.98
889.6	9201.75
889.917	9126.72
890.233	9078.36
890.55	9054.18
890.866	9083.33
891.182	8969.89
891.498	8944.13
891.815	8954.52
892.131	8961.76
892.447	8889.67
892.763	8888.99
893.079	8813.74
893.395	8893.74
893.71	8817.58
894.026	8789.78
894.342	8740.29
894.657	8716.56
894.973	8740.29
895.289	8646.74
895.604	8719.28
895.92	8604.25
896.235	8539.39
896.55	8568.09
896.865	8576
897.181	8431.37
897.496	8500.07
897.811	8467.31
898.126	8435.67
898.441	8359.51
898.756	8365.61
899.071	8357.93
899.386	8238.39
899.7	8192.51
900.015	8238.39
900.33	8177.6
900.644	8086.75
900.959	8160.42
901.273	8086.07
901.588	8000.65
901.902	8041.78
902.216	8060.99
902.531	7996.36
902.845	7990.48
903.159	7884.04
903.473	7876.81
903.787	7879.52
904.101	7803.37
904.415	7794.55
904.729	7788.23
905.042	7722.24
905.356	7724.73
905.67	7708
905.984	7599.53
906.297	7630.72
906.611	7566.99
906.924	7544.62
907.237	7505.75
907.551	7506.43
907.864	7508.91
908.177	7417.16
908.491	7374.68
908.804	7366.09
909.117	7338.97
909.43	7300.56
909.743	7258.07
910.056	7255.36
910.368	7222.37
910.681	7202.03
910.994	7144.18
911.307	7153.44
911.619	7091.07
911.932	7130.17
912.244	7043.84
912.557	7047
912.869	6931.3
913.181	6925.2
913.494	6944.18
913.806	6913.22
914.118	6887.91
914.43	6774.24
914.742	6802.26
915.054	6837.52
915.366	6773.56
915.678	6771.08
915.99	6716.39
916.302	6653.12
916.613	6670.29
916.925	6611.99
917.236	6617.86
917.548	6575.38
917.859	6550.07
918.171	6459
918.482	6503.74
918.794	6446.12
919.105	6475.72
919.416	6388.94
919.727	6357.08
920.038	6385.78
920.349	6420.58
920.66	6332.22
920.971	6294.93
921.282	6296.06
921.593	6264.65
921.903	6220.36
922.214	6211.77
922.525	6204.31
922.835	6201.15
923.146	6071.66
923.456	6075.05
923.767	6079.12
924.077	6056.07
924.387	6056.52
924.697	6002.29
925.008	5941.95
925.318	5949.18
925.628	5929.52
925.938	5925
926.248	5926.81
926.558	5886.58
926.867	5830.99
927.177	5821.95
927.487	5798.9
927.796	5758.68
928.106	5773.82
928.416	5777.43
928.725	5724.33
929.034	5651.79
929.344	5684.78
929.653	5646.81
929.962	5611.34
930.271	5586.48
930.581	5571.56
930.89	5521.17
931.199	5497.44
931.508	5493.37
931.817	5474.62
932.125	5471
932.434	5431
932.743	5358.91
933.051	5322.76
933.36	5412.02
933.669	5339.7
933.977	5285.02
934.286	5282.3
934.594	5242.53
934.902	5197.56
935.21	5214.28
935.519	5197.34
935.827	5181.52
936.135	5137.68
936.443	5104
936.751	5140.61
937.059	5101.74
937.367	5038.02
937.674	5049.77
937.982	5054.51
938.29	5005.7
938.597	4981.3
938.905	4970.67
939.213	4932.48
939.52	4895.42
939.827	4917.57
940.135	4847.97
940.442	4871.69
940.749	4847.29
941.056	4838.02
941.363	4804.13
941.67	4810.68
941.977	4797.12
942.284	4726.84
942.591	4734.75
942.898	4675.09
943.205	4711.25
943.511	4619.05
943.818	4671.93
944.125	4579.05
944.431	4613.85
944.738	4638.93
945.044	4563.91
945.35	4480.29
945.657	4507.41
945.963	4480.97
946.269	4436.68
946.575	4446.85
946.881	4477.81
947.187	4425.6
947.493	4412.95
947.799	4430.8
948.105	4360.52
948.41	4315.1
948.716	4329.79
949.022	4300.64
949.327	4292.95
949.633	4252.28
949.938	4298.6
950.244	4256.79
950.549	4249.11
950.854	4218.15
951.16	4210.92
951.465	4153.75
951.77	4141.77
952.075	4129.11
952.38	4129.34
952.685	4074.88
952.99	4032.39
953.294	4043.92
953.599	4030.81
953.904	4046.86
954.209	4010.47
954.513	4019.51
954.818	3955.79
955.122	3953.75
955.426	3946.97
955.731	3903.13
956.035	3925.5
956.339	3923.02
956.643	3897.71
956.948	3888.44
957.252	3858.61
957.556	3831.95
957.86	3791.5
958.163	3786.75
958.467	3781.78
958.771	3784.94
959.075	3773.64
959.378	3758.28
959.682	3716.7
959.985	3676.92
960.289	3692.52
960.592	3688.22
960.896	3670.14
961.199	3644.38
961.502	3589.47
961.805	3621.11
962.108	3627.88
962.411	3564.61
962.714	3565.51
963.017	3539.07
963.32	3546.31
963.623	3488.91
963.926	3543.37
964.228	3495.01
964.531	3505.85
964.833	3479.87
965.136	3459.53
965.438	3416.36
965.741	3412.07
966.043	3413.43
966.345	3399.42
966.648	3343.82
966.95	3337.27
967.252	3342.47
967.554	3342.92
967.856	3318.74
968.158	3278.97
968.46	3278.97
968.761	3228.8
969.063	3248.01
969.365	3248.46
969.666	3216.14
969.968	3213.88
970.269	3193.09
970.571	3204.85
970.872	3163.72
971.174	3113.55
971.475	3142.47
971.776	3121.68
972.077	3121.46
972.378	3111.06
972.679	3117.84
972.98	3066.09
973.281	3073.1
973.582	3069.26
973.883	2998.52
974.183	3032.87
974.484	3027
974.785	2968.47
975.085	2982.03
975.386	3016.15
975.686	2949.48
975.986	2930.95
976.287	2929.82
976.587	2916.04
976.887	2893.44
977.187	2883.27
977.487	2885.98
977.787	2876.94
978.087	2870.16
978.387	2881.92
978.687	2831.97
978.987	2848.7
979.286	2780.9
979.586	2839.66
979.885	2808.7
980.185	2764.18
980.484	2764.18
980.784	2757.17
981.083	2738.42
981.382	2711.3
981.682	2690.06
981.981	2739.55
982.28	2663.16
982.579	2685.76
982.878	2670.4
983.177	2659.1
983.475	2658.19
983.774	2621.58
984.073	2595.14
984.372	2634.46
984.67	2614.8
984.969	2587.23
985.267	2569.38
985.566	2565.77
985.864	2541.81
986.162	2545.65
986.461	2503.39
986.759	2506.33
987.057	2479.21
987.355	2506.33
987.653	2476.95
987.951	2466.11
988.249	2463.62
988.547	2479.89
988.844	2448.71
989.142	2445.09
989.44	2393.79
989.737	2394.24
990.035	2377.97
990.332	2398.76
990.63	2361.03
990.927	2331.2
991.224	2370.29
991.521	2355.15
991.819	2307.92
992.116	2325.32
992.413	2301.37
992.71	2316.73
993.006	2312.89
993.303	2266.56
993.6	2276.73
993.897	2257.07
994.193	2245.1
994.49	2213.91
994.787	2243.06
995.083	2235.38
995.379	2197.87
995.676	2166.45
995.972	2169.84
996.268	2166.23
996.565	2154.93
996.861	2156.51
997.157	2158.09
997.453	2132.78
997.749	2109.51
998.044	2116.29
998.34	2084.87
998.636	2064.99
998.932	2075.16
999.227	2051.43
999.523	2028.83
999.818	2062.95
1000.114	2016.18
1000.409	2013.01
1000.704	2006.68
1001	2006.91
1001.295	2003.29
1001.59	1979.11
1001.885	1966.91
1002.18	1984.99
1002.475	1932.34
1002.77	1927.36
1003.065	1947.03
1003.359	1903.18
1003.654	1906.57
1003.949	1872.22
1004.243	1888.95
1004.538	1882.39
1004.832	1883.98
1005.127	1853.47
1005.421	1831.55
1005.715	1826.12
1006.009	1815.73
1006.304	1825.67
1006.598	1784.54
1006.892	1802.62
1007.186	1768.5
1007.48	1806.01
1007.773	1773.02
1008.067	1730.31
1008.361	1720.14
1008.655	1729.63
1008.948	1702.51
1009.242	1734.15
1009.535	1708.61
1009.829	1697.54
1010.122	1707.71
1010.415	1664.55
1010.708	1634.26
1011.001	1652.34
1011.295	1644.89
1011.588	1667.71
1011.881	1612.12
1012.173	1648.95
1012.466	1599.01
1012.759	1606.02
1013.052	1609.18
1013.344	1586.58
1013.637	1535.28
1013.93	1563.76
1014.222	1555.17
1014.514	1567.37
1014.807	1535.96
1015.099	1528.28
1015.391	1490.09
1015.683	1524.66
1015.976	1499.13
1016.268	1501.61
1016.56	1503.19
1016.851	1456.64
1017.143	1439.24
1017.435	1469.75
1017.727	1459.81
1018.018	1462.74
1018.31	1433.82
1018.602	1429.3
1018.893	1445.57
1019.185	1386.14
1019.476	1422.97
1019.767	1407.38
1020.058	1384.33
1020.35	1373.93
1020.641	1351.79
1020.932	1356.98
1021.223	1342.75
1021.514	1345.01
1021.804	1300.04
1022.095	1310.43
1022.386	1291.68
1022.677	1315.18
1022.967	1267.72
1023.258	1289.19
1023.548	1239.02
1023.839	1272.01
1024.129	1274.73
1024.419	1244.9
1024.709	1260.94
1025	1240.15
1025.29	1245.35
1025.58	1200.83
1025.87	1209.19
1026.16	1199.02
1026.449	1188.85
1026.739	1187.72
1027.029	1198.34
1027.319	1149.31
1027.608	1154.96
1027.898	1169.87
1028.187	1152.7
1028.477	1142.98
1028.766	1148.63
1029.055	1123.54
1029.344	1134.84
1029.634	1108.63
1029.923	1103.66
1030.212	1119.48
1030.501	1114.73
1030.79	1082.19
1031.078	1052.59
1031.367	1075.64
1031.656	1052.81
1031.945	1052.36
1032.233	1048.52
1032.522	1060.72
1032.81	1047.61
1033.099	1059.82
1033.387	1042.19
1033.675	1006.94
1033.963	1020.95
1034.251	1034.73
1034.54	974.4
1034.828	1003.77
1035.116	990.44
1035.403	977.11
1035.691	956.54
1035.979	967.16
1036.267	972.36
1036.554	942.98
1036.842	954.51
1037.129	936.88
1037.417	924.91
1037.704	941.85
1037.992	922.19
1038.279	905.7
1038.566	919.93
1038.853	919.93
1039.14	919.93
