Data from hue_190_FLMS001491_00088.txt Node
Date: Tue Feb 07 16:45:54 GMT 2017
User: dcchb
Spectrometer: FLMS00149
Trigger mode: 0
Integration Time (sec): 2.000000E-2
Scans to average: 10
Electric dark correction enabled: true
Nonlinearity correction enabled: false
Boxcar width: 0
XAxis mode: Wavelengths
Number of Pixels in Spectrum: 2048
>>>>>Begin Spectral Data<<<<<
341.393	-18.66
341.776	-18.66
342.16	-18.66
342.543	-82.84
342.927	-54.81
343.31	-92.33
343.693	-61.37
344.077	-59.56
344.46	-80.58
344.843	-40.13
345.226	-56.85
345.61	-18.21
345.993	-16.85
346.376	-12.56
346.759	21.34
347.142	24.05
347.525	51.85
347.908	57.27
348.291	64.73
348.674	104.05
349.057	115.12
349.44	116.93
349.823	143.37
350.206	163.48
350.588	189.02
350.971	218.85
351.354	210.04
351.737	218.62
352.119	256.14
352.502	259.75
352.884	282.13
353.267	283.48
353.65	272.18
354.032	288
354.414	279.64
354.797	302.92
355.179	305.85
355.562	318.96
355.944	324.38
356.326	332.52
356.709	316.93
357.091	332.97
357.473	333.65
357.855	351.05
358.238	324.16
358.62	353.54
359.002	313.54
359.384	342.69
359.766	346.3
360.148	338.4
360.53	334.33
360.912	320.09
361.294	337.04
361.676	318.96
362.057	314.89
362.439	340.88
362.821	329.81
363.203	317.38
363.584	333.42
363.966	312.41
364.348	321.67
364.729	327.77
365.111	306.76
365.493	324.16
365.874	309.92
366.256	314.89
366.637	294.1
367.019	325.97
367.4	302.01
367.781	322.35
368.163	323.71
368.544	327.32
368.925	300.88
369.306	297.94
369.688	302.01
370.069	300.66
370.45	307.21
370.831	286.42
371.212	318.28
371.593	323.03
371.974	295.01
372.355	284.16
372.736	307.21
373.117	304.05
373.498	321.22
373.879	303.59
374.26	299.53
374.641	292.97
375.021	303.14
375.402	332.52
375.783	330.71
376.163	326.64
376.544	316.93
376.925	322.8
377.305	316.7
377.686	330.03
378.066	339.98
378.447	331.62
378.827	329.36
379.208	323.48
379.588	325.06
379.968	331.84
380.349	334.55
380.729	333.88
381.109	318.73
381.489	339.07
381.87	328.23
382.25	336.81
382.63	343.59
383.01	339.3
383.39	338.62
383.77	362.12
384.15	337.04
384.53	354.89
384.91	347.89
385.29	322.12
385.67	338.62
386.049	357.6
386.429	341.33
386.809	357.6
387.189	340.65
387.568	356.47
387.948	357.38
388.328	363.25
388.707	384.5
389.087	362.8
389.466	372.07
389.846	346.76
390.225	350.15
390.605	370.71
390.984	342.24
391.363	376.81
391.743	380.65
392.122	381.11
392.501	362.12
392.881	394.66
393.26	386.76
393.639	389.69
394.018	386.98
394.397	351.95
394.776	365.51
395.155	391.5
395.534	370.03
395.913	407.55
396.292	370.03
396.671	419.97
397.05	382.46
397.429	394.66
397.808	385.4
398.186	401.67
398.565	386.98
398.944	406.42
399.323	400.54
399.701	406.87
400.08	396.02
400.458	397.38
400.837	403.48
401.215	407.77
401.594	413.42
401.972	404.61
402.351	424.04
402.729	412.29
403.107	425.62
403.486	416.36
403.864	423.14
404.242	434.89
404.62	436.92
404.999	443.7
405.377	444.15
405.755	447.32
406.133	442.8
406.511	459.97
406.889	466.53
407.267	473.53
407.645	485.74
408.023	479.63
408.401	485.51
408.779	490.93
409.156	485.28
409.534	490.48
409.912	495.23
410.29	516.02
410.667	517.6
411.045	539.97
411.422	537.26
411.8	535.23
412.178	567.77
412.555	558.5
412.933	558.5
413.31	560.31
413.687	579.74
414.065	597.6
414.442	599.86
414.819	608.44
415.197	630.36
415.574	628.33
415.951	622.46
416.328	628.33
416.705	642.57
417.082	658.39
417.46	657.93
417.837	661.78
418.214	664.26
418.591	661.32
418.967	683.92
419.344	697.93
419.721	704.26
420.098	713.75
420.475	721.21
420.852	716.46
421.228	764.6
421.605	746.97
421.982	767.99
422.358	795.33
422.735	770.02
423.111	808.89
423.488	803.92
423.864	824.48
424.241	847.08
424.617	836.46
424.994	868.1
425.37	867.65
425.746	897.93
426.123	891.15
426.499	910.81
426.875	893.41
427.251	942.45
427.627	949.45
428.003	974.99
428.379	1006.17
428.756	983.35
429.132	984.93
429.507	1035.78
429.883	1013.41
430.259	1021.99
430.635	1040.52
431.011	1044.14
431.387	1069.22
431.763	1087.53
432.138	1118.49
432.514	1113.52
432.89	1123.69
433.265	1141.99
433.641	1178.6
434.016	1205.04
434.392	1220.41
434.767	1218.82
435.143	1250.69
435.518	1256.34
435.894	1315.54
436.269	1305.6
436.644	1320.29
437.02	1356.45
437.395	1367.29
437.77	1405.49
438.145	1419.5
438.52	1467.63
438.895	1453.85
439.271	1467.18
439.646	1499.04
440.021	1535.88
440.395	1549.21
440.77	1540.4
441.145	1571.13
441.52	1626.27
441.895	1603.22
442.27	1650.68
442.645	1648.19
443.019	1702.65
443.394	1704.46
443.769	1706.49
444.143	1708.98
444.518	1761.63
444.892	1720.51
445.267	1758.47
445.641	1772.93
446.016	1810.45
446.39	1811.8
446.764	1851.35
447.139	1843.67
447.513	1880.95
447.887	1863.33
448.262	1873.72
448.636	1913.49
449.01	1915.3
449.384	1940.84
449.758	1998.46
450.132	1961.63
450.506	2009.54
450.88	2006.15
451.254	2033.49
451.628	2046.15
452.002	2099.03
452.376	2108.07
452.75	2122.3
453.123	2125.24
453.497	2176.09
453.871	2232.36
454.244	2228.29
454.618	2217.89
454.992	2283.2
455.365	2294.05
455.739	2334.5
456.112	2353.71
456.486	2374.05
456.859	2427.15
457.232	2464.67
457.606	2431
457.979	2498.11
458.352	2527.72
458.725	2569.52
459.099	2568.17
459.472	2611.1
459.845	2638.67
460.218	2666.92
460.591	2713.25
460.964	2705.34
461.337	2800.03
461.71	2858.55
462.083	2902.4
462.456	2882.28
462.829	2924.54
463.201	2950.3
463.574	2993.69
463.947	3000.7
464.32	3077.08
464.692	3106.46
465.065	3119.56
465.438	3164.08
465.81	3238.43
466.183	3229.84
466.555	3353.46
466.928	3355.26
467.3	3358.65
467.672	3451.53
468.045	3532.66
468.417	3520.68
468.789	3537.18
469.161	3598.42
469.534	3730.4
469.906	3773.33
470.278	3762.26
470.65	3868.02
471.022	3873.44
471.394	3964.74
471.766	4017.39
472.138	4016.04
472.51	4182.36
472.882	4191.85
473.253	4234.11
473.625	4307.1
473.997	4427.1
474.369	4427.1
474.74	4520.21
475.112	4576.48
475.484	4669.35
475.855	4710.03
476.227	4728.34
476.598	4903.7
476.97	4985.5
477.341	5098.04
477.713	5123.58
478.084	5179.4
478.455	5333.97
478.827	5377.36
479.198	5583.45
479.569	5581.42
479.94	5729.89
480.311	5752.94
480.682	5915.65
481.053	6066.83
481.424	6093.27
481.795	6216.88
482.166	6303.44
482.537	6401.74
482.908	6480.15
483.279	6559.7
483.65	6685.12
484.021	6819.35
484.391	6901.16
484.762	7048.28
485.133	7062.74
485.503	7177.31
485.874	7285.56
486.244	7374.37
486.615	7498.66
486.985	7563.06
487.356	7783.4
487.726	7827.92
488.097	7980
488.467	7988.14
488.837	8124.41
489.207	8254.57
489.578	8352.87
489.948	8447.11
490.318	8492.3
490.688	8594.45
491.058	8740.89
491.428	8819.3
491.798	8897.49
492.168	9041.44
492.538	9130.93
492.908	9175.68
493.278	9278.27
493.648	9282.11
494.017	9431.26
494.387	9483.01
494.757	9613.41
495.126	9654.53
495.496	9682.1
495.866	9771.82
496.235	9802.55
496.605	9929.78
496.974	9932.04
497.344	10067.4
497.713	10062.66
498.082	10157.57
498.452	10266.95
498.821	10150.11
499.19	10233.5
499.559	10386.49
499.928	10401.86
500.298	10449.09
500.667	10513.49
501.036	10472.37
501.405	10630.78
501.774	10539.71
502.143	10720.95
502.512	10662.87
502.88	10729.76
503.249	10717.56
503.618	10824.45
503.987	10840.27
504.356	10868.29
504.724	10877.1
505.093	10941.05
505.462	10923.65
505.83	11037.55
506.199	11087.26
506.567	11195.51
506.936	11084.78
507.304	11164.1
507.672	11266.47
508.041	11253.59
508.409	11347.15
508.777	11395.96
509.145	11397.31
509.514	11450.65
509.882	11444.32
510.25	11461.49
510.618	11482.28
510.986	11520.93
511.354	11571.55
511.722	11613.58
512.09	11681.37
512.458	11611.32
512.826	11690.41
513.193	11689.74
513.561	11645.22
513.929	11723.63
514.297	11830.97
514.664	11865.32
515.032	11869.84
515.4	11873.68
515.767	11885.44
516.135	11859.9
516.502	11723.18
516.869	11940.8
517.237	11866.45
517.604	11828.04
517.972	11940.12
518.339	11901.25
518.706	11985.32
519.073	11940.35
519.44	12004.08
519.808	12064.64
520.175	12000.69
520.542	12017.86
520.909	12069.39
521.276	11939.45
521.643	12122.27
522.009	12049.27
522.376	12068.26
522.743	12181.93
523.11	12219.66
523.477	12219.21
523.843	12187.12
524.21	12287.69
524.577	12273.67
524.943	12291.53
525.31	12267.12
525.676	12402.03
526.043	12343.05
526.409	12372.65
526.776	12434.57
527.142	12284.75
527.508	12320.9
527.874	12352.09
528.241	12326.33
528.607	12272.09
528.973	12273
529.339	12227.8
529.705	12349.6
530.071	12369.27
530.437	12268.25
530.803	12251.08
531.169	12331.07
531.535	12192.32
531.901	12225.09
532.267	12199.33
532.632	12188.03
532.998	12127.69
533.364	12188.48
533.73	12139.89
534.095	12120.46
534.461	12052.44
534.826	12062.15
535.192	12030.97
535.557	12031.19
535.923	11905.1
536.288	11961.82
536.653	11851.99
537.019	11744.42
537.384	11779.22
537.749	11762.28
538.114	11742.61
538.479	11741.94
538.845	11654.03
539.21	11556.18
539.575	11565.44
539.94	11568.38
540.305	11544.43
540.67	11391.21
541.034	11352.34
541.399	11329.52
541.764	11279.58
542.129	11300.59
542.494	11210.65
542.858	11268.96
543.223	11136.53
543.587	11084.55
543.952	11080.71
544.316	11026.7
544.681	10991.22
545.045	11005.69
545.41	10938.12
545.774	10864.67
546.138	10821.96
546.503	10679.82
546.867	10589.42
547.231	10777.44
547.595	10631.46
547.959	10602.08
548.324	10523.66
548.688	10463.78
549.052	10422.42
549.416	10454.74
549.779	10380.84
550.143	10345.36
550.507	10294.97
550.871	10262.65
551.235	10228.98
551.599	10266.04
551.962	10186.72
552.326	10134.97
552.689	10101.75
553.053	9989.89
553.417	9993.06
553.78	9995.77
554.143	9988.76
554.507	9887.97
554.87	9861.08
555.234	9951.25
555.597	9747.19
555.96	9864.25
556.323	9759.16
556.686	9740.41
557.05	9776.79
557.413	9734.31
557.776	9680.52
558.139	9704.02
558.502	9647.53
558.865	9600.52
559.228	9550.36
559.59	9636.46
559.953	9563.24
560.316	9628.32
560.679	9539.96
561.041	9643.01
561.404	9609.79
561.767	9633.07
562.129	9559.4
562.492	9579.28
562.854	9434.88
563.217	9458.83
563.579	9508.78
563.941	9569.56
564.304	9544.25
564.666	9574.54
565.028	9503.35
565.39	9484.6
565.753	9526.85
566.115	9494.99
566.477	9542.9
566.839	9584.48
567.201	9527.53
567.563	9433.75
567.925	9525.05
568.287	9554.88
568.648	9507.42
569.01	9513.75
569.372	9557.36
569.734	9415.9
570.095	9574.99
570.457	9554.88
570.819	9568.89
571.18	9538.15
571.542	9533.86
571.903	9541.99
572.265	9513.97
572.626	9529.57
572.987	9506.97
573.349	9531.15
573.71	9534.54
574.071	9502.9
574.432	9579.96
574.794	9598.26
575.155	9557.36
575.516	9516.91
575.877	9605.04
576.238	9528.66
576.599	9565.95
576.96	9589
577.32	9633.97
577.681	9593.29
578.042	9569.34
578.403	9576.12
578.763	9572.05
579.124	9501.09
579.485	9558.49
579.845	9572.05
580.206	9546.29
580.566	9509.68
580.927	9547.19
581.287	9641.43
581.648	9532.96
582.008	9648.66
582.368	9581.32
582.728	9544.71
583.089	9513.3
583.449	9544.03
583.809	9565.95
584.169	9543.12
584.529	9478.95
584.889	9504.26
585.249	9456.12
585.609	9383.58
585.969	9486.18
586.329	9391.94
586.688	9466.97
587.048	9471.94
587.408	9389.23
587.768	9395.56
588.127	9382.9
588.487	9402.79
588.846	9462.45
589.206	9371.83
589.565	9349.23
589.925	9360.98
590.284	9366.18
590.643	9390.13
591.003	9316.69
591.362	9398.5
591.721	9352.17
592.08	9299.29
592.44	9376.58
592.799	9326.63
593.158	9312.62
593.517	9321.89
593.876	9343.58
594.235	9294.77
594.593	9287.31
594.952	9341.55
595.311	9235.11
595.67	9299.74
596.029	9332.28
596.387	9405.95
596.746	9285.28
597.104	9211.83
597.463	9290.48
597.822	9335.67
598.18	9205.96
598.538	9287.31
598.897	9280.76
599.255	9244.38
599.613	9321.89
599.972	9245.73
600.33	9224.04
600.688	9210.48
601.046	9247.09
601.404	9246.41
601.762	9213.64
602.12	9266.97
602.478	9249.8
602.836	9203.7
603.194	9234.66
603.552	9196.02
603.91	9186.52
604.268	9212.06
604.625	9201.21
604.983	9192.85
605.341	9159.86
605.698	9239.86
606.056	9241.89
606.413	9234.21
606.771	9219.07
607.128	9217.94
607.485	9215.45
607.843	9227.2
608.2	9256.8
608.557	9301.78
608.914	9246.86
609.272	9231.72
609.629	9218.39
609.986	9302
610.343	9224.04
610.7	9366.63
611.057	9300.87
611.414	9330.48
611.771	9296.58
612.127	9333.19
612.484	9313.98
612.841	9337.71
613.198	9253.41
613.554	9281.89
613.911	9395.33
614.267	9336.12
614.624	9292.51
614.98	9322.79
615.337	9396.24
615.693	9316.46
616.05	9390.59
616.406	9407.31
616.762	9391.26
617.118	9349.68
617.475	9370.47
617.831	9406.41
618.187	9463.8
618.543	9367.54
618.899	9408.44
619.255	9327.09
619.611	9399.63
619.967	9481.66
620.323	9469
620.678	9490.02
621.034	9485.27
621.39	9480.08
621.746	9432.85
622.101	9558.72
622.457	9429.23
622.812	9435.56
623.168	9466.97
623.523	9440.75
623.879	9470.13
624.234	9405.73
624.589	9451.83
624.945	9518.27
625.3	9485.73
625.655	9433.75
626.01	9441.88
626.365	9492.5
626.72	9427.42
627.075	9435.56
627.43	9477.36
627.785	9439.85
628.14	9425.84
628.495	9350.36
628.85	9440.75
629.205	9350.14
629.559	9420.64
629.914	9343.81
630.269	9371.38
630.623	9343.13
630.978	9329.57
631.332	9339.74
631.687	9368.67
632.041	9338.38
632.396	9331.15
632.75	9325.73
633.104	9328.22
633.459	9306.07
633.813	9297.48
634.167	9224.26
634.521	9189.46
634.875	9270.36
635.229	9210.93
635.583	9181.55
635.937	9205.51
636.291	9160.54
636.645	9214.32
636.999	9187.88
637.352	9174.77
637.706	9149.46
638.06	9163.7
638.413	9172.06
638.767	9135.9
639.121	9141.55
639.474	9096.58
639.828	9055.91
640.181	9055.23
640.534	9057.49
640.888	9015.68
641.241	9019.3
641.594	9045.51
641.947	9092.74
642.301	9042.12
642.654	9016.36
643.007	8986.76
643.36	9028.79
643.713	9006.19
644.066	9046.41
644.419	8946.53
644.771	8916.02
645.124	8877.38
645.477	8820.43
645.83	8835.8
646.182	8738.85
646.535	8719.87
646.888	8669.25
647.24	8655.69
647.593	8688.68
647.945	8690.94
648.298	8656.37
648.65	8621.34
649.002	8577.73
649.355	8653.2
649.707	8693.88
650.059	8681.68
650.411	8770.26
650.763	8801.9
651.115	8880.54
651.467	8810.04
651.819	8859.07
652.171	8831.05
652.523	8848
652.875	8856.36
653.227	8829.7
653.578	8808.68
653.93	8866.08
654.282	8872.41
654.633	8791.05
654.985	8773.65
655.337	8755.57
655.688	8827.89
656.039	8882.8
656.391	8766.42
656.742	8783.37
657.094	8790.83
657.445	8848.91
657.796	8825.18
658.147	8822.92
658.498	8838.74
658.849	8908.34
659.2	8843.71
659.551	8840.77
659.902	8815.01
660.253	8777.27
660.604	8882.13
660.955	8847.32
661.306	8828.79
661.656	8851.17
662.007	8861.56
662.358	8885.29
662.708	8871.96
663.059	8877.38
663.409	8823.14
663.76	8882.35
664.11	8918.73
664.461	8913.08
664.811	8848
665.161	8851.62
665.511	8909.47
665.862	8900.66
666.212	8934.33
666.562	8895.23
666.912	8884.84
667.262	8872.41
667.612	8934.78
667.962	8956.25
668.312	8865.63
668.662	8919.86
669.011	8943.59
669.361	8885.97
669.711	8946.53
670.06	8883.48
670.41	8842.8
670.76	8826.99
671.109	8885.51
671.459	8806.65
671.808	8832.18
672.157	8827.44
672.507	8788.57
672.856	8793.77
673.205	8792.64
673.554	8882.8
673.904	8778.63
674.253	8848.91
674.602	8789.92
674.951	8667.44
675.3	8625.63
675.649	8739.76
675.998	8815.23
676.346	8748.34
676.695	8755.12
677.044	8704.5
677.393	8674.22
677.741	8755.12
678.09	8697.95
678.438	8636.03
678.787	8716.48
679.135	8726.65
679.484	8693.43
679.832	8696.14
680.181	8547.67
680.529	8650.72
680.877	8559.87
681.225	8515.36
681.573	8611.62
681.922	8627.44
682.27	8529.37
682.618	8544.06
682.966	8536.82
683.314	8497.5
683.661	8503.38
684.009	8399.65
684.357	8447.79
684.705	8409.37
685.053	8441.91
685.4	8412.53
685.748	8402.36
686.095	8350.39
686.443	8303.84
686.79	8310.61
687.138	8270.62
687.485	8280.56
687.832	8260.67
688.18	8205.31
688.527	8217.06
688.874	8213.44
689.221	8176.38
689.568	8154.23
689.915	8131.41
690.262	8111.3
690.609	8071.53
690.956	8092.32
691.303	8022.49
691.65	7986.1
691.997	7972.77
692.344	7939.78
692.69	7901.13
693.037	7929.38
693.383	7872.66
693.73	7920.57
694.077	7750.63
694.423	7829.95
694.769	7840.57
695.116	7731.2
695.462	7751.99
695.808	7691.87
696.155	7785.88
696.501	7617.75
696.847	7643.74
697.193	7597.19
697.539	7581.59
697.885	7549.73
698.231	7543.4
698.577	7495.72
698.923	7474.93
699.269	7400.58
699.614	7410.75
699.96	7344.99
700.306	7416.85
700.651	7289.85
700.997	7276.52
701.342	7305.22
701.688	7265.22
702.033	7281.49
702.379	7231.1
702.724	7184.09
703.069	7244.88
703.415	7171.44
703.76	7147.03
704.105	7058.9
704.45	7089.4
704.795	7011.21
705.14	7020.93
705.485	6996.53
705.83	6973.02
706.175	6963.08
706.52	6908.62
706.865	6868.62
707.209	6893.02
707.554	6860.26
707.899	6928.73
708.243	6795.63
708.588	6848.96
708.932	6794.5
709.277	6812.8
709.621	6791.33
709.966	6691.45
710.31	6756.31
710.654	6687.38
710.998	6709.08
711.342	6723.99
711.687	6632.47
712.031	6656.87
712.375	6647.38
712.719	6586.59
713.063	6591.34
713.407	6632.92
713.75	6581.17
714.094	6614.84
714.438	6522.87
714.782	6565.35
715.125	6476.31
715.469	6534.62
715.812	6438.57
716.156	6503.43
716.499	6490.78
716.843	6494.84
717.186	6446.71
717.53	6414.85
717.873	6451.45
718.216	6466.37
718.559	6412.59
718.902	6438.12
719.246	6458.46
719.589	6401.06
719.932	6340.5
720.275	6354.51
720.617	6395.86
720.96	6320.84
721.303	6337.11
721.646	6369.65
721.989	6334.17
722.331	6324.45
722.674	6331.01
723.016	6353.83
723.359	6287.62
723.701	6322.64
724.044	6303.21
724.386	6198.58
724.729	6283.1
725.071	6273.83
725.413	6271.12
725.755	6271.8
726.097	6261.18
726.439	6219.82
726.782	6255.53
727.124	6273.15
727.465	6259.82
727.807	6207.85
728.149	6204
728.491	6203.55
728.833	6262.31
729.175	6214.17
729.516	6234.29
729.858	6211.46
730.199	6251.46
730.541	6237.45
730.882	6246.49
731.224	6225.25
731.565	6169.88
731.906	6196.09
732.248	6188.64
732.589	6199.71
732.93	6199.03
733.271	6189.77
733.612	6228.64
733.953	6182.31
734.294	6202.42
734.635	6155.19
734.976	6211.69
735.317	6198.58
735.658	6182.99
735.999	6161.07
736.339	6213.95
736.68	6236.55
737.021	6209.65
737.361	6158.36
737.702	6214.85
738.042	6157.68
738.383	6265.47
738.723	6178.92
739.063	6239.71
739.404	6197.68
739.744	6235.42
740.084	6284.68
740.424	6254.17
740.764	6268.18
741.104	6305.02
741.444	6283.78
741.784	6270.22
742.124	6294.85
742.464	6314.51
742.804	6319.71
743.143	6337.33
743.483	6356.99
743.823	6363.32
744.162	6438.12
744.502	6479.7
744.841	6426.6
745.181	6460.49
745.52	6508.4
745.86	6586.59
746.199	6590.43
746.538	6592.24
746.877	6719.47
747.216	6636.76
747.556	6738.68
747.895	6775.51
748.234	6821.39
748.573	6834.72
748.911	6868.39
749.25	7029.29
749.589	6991.33
749.928	7123.98
750.267	7072.68
750.605	7156.52
750.944	7224.32
751.283	7323.52
751.621	7380.7
751.96	7467.25
752.298	7548.37
752.636	7653.91
752.975	7705.88
753.313	7749.95
753.651	7902.04
753.989	8020
754.327	8134.12
754.666	8203.5
755.004	8361.01
755.342	8442.81
755.679	8574.56
756.017	8631.06
756.355	8806.87
756.693	8952.18
757.031	9136.36
757.368	9199.18
757.706	9382.45
758.044	9468.55
758.381	9698.83
758.719	9758.94
759.056	9998.93
759.394	10104.01
759.731	10265.37
760.068	10430.79
760.405	10591.91
760.743	10734.28
761.08	10938.57
761.417	11083.2
761.754	11218.33
762.091	11428.5
762.428	11526.8
762.765	11707.36
763.102	11960.91
763.438	12074.13
763.775	12217.86
764.112	12442.94
764.449	12664.17
764.785	12737.84
765.122	12899.65
765.458	13010.83
765.795	13229.36
766.131	13420.31
766.467	13498.28
766.804	13664.15
767.14	13805.61
767.476	13927.64
767.812	14022.56
768.148	14360.17
768.485	14426.16
768.821	14522.2
769.157	14670
769.492	14737.79
769.828	14941.85
770.164	14996.77
770.5	15206.03
770.836	15196.08
771.171	15406.93
771.507	15502.29
771.842	15543.42
772.178	15619.35
772.513	15797.42
772.849	15832.45
773.184	15917.19
773.519	16109.51
773.855	16142.27
774.19	16183.63
774.525	16186.11
774.86	16353.57
775.195	16478.76
775.53	16536.61
775.865	16614.35
776.2	16629.94
776.535	16590.17
776.87	16708.13
777.205	16751.07
777.539	16815.93
777.874	16791.97
778.209	16938.18
778.543	17003.27
778.878	16858.64
779.212	17108.12
779.547	17050.5
779.881	17161.23
780.215	17089.59
780.55	17196.48
780.884	17115.81
781.218	17194.45
781.552	17241.45
781.886	17271.28
782.22	17312.41
782.554	17229.48
782.888	17212.08
783.222	17207.33
783.556	17192.19
783.889	17268.57
784.223	17211.62
784.557	17195.13
784.89	17311.51
785.224	17159.65
785.557	17249.81
785.891	17213.88
786.224	17111.74
786.558	17223.6
786.891	17098.63
787.224	17183.15
787.557	17252.98
787.891	17152.19
788.224	17265.41
788.557	17185.64
788.89	17100.44
789.223	17161.23
789.556	17067.67
789.888	17078.75
790.221	17108.8
790.554	16940.9
790.887	17027.22
791.219	16980.9
791.552	16928.24
791.884	16885.76
792.217	16944.74
792.549	16941.57
792.882	16851.63
793.214	16697.51
793.546	16787.91
793.879	16718.76
794.211	16665.42
794.543	16773.9
794.875	16759.88
795.207	16728.02
795.539	16683.95
795.871	16601.7
796.203	16546.33
796.535	16453.68
796.867	16478.76
797.198	16524.41
797.53	16471.08
797.862	16433.79
798.193	16499.55
798.525	16287.58
798.856	16351.76
799.188	16213.01
799.519	16099.11
799.85	16068.6
800.182	16092.56
800.513	16084.2
800.844	16006.91
801.175	16174.14
801.506	16123.97
801.837	16076.51
802.168	16005.55
802.499	15903.64
802.83	15881.72
803.161	15839.68
803.491	15863.64
803.822	15827.71
804.153	15714.49
804.483	15732.34
804.814	15622.06
805.145	15675.84
805.475	15650.76
805.805	15534.61
806.136	15587.71
806.466	15536.87
806.796	15615.06
807.126	15401.95
807.457	15394.27
807.787	15483.99
808.117	15401.5
808.447	15321.05
808.777	15471.33
809.107	15288.74
809.436	15225.91
809.766	15255.06
810.096	15117.44
810.426	15114.73
810.755	15067.95
811.085	15104.56
811.414	15008.97
811.744	15029.99
812.073	14927.62
812.403	14949.99
812.732	14946.37
813.061	14886.26
813.39	14839.93
813.719	14801.97
814.049	14850.78
814.378	14759.48
814.707	14749.32
815.036	14709.32
815.365	14710.22
815.693	14643.78
816.022	14678.13
816.351	14610.56
816.68	14487.18
817.008	14545.93
817.337	14467.97
817.665	14409.66
817.994	14524.46
818.322	14445.59
818.651	14382.55
818.979	14329.21
819.307	14436.1
819.636	14366.05
819.964	14250.12
820.292	14378.25
820.62	14308.65
820.948	14308.65
821.276	14307.29
821.604	14273.17
821.932	14321.76
822.259	14310.23
822.587	14320.63
822.915	14197.47
823.243	14292.6
823.57	14327.18
823.898	14258.93
824.225	14309.1
824.553	14286.95
824.88	14300.97
825.207	14298.25
825.535	14332.6
825.862	14312.49
826.189	14300.29
826.516	14319.27
826.843	14357.91
827.17	14303
827.497	14308.88
827.824	14260.51
828.151	14323.56
828.478	14338.25
828.805	14407.63
829.131	14323.34
829.458	14405.82
829.785	14263.23
830.111	14277.24
830.438	14397.91
830.764	14328.08
831.09	14276.33
831.417	14272.04
831.743	14355.43
832.069	14281.76
832.395	14238.82
832.722	14307.07
833.048	14254.41
833.374	14294.64
833.7	14211.02
834.026	14190.23
834.351	14357.69
834.677	14318.37
835.003	14211.93
835.329	14270.23
835.654	14239.27
835.98	14117.92
836.306	14145.04
836.631	14049.22
836.956	14148.2
837.282	14161.53
837.607	14136.9
837.932	13954.76
838.258	14066.17
838.583	14059.62
838.908	14065.04
839.233	14011.03
839.558	13870.69
839.883	13856.01
840.208	13924.93
840.533	13983.23
840.858	13921.77
841.182	13849.68
841.507	13802
841.832	13736.01
842.156	13738.49
842.481	13709.34
842.805	13627.31
843.13	13648.55
843.454	13589.35
843.778	13601.32
844.103	13544.6
844.427	13557.48
844.751	13544.15
845.075	13528.33
845.399	13414.89
845.723	13405.85
846.047	13385.06
846.371	13281.56
846.695	13261.67
847.019	13199.53
847.343	13208.11
847.666	13134.22
847.99	13023.71
848.313	13012.86
848.637	12923.15
848.96	12985.97
849.284	12813.77
849.607	12736.49
849.931	12778.75
850.254	12721.12
850.577	12597.51
850.9	12587.56
851.223	12534.01
851.546	12486.78
851.869	12385.08
852.192	12509.6
852.515	12348.93
852.838	12316.61
853.161	12277.29
853.483	12274.13
853.806	12160.68
854.129	12193.9
854.451	12094.92
854.774	12096.5
855.096	12012.89
855.419	11978.54
855.741	12019.67
856.063	11907.81
856.385	11877.07
856.708	11881.82
857.03	11848.6
857.352	11772.44
857.674	11777.19
857.996	11689.74
858.318	11706.46
858.64	11622.39
858.961	11547.37
859.283	11599.34
859.605	11481.38
859.926	11510.08
860.248	11484.99
860.57	11396.64
860.891	11456.07
861.212	11375.84
861.534	11350.99
861.855	11324.09
862.176	11360.48
862.498	11324.77
862.819	11258.11
863.14	11263.31
863.461	11295.4
863.782	11180.82
864.103	11193.02
864.424	11176.53
864.745	11168.39
865.065	11127.26
865.386	11084.55
865.707	11065.34
866.027	11088.62
866.348	11070.54
866.668	11055.63
866.989	10977.66
867.309	10934.5
867.63	11001.17
867.95	10984.89
868.27	10903.99
868.59	10868.97
868.91	10929.08
869.23	10883.43
869.55	10862.64
869.87	10879.81
870.19	10900.6
870.51	10868.51
870.83	10829.19
871.15	10765.24
871.469	10782.64
871.789	10804.11
872.109	10776.09
872.428	10670.78
872.748	10731.12
873.067	10670.33
873.386	10672.81
873.706	10654.51
874.025	10584
874.344	10642.98
874.663	10588.97
874.982	10581.06
875.301	10631.46
875.62	10525.25
875.939	10537
876.258	10519.37
876.577	10459.94
876.896	10565.7
877.214	10448.19
877.533	10446.38
877.852	10449.54
878.17	10432.14
878.489	10419.26
878.807	10354.4
879.125	10314.4
879.444	10371.13
879.762	10292.94
880.08	10326.16
880.398	10211.58
880.716	10270.79
881.034	10240.73
881.352	10239.38
881.67	10221.75
881.988	10200.28
882.306	10104.47
882.624	10112.83
882.941	10072.83
883.259	10084.81
883.577	10040.74
883.894	10020.85
884.212	10031.7
884.529	9995.32
884.846	9912.61
885.164	9967.52
885.481	9962.77
885.798	9991.02
886.115	9854.98
886.432	9864.47
886.75	9825.83
887.067	9842.55
887.383	9758.49
887.7	9863.34
888.017	9754.87
888.334	9727.98
888.651	9699.05
888.967	9701.76
889.284	9676
889.6	9562.33
889.917	9581.77
890.233	9587.87
890.55	9560.3
890.866	9535.22
891.182	9482.11
891.498	9482.56
891.815	9386.74
892.131	9367.54
892.447	9424.03
892.763	9422
893.079	9333.19
893.395	9319.4
893.71	9177.48
894.026	9220.87
894.342	9173.42
894.657	9123.93
894.973	9144.27
895.289	9144.49
895.604	9130.03
895.92	9027.43
896.235	8999.64
896.55	8979.07
896.865	8948.34
897.181	8877.61
897.496	9014.78
897.811	8849.58
898.126	8808.45
898.441	8759.19
898.756	8769.81
899.071	8689.81
899.386	8717.84
899.7	8643.49
900.015	8638.52
900.33	8614.34
900.644	8531.4
900.959	8564.17
901.273	8480.78
901.588	8452.98
901.902	8434
902.216	8350.16
902.531	8290.73
902.845	8345.87
903.159	8305.64
903.473	8224.97
903.787	8288.69
904.101	8134.57
904.415	8201.47
904.729	8158.3
905.042	8109.72
905.356	8088.7
905.67	8036.72
905.984	8053.45
906.297	8057.51
906.611	8004.18
906.924	7978.42
907.237	7892.32
907.551	7936.61
907.864	7876.28
908.177	7896.16
908.491	7804.41
908.804	7726.45
909.117	7708.37
909.43	7723.74
909.743	7624.31
910.056	7612.78
910.368	7586.11
910.681	7551.31
910.994	7541.82
911.307	7560.13
911.619	7470.41
911.932	7514.93
912.244	7393.12
912.557	7400.13
912.869	7366.46
913.181	7318.78
913.494	7273.58
913.806	7246.91
914.118	7261.15
914.43	7188.38
914.742	7192.23
915.054	7111.55
915.366	7161.72
915.678	7115.62
915.99	7079.46
916.302	7009.86
916.613	7057.54
916.925	6966.47
917.236	6975.06
917.548	6843.53
917.859	6934.61
918.171	6840.37
918.482	6853.25
918.794	6805.12
919.105	6812.8
919.416	6739.13
919.727	6699.36
920.038	6752.24
920.349	6640.38
920.66	6608.06
920.971	6608.06
921.282	6607.61
921.593	6550.44
921.903	6527.84
922.214	6522.87
922.525	6505.01
922.835	6493.04
923.146	6394.06
923.456	6451.23
923.767	6416.65
924.077	6419.82
924.387	6357.67
924.697	6301.63
925.008	6277.45
925.318	6268.63
925.628	6251.91
925.938	6257.56
926.248	6141.63
926.558	6125.14
926.867	6121.97
927.177	6122.2
927.487	6102.54
927.796	6005.36
928.106	6005.59
928.416	6003.33
928.725	5986.61
929.034	5970.34
929.344	5990.68
929.653	5919.49
929.962	5907.74
930.271	5897.34
930.581	5794.75
930.89	5838.59
931.199	5801.08
931.508	5780.96
931.817	5760.4
932.125	5804.24
932.434	5755.88
932.743	5705.26
933.051	5641.53
933.36	5596.11
933.669	5629.33
933.977	5602.66
934.286	5573.74
934.594	5559.73
934.902	5549.78
935.21	5498.94
935.519	5490.8
935.827	5422.78
936.135	5439.96
936.443	5372.84
936.751	5350.69
937.059	5354.31
937.367	5340.07
937.674	5319.73
937.982	5265.5
938.29	5286.06
938.597	5256.91
938.905	5235.22
939.213	5180.3
939.52	5136.24
939.827	5162.9
940.135	5091.72
940.442	5115.44
940.749	5102.34
941.056	5097.59
941.363	5062.56
941.67	5065.28
941.977	4985.05
942.284	4969.23
942.591	4932.85
942.898	4930.82
943.205	4939.63
943.511	4912.74
943.818	4896.92
944.125	4837.26
944.431	4853.53
944.738	4836.36
945.044	4820.09
945.35	4743.93
945.657	4717.71
945.963	4710.94
946.269	4726.75
946.575	4757.94
946.881	4658.06
947.187	4644.04
947.493	4670.26
947.799	4627.77
948.105	4573.09
948.41	4578.96
948.716	4568.11
949.022	4518.62
949.327	4514.78
949.633	4525.18
949.938	4443.15
950.244	4532.18
950.549	4413.99
950.854	4416.48
951.16	4425.29
951.465	4357.5
951.77	4344.39
952.075	4339.19
952.38	4337.84
952.685	4290.38
952.99	4298.29
953.294	4225.52
953.599	4256.71
953.904	4205.19
954.209	4161.35
954.513	4184.85
954.818	4197.05
955.122	4155.02
955.426	4131.06
955.731	4129.48
956.035	4162.25
956.339	4131.97
956.643	4079.54
956.948	4072.99
957.252	4061.91
957.556	4039.77
957.86	3990.28
958.163	4004.51
958.467	3913.44
958.771	3952.76
959.075	3956.83
959.378	3960.45
959.682	3961.35
959.985	3883.16
960.289	3866.89
960.592	3854.01
960.896	3876.16
961.199	3812.43
961.502	3842.71
961.805	3795.71
962.108	3782.15
962.411	3761.58
962.714	3770.4
963.017	3733.33
963.32	3753.45
963.623	3682.49
963.926	3675.03
964.228	3651.08
964.531	3663.73
964.833	3642.04
965.136	3604.75
965.438	3610.85
965.741	3545.99
966.043	3553.9
966.345	3587.8
966.648	3571.98
966.95	3519.1
967.252	3496.28
967.554	3508.48
967.856	3455.15
968.158	3462.61
968.46	3409.73
968.761	3437.3
969.063	3427.58
969.365	3409.27
969.666	3413.34
969.968	3422.38
970.269	3366.56
970.571	3365.89
970.872	3360.69
971.174	3311.42
971.475	3292.22
971.776	3306.45
972.077	3259.22
972.378	3252.67
972.679	3269.39
972.98	3238.88
973.281	3247.7
973.582	3205.44
973.883	3164.99
974.183	3177.19
974.484	3167.7
974.785	3154.59
975.085	3140.13
975.386	3150.07
975.686	3094.03
975.986	3094.71
976.287	3099.23
976.587	3049.28
976.887	3065.1
977.187	3025.56
977.487	3047.02
977.787	3005.22
978.087	3000.25
978.387	2978.1
978.687	2992.79
978.987	2930.42
979.286	2922.51
979.586	2948.72
979.885	2956.41
980.185	2865.79
980.484	2887.48
980.784	2908.95
981.083	2897.88
981.382	2852.91
981.682	2832.57
981.981	2856.97
982.28	2801.83
982.579	2762.74
982.878	2779.91
983.177	2795.05
983.475	2783.53
983.774	2746.24
984.073	2755.28
984.372	2749.18
984.67	2718.67
984.969	2702.17
985.267	2762.74
985.566	2687.26
985.864	2671.22
986.162	2675.96
986.461	2649.75
986.759	2604.1
987.057	2578.79
987.355	2623.76
987.653	2597.54
987.951	2566.13
988.249	2581.73
988.547	2574.72
988.844	2542.86
989.142	2543.08
989.44	2523.2
989.737	2505.8
990.035	2491.78
990.332	2515.06
990.63	2483.2
990.927	2447.94
991.224	2441.62
991.521	2446.36
991.819	2442.07
992.116	2407.04
992.413	2434.61
992.71	2381.51
993.006	2409.53
993.303	2343.77
993.6	2353.94
993.897	2357.33
994.193	2323.43
994.49	2362.52
994.787	2307.83
995.083	2313.94
995.379	2303.54
995.676	2305.35
995.972	2301.51
996.268	2299.7
996.565	2288.17
996.861	2280.72
997.157	2236.42
997.453	2217.44
997.749	2199.14
998.044	2233.03
998.34	2230.55
998.636	2210.89
998.932	2181.28
999.227	2122.08
999.523	2127.73
999.818	2116.65
1000.114	2107.61
1000.409	2096.54
1000.704	2119.82
1001	2100.83
1001.295	2068.07
1001.59	2079.14
1001.885	2084.79
1002.18	2050.44
1002.475	2066.26
1002.77	2039.14
1003.065	2026.71
1003.359	2018.12
1003.654	2006.83
1003.949	1998.01
1004.243	2006.6
1004.538	1962.76
1004.832	1946.71
1005.127	1938.58
1005.421	1920.73
1005.715	1916.88
1006.009	1908.3
1006.304	1910.56
1006.598	1883.89
1006.892	1884.8
1007.186	1859.49
1007.48	1869.43
1007.773	1837.34
1008.067	1835.08
1008.361	1807.73
1008.655	1827.85
1008.948	1779.26
1009.242	1798.47
1009.535	1759.37
1009.829	1766.61
1010.122	1787.85
1010.415	1730.9
1010.708	1749.88
1011.001	1744.46
1011.295	1705.14
1011.588	1687.96
1011.881	1675.99
1012.173	1695.42
1012.466	1690.45
1012.759	1700.17
1013.052	1643.45
1013.344	1644.8
1013.637	1642.09
1013.93	1612.71
1014.222	1608.19
1014.514	1645.25
1014.807	1621.98
1015.099	1591.92
1015.391	1598.47
1015.683	1568.19
1015.976	1588.53
1016.268	1536.78
1016.56	1540.62
1016.851	1526.84
1017.143	1513.73
1017.435	1520.06
1017.727	1495.2
1018.018	1501.08
1018.31	1478.7
1018.602	1455.65
1018.893	1506.73
1019.185	1440.29
1019.476	1449.55
1019.767	1441.42
1020.058	1428.99
1020.35	1407.97
1020.641	1409.78
1020.932	1411.14
1021.223	1373.85
1021.514	1370.46
1021.804	1378.37
1022.095	1391.25
1022.386	1348.99
1022.677	1353.96
1022.967	1360.06
1023.258	1352.15
1023.548	1341.98
1023.839	1331.36
1024.129	1324.81
1024.419	1305.38
1024.709	1287.52
1025	1300.18
1025.29	1295.66
1025.58	1260.18
1025.87	1273.96
1026.16	1219.28
1026.449	1264.7
1026.739	1217.24
1027.029	1192.84
1027.319	1244.59
1027.608	1217.92
1027.898	1202.33
1028.187	1214.3
1028.477	1213.4
1028.766	1161.88
1029.055	1165.27
1029.344	1173.4
1029.634	1196.45
1029.923	1141.09
1030.212	1140.18
1030.501	1120.75
1030.79	1111.93
1031.078	1104.25
1031.367	1096.79
1031.656	1112.61
1031.945	1110.8
1032.233	1091.14
1032.522	1088.43
1032.81	1082.1
1033.099	1080.97
1033.387	1065.61
1033.675	1066.51
1033.963	1052.5
1034.251	1061.31
1034.54	1043.69
1034.828	1029.68
1035.116	1028.09
1035.403	1017.7
1035.691	1015.44
1035.979	1006.4
1036.267	994.2
1036.554	994.2
1036.842	978.38
1037.129	978.83
1037.417	974.31
1037.704	992.16
1037.992	974.76
1038.279	945.38
1038.566	938.61
1038.853	938.61
1039.14	938.61
