Data from hue_340_FLMS001491_61.txt Node
Date: Mon Feb 06 15:43:25 GMT 2017
User: dcchb
Spectrometer: FLMS00149
Trigger mode: 0
Integration Time (sec): 2.000000E-2
Scans to average: 10
Electric dark correction enabled: true
Nonlinearity correction enabled: false
Boxcar width: 0
XAxis mode: Wavelengths
Number of Pixels in Spectrum: 2048
>>>>>Begin Spectral Data<<<<<
341.393	-19.19
341.776	-19.19
342.16	-19.19
342.543	-63.71
342.927	-90.6
343.31	-82.47
343.693	-75.69
344.077	-71.17
344.46	-54
344.843	-54.45
345.226	-54.67
345.61	-46.54
345.993	-3.6
346.376	14.93
346.759	9.96
347.142	10.64
347.525	48.6
347.908	63.74
348.291	80.01
348.674	103.74
349.057	110.97
349.44	128.37
349.823	140.58
350.206	164.53
350.588	183.06
350.971	202.04
351.354	221.03
351.737	253.11
352.119	240.01
352.502	271.87
352.884	279.1
353.267	288.59
353.65	293.79
354.032	327.69
354.414	302.83
354.797	308.48
355.179	317.07
355.562	317.29
355.944	307.35
356.326	295.83
356.709	326.33
357.091	330.17
357.473	332.21
357.855	359.1
358.238	338.08
358.62	321.36
359.002	336.05
359.384	326.11
359.766	340.12
360.148	338.31
360.53	341.47
360.912	318.65
361.294	350.29
361.676	326.33
362.057	339.89
362.439	320.01
362.821	321.81
363.203	315.49
363.584	302.38
363.966	311.19
364.348	328.14
364.729	299.44
365.111	303.51
365.493	321.81
365.874	328.59
366.256	311.87
366.637	333.11
367.019	315.71
367.4	314.81
367.781	297.41
368.163	293.79
368.544	299.44
368.925	298.09
369.306	340.34
369.688	299.67
370.069	293.79
370.45	301.25
370.831	314.36
371.212	327.01
371.593	318.88
371.974	310.29
372.355	303.73
372.736	326.56
373.117	325.88
373.498	321.59
373.879	310.74
374.26	312.77
374.641	314.13
375.021	309.84
375.402	301.48
375.783	305.99
376.163	327.01
376.544	301.93
376.925	313
377.305	329.05
377.686	336.95
378.066	320.91
378.447	318.2
378.827	318.2
379.208	312.77
379.588	309.61
379.968	320.68
380.349	338.76
380.729	318.65
381.109	333.79
381.489	315.03
381.87	334.02
382.25	326.11
382.63	339.21
383.01	323.62
383.39	342.38
383.77	326.56
384.15	325.66
384.53	337.86
384.91	339.21
385.29	329.5
385.67	349.38
386.049	337.63
386.429	340.34
386.809	336.95
387.189	350.29
387.568	350.06
387.948	351.42
388.328	354.36
388.707	343.06
389.087	331.08
389.466	344.64
389.846	351.64
390.225	347.35
390.605	342.83
390.984	362.49
391.363	370.85
391.743	365.43
392.122	346.45
392.501	355.26
392.881	350.97
393.26	367.24
393.639	373.34
394.018	373.79
394.397	348.48
394.776	363.17
395.155	366.56
395.534	353.68
395.913	343.51
396.292	391.19
396.671	370.4
397.05	376.05
397.429	374.47
397.808	352.1
398.186	379.89
398.565	385.77
398.944	397.07
399.323	382.15
399.701	383.05
400.08	369.95
400.458	385.09
400.837	396.39
401.215	397.07
401.594	398.42
401.972	399.33
402.351	416.27
402.729	395.94
403.107	372.89
403.486	388.48
403.864	409.95
404.242	413.11
404.62	414.47
404.999	400.23
405.377	416.05
405.755	408.36
406.133	414.01
406.511	418.08
406.889	421.92
407.267	420.79
407.645	427.35
408.023	435.93
408.401	432.77
408.779	435.71
409.156	423.96
409.534	432.77
409.912	455.6
410.29	454.24
410.667	455.6
411.045	445.2
411.422	461.02
411.8	459.21
412.178	450.4
412.555	464.86
412.933	470.51
413.31	482.71
413.687	479.1
414.065	468.25
414.442	487.68
414.819	489.49
415.197	491.53
415.574	467.57
415.951	491.75
416.328	489.27
416.705	507.57
417.082	512.54
417.46	525.65
417.837	521.81
418.214	539.43
418.591	524.52
418.967	521.58
419.344	524.52
419.721	540.34
420.098	531.75
420.475	520.23
420.852	547.34
421.228	534.46
421.605	567.68
421.982	563.16
422.358	578.3
422.735	576.04
423.111	586.89
423.488	587.57
423.864	585.76
424.241	601.81
424.617	602.71
424.994	602.03
425.37	587.34
425.746	595.25
426.123	624.18
426.499	615.59
426.875	588.47
427.251	619.21
427.627	624.4
428.003	623.5
428.379	647.23
428.756	644.97
429.132	642.71
429.507	664.18
429.883	665.99
430.259	652.43
430.635	668.25
431.011	693.78
431.387	664.86
431.763	697.85
432.138	693.33
432.514	690.84
432.89	711.41
433.265	701.24
433.641	730.62
434.016	711.41
434.392	742.82
434.767	738.98
435.143	710.28
435.518	755.02
435.894	762.48
436.269	756.6
436.644	743.27
437.02	776.49
437.395	787.34
437.77	773.78
438.145	781.91
438.52	800.9
438.895	795.7
439.271	819.88
439.646	811.74
440.021	837.51
440.395	844.96
440.77	835.25
441.145	821.46
441.52	863.72
441.895	853.55
442.27	826.89
442.645	827.34
443.019	840.67
443.394	869.6
443.769	863.04
444.143	874.34
444.518	875.92
444.892	871.63
445.267	893.32
445.641	887.45
446.016	888.13
446.39	880.22
446.764	891.97
447.139	883.61
447.513	915.92
447.887	890.61
448.262	878.18
448.636	898.97
449.01	925.87
449.384	922.02
449.758	933.77
450.132	938.29
450.506	930.39
450.88	910.72
451.254	929.26
451.628	943.27
452.002	939.42
452.376	968.12
452.75	982.81
453.123	967.45
453.497	966.09
453.871	970.84
454.244	992.53
454.618	984.62
454.992	992.76
455.365	1009.03
455.739	1008.58
456.112	1023.94
456.486	1030.27
456.859	1026.88
457.232	1034.34
457.606	1057.39
457.979	1061.91
458.352	1059.42
458.725	1086.54
459.099	1065.97
459.472	1117.5
459.845	1121.79
460.218	1117.72
460.591	1097.61
460.964	1134.9
461.337	1148.23
461.71	1158.4
462.083	1172.86
462.456	1184.16
462.829	1183.03
463.201	1181.45
463.574	1194.11
463.947	1206.54
464.32	1218.29
464.692	1206.99
465.065	1227.55
465.438	1253.09
465.81	1275.69
466.183	1276.82
466.555	1327.44
466.928	1312.07
467.3	1299.64
467.672	1310.71
468.045	1329.02
468.417	1356.36
468.789	1340.32
469.161	1358.85
469.534	1397.94
469.906	1408.34
470.278	1422.58
470.65	1413.76
471.022	1473.42
471.394	1458.28
471.766	1476.36
472.138	1480.43
472.51	1488.34
472.882	1513.19
473.253	1574.21
473.625	1563.14
473.997	1599.29
474.369	1609.24
474.74	1632.51
475.112	1651.04
475.484	1673.64
475.855	1710.48
476.227	1722.91
476.598	1740.53
476.97	1730.59
477.341	1765.17
477.713	1810.81
478.084	1794.77
478.455	1857.82
478.827	1874.99
479.198	1912.05
479.569	1907.53
479.94	1937.14
480.311	1981.43
480.682	1969.23
481.053	2065.95
481.424	2070.47
481.795	2061.43
482.166	2158.6
482.537	2139.17
482.908	2179.39
483.279	2182.1
483.65	2224.14
484.021	2292.84
484.391	2298.03
484.762	2340.97
485.133	2323.57
485.503	2378.71
485.874	2453.28
486.244	2448.54
486.615	2449.44
486.985	2491.02
487.356	2547.29
487.726	2584.58
488.097	2620.51
488.467	2611.47
488.837	2690.56
489.207	2697.57
489.578	2737.8
489.948	2775.76
490.318	2759.94
490.688	2803.33
491.058	2846.27
491.428	2855.76
491.798	2901.41
492.168	2922.2
492.538	2953.16
492.908	3007.39
493.278	2987.28
493.648	3017.34
494.017	3017.34
494.387	3096.88
494.757	3149.31
495.126	3125.81
495.496	3124.9
495.866	3187.95
496.235	3184.56
496.605	3213.26
496.974	3231.57
497.344	3225.69
497.713	3279.93
498.082	3298.01
498.452	3356.54
498.821	3342.98
499.19	3339.36
499.559	3385.01
499.928	3378.68
500.298	3374.16
500.667	3438.12
501.036	3415.52
501.405	3487.15
501.774	3474.5
502.143	3493.48
502.512	3500.04
502.88	3513.82
503.249	3533.25
503.618	3530.09
503.987	3572.35
504.356	3579.81
504.724	3585.46
505.093	3606.25
505.462	3627.26
505.83	3664.1
506.199	3699.58
506.567	3697.54
506.936	3664.55
507.304	3738.22
507.672	3754.72
508.041	3772.8
508.409	3790.87
508.777	3784.77
509.145	3777.54
509.514	3804.43
509.882	3869.74
510.25	3907.71
510.618	3853.92
510.986	3854.15
511.354	3901.61
511.722	3938.44
512.09	3921.72
512.458	3858.67
512.826	3959.68
513.193	3930.53
513.561	3970.31
513.929	4004.2
514.297	4000.81
514.664	4059.12
515.032	4034.48
515.4	4075.84
515.767	4067.25
516.135	4089.85
516.502	4066.35
516.869	4116.52
517.237	4143.18
517.604	4117.65
517.972	4154.71
518.339	4176.4
518.706	4145.89
519.073	4173.92
519.44	4149.51
519.808	4240.58
520.175	4215.04
520.542	4224.31
520.909	4272.22
521.276	4262.95
521.643	4268.15
522.009	4308.6
522.376	4334.36
522.743	4343.4
523.11	4391.09
523.477	4436.28
523.843	4413.68
524.21	4429.73
524.577	4440.8
524.943	4472.89
525.31	4476.05
525.676	4527.8
526.043	4519.67
526.409	4579.33
526.776	4599.67
527.142	4559.44
527.508	4602.38
527.874	4634.47
528.241	4682.15
528.607	4683.28
528.973	4721.47
529.339	4687.12
529.705	4747.69
530.071	4787.68
530.437	4764.86
530.803	4811.19
531.169	4827.91
531.535	4857.74
531.901	4857.74
532.267	4965.31
532.632	4858.87
532.998	4959.21
533.364	4976.15
533.73	4978.41
534.095	5024.51
534.461	5037.62
534.826	5072.2
535.192	5066.32
535.557	5112.42
535.923	5096.6
536.288	5099.09
536.653	5143.16
537.019	5122.14
537.384	5175.7
537.749	5209.37
538.114	5183.61
538.479	5175.7
538.845	5262.25
539.21	5226.77
539.575	5240.55
539.94	5260.67
540.305	5309.93
540.67	5314.22
541.034	5404.17
541.399	5400.78
541.764	5431.74
542.129	5417.72
542.494	5440.55
542.858	5428.57
543.223	5487.33
543.587	5550.15
543.952	5508.34
544.316	5550.6
544.681	5574.33
545.045	5584.5
545.41	5626.53
545.774	5670.37
546.138	5678.28
546.503	5713.99
546.867	5662.01
547.231	5763.48
547.595	5732.29
547.959	5771.16
548.324	5774.1
548.688	5783.14
549.052	5781.56
549.416	5815.23
549.779	5803.93
550.143	5846.41
550.507	5893.42
550.871	5908.33
551.235	5899.75
551.599	6013.87
551.962	5979.07
552.326	5978.84
552.689	5967.31
553.053	6013.42
553.417	5983.81
553.78	6100.64
554.143	6087.99
554.507	6133.19
554.87	6115.11
555.234	6187.87
555.597	6157.14
555.96	6209.12
556.323	6220.42
556.686	6227.65
557.05	6217.93
557.413	6272.62
557.776	6216.12
558.139	6314.88
558.502	6315.55
558.865	6274.88
559.228	6337.25
559.59	6402.56
559.953	6380.41
560.316	6404.59
560.679	6451.6
561.041	6459.73
561.404	6499.05
561.767	6574.98
562.129	6527.98
562.492	6607.3
562.854	6552.84
563.217	6553.29
563.579	6630.57
563.941	6667.18
564.304	6689.33
564.666	6690.23
565.028	6690.91
565.39	6712.61
565.753	6831.47
566.115	6821.98
566.477	6776.11
566.839	6772.49
567.201	6907.4
567.563	6850
567.925	6892.49
568.287	6876.44
568.648	6982.88
569.01	6982.88
569.372	6983.11
569.734	7015.65
570.095	7106.49
570.457	7090.45
570.819	7143.1
571.18	7104.23
571.542	7166.83
571.903	7210.9
572.265	7250.22
572.626	7262.87
572.987	7343.1
573.349	7395.07
573.71	7414.51
574.071	7459.03
574.432	7467.84
574.794	7577.22
575.155	7590.55
575.516	7630.55
575.877	7657.21
576.238	7731.79
576.599	7868.51
576.96	7914.16
577.32	7937.21
577.681	7980.82
578.042	8082.06
578.403	8124.09
578.763	8175.84
579.124	8276.63
579.485	8397.76
579.845	8504.42
580.206	8561.37
580.566	8667.36
580.927	8781.25
581.287	8855.37
581.648	8985.99
582.008	9120.23
582.368	9202.26
582.728	9389.82
583.089	9473.44
583.449	9653.77
583.809	9777.61
584.169	9952.75
584.529	10055.79
584.889	10318.39
585.249	10397.93
585.609	10561.09
585.969	10801.99
586.329	10909.56
586.688	11086.73
587.048	11263.45
587.408	11485.81
587.768	11708.86
588.127	11921.73
588.487	12141.16
588.846	12398.78
589.206	12676.74
589.565	12798.55
589.925	13084.19
590.284	13295.94
590.643	13512.43
591.003	13822.93
591.362	14105.63
591.721	14255.23
592.08	14521.21
592.44	14929.79
592.799	15129.56
593.158	15335.43
593.517	15605.25
593.876	15947.39
594.235	16187.84
594.593	16430.54
594.952	16678.22
595.311	17016.74
595.67	17316.62
596.029	17586.44
596.387	17886.78
596.746	18211.96
597.104	18504.84
597.463	18823.47
597.822	19079.29
598.18	19167.19
598.538	19577.35
598.897	19968.75
599.255	20043.78
599.613	20645.35
599.972	20662.75
600.33	21158.33
600.688	21326.46
601.046	21690.29
601.404	21865.65
601.762	22188.81
602.12	22532.98
602.478	22766.2
602.836	23022.46
603.194	23147.2
603.552	23540.19
603.91	23656.34
604.268	24036.22
604.625	24281.18
604.983	24571.35
605.341	24689.99
605.698	24926.59
606.056	25378.33
606.413	25518.67
606.771	25789.84
607.128	26084.3
607.485	26118.88
607.843	26381.69
608.2	26705.98
608.557	27110.04
608.914	27123.82
609.272	27490.59
609.629	27698.04
609.986	28005.61
610.343	28087.41
610.7	28434.07
611.057	28643.55
611.414	28697.56
611.771	28875.64
612.127	29253.26
612.484	29324.44
612.841	29626.35
613.198	29645.34
613.554	29872
613.911	30172.33
614.267	30359.44
614.624	30545.43
614.98	30724.4
615.337	30961.69
615.693	31046.43
616.05	31158.06
616.406	31549.69
616.762	31402.8
617.118	31509.47
617.475	31790.59
617.831	32064.93
618.187	32158.26
618.543	32284.81
618.899	32591.7
619.255	32683.22
619.611	32722.54
619.967	32907.4
620.323	32993.27
620.678	32955.31
621.034	33109.65
621.39	33181.51
621.746	33293.38
622.101	33544.67
622.457	33563.2
622.812	33730.2
623.168	33868.05
623.523	33916.41
623.879	34027.14
624.234	33842.51
624.589	34251.77
624.945	34272.56
625.3	34395.72
625.655	34534.47
626.01	34449.28
626.365	34602.04
626.72	34704.19
627.075	34675.71
627.43	34767.46
627.785	34751.19
628.14	34878.42
628.495	34990.05
628.85	35087
629.205	34988.47
629.559	35283.83
629.914	35066.66
630.269	35226.66
630.623	35196.83
630.978	34994.8
631.332	35282.25
631.687	35351.18
632.041	35294
632.396	35369.71
632.75	35374.68
633.104	35461.45
633.459	35385.75
633.813	35388.69
634.167	35302.14
634.521	35357.73
634.875	35491.74
635.229	35439.76
635.583	35315.92
635.937	35474.34
636.291	35360.89
636.645	35430.72
636.999	35369.03
637.352	35467.78
637.706	35299.65
638.06	35512.53
638.413	35377.61
638.767	35369.71
639.121	35410.38
639.474	35417.84
639.828	35452.42
640.181	35515.46
640.534	35522.47
640.888	35336.49
641.241	35260.56
641.594	35415.81
641.947	35533.09
642.301	35394.56
642.654	35464.62
643.007	35409.25
643.36	35445.41
643.713	35440.44
644.066	35517.27
644.419	35246.32
644.771	35159.54
645.124	34761.13
645.477	34703.51
645.83	34550.97
646.182	34332.67
646.535	34280.02
646.888	34427.81
647.24	34234.82
647.593	34447.24
647.945	34353.46
648.298	34216.52
648.65	34247.25
649.002	34253.35
649.355	34324.31
649.707	34196.4
650.059	34503.51
650.411	34662.83
650.763	34887.46
651.115	35216.26
651.467	35025.53
651.819	35067.34
652.171	34944.18
652.523	34928.81
652.875	34868.02
653.227	34783.05
653.578	34962.71
653.93	35046.1
654.282	34763.62
654.633	34710.97
654.985	34743.06
655.337	34773.11
655.688	34729.04
656.039	34923.84
656.391	34575.83
656.742	34719.55
657.094	34829.83
657.445	34962.71
657.796	34817.18
658.147	34697.18
658.498	34569.27
658.849	34708.93
659.2	34752.55
659.551	34559.33
659.902	34680.01
660.253	34602.27
660.604	34671.42
660.955	34487.69
661.306	34807.46
661.656	34621.25
662.007	34717.97
662.358	34578.77
662.708	34635.94
663.059	34690.85
663.409	34396.17
663.76	34719.78
664.11	34597.52
664.461	34599.1
664.811	34732.43
665.161	34550.29
665.511	34497.86
665.862	34521.14
666.212	34561.82
666.562	34568.6
666.912	34537.41
667.262	34638.88
667.612	34443.18
667.962	34537.86
668.312	34483.4
668.662	34663.51
669.011	34570.63
669.361	34532.21
669.711	34455.15
670.06	34527.69
670.41	34379.68
670.76	34315.72
671.109	34644.3
671.459	34404.99
671.808	34351.65
672.157	34370.86
672.507	34214.93
672.856	34199.34
673.205	34229.85
673.554	34505.32
673.904	34233.69
674.253	34515.72
674.602	34338.77
674.951	33794.83
675.3	33611.33
675.649	34179.68
675.998	34226.68
676.346	34224.2
676.695	34310.07
677.044	34081.15
677.393	34068.95
677.741	34130.87
678.09	34203.86
678.438	33996.86
678.787	34103.75
679.135	34033.24
679.484	33804.77
679.832	34006.13
680.181	33781.72
680.529	33855.62
680.877	33790.54
681.225	33723.87
681.573	34042.73
681.922	33670.09
682.27	33570.2
682.618	33693.37
682.966	33556.87
683.314	33570.88
683.661	33568.4
684.009	33389.64
684.357	33348.29
684.705	33251.34
685.053	33269.2
685.4	33285.47
685.748	33054.51
686.095	33078.01
686.443	32922.76
686.79	33008.41
687.138	33116.66
687.485	33049.77
687.832	32867.85
688.18	33014.29
688.527	32738.81
688.874	32706.27
689.221	32576.56
689.568	32669.44
689.915	32553.96
690.262	32544.02
690.609	32534.75
690.956	32344.93
691.303	32292.95
691.65	32180.18
691.997	32092.73
692.344	32008.21
692.69	31897.93
693.037	31965.05
693.383	31646.64
693.73	31857.03
694.077	31536.36
694.423	31584.95
694.769	31509.24
695.116	31493.65
695.462	31452.52
695.808	31333.88
696.155	31361.22
696.501	31178.4
696.847	31060.89
697.193	30990.39
697.539	31073.32
697.885	30889.82
698.231	30780
698.577	30725.53
698.923	30559.21
699.269	30643.73
699.614	30360.12
699.96	30265.21
700.306	30297.07
700.651	30246
700.997	30087.58
701.342	30039.45
701.688	30159.22
702.033	29911.54
702.379	29956.74
702.724	29904.31
703.069	29860.25
703.415	29530.31
703.76	29563.76
704.105	29639.91
704.45	29545.23
704.795	29410.77
705.14	29329.86
705.485	29243.09
705.83	29050.55
706.175	29150.89
706.52	29016.65
706.865	28951.12
707.209	28992.25
707.554	28832.7
707.899	29009.65
708.243	28775.75
708.588	28766.49
708.932	28572.6
709.277	28512.94
709.621	28521.3
709.966	28378.7
710.31	28518.81
710.654	28132.16
710.998	28299.38
711.342	28153.4
711.687	28252.38
712.031	28062.33
712.375	28087.86
712.719	27982.78
713.063	27989.79
713.407	27993.63
713.75	27871.6
714.094	27863.01
714.438	27636.58
714.782	27782.11
715.125	27586.86
715.469	27733.07
715.812	27422.8
716.156	27315
716.499	27384.38
716.843	27512.06
717.186	27242.69
717.53	27352.74
717.873	27266.42
718.216	27205.4
718.559	27074.56
718.902	27020.77
719.246	27014.67
719.589	26900.55
719.932	27009.7
720.275	26816.48
720.617	26827.33
720.96	26738.29
721.303	26786.43
721.646	26667.34
721.989	26650.84
722.331	26472.76
722.674	26501.24
723.016	26484.74
723.359	26404.97
723.701	26498.75
724.044	26374.91
724.386	26181.92
724.729	26418.53
725.071	26322.71
725.413	26153.45
725.755	26195.94
726.097	26074.36
726.439	25923.4
726.782	25939.45
727.124	26098.99
727.465	25821.26
727.807	25887.24
728.149	25859
728.491	25791.88
728.833	25824.87
729.175	25713.46
729.516	25673.01
729.858	25630.3
730.199	25729.96
730.541	25569.06
730.882	25581.49
731.224	25650.41
731.565	25420.14
731.906	25451.55
732.248	25415.84
732.589	25414.04
732.93	25228.05
733.271	25242.74
733.612	25204.32
733.953	25290.42
734.294	25164.1
734.635	25159.58
734.976	25082.07
735.317	24972.92
735.658	25000.26
735.999	25042.75
736.339	24968.62
736.68	24970.88
737.021	24925.69
737.361	24832.81
737.702	25056.98
738.042	24696.09
738.383	24861.96
738.723	24877.33
739.063	24672.81
739.404	24729.31
739.744	24593.94
740.084	24573.83
740.424	24520.05
740.764	24533.83
741.104	24551.01
741.444	24480.05
741.784	24369.32
742.124	24438.92
742.464	24403.21
742.804	24248.19
743.143	24265.59
743.483	24307.4
743.823	24120.06
744.162	24231.47
744.502	24198.47
744.841	24061.75
745.181	24307.62
745.52	23996.9
745.86	24095.2
746.199	23980.85
746.538	24016.56
746.877	24084.35
747.216	23978.37
747.556	23965.71
747.895	23939.05
748.234	23759.62
748.573	23723.23
748.911	23745.83
749.25	23795.77
749.589	23661.99
749.928	23593.74
750.267	23609.56
750.605	23631.94
750.944	23525.5
751.283	23378.83
751.621	23354.43
751.96	23294.54
752.298	23400.3
752.636	23407.31
752.975	23156.24
753.313	23164.38
753.651	23154.43
753.989	23053.42
754.327	22982.23
754.666	22889.81
755.004	22967.55
755.342	22979.3
755.679	22906.76
756.017	22829.7
756.355	22771.39
756.693	22709.7
757.031	22684.62
757.368	22565.75
757.706	22492.76
758.044	22401.68
758.381	22403.27
758.719	22391.29
759.056	22357.17
759.394	22346.77
759.731	22105.65
760.068	22175.48
760.405	22155.14
760.743	21927.8
761.08	22024.29
761.417	21837.18
761.754	21940.91
762.091	21801.93
762.428	21740.23
762.765	21657.75
763.102	21722.83
763.438	21554.48
763.775	21417.53
764.112	21350.64
764.449	21470.41
764.785	21365.1
765.122	21216.41
765.458	21175.73
765.795	21090.98
766.131	21025.9
766.467	20985.68
766.804	20905.91
767.14	20905.91
767.476	20811.9
767.812	20749.07
768.148	20739.81
768.485	20578
768.821	20478.57
769.157	20481.96
769.492	20402.42
769.828	20388.63
770.164	20215.08
770.5	20169.2
770.836	20241.06
771.171	20034.29
771.507	20042.88
771.842	19782.32
772.178	19875.88
772.513	19886.72
772.849	19799.95
773.184	19687.18
773.519	19708.87
773.855	19547.07
774.19	19444.47
774.525	19451.25
774.86	19386.17
775.195	19375.1
775.53	19260.07
775.865	19194.09
776.2	19082
776.535	18984.37
776.87	18942.34
777.205	18842.23
777.539	18837.03
777.874	18802.91
778.209	18569.47
778.543	18577.38
778.878	18463.26
779.212	18453.09
779.547	18378.29
779.881	18353.88
780.215	18189.14
780.55	18228.69
780.884	18159.99
781.218	18080.89
781.552	18132.64
781.886	18027.34
782.22	17950.5
782.554	17803.84
782.888	17635.03
783.222	17666.67
783.556	17590.06
783.889	17478.2
784.223	17439.33
784.557	17339.22
784.89	17362.04
785.224	17319.78
785.557	17153.01
785.891	17077.98
786.224	17203.63
786.558	17057.64
786.891	16973.58
787.224	16784.88
787.557	16787.14
787.891	16804.77
788.224	16754.15
788.557	16696.98
788.89	16615.17
789.223	16612.01
789.556	16506.7
789.888	16405.01
790.221	16438.68
790.554	16405.68
790.887	16191
791.219	16181.06
791.552	16133.6
791.884	16125.47
792.217	15973.61
792.549	15960.27
792.882	15892.7
793.214	15839.15
793.546	15889.99
793.879	15821.29
794.211	15763.89
794.543	15716.21
794.875	15734.29
795.207	15657
795.539	15533.84
795.871	15620.39
796.203	15403.9
796.535	15313.06
796.867	15303.34
797.198	15250.01
797.53	15259.73
797.862	15096.57
798.193	15119.16
798.525	15082.78
798.856	15122.55
799.188	14896.12
799.519	14851.83
799.85	14850.7
800.182	14788.1
800.513	14817.25
800.844	14673.07
801.175	14728.89
801.506	14672.62
801.837	14622
802.168	14595.34
802.499	14485.06
802.83	14426.3
803.161	14415.23
803.491	14436.47
803.822	14420.88
804.153	14282.12
804.483	14196.25
804.814	14113.32
805.145	14217.49
805.475	14150.15
805.805	14073.32
806.136	14090.04
806.466	13993.32
806.796	13978.18
807.126	13930.95
807.457	13910.83
807.787	13832.87
808.117	13828.13
808.447	13730.95
808.777	13860.67
809.107	13739.09
809.436	13700.44
809.766	13573.22
810.096	13652.31
810.426	13579.77
810.755	13628.13
811.085	13502.26
811.414	13451.86
811.744	13406.22
812.073	13374.13
812.403	13281.7
812.732	13288.93
813.061	13338.42
813.39	13249.61
813.719	13181.36
814.049	13238.54
814.378	13189.05
814.707	13111.99
815.036	13099.33
815.365	12968.26
815.693	12904.31
816.022	12918.09
816.351	12866.79
816.68	12875.16
817.008	12827.02
817.337	12760.13
817.665	12663.86
817.994	12728.72
818.322	12646.69
818.651	12624.99
818.979	12686.91
819.307	12630.64
819.636	12624.77
819.964	12569.18
820.292	12577.99
820.62	12614.15
820.948	12557.2
821.276	12566.24
821.604	12462.29
821.932	12523.07
822.259	12584.32
822.587	12497.31
822.915	12448.5
823.243	12470.87
823.57	12557.42
823.898	12446.24
824.225	12360.82
824.553	12442.85
824.88	12427.26
825.207	12412.8
825.535	12449.18
825.862	12499.8
826.189	12438.11
826.516	12490.53
826.843	12548.38
827.17	12547.03
827.497	12487.82
827.824	12417.77
828.151	12493.24
828.478	12448.27
828.805	12554.94
829.131	12514.94
829.458	12417.54
829.785	12329.63
830.111	12374.15
830.438	12431.55
830.764	12438.33
831.09	12341.61
831.417	12311.55
831.743	12343.19
832.069	12376.41
832.395	12294.61
832.722	12290.54
833.048	12380.71
833.374	12343.42
833.7	12287.15
834.026	12274.04
834.351	12306.81
834.677	12294.61
835.003	12317.2
835.329	12295.06
835.654	12246.92
835.98	12218
836.306	12254.83
836.631	12123.31
836.956	12216.64
837.282	12222.97
837.607	12064.1
837.932	12094.61
838.258	12109.3
838.583	12115.85
838.908	11994.73
839.233	12084.44
839.558	11995.63
839.883	11981.62
840.208	11923.32
840.533	11876.99
840.858	11906.14
841.182	11888.29
841.507	11862.53
841.832	11849.19
842.156	11823.88
842.481	11777.56
842.805	11787.27
843.13	11734.39
843.454	11723.32
843.778	11620.95
844.103	11696.66
844.427	11574.85
844.751	11560.61
845.075	11564.23
845.399	11489.88
845.723	11412.6
846.047	11489.2
846.371	11375.76
846.695	11402.88
847.019	11238.81
847.343	11251.7
847.666	11211.92
847.99	11100.97
848.313	11142.77
848.637	11101.87
848.96	11070.68
849.284	11053.73
849.607	11015.09
849.931	10918.82
850.254	10874.98
850.577	10809.9
850.9	10778.26
851.223	10792.95
851.546	10740.52
851.869	10644.25
852.192	10697.36
852.515	10583.92
852.838	10559.28
853.161	10530.13
853.483	10443.58
853.806	10418.27
854.129	10425.28
854.451	10304.38
854.774	10308.44
855.096	10308.67
855.419	10245.85
855.741	10234.32
856.063	10147.32
856.385	10140.54
856.708	10120.2
857.03	10056.47
857.352	10089.69
857.674	10022.58
857.996	9998.17
858.318	9938.28
858.64	10006.53
858.961	9973.09
859.283	9865.97
859.605	9861.9
859.926	9832.3
860.248	9825.07
860.57	9748.91
860.891	9811.51
861.212	9763.6
861.534	9676.82
861.855	9645.64
862.176	9656.48
862.498	9695.13
862.819	9673.21
863.14	9595.02
863.461	9623.49
863.782	9550.95
864.103	9566.99
864.424	9524.74
864.745	9575.13
865.065	9488.35
865.386	9468.01
865.707	9437.05
866.027	9447.45
866.348	9426.88
866.668	9435.92
866.989	9410.84
867.309	9369.26
867.63	9344.63
867.95	9382.59
868.27	9270.05
868.59	9369.26
868.91	9304.85
869.23	9276.83
869.55	9281.13
869.87	9289.04
870.19	9289.94
870.51	9266.66
870.83	9271.63
871.15	9185.08
871.469	9192.99
871.789	9187.57
872.109	9102.83
872.428	9112.99
872.748	9155.03
873.067	9083.62
873.386	9081.58
873.706	9068.25
874.025	9011.98
874.344	9050.62
874.663	9073
874.982	8948.03
875.301	8940.34
875.62	8970.17
875.939	8976.73
876.258	8957.29
876.577	8854.7
876.896	8983.96
877.214	8913.45
877.533	8865.09
877.852	8853.57
878.17	8918.88
878.489	8860.12
878.807	8904.41
879.125	8833.45
879.444	8830.29
879.762	8759.78
880.08	8801.14
880.398	8712.55
880.716	8776.51
881.034	8694.02
881.352	8687.7
881.67	8709.39
881.988	8693.57
882.306	8588.49
882.624	8640.69
882.941	8592.78
883.259	8554.82
883.577	8558.43
883.894	8540.13
884.212	8533.8
884.529	8503.97
884.846	8488.83
885.164	8518.89
885.481	8477.31
885.798	8381.26
886.115	8425.78
886.432	8401.38
886.75	8316.86
887.067	8380.36
887.383	8383.97
887.7	8329.51
888.017	8277.54
888.334	8242.28
888.651	8292.68
888.967	8240.93
889.284	8233.92
889.6	8150.53
889.917	8169.06
890.233	8172.45
890.55	8128.84
890.866	8125.45
891.182	8073.47
891.498	8045
891.815	8052.68
892.131	7962.52
892.447	7989.63
892.763	7966.13
893.079	7908.73
893.395	7892.46
893.71	7844.33
894.026	7853.37
894.342	7888.17
894.657	7846.81
894.973	7701.51
895.289	7829.41
895.604	7804.55
895.92	7677.78
896.235	7591.23
896.55	7713.71
896.865	7642.98
897.181	7566.59
897.496	7622.19
897.811	7538.35
898.126	7517.33
898.441	7478.24
898.756	7460.83
899.071	7485.92
899.386	7434.85
899.7	7380.16
900.015	7370.44
900.33	7285.92
900.644	7304.23
900.959	7299.71
901.273	7302.87
901.588	7254.51
901.902	7213.61
902.216	7214.97
902.531	7161.41
902.845	7197.11
903.159	7078.02
903.473	7081.18
903.787	7046.38
904.101	6998.7
904.415	7025.82
904.729	6944.46
905.042	6931.58
905.356	6913.73
905.67	6883
905.984	6933.62
906.297	6917.57
906.611	6845.94
906.924	6854.07
907.237	6794.41
907.551	6743.57
907.864	6770.91
908.177	6766.39
908.491	6726.84
908.804	6701.76
909.117	6643
909.43	6577.24
909.743	6563.46
910.056	6585.83
910.368	6513.29
910.681	6476.68
910.994	6473.97
911.307	6463.57
911.619	6444.14
911.932	6380.86
912.244	6332.28
912.557	6357.59
912.869	6325.27
913.181	6333.86
913.494	6278.95
913.806	6292.05
914.118	6220.87
914.43	6278.72
914.742	6175.9
915.054	6137.48
915.366	6114.88
915.678	6106.75
915.99	6024.49
916.302	6036.69
916.613	6030.36
916.925	6021.1
917.236	5985.85
917.548	5920.54
917.859	5977.71
918.171	5857.26
918.482	5845.51
918.794	5865.85
919.105	5869.24
919.416	5752.63
919.727	5777.72
920.038	5722.35
920.349	5706.76
920.66	5701.11
920.971	5697.72
921.282	5682.12
921.593	5625.4
921.903	5599.41
922.214	5585.4
922.525	5607.32
922.835	5560.77
923.146	5479.87
923.456	5473.54
923.767	5461.57
924.077	5419.53
924.387	5448.23
924.697	5414.79
925.008	5391.96
925.318	5363.26
925.628	5360.78
925.938	5327.33
926.248	5213.44
926.558	5257.5
926.867	5212.31
927.177	5183.15
927.487	5205.75
927.796	5162.82
928.106	5132.53
928.416	5129.82
928.725	5140.67
929.034	5117.39
929.344	5123.27
929.653	5045.76
929.962	5052.08
930.271	4986.78
930.581	4956.72
930.89	4990.62
931.199	4928.92
931.508	4945.42
931.817	4945.65
932.125	4847.12
932.434	4888.93
932.743	4867
933.051	4785.43
933.36	4772.77
933.669	4757.86
933.977	4731.87
934.286	4719.89
934.594	4714.92
934.902	4728.7
935.21	4664.98
935.519	4640.12
935.827	4629.5
936.135	4594.24
936.443	4595.37
936.751	4524.19
937.059	4554.7
937.367	4596.28
937.674	4528.93
937.982	4518.09
938.29	4496.85
938.597	4493.91
938.905	4420.01
939.213	4438.99
939.52	4391.99
939.827	4449.61
940.135	4424.53
940.442	4368.71
940.749	4414.81
941.056	4323.74
941.363	4330.07
941.67	4275.83
941.977	4256.17
942.284	4236.29
942.591	4211.43
942.898	4204.65
943.205	4238.77
943.511	4170.53
943.818	4168.04
944.125	4165.55
944.431	4122.39
944.738	4102.73
945.044	4118.1
945.35	4041.94
945.657	4043.07
945.963	4025.9
946.269	4037.42
946.575	3974.6
946.881	3994.26
947.187	3980.93
947.493	3939.12
947.799	3940.02
948.105	3955.62
948.41	3916.75
948.716	3834.49
949.022	3899.57
949.327	3825
949.633	3829.74
949.938	3824.55
950.244	3828.61
950.549	3779.58
950.854	3785.45
951.16	3704.32
951.465	3772.12
951.77	3742.06
952.075	3710.88
952.38	3682.4
952.685	3700.48
952.99	3702.74
953.294	3650.09
953.599	3624.1
953.904	3588.39
954.209	3587.72
954.513	3613.7
954.818	3568.96
955.122	3552.92
955.426	3533.93
955.731	3535.97
956.035	3484.89
956.339	3457.55
956.643	3446.48
956.948	3448.29
957.252	3421.17
957.556	3471.56
957.86	3431.11
958.163	3418.23
958.467	3393.15
958.771	3387.04
959.075	3373.03
959.378	3347.95
959.682	3285.58
959.985	3336.88
960.289	3328.06
960.592	3283.32
960.896	3255.75
961.199	3284.22
961.502	3262.08
961.805	3217.78
962.108	3217.1
962.411	3199.25
962.714	3209.42
963.017	3152.7
963.32	3148.63
963.623	3121.51
963.926	3157.45
964.228	3120.38
964.531	3098.92
964.833	3115.41
965.136	3066.6
965.438	3081.52
965.741	3034.28
966.043	3048.3
966.345	3031.35
966.648	2999.94
966.95	3007.62
967.252	3003.1
967.554	2967.62
967.856	2954.29
968.158	2966.49
968.46	2963.78
968.761	2933.27
969.063	2886.49
969.365	2910.22
969.666	2883.55
969.968	2895.53
970.269	2855.08
970.571	2877.23
970.872	2882.65
971.174	2805.59
971.475	2810.11
971.776	2811.92
972.077	2816.21
972.378	2802.65
972.679	2782.77
972.98	2742.77
973.281	2729.66
973.582	2754.52
973.883	2735.31
974.183	2710.9
974.484	2728.3
974.785	2671.36
975.085	2688.76
975.386	2679.27
975.686	2629.78
975.986	2635.43
976.287	2628.87
976.587	2615.31
976.887	2629.78
977.187	2596.78
977.487	2587.52
977.787	2555.88
978.087	2576.67
978.387	2567.63
978.687	2533.28
978.987	2553.17
979.286	2491.7
979.586	2528.31
979.885	2514.3
980.185	2469.1
980.484	2460.51
980.784	2483.11
981.083	2467.52
981.382	2436.56
981.682	2431.36
981.981	2470.91
982.28	2395.66
982.579	2392.04
982.878	2392.72
983.177	2398.82
983.475	2374.19
983.774	2395.21
984.073	2352.49
984.372	2356.11
984.67	2321.31
984.969	2335.09
985.267	2323.34
985.566	2300.29
985.864	2302.55
986.162	2262.33
986.461	2278.6
986.759	2247.41
987.057	2271.37
987.355	2233.4
987.653	2213.74
987.951	2212.16
988.249	2211.03
988.547	2220.97
988.844	2212.39
989.142	2185.04
989.44	2176
989.737	2152.05
990.035	2172.16
990.332	2157.7
990.63	2145.04
990.927	2144.36
991.224	2110.24
991.521	2097.59
991.819	2115.21
992.116	2089.9
992.413	2064.82
992.71	2071.15
993.006	2053.97
993.303	2059.4
993.6	2052.16
993.897	2062.11
994.193	2017.59
994.49	2026.4
994.787	2009
995.083	1992.05
995.379	1992.73
995.676	1974.65
995.972	1965.16
996.268	1969.68
996.565	1961.54
996.861	1953.86
997.157	1917.25
997.453	1917.25
997.749	1942.79
998.044	1893.07
998.34	1888.78
998.636	1904.82
998.932	1914.99
999.227	1864.82
999.523	1878.83
999.818	1853.75
1000.114	1833.41
1000.409	1841.55
1000.704	1831.83
1001	1801.77
1001.295	1768.56
1001.59	1770.82
1001.885	1786.63
1002.18	1774.66
1002.475	1771.27
1002.77	1734.43
1003.065	1733.08
1003.359	1738.5
1003.654	1733.08
1003.949	1696.92
1004.243	1685.39
1004.538	1725.62
1004.832	1697.37
1005.127	1694.66
1005.421	1662.34
1005.715	1670.7
1006.009	1684.04
1006.304	1650.59
1006.598	1646.07
1006.892	1652.85
1007.186	1612.18
1007.48	1631.84
1007.773	1594.1
1008.067	1588.9
1008.361	1569.24
1008.655	1562.91
1008.948	1580.31
1009.242	1552.52
1009.535	1559.52
1009.829	1548
1010.122	1524.27
1010.415	1540.54
1010.708	1550.26
1011.001	1515.91
1011.295	1508.45
1011.588	1510.93
1011.881	1491.73
1012.173	1464.61
1012.466	1457.15
1012.759	1465.06
1013.052	1486.08
1013.344	1456.02
1013.637	1428.45
1013.93	1435
1014.222	1431.61
1014.514	1428.68
1014.807	1413.76
1015.099	1384.16
1015.391	1361.11
1015.683	1385.06
1015.976	1379.86
1016.268	1365.4
1016.56	1355.91
1016.851	1373.76
1017.143	1329.47
1017.435	1342.35
1017.727	1322.69
1018.018	1315.46
1018.31	1337.83
1018.602	1288.34
1018.893	1267.1
1019.185	1287.89
1019.476	1261
1019.767	1279.98
1020.058	1257.16
1020.35	1250.38
1020.641	1248.57
1020.932	1238.4
1021.223	1226.42
1021.514	1241.34
1021.804	1225.29
1022.095	1210.38
1022.386	1190.94
1022.677	1181.9
1022.967	1171.51
1023.258	1214.45
1023.548	1165.63
1023.839	1211.06
1024.129	1165.41
1024.419	1173.54
1024.709	1140.55
1025	1136.03
1025.29	1112.53
1025.58	1147.55
1025.87	1103.26
1026.16	1096.93
1026.449	1108.91
1026.739	1119.08
1027.029	1091.06
1027.319	1070.27
1027.608	1088.12
1027.898	1077.27
1028.187	1089.93
1028.477	1083.83
1028.766	1049.48
1029.055	1069.14
1029.344	1037.95
1029.634	1033.89
1029.923	1016.26
1030.212	1011.51
1030.501	1035.92
1030.79	994.34
1031.078	982.36
1031.367	995.92
1031.656	992.76
1031.945	984.4
1032.233	967.22
1032.522	964.06
1032.81	955.92
1033.099	941.23
1033.387	950.27
1033.675	955.47
1033.963	933.32
1034.251	955.02
1034.54	925.19
1034.828	912.53
1035.116	926.09
1035.403	908.24
1035.691	922.02
1035.979	905.3
1036.267	889.26
1036.554	875.92
1036.842	872.76
1037.129	888.58
1037.417	881.8
1037.704	875.47
1037.992	857.39
1038.279	863.72
1038.566	839.77
1038.853	839.77
1039.14	839.77
