Data from hue_250_FLMS001491_00044.txt Node
Date: Tue Feb 07 16:01:01 GMT 2017
User: dcchb
Spectrometer: FLMS00149
Trigger mode: 0
Integration Time (sec): 2.000000E-2
Scans to average: 10
Electric dark correction enabled: true
Nonlinearity correction enabled: false
Boxcar width: 0
XAxis mode: Wavelengths
Number of Pixels in Spectrum: 2048
>>>>>Begin Spectral Data<<<<<
341.393	-9.31
341.776	-9.31
342.16	-9.31
342.543	-64.9
342.927	-65.13
343.31	-52.47
343.693	-61.96
344.077	-57.89
344.46	-63.77
344.843	-81.85
345.226	-16.77
345.61	-14.73
345.993	-21.96
346.376	-3.21
346.759	11.26
347.142	15.32
347.525	46.74
347.908	59.62
348.291	72.72
348.674	80.86
349.057	88.09
349.44	119.5
349.823	128.54
350.206	161.76
350.588	176
350.971	203.57
351.354	224.81
351.737	239.5
352.119	244.47
352.502	256.9
352.884	268.2
353.267	287.18
353.65	274.98
354.032	295.54
354.414	288.31
354.797	304.81
355.179	319.5
355.562	319.5
355.944	312.27
356.326	326.05
356.709	328.31
357.091	316.79
357.473	319.72
357.855	326.28
358.238	355.2
358.62	330.57
359.002	338.71
359.384	337.35
359.766	340.29
360.148	347.97
360.53	343.9
360.912	320.18
361.294	361.98
361.676	336.22
362.057	307.97
362.439	337.58
362.821	337.12
363.203	332.83
363.584	333.28
363.966	319.72
364.348	327.18
364.729	302.32
365.111	304.13
365.493	311.14
365.874	310.23
366.256	315.88
366.637	331.47
367.019	331.02
367.4	296.9
367.781	307.29
368.163	300.51
368.544	296
368.925	301.87
369.306	318.59
369.688	288.09
370.069	315.66
370.45	298.93
370.831	317.01
371.212	313.85
371.593	298.48
371.974	324.92
372.355	305.94
372.736	332.15
373.117	315.43
373.498	309.55
373.879	319.05
374.26	311.36
374.641	313.4
375.021	311.59
375.402	298.48
375.783	313.85
376.163	314.07
376.544	323.11
376.925	304.81
377.305	330.57
377.686	330.57
378.066	319.5
378.447	339.38
378.827	321.31
379.208	329.21
379.588	327.86
379.968	329.21
380.349	350.23
380.729	317.24
381.109	319.5
381.489	350.46
381.87	320.18
382.25	341.42
382.63	351.81
383.01	324.92
383.39	346.62
383.77	337.58
384.15	343.23
384.53	348.88
384.91	318.59
385.29	355.43
385.67	340.29
386.049	343
386.429	339.38
386.809	353.85
387.189	342.55
387.568	361.08
387.948	365.15
388.328	364.24
388.707	353.85
389.087	363.34
389.466	354.75
389.846	340.29
390.225	366.95
390.605	352.49
390.984	387.97
391.363	361.08
391.743	351.59
392.122	366.95
392.501	375.09
392.881	379.83
393.26	380.74
393.639	386.61
394.018	382.09
394.397	365.82
394.776	373.73
395.155	397.46
395.534	395.2
395.913	371.25
396.292	400.63
396.671	393.39
397.05	399.72
397.429	412.83
397.808	383
398.186	403.34
398.565	400.63
398.944	402.43
399.323	374.64
399.701	404.24
400.08	414.64
400.458	397.69
400.837	423.22
401.215	403.11
401.594	402.21
401.972	386.84
402.351	413.28
402.729	421.42
403.107	420.74
403.486	438.59
403.864	430
404.242	440.17
404.62	446.27
404.999	437.23
405.377	432.26
405.755	437.23
406.133	451.25
406.511	443.11
406.889	461.64
407.267	475.2
407.645	455.99
408.023	470.23
408.401	458.48
408.779	486.05
409.156	479.72
409.534	481.75
409.912	486.5
410.29	493.96
410.667	491.7
411.045	511.13
411.422	524.46
411.8	527.18
412.178	548.42
412.555	528.98
412.933	533.95
413.31	544.35
413.687	550.45
414.065	552.03
414.442	568.3
414.819	580.96
415.197	568.76
415.574	582.32
415.951	589.77
416.328	607.17
416.705	596.33
417.082	633.16
417.46	623.9
417.837	624.12
418.214	619.38
418.591	638.58
418.967	628.87
419.344	636.78
419.721	631.81
420.098	673.84
420.475	667.51
420.852	685.82
421.228	695.76
421.605	691.69
421.982	701.41
422.358	705.25
422.735	716.55
423.111	724.01
423.488	724.23
423.864	759.49
424.241	772.82
424.617	765.36
424.994	779.82
425.37	766.27
425.746	797.45
426.123	798.13
426.499	799.94
426.875	819.37
427.251	848.3
427.627	861.86
428.003	857.11
428.379	857.34
428.756	882.87
429.132	878.58
429.507	903.44
429.883	893.04
430.259	902.08
430.635	908.63
431.011	928.07
431.387	927.62
431.763	955.64
432.138	949.76
432.514	974.62
432.89	968.29
433.265	1020.72
433.641	1018.24
434.016	1012.59
434.392	1043.55
434.767	1040.83
435.143	1045.81
435.518	1092.13
435.894	1122.41
436.269	1104.11
436.644	1134.17
437.02	1167.38
437.395	1140.72
437.77	1163.99
438.145	1165.12
438.52	1213.26
438.895	1225.69
439.271	1246.03
439.646	1241.51
440.021	1250.32
440.395	1272.01
440.77	1262.52
441.145	1298.23
441.52	1325.8
441.895	1316.08
442.27	1345.23
442.645	1348.62
443.019	1371.9
443.394	1353.59
443.769	1385.23
444.143	1373.48
444.518	1383.65
444.892	1393.14
445.267	1422.29
445.641	1424.33
446.016	1436.53
446.39	1439.24
446.764	1460.71
447.139	1439.92
447.513	1491.22
447.887	1468.39
448.262	1482.86
448.636	1491.44
449.01	1536.19
449.384	1521.95
449.758	1548.62
450.132	1557.43
450.506	1584.32
450.88	1571.44
451.254	1571.89
451.628	1609.41
452.002	1580.26
452.376	1641.04
452.75	1635.62
453.123	1649.18
453.497	1676.98
453.871	1646.69
454.244	1747.03
454.618	1731.44
454.992	1754.94
455.365	1768.5
455.739	1816.63
456.112	1810.76
456.486	1829.29
456.859	1856.63
457.232	1864.99
457.606	1878.78
457.979	1894.6
458.352	1931.88
458.725	1933.24
459.099	1935.73
459.472	1977.08
459.845	2000.36
460.218	1993.58
460.591	2006.46
460.964	2008.72
461.337	2079.9
461.71	2102.5
462.083	2142.27
462.456	2110.18
462.829	2134.59
463.201	2201.93
463.574	2196.51
463.947	2220.92
464.32	2230.86
464.692	2209.17
465.065	2286.45
465.438	2295.72
465.81	2314.47
466.183	2344.08
466.555	2409.61
466.928	2422.49
467.3	2387.47
467.672	2459.33
468.045	2502.04
468.417	2520.34
468.789	2534.81
469.161	2548.14
469.534	2588.59
469.906	2671.53
470.278	2685.08
470.65	2653.22
471.022	2739.55
471.394	2764.86
471.766	2797.4
472.138	2805.99
472.51	2851.63
472.882	2901.8
473.253	2947
473.625	3000.56
473.997	3020.67
474.369	3047.56
474.74	3047.79
475.112	3077.16
475.484	3152.64
475.855	3181.12
476.227	3198.74
476.598	3312.19
476.97	3349.7
477.341	3392.18
477.713	3438.74
478.084	3444.84
478.455	3508.34
478.827	3566.64
479.198	3642.8
479.569	3685.74
479.94	3730.71
480.311	3787.2
480.682	3821.1
481.053	3881.21
481.424	3944.03
481.795	4000.3
482.166	4039.4
482.537	4067.65
482.908	4193.75
483.279	4206.17
483.65	4226.74
484.021	4337.24
484.391	4382.44
484.762	4400.07
485.133	4437.58
485.503	4516.68
485.874	4593.06
486.244	4609.55
486.615	4689.78
486.985	4761.64
487.356	4781.98
487.726	4845.93
488.097	4911.24
488.467	4928.19
488.837	5007.28
489.207	5032.82
489.578	5109.2
489.948	5112.14
490.318	5215.87
490.688	5226.03
491.058	5328.41
491.428	5349.65
491.798	5398.01
492.168	5471.9
492.538	5486.59
492.908	5554.16
493.278	5597.32
493.648	5585.12
494.017	5672.8
494.387	5750.77
494.757	5758.68
495.126	5816.08
495.496	5785.12
495.866	5856.98
496.235	5940.37
496.605	5932.01
496.974	6010.87
497.344	6071.44
497.713	6074.83
498.082	6080.02
498.452	6142.85
498.821	6144.88
499.19	6157.08
499.559	6183.98
499.928	6210.87
500.298	6243.41
500.667	6269.4
501.036	6300.81
501.405	6352.33
501.774	6352.11
502.143	6405.66
502.512	6429.17
502.88	6373.35
503.249	6416.74
503.618	6515.72
503.987	6473.01
504.356	6576.73
504.724	6593.91
505.093	6586
505.462	6587.58
505.83	6635.94
506.199	6644.08
506.567	6726.79
506.936	6710.06
507.304	6823.28
507.672	6800.46
508.041	6767.92
508.409	6864.18
508.777	6883.17
509.145	6924.75
509.514	6903.96
509.882	6909.38
510.25	6951.41
510.618	6927.91
510.986	6958.19
511.354	7029.38
511.722	7015.37
512.09	7094.46
512.458	7034.12
512.826	7108.7
513.193	7098.75
513.561	7118.19
513.929	7185.53
514.297	7216.49
514.664	7270.5
515.032	7305.3
515.4	7335.81
515.767	7286.32
516.135	7411.97
516.502	7255.81
516.869	7397.96
517.237	7403.38
517.604	7354.11
517.972	7423.27
518.339	7419.2
518.706	7449.03
519.073	7471.63
519.44	7469.59
519.808	7555.47
520.175	7465.07
520.542	7557.27
520.909	7541
521.276	7592.98
521.643	7689.02
522.009	7687.21
522.376	7654.9
522.743	7663.71
523.11	7770.37
523.477	7820.99
523.843	7794.33
524.21	7806.98
524.577	7856.7
524.943	7898.28
525.31	7921.78
525.676	7988
526.043	7920.88
526.409	7999.07
526.776	8004.04
527.142	7928.11
527.508	8027.77
527.874	8082.46
528.241	8162.91
528.607	8110.25
528.973	8111.61
529.339	8051.95
529.705	8171.04
530.071	8185.51
530.437	8187.54
530.803	8230.02
531.169	8250.36
531.535	8206.3
531.901	8236.35
532.267	8211.04
532.632	8241.77
532.998	8290.14
533.364	8222.79
533.73	8205.84
534.095	8291.49
534.461	8329.46
534.826	8319.29
535.192	8288.78
535.557	8346.4
535.923	8299.85
536.288	8351.38
536.653	8311.15
537.019	8282.23
537.384	8285.39
537.749	8312.06
538.114	8313.41
538.479	8322.68
538.845	8290.81
539.21	8319.29
539.575	8333.75
539.94	8319.51
540.305	8344.37
540.67	8340.08
541.034	8296.91
541.399	8347.99
541.764	8289.01
542.129	8349.79
542.494	8387.76
542.858	8367.87
543.223	8322.22
543.587	8356.8
543.952	8270.25
544.316	8331.04
544.681	8288.33
545.045	8344.37
545.41	8343.47
545.774	8289.23
546.138	8282
546.503	8319.74
546.867	8349.79
547.231	8359.29
547.595	8301.66
547.959	8360.42
548.324	8349.57
548.688	8366.52
549.052	8340.3
549.416	8329.46
549.779	8306.41
550.143	8299.17
550.507	8402.67
550.871	8359.96
551.235	8288.78
551.599	8347.31
551.962	8404.03
552.326	8346.86
552.689	8354.54
553.053	8315.9
553.417	8309.8
553.78	8425.72
554.143	8345.73
554.507	8369.91
554.87	8375.56
555.234	8377.36
555.597	8334.43
555.96	8373.97
556.323	8457.14
556.686	8414.65
557.05	8481.09
557.413	8420.53
557.776	8443.35
558.139	8494.88
558.502	8488.1
558.865	8479.73
559.228	8536.91
559.59	8574.65
559.953	8561.09
560.316	8628.88
560.679	8569.45
561.041	8627.3
561.404	8640.86
561.767	8726.51
562.129	8667.07
562.492	8688.77
562.854	8744.36
563.217	8718.15
563.579	8732.84
563.941	8761.31
564.304	8805.15
564.666	8808.77
565.028	8861.42
565.39	8876.79
565.753	8900.06
566.115	8865.26
566.477	8985.94
566.839	8971.47
567.201	8958.14
567.563	9016.22
567.925	9072.94
568.287	9029.78
568.648	9037.91
569.01	9060.51
569.372	9125.14
569.734	9135.08
570.095	9216.21
570.457	9205.82
570.819	9230.9
571.18	9255.99
571.542	9194.74
571.903	9254.4
572.265	9238.13
572.626	9342.31
572.987	9277.91
573.349	9357.45
573.71	9313.84
574.071	9412.14
574.432	9396.77
574.794	9486.94
575.155	9455.53
575.516	9467.05
575.877	9484
576.238	9486.26
576.599	9531.23
576.96	9578.91
577.32	9528.52
577.681	9556.54
578.042	9654.85
578.403	9676.09
578.763	9641.96
579.124	9708.85
579.485	9709.08
579.845	9746.37
580.206	9724.45
580.566	9730.32
580.927	9720.61
581.287	9760.38
581.648	9789.76
582.008	9857.1
582.368	9831.79
582.728	9837.67
583.089	9912.24
583.449	9870.43
583.809	9886.7
584.169	9884.67
584.529	9860.26
584.889	9919.47
585.249	9924.22
585.609	9867.04
585.969	10001.28
586.329	9916.53
586.688	9956.08
587.048	9949.98
587.408	10033.82
587.768	9900.04
588.127	9989.75
588.487	9979.58
588.846	10053.7
589.206	9972.12
589.565	10015.06
589.925	10074.04
590.284	10037.43
590.643	10101.16
591.003	10124.21
591.362	10135.28
591.721	10122.18
592.08	10148.17
592.44	10103.65
592.799	10138.45
593.158	10170.54
593.517	10189.29
593.876	10192.46
594.235	10174.38
594.593	10229.97
594.952	10229.75
595.311	10270.42
595.67	10185.23
596.029	10254.83
596.387	10246.24
596.746	10251.67
597.104	10254.83
597.463	10265.9
597.822	10305.9
598.18	10298.9
598.538	10206.24
598.897	10305.9
599.255	10251.89
599.613	10367.59
599.972	10399.46
600.33	10329.4
600.688	10273.36
601.046	10311.55
601.404	10397.42
601.762	10285.34
602.12	10349.06
602.478	10328.95
602.836	10444.43
603.194	10354.49
603.552	10404.88
603.91	10349.97
604.268	10421.83
604.625	10353.81
604.983	10450.98
605.341	10363.07
605.698	10436.97
606.056	10376.18
606.413	10408.5
606.771	10490.76
607.128	10398.1
607.485	10420.25
607.843	10339.8
608.2	10524.88
608.557	10528.95
608.914	10487.37
609.272	10521.26
609.629	10464.77
609.986	10474.94
610.343	10423.19
610.7	10552.67
611.057	10556.74
611.414	10592
611.771	10611.43
612.127	10615.95
612.484	10615.05
612.841	10661.82
613.198	10610.98
613.554	10594.71
613.911	10722.84
614.267	10704.31
614.624	10664.31
614.98	10674.03
615.337	10742.05
615.693	10753.8
616.05	10675.38
616.406	10784.31
616.762	10675.38
617.118	10693.24
617.475	10650.3
617.831	10707.02
618.187	10715.38
618.543	10833.12
618.899	10788.6
619.255	10715.16
619.611	10728.49
619.967	10722.61
620.323	10815.72
620.678	10813.23
621.034	10713.12
621.39	10821.59
621.746	10743.86
622.101	10853.01
622.457	10809.39
622.812	10863.63
623.168	10834.93
623.523	10832.44
623.879	10847.36
624.234	10749.51
624.589	10796.06
624.945	10763.52
625.3	10841.71
625.655	10810.29
626.01	10842.38
626.365	10740.47
626.72	10892.33
627.075	10795.15
627.43	10741.37
627.785	10779.56
628.14	10725.1
628.495	10775.72
628.85	10751.54
629.205	10750.64
629.559	10721.48
629.914	10765.78
630.269	10756.06
630.623	10709.05
630.978	10652.11
631.332	10713.57
631.687	10754.25
632.041	10686.91
632.396	10648.27
632.75	10641.94
633.104	10684.65
633.459	10601.26
633.813	10635.16
634.167	10638.1
634.521	10543.41
634.875	10564.65
635.229	10570.75
635.583	10511.77
635.937	10560.36
636.291	10578.44
636.645	10558.55
636.999	10472.45
637.352	10540.92
637.706	10416.86
638.06	10523.75
638.413	10446.24
638.767	10443.52
639.121	10403.53
639.474	10428.84
639.828	10374.6
640.181	10457.54
640.534	10447.14
640.888	10369.18
641.241	10340.7
641.594	10365.56
641.947	10318.1
642.301	10323.98
642.654	10367.37
643.007	10317.2
643.36	10265.22
643.713	10319.69
644.066	10339.8
644.419	10319.69
644.771	10168.28
645.124	10165.79
645.477	10137.54
645.83	10043.08
646.182	9995.63
646.535	9957.44
646.888	9935.29
647.24	9931
647.593	9994.72
647.945	9897.1
648.298	9811.68
648.65	9860.72
649.002	9888.96
649.355	9886.7
649.707	9930.77
650.059	10013.93
650.411	10108.39
650.763	10091.22
651.115	10141.84
651.467	10107.71
651.819	10179.35
652.171	10166.92
652.523	10130.99
652.875	10175.28
653.227	10099.35
653.578	10111.56
653.93	10043.08
654.282	10095.51
654.633	10031.33
654.985	10037.43
655.337	10078.34
655.688	10091.44
656.039	10088.05
656.391	9943.65
656.742	10067.72
657.094	10074.95
657.445	10038.79
657.796	10053.93
658.147	10020.49
658.498	10109.3
658.849	10051.44
659.2	10095.96
659.551	9984.55
659.902	10119.47
660.253	10086.02
660.604	10022.52
660.955	10008.73
661.306	10054.16
661.656	10046.25
662.007	10051.67
662.358	10042.63
662.708	10019.58
663.059	10014.38
663.409	10005.8
663.76	10085.79
664.11	10060.48
664.461	10067.94
664.811	10070.43
665.161	10009.19
665.511	10080.14
665.862	10047.6
666.212	10069.07
666.562	10045.34
666.912	10050.54
667.262	10008.06
667.612	10025
667.962	10080.82
668.312	10010.77
668.662	10069.07
669.011	10105
669.361	10006.02
669.711	10036.08
670.06	9984.78
670.41	9965.57
670.76	9975.74
671.109	9989.75
671.459	10024.55
671.808	9998.11
672.157	10010.99
672.507	9982.75
672.856	9938.23
673.205	9942.07
673.554	9974.84
673.904	9926.93
674.253	10008.96
674.602	9926.93
674.951	9846.25
675.3	9680.83
675.649	9862.07
675.998	9861.17
676.346	9861.39
676.695	9953.59
677.044	9849.64
677.393	9814.16
677.741	9864.78
678.09	9775.07
678.438	9782.3
678.787	9812.35
679.135	9825.69
679.484	9778.68
679.832	9805.12
680.181	9768.29
680.529	9747.05
680.877	9680.16
681.225	9723.09
681.573	9772.58
681.922	9684.45
682.27	9651.46
682.618	9708.63
682.966	9662.3
683.314	9684.67
683.661	9606.26
684.009	9597.9
684.357	9501.18
684.705	9444.68
685.053	9556.77
685.4	9559.48
685.748	9455.75
686.095	9455.53
686.443	9377.11
686.79	9354.51
687.138	9425.92
687.485	9471.57
687.832	9387.51
688.18	9410.11
688.527	9339.83
688.874	9334.18
689.221	9272.03
689.568	9255.31
689.915	9237.68
690.262	9182.54
690.609	9215.31
690.956	9191.13
691.303	9125.59
691.65	9135.08
691.997	9035.43
692.344	9052.83
692.69	9044.01
693.037	9002.43
693.383	8911.36
693.73	8991.13
694.077	8979.16
694.423	8890.35
694.769	8928.54
695.116	8891.25
695.462	8842.89
695.808	8857.8
696.155	8820.52
696.501	8765.15
696.847	8717.92
697.193	8691.03
697.539	8656
697.885	8630.92
698.231	8583.23
698.577	8586.62
698.923	8582.1
699.269	8553.86
699.614	8482.9
699.96	8472.28
700.306	8411.04
700.651	8390.02
700.997	8360.19
701.342	8350.7
701.688	8383.47
702.033	8381.66
702.379	8285.39
702.724	8277.71
703.069	8259.85
703.415	8186.86
703.76	8220.31
704.105	8169.46
704.45	8192.28
704.795	8135.34
705.14	8039.52
705.485	8059.41
705.83	8039.07
706.175	7992.52
706.52	7996.36
706.865	7931.73
707.209	7890.37
707.554	7886.98
707.899	7932.63
708.243	7884.5
708.588	7899.64
708.932	7814.44
709.277	7798.17
709.621	7806.76
709.966	7837.49
710.31	7816.93
710.654	7646.76
710.998	7677.27
711.342	7747.32
711.687	7712.98
712.031	7664.16
712.375	7606.76
712.719	7594.33
713.063	7611.28
713.407	7616.71
713.75	7563.37
714.094	7555.92
714.438	7530.61
714.782	7510.49
715.125	7494.22
715.469	7510.04
715.812	7442.7
716.156	7434.56
716.499	7452.42
716.843	7419.2
717.186	7417.62
717.53	7481.57
717.873	7416.71
718.216	7458.52
718.559	7367.9
718.902	7328.8
719.246	7342.14
719.589	7364.96
719.932	7305.3
720.275	7316.38
720.617	7296.71
720.96	7289.94
721.303	7310.5
721.646	7244.06
721.989	7166.77
722.331	7212.65
722.674	7260.78
723.016	7244.06
723.359	7221.69
723.701	7276.38
724.044	7189.37
724.386	7195.47
724.729	7153.22
725.071	7202.48
725.413	7177.62
725.755	7211.52
726.097	7127
726.439	7117.51
726.782	7114.8
727.124	7176.27
727.465	7193.67
727.807	7140.79
728.149	7087
728.491	7087.91
728.833	7148.92
729.175	7057.85
729.516	7060.56
729.858	7091.3
730.199	7128.58
730.541	7094.23
730.882	7033.67
731.224	7164.52
731.565	7058.08
731.906	7131.75
732.248	7059.66
732.589	7016.04
732.93	7052.43
733.271	7052.65
733.612	7044.52
733.953	7008.36
734.294	7067.12
734.635	7011.07
734.976	6995.48
735.317	6988.25
735.658	7030.28
735.999	6974.01
736.339	7038.19
736.68	6965.2
737.021	7025.76
737.361	7019.43
737.702	7043.84
738.042	6995.03
738.383	6999.1
738.723	7039.77
739.063	7015.14
739.404	7050.39
739.744	7055.82
740.084	7016.5
740.424	7031.19
740.764	7052.43
741.104	7057.63
741.444	7059.21
741.784	7016.04
742.124	7067.57
742.464	7046.1
742.804	7101.69
743.143	7045.2
743.483	7111.18
743.823	7046.1
744.162	7030.96
744.502	7059.21
744.841	7097.17
745.181	7153.89
745.52	7175.59
745.86	7180.56
746.199	7255.59
746.538	7208.81
746.877	7283.83
747.216	7298.75
747.556	7317.05
747.895	7300.1
748.234	7391.85
748.573	7365.41
748.911	7391.18
749.25	7437.05
749.589	7455.81
749.928	7497.84
750.267	7573.54
750.605	7554.56
750.944	7620.32
751.283	7698.96
751.621	7770.15
751.96	7757.27
752.298	7809.24
752.636	7895.57
752.975	7897.15
753.313	7948.22
753.651	8083.59
753.989	8136.69
754.327	8191.83
754.666	8211.27
755.004	8321.09
755.342	8398.61
755.679	8437.02
756.017	8506.63
756.355	8685.38
756.693	8678.83
757.031	8746.17
757.368	8848.31
757.706	8980.74
758.044	8981.87
758.381	9157
758.719	9240.84
759.056	9335.08
759.394	9384.34
759.731	9405.13
760.068	9574.85
760.405	9639.48
760.743	9734.84
761.08	9882.41
761.417	9918.11
761.754	10102.97
762.091	10160.59
762.428	10250.31
762.765	10319.69
763.102	10445.78
763.438	10593.13
763.775	10565.56
764.112	10719.45
764.449	10914.7
764.785	10901.82
765.122	10935.94
765.458	11065.43
765.795	11222.49
766.131	11246.22
766.467	11259.32
766.804	11384.74
767.14	11398.08
767.476	11523.72
767.812	11554.91
768.148	11689.59
768.485	11713.1
768.821	11758.74
769.157	11808.46
769.492	11922.36
769.828	11982.69
770.164	11984.73
770.5	12060.88
770.836	12195.34
771.171	12148.11
771.507	12254.1
771.842	12240.54
772.178	12370.48
772.513	12354.21
772.849	12410.48
773.184	12398.73
773.519	12572.73
773.855	12493.41
774.19	12519.63
774.525	12552.17
774.86	12681.43
775.195	12701.09
775.53	12583.81
775.865	12696.35
776.2	12626.29
776.535	12593.75
776.87	12714.88
777.205	12620.19
777.539	12655.22
777.874	12744.48
778.209	12684.82
778.543	12713.75
778.878	12662.22
779.212	12627.2
779.547	12704.93
779.881	12712.39
780.215	12603.24
780.55	12723.69
780.884	12699.28
781.218	12690.7
781.552	12704.26
781.886	12632.85
782.22	12670.13
782.554	12690.25
782.888	12549.46
783.222	12570.7
783.556	12571.83
783.889	12534.54
784.223	12576.12
784.557	12458.39
784.89	12572.96
785.224	12540.19
785.557	12480.76
785.891	12521.21
786.224	12383.13
786.558	12409.12
786.891	12283.02
787.224	12276.02
787.557	12321.22
787.891	12358.05
788.224	12292.74
788.557	12348.11
788.89	12310.37
789.223	12389.46
789.556	12215.23
789.888	12258.84
790.221	12281.22
790.554	12159.41
790.887	12177.04
791.219	12181.56
791.552	12190.15
791.884	12092.97
792.217	12088.91
792.549	12102.69
792.882	11940.89
793.214	11907.89
793.546	11949.02
793.879	11951.73
794.211	11839.42
794.543	11888.23
794.875	11864.05
795.207	11894.11
795.539	11796.94
795.871	11823.38
796.203	11780.44
796.535	11677.16
796.867	11683.04
797.198	11679.42
797.53	11643.95
797.862	11601.46
798.193	11645.53
798.525	11489.83
798.856	11515.81
799.188	11462.93
799.519	11334.57
799.85	11397.17
800.182	11361.01
800.513	11384.52
800.844	11283.05
801.175	11313.33
801.506	11352.43
801.837	11313.11
802.168	11267.68
802.499	11284.86
802.83	11250.06
803.161	11137.07
803.491	11091.64
803.822	11079.21
804.153	11112.89
804.483	11013
804.814	11040.57
805.145	10955.15
805.475	10954.02
805.805	10921.93
806.136	10911.31
806.466	10908.82
806.796	10853.91
807.126	10772.1
807.457	10799.67
807.787	10831.31
808.117	10808.26
808.447	10723.74
808.777	10821.59
809.107	10701.15
809.436	10748.83
809.766	10645.55
810.096	10617.08
810.426	10618.66
810.755	10631.09
811.085	10627.25
811.414	10561.94
811.744	10481.72
812.073	10491.43
812.403	10543.64
812.732	10468.83
813.061	10500.02
813.39	10390.42
813.719	10361.95
814.049	10519
814.378	10356.52
814.707	10393.36
815.036	10332.12
815.365	10265.22
815.693	10237.2
816.022	10225.23
816.351	10178.45
816.68	10113.14
817.008	10210.31
817.337	10165.34
817.665	10086.25
817.994	10119.24
818.322	10045.8
818.651	10035.4
818.979	10060.26
819.307	10076.98
819.636	9987.94
819.964	9943.65
820.292	9990.43
820.62	9979.58
820.948	9902.52
821.276	10003.54
821.604	9913.6
821.932	9990.66
822.259	9959.47
822.587	9969.64
822.915	9952.24
823.243	9983.88
823.57	9953.37
823.898	9989.75
824.225	9952.92
824.553	9971.9
824.88	9893.03
825.207	9976.19
825.535	9972.12
825.862	9949.98
826.189	9961.28
826.516	10019.36
826.843	9988.17
827.17	10008.06
827.497	9944.1
827.824	9996.53
828.151	9986.36
828.478	9980.94
828.805	10007.15
829.131	9981.39
829.458	9934.16
829.785	9847.61
830.111	9971.9
830.438	9903.65
830.764	9975.51
831.09	9966.48
831.417	9980.26
831.743	9985.91
832.069	9940.26
832.395	9872.24
832.722	9853.71
833.048	9836.31
833.374	9886.48
833.7	9841.96
834.026	9932.35
834.351	9924.22
834.677	9873.14
835.003	9932.35
835.329	9946.14
835.654	9872.24
835.98	9797.67
836.306	9837.21
836.631	9837.89
836.956	9834.05
837.282	9811.45
837.607	9805.8
837.932	9700.72
838.258	9762.64
838.583	9733.49
838.908	9726.03
839.233	9744.56
839.558	9684
839.883	9655.75
840.208	9661.85
840.533	9656.65
840.858	9595.86
841.182	9639.93
841.507	9616.43
841.832	9566.49
842.156	9564.23
842.481	9570.33
842.805	9557.9
843.13	9517.67
843.454	9524
843.778	9448.97
844.103	9470.9
844.427	9430.9
844.751	9431.35
845.075	9314.74
845.399	9345.02
845.723	9322.88
846.047	9361.29
846.371	9179.6
846.695	9239.94
847.019	9146.84
847.343	9144.35
847.666	9051.92
847.99	9017.57
848.313	9064.58
848.637	9019.61
848.96	8967.63
849.284	8949.33
849.607	8912.04
849.931	8845.15
850.254	8861.42
850.577	8775.32
850.9	8665.72
851.223	8700.29
851.546	8753.4
851.869	8607.87
852.192	8691.71
852.515	8563.57
852.838	8560.86
853.161	8581.2
853.483	8535.1
853.806	8462.11
854.129	8467.98
854.451	8466.85
854.774	8422.56
855.096	8381.88
855.419	8330.13
855.741	8344.6
856.063	8281.77
856.385	8240.42
856.708	8211.04
857.03	8262.11
857.352	8202.23
857.674	8122.68
857.996	8156.35
858.318	8118.61
858.64	8134.88
858.961	8120.2
859.283	8003.14
859.605	7995.45
859.926	8098.95
860.248	8101.44
860.57	7962.01
860.891	8011.95
861.212	7908
861.534	7889.24
861.855	7940.09
862.176	7885.4
862.498	7888.11
862.819	7877.72
863.14	7824.84
863.461	7809.92
863.782	7799.53
864.103	7823.03
864.424	7755.69
864.745	7799.07
865.065	7797.94
865.386	7715.23
865.707	7728.34
866.027	7748.68
866.348	7701.9
866.668	7733.09
866.989	7692.64
867.309	7630.49
867.63	7655.58
867.95	7612.41
868.27	7636.59
868.59	7669.13
868.91	7638.85
869.23	7646.08
869.55	7607.89
869.87	7605.41
870.19	7604.96
870.51	7678.63
870.83	7598.18
871.15	7501.46
871.469	7583.26
871.789	7558.85
872.109	7536.03
872.428	7508.01
872.748	7522.47
873.067	7495.13
873.386	7459.65
873.706	7497.61
874.025	7413.77
874.344	7419.65
874.663	7389.14
874.982	7463.26
875.301	7405.41
875.62	7421.01
875.939	7419.42
876.258	7294
876.577	7355.24
876.896	7326.09
877.214	7306.21
877.533	7321.35
877.852	7273.66
878.17	7310.73
878.489	7276.38
878.807	7259.65
879.125	7236.83
879.444	7286.09
879.762	7160.45
880.08	7195.25
880.398	7177.85
880.716	7174.68
881.034	7134.46
881.352	7108.47
881.67	7140.33
881.988	7100.34
882.306	7167.23
882.624	7161.8
882.941	7084.29
883.259	7041.58
883.577	7054.69
883.894	7021.69
884.212	6950.51
884.529	6997.06
884.846	6981.69
885.164	6941.47
885.481	6935.37
885.798	6953.67
886.115	6874.81
886.432	6864.41
886.75	6893.34
887.067	6860.12
887.383	6874.35
887.7	6876.61
888.017	6835.94
888.334	6788.93
888.651	6797.29
888.967	6736.5
889.284	6770.18
889.6	6727.92
889.917	6660.57
890.233	6702.83
890.55	6638.65
890.866	6666.45
891.182	6658.31
891.498	6623.06
891.815	6629.84
892.131	6578.54
892.447	6558.88
892.763	6547.81
893.079	6535.38
893.395	6539.67
893.71	6498.32
894.026	6523.18
894.342	6485.44
894.657	6436.17
894.973	6436.4
895.289	6362.5
895.604	6417.87
895.92	6318.21
896.235	6301.71
896.55	6279.57
896.865	6350.75
897.181	6282.5
897.496	6270.98
897.811	6191.66
898.126	6245.22
898.441	6194.15
898.756	6168.16
899.071	6123.64
899.386	6127.03
899.7	6087.93
900.015	6015.62
900.33	5964.55
900.644	5985.79
900.959	5993.7
901.273	5993.7
901.588	5948.28
901.902	5941.27
902.216	5951.67
902.531	5928.84
902.845	5874.61
903.159	5843.87
903.473	5831.89
903.787	5816.98
904.101	5795.51
904.415	5747.83
904.729	5755.51
905.042	5714.16
905.356	5676.42
905.67	5675.06
905.984	5663.76
906.297	5645.46
906.611	5590.77
906.924	5623.09
907.237	5593.48
907.551	5578.79
907.864	5536.99
908.177	5556.87
908.491	5540.83
908.804	5521.39
909.117	5476.2
909.43	5475.75
909.743	5468.29
910.056	5369.76
910.368	5371.12
910.681	5362.98
910.994	5321.63
911.307	5362.75
911.619	5282.76
911.932	5256.99
912.244	5275.07
912.557	5307.61
912.869	5215.19
913.181	5179.03
913.494	5163.21
913.806	5148.07
914.118	5148.52
914.43	5043.89
914.742	5072.82
915.054	5082.54
915.366	5014.29
915.678	5027.17
915.99	4994.18
916.302	4985.36
916.613	4991.92
916.925	4915.08
917.236	4939.94
917.548	4879.15
917.859	4909.21
918.171	4859.94
918.482	4867.63
918.794	4816.78
919.105	4844.35
919.416	4835.76
919.727	4766.39
920.038	4762.77
920.349	4766.84
920.66	4708.99
920.971	4730.68
921.282	4688.42
921.593	4649.33
921.903	4607.97
922.214	4634.86
922.525	4594.41
922.835	4598.71
923.146	4579.5
923.456	4570.91
923.767	4546.05
924.077	4542.66
924.387	4516.9
924.697	4452.5
925.008	4502.66
925.318	4497.47
925.628	4459.5
925.938	4462.21
926.248	4386.28
926.558	4370.92
926.867	4365.94
927.177	4382.22
927.487	4358.04
927.796	4308.77
928.106	4313.06
928.416	4268.09
928.725	4289.11
929.034	4219.51
929.344	4274.65
929.653	4226.29
929.962	4194.65
930.271	4198.49
930.581	4133.18
930.89	4121.43
931.199	4148.55
931.508	4127.98
931.817	4080.3
932.125	4077.82
932.434	4086.63
932.743	4001.21
933.051	4015.45
933.36	4022.22
933.669	3992.85
933.977	3991.94
934.286	3989.01
934.594	3966.41
934.902	3936.35
935.21	3950.36
935.519	3895.45
935.827	3931.83
936.135	3890.93
936.443	3857.71
936.751	3887.99
937.059	3824.94
937.367	3839.18
937.674	3803.93
937.982	3781.1
938.29	3822.23
938.597	3739.29
938.905	3729.13
939.213	3738.16
939.52	3708.11
939.827	3682.8
940.135	3674.89
940.442	3651.39
940.749	3615
941.056	3634.66
941.363	3584.5
941.67	3584.72
941.977	3617.94
942.284	3527.32
942.591	3569.81
942.898	3512.63
943.205	3528.45
943.511	3498.85
943.818	3483.48
944.125	3458.17
944.431	3453.2
944.738	3420.21
945.044	3460.21
945.35	3423.37
945.657	3402.58
945.963	3379.08
946.269	3366.87
946.575	3344.5
946.881	3314.9
947.187	3338.63
947.493	3301.34
947.799	3304.05
948.105	3299.08
948.41	3266.99
948.716	3270.15
949.022	3250.95
949.327	3243.49
949.633	3235.35
949.938	3194.45
950.244	3232.64
950.549	3175.02
950.854	3175.92
951.16	3184.73
951.465	3155.81
951.77	3144.28
952.075	3097.5
952.38	3124.17
952.685	3120.33
952.99	3072.65
953.294	3065.64
953.599	3013.44
953.904	3033.55
954.209	2998.3
954.513	3022.03
954.818	3015.02
955.122	3014.79
955.426	2991.29
955.731	2971.18
956.035	2936.6
956.339	2939.77
956.643	2925.3
956.948	2929.37
957.252	2907
957.556	2895.47
957.86	2886.89
958.163	2887.11
958.467	2870.62
958.771	2843.05
959.075	2876.04
959.378	2825.42
959.682	2796.04
959.985	2816.15
960.289	2778.19
960.592	2800.34
960.896	2802.37
961.199	2790.62
961.502	2763.05
961.805	2729.83
962.108	2726.44
962.411	2716.95
962.714	2697.97
963.017	2724.63
963.32	2715.37
963.623	2674.01
963.926	2648.93
964.228	2669.04
964.531	2651.87
964.833	2588.14
965.136	2573.22
965.438	2635.14
965.741	2582.04
966.043	2607.57
966.345	2563.28
966.648	2532.77
966.95	2558.99
967.252	2567.12
967.554	2539.55
967.856	2500.68
968.158	2502.49
968.46	2462.72
968.761	2502.72
969.063	2463.85
969.365	2429.27
969.666	2470.18
969.968	2439.67
970.269	2424.53
970.571	2410.29
970.872	2429.27
971.174	2417.3
971.475	2391.31
971.776	2398.76
972.077	2366.68
972.378	2341.59
972.679	2370.74
972.98	2320.12
973.281	2321.48
973.582	2333.91
973.883	2305.89
974.183	2288.03
974.484	2309.73
974.785	2279.45
975.085	2273.57
975.386	2263.4
975.686	2270.63
975.986	2246.9
976.287	2248.26
976.587	2258.43
976.887	2214.59
977.187	2201.03
977.487	2216.17
977.787	2198.54
978.087	2150.18
978.387	2186.57
978.687	2181.82
978.987	2185.44
979.286	2120.35
979.586	2136.62
979.885	2132.78
980.185	2125.1
980.484	2141.37
980.784	2114.03
981.083	2076.74
981.382	2083.07
981.682	2073.35
981.981	2068.6
982.28	2071.32
982.579	2029.06
982.878	2048.27
983.177	2052.56
983.475	2036.06
983.774	2008.94
984.073	2021.15
984.372	2001.26
984.67	1976.4
984.969	2001.26
985.267	1960.81
985.566	2001.03
985.864	1944.77
986.162	1982.96
986.461	1937.53
986.759	1918.1
987.057	1914.48
987.355	1902.28
987.653	1917.87
987.951	1910.19
988.249	1913.35
988.547	1903.86
988.844	1909.29
989.142	1843.75
989.44	1881.26
989.737	1843.98
990.035	1865.67
990.332	1847.37
990.63	1818.21
990.927	1822.51
991.224	1811.21
991.521	1813.47
991.819	1797.42
992.116	1791.55
992.413	1775.5
992.71	1759.23
993.006	1766.69
993.303	1770.08
993.6	1732.34
993.897	1768.27
994.193	1725.11
994.49	1763.53
994.787	1745.45
995.083	1690.99
995.379	1695.05
995.676	1686.92
995.972	1687.82
996.268	1684.43
996.565	1668.61
996.861	1667.03
997.157	1678.78
997.453	1673.59
997.749	1635.85
998.044	1623.42
998.34	1648.28
998.636	1625.68
998.932	1620.93
999.227	1607.15
999.523	1571.22
999.818	1582.06
1000.114	1552.46
1000.409	1561.95
1000.704	1552.91
1001	1535.06
1001.295	1557.88
1001.59	1527.6
1001.885	1536.64
1002.18	1533.93
1002.475	1521.95
1002.77	1498.68
1003.065	1494.16
1003.359	1500.71
1003.654	1458
1003.949	1464.55
1004.243	1484.89
1004.538	1445.34
1004.832	1453.7
1005.127	1439.02
1005.421	1424.55
1005.715	1447.83
1006.009	1450.31
1006.304	1418.9
1006.598	1421.16
1006.892	1409.64
1007.186	1410.54
1007.48	1387.49
1007.773	1382.29
1008.067	1393.14
1008.361	1353.59
1008.655	1361.5
1008.948	1357.66
1009.242	1349.3
1009.535	1343.88
1009.829	1348.85
1010.122	1329.41
1010.415	1312.47
1010.708	1283.31
1011.001	1321.73
1011.295	1317.66
1011.588	1297.1
1011.881	1315.86
1012.173	1256.2
1012.466	1274.27
1012.759	1275.4
1013.052	1235.41
1013.344	1237.21
1013.637	1240.15
1013.93	1255.97
1014.222	1258.68
1014.514	1242.86
1014.807	1218.23
1015.099	1201.06
1015.391	1219.81
1015.683	1194.95
1015.976	1181.17
1016.268	1202.19
1016.56	1179.81
1016.851	1165.12
1017.143	1183.43
1017.435	1150.44
1017.727	1138.91
1018.018	1125.35
1018.31	1149.53
1018.602	1144.11
1018.893	1109.53
1019.185	1116.31
1019.476	1108.86
1019.767	1088.06
1020.058	1120.61
1020.35	1096.88
1020.641	1070.21
1020.932	1067.73
1021.223	1077.9
1021.514	1044.9
1021.804	1052.36
1022.095	1052.13
1022.386	1045.13
1022.677	1060.49
1022.967	1027.28
1023.258	1039.03
1023.548	1033.15
1023.839	1027.95
1024.129	1018.46
1024.419	1030.89
1024.709	977.33
1025	990.21
1025.29	996.32
1025.58	984.79
1025.87	977.79
1026.16	973.49
1026.449	987.95
1026.739	968.07
1027.029	972.59
1027.319	939.82
1027.608	949.31
1027.898	965.13
1028.187	930.33
1028.477	954.73
1028.766	926.94
1029.055	927.16
1029.344	916.77
1029.634	953.15
1029.923	891.23
1030.212	917
1030.501	905.24
1030.79	882.87
1031.078	885.13
1031.367	882.65
1031.656	882.65
1031.945	880.39
1032.233	851.46
1032.522	869.54
1032.81	848.97
1033.099	861.4
1033.387	840.39
1033.675	821.63
1033.963	836.55
1034.251	822.08
1034.54	811.91
1034.828	829.99
1035.116	823.89
1035.403	801.97
1035.691	799.71
1035.979	790.67
1036.267	802.2
1036.554	801.74
1036.842	800.61
1037.129	778.24
1037.417	746.15
1037.704	768.07
1037.992	759.71
1038.279	767.85
1038.566	751.35
1038.853	751.35
1039.14	751.35
