Data from hue_28_FLMS001491_00046.txt Node
Date: Tue Feb 07 17:17:20 GMT 2017
User: dcchb
Spectrometer: FLMS00149
Trigger mode: 0
Integration Time (sec): 2.000000E-2
Scans to average: 10
Electric dark correction enabled: true
Nonlinearity correction enabled: false
Boxcar width: 0
XAxis mode: Wavelengths
Number of Pixels in Spectrum: 2048
>>>>>Begin Spectral Data<<<<<
341.393	-27.23
341.776	-27.23
342.16	-27.23
342.543	-64.07
342.927	-62.94
343.31	-77.85
343.693	-63.16
344.077	-75.82
344.46	-68.59
344.843	-41.69
345.226	-30.62
345.61	-45.08
345.993	-17.06
346.376	4.41
346.759	-6.21
347.142	11.41
347.525	40.34
347.908	74.01
348.291	88.7
348.674	80.79
349.057	126.44
349.44	129.6
349.823	142.48
350.206	164.63
350.588	196.94
350.971	216.38
351.354	209.6
351.737	265.42
352.119	246.43
352.502	258.41
352.884	274.68
353.267	291.86
353.65	294.34
354.032	310.61
354.414	304.96
354.797	306.77
355.179	320.56
355.562	315.13
355.944	332.53
356.326	322.14
356.709	318.75
357.091	323.04
357.473	330.95
357.855	345.64
358.238	343.38
358.62	348.8
359.002	340.44
359.384	320.33
359.766	333.89
360.148	334.79
360.53	324.85
360.912	339.54
361.294	326.66
361.676	338.41
362.057	329.37
362.439	325.3
362.821	328.24
363.203	330.73
363.584	336.38
363.966	314
364.348	327.34
364.729	328.47
365.111	319.65
365.493	305.19
365.874	319.43
366.256	330.73
366.637	319.2
367.019	304.51
367.4	308.13
367.781	316.49
368.163	306.55
368.544	292.76
368.925	308.35
369.306	301.35
369.688	317.39
370.069	304.29
370.45	319.43
370.831	310.16
371.212	319.43
371.593	309.71
371.974	299.54
372.355	316.26
372.736	328.92
373.117	302.25
373.498	318.52
373.879	311.07
374.26	305.64
374.641	306.77
375.021	314.68
375.402	337.73
375.783	335.02
376.163	315.58
376.544	331.63
376.925	307.9
377.305	322.36
377.686	329.37
378.066	310.84
378.447	321.01
378.827	347.67
379.208	336.38
379.588	321.23
379.968	328.47
380.349	306.77
380.729	335.47
381.109	337.05
381.489	340.89
381.87	337.28
382.25	344.28
382.63	344.74
383.01	335.47
383.39	348.58
383.77	333.66
384.15	317.17
384.53	324.62
384.91	356.94
385.29	337.28
385.67	356.71
386.049	344.51
386.429	347
386.809	348.58
387.189	345.19
387.568	334.79
387.948	345.64
388.328	337.96
388.707	342.93
389.087	369.14
389.466	353.55
389.846	368.24
390.225	355.81
390.605	360.78
390.984	374.11
391.363	351.74
391.743	352.42
392.122	384.96
392.501	372.76
392.881	387
393.26	357.84
393.639	362.36
394.018	374.34
394.397	364.17
394.776	365.98
395.155	379.76
395.534	365.98
395.913	349.03
396.292	383.15
396.671	377.05
397.05	382.48
397.429	390.16
397.808	389.93
398.186	390.61
398.565	383.61
398.944	362.14
399.323	402.81
399.701	384.74
400.08	386.77
400.458	380.67
400.837	409.82
401.215	357.39
401.594	376.15
401.972	408.69
402.351	410.5
402.729	413.21
403.107	413.66
403.486	402.81
403.864	381.57
404.242	415.7
404.62	416.6
404.999	413.44
405.377	407.79
405.755	405.75
406.133	438.29
406.511	425.41
406.889	419.76
407.267	423.38
407.645	434.9
408.023	415.7
408.401	442.36
408.779	442.14
409.156	444.17
409.534	442.59
409.912	429.03
410.29	446.88
410.667	447.33
411.045	452.08
411.422	439.42
411.8	471.06
412.178	454.34
412.555	460.89
412.933	478.52
413.31	483.49
413.687	494.34
414.065	487.33
414.442	457.5
414.819	476.03
415.197	472.87
415.574	479.65
415.951	496.82
416.328	498.18
416.705	500.89
417.082	484.17
417.46	497.73
417.837	493.43
418.214	487.33
418.591	513.09
418.967	497.95
419.344	493.66
419.721	503.38
420.098	526.43
420.475	495.47
420.852	535.92
421.228	534.56
421.605	524.62
421.982	536.6
422.358	543.6
422.735	533.21
423.111	557.61
423.488	547.9
423.864	545.18
424.241	557.84
424.617	546.54
424.994	582.7
425.37	560.55
425.746	547.9
426.123	556.71
426.499	558.74
426.875	570.49
427.251	597.61
427.627	580.89
428.003	588.35
428.379	589.48
428.756	573.21
429.132	608.01
429.507	595.8
429.883	595.58
430.259	611.85
430.635	612.53
431.011	606.65
431.387	622.7
431.763	634.45
432.138	642.13
432.514	639.42
432.89	633.32
433.265	631.96
433.641	652.75
434.016	667.67
434.392	639.42
434.767	671.73
435.143	677.16
435.518	690.04
435.894	664.95
436.269	668.34
436.644	684.84
437.02	709.25
437.395	719.42
437.77	710.15
438.145	686.87
438.52	681
438.895	711.05
439.271	721.22
439.646	722.81
440.021	749.25
440.395	748.79
440.77	759.87
441.145	743.37
441.52	780.88
441.895	753.77
442.27	772.97
442.645	772.3
443.019	760.77
443.394	794.22
443.769	779.75
444.143	794.22
444.518	792.18
444.892	775.46
445.267	768
445.641	801
446.016	786.08
446.39	801.67
446.764	801.9
447.139	811.39
447.513	819.98
447.887	844.61
448.262	813.88
448.636	831.28
449.01	831.28
449.384	835.8
449.758	846.19
450.132	866.3
450.506	862.24
450.88	869.24
451.254	857.72
451.628	877.83
452.002	877.6
452.376	903.14
452.75	893.42
453.123	916.47
453.497	908.11
453.871	917.38
454.244	925.96
454.618	918.73
454.992	935.23
455.365	939.3
455.739	944.04
456.112	964.38
456.486	968.45
456.859	998.5
457.232	982.01
457.606	989.69
457.979	992.18
458.352	1012.74
458.725	1034.44
459.099	1041.44
459.472	1064.04
459.845	1065.17
460.218	1057.49
460.591	1064.72
460.964	1083.25
461.337	1096.58
461.71	1137.71
462.083	1093.42
462.456	1145.85
462.829	1109.46
463.201	1159.63
463.574	1157.82
463.947	1168.44
464.32	1207.99
464.692	1175.45
465.065	1217.03
465.438	1219.06
465.81	1247.54
466.183	1241.21
466.555	1238.5
466.928	1300.87
467.3	1267.42
467.672	1308.33
468.045	1325.73
468.417	1317.37
468.789	1352.17
469.161	1351.94
469.534	1398.27
469.906	1405.5
470.278	1437.59
470.65	1449.11
471.022	1475.1
471.394	1479.62
471.766	1510.81
472.138	1492.28
472.51	1566.63
472.882	1554.87
473.253	1602.1
473.625	1624.25
473.997	1654.53
474.369	1667.64
474.74	1674.19
475.112	1713.06
475.484	1777.69
475.855	1751.71
476.227	1820.63
476.598	1840.74
476.97	1859.5
477.341	1915.99
477.713	1927.75
478.084	1963.9
478.455	1994.86
478.827	2047.29
479.198	2095.88
479.569	2120.28
479.94	2186.95
480.311	2184.91
480.682	2245.7
481.053	2319.37
481.424	2344.91
481.795	2351.01
482.166	2388.98
482.537	2464.68
482.908	2531.35
483.279	2551.23
483.65	2627.16
484.021	2653.83
484.391	2683.43
484.762	2700.38
485.133	2789.42
485.503	2827.16
485.874	2881.17
486.244	2941.05
486.615	3021.28
486.985	3063.31
487.356	3141.73
487.726	3144.21
488.097	3228.5
488.467	3261.5
488.837	3317.31
489.207	3395.73
489.578	3485.67
489.948	3455.84
490.318	3507.37
490.688	3586.46
491.058	3647.02
491.428	3712.56
491.798	3732.22
492.168	3863.51
492.538	3892.67
492.908	3925.89
493.278	3985.54
493.648	3992.78
494.017	4076.84
494.387	4072.1
494.757	4145.77
495.126	4219.21
495.496	4259.89
495.866	4262.6
496.235	4361.81
496.605	4383.27
496.974	4465.98
497.344	4506.21
497.713	4486.32
498.082	4558.86
498.452	4588.47
498.821	4660.78
499.19	4658.97
499.559	4753.43
499.928	4729.25
500.298	4739.88
500.667	4828.23
501.036	4857.61
501.405	4894
501.774	4871.17
502.143	4945.07
502.512	4979.19
502.88	5034.78
503.249	5028.23
503.618	5116.59
503.987	5137.83
504.356	5147.77
504.724	5204.95
505.093	5212.63
505.462	5183.48
505.83	5291.73
506.199	5304.61
506.567	5369.92
506.936	5378.5
507.304	5491.27
507.672	5474.32
508.041	5467.31
508.409	5532.17
508.777	5587.99
509.145	5621.21
509.514	5604.49
509.882	5728.78
510.25	5669.34
510.618	5705.05
510.986	5726.06
511.354	5798.38
511.722	5808.32
512.09	5825.5
512.458	5807.64
512.826	5840.19
513.193	5936.45
513.561	5872.5
513.929	5985.04
514.297	6038.6
514.664	6043.57
515.032	6065.49
515.4	6151.82
515.767	6112.04
516.135	6159.27
516.502	6169.67
516.869	6244.69
517.237	6255.99
517.604	6222.32
517.972	6252.83
518.339	6312.49
518.706	6315.2
519.073	6357.01
519.44	6374.86
519.808	6448.98
520.175	6404.92
520.542	6479.26
520.909	6523.11
521.276	6537.57
521.643	6584.57
522.009	6626.61
522.376	6647.17
522.743	6678.58
523.11	6722.65
523.477	6730.11
523.843	6811.46
524.21	6884.23
524.577	6894.17
524.943	6879.71
525.31	6938.69
525.676	7003.09
526.043	6997.44
526.409	7087.38
526.776	7178
527.142	7123.77
527.508	7213.03
527.874	7237.44
528.241	7269.53
528.607	7268.17
528.973	7386.59
529.339	7363.31
529.705	7393.82
530.071	7503.19
530.437	7521.5
530.803	7575.06
531.169	7620.03
531.535	7584.77
531.901	7640.59
532.267	7660.7
532.632	7712
532.998	7731.89
533.364	7775.95
533.73	7848.04
534.095	7907.02
534.461	7881.94
534.826	7918.55
535.192	7967.14
535.557	7957.87
535.923	8021.37
536.288	8055.72
536.653	8137.75
537.019	8114.7
537.384	8096.4
537.749	8182.5
538.114	8221.82
538.479	8270.63
538.845	8267.92
539.21	8274.47
539.575	8291.87
539.94	8327.58
540.305	8464.98
540.67	8387.01
541.034	8507.46
541.399	8539.1
541.764	8539.55
542.129	8542.04
542.494	8585.42
542.858	8637.17
543.223	8657.06
543.587	8710.84
543.952	8681.24
544.316	8708.58
544.681	8723.95
545.045	8822.25
545.41	8944.06
545.774	8869.03
546.138	8917.84
546.503	8931.18
546.867	8964.4
547.231	9030.61
547.595	8995.13
547.959	9063.38
548.324	9098.86
548.688	9187.44
549.052	9176.37
549.416	9184.96
549.779	9215.46
550.143	9243.49
550.507	9325.29
550.871	9390.6
551.235	9299.98
551.599	9397.61
551.962	9445.97
552.326	9403.71
552.689	9523.48
553.053	9501.78
553.417	9497.72
553.78	9716.02
554.143	9634.89
554.507	9646.19
554.87	9710.14
555.234	9760.53
555.597	9758.27
555.96	9762.57
556.323	9806.86
556.686	9821.1
557.05	9874.2
557.413	9893.41
557.776	9925.73
558.139	9949
558.502	9982
558.865	10004.6
559.228	10130.92
559.59	10091.15
559.953	10138.38
560.316	10217.92
560.679	10200.75
561.041	10267.19
561.404	10263.35
561.767	10348.32
562.129	10356.68
562.492	10451.59
562.854	10500.18
563.217	10473.06
563.579	10534.53
563.941	10549.44
564.304	10546.5
564.666	10702.66
565.028	10692.26
565.39	10688.42
565.753	10770.68
566.115	10844.35
566.477	10784.01
566.839	10842.09
567.201	10930.22
567.563	10899.49
567.925	10935.42
568.287	11000.73
568.648	11112.36
569.01	11106.26
569.372	11206.37
569.734	11143.1
570.095	11212.93
570.457	11264.22
570.819	11327.72
571.18	11439.59
571.542	11373.6
571.903	11518.45
572.265	11605.91
572.626	11592.12
572.987	11615.63
573.349	11669.86
573.71	11723.42
574.071	11851.78
574.432	11881.16
574.794	11981.72
575.155	12092.45
575.516	12061.04
575.877	12115.73
576.238	12196.4
576.599	12388.04
576.96	12327.47
577.32	12404.76
577.681	12503.29
578.042	12663.28
578.403	12746.9
578.763	12849.27
579.124	12932.43
579.485	13062.37
579.845	13177.17
580.206	13297.84
580.566	13413.32
580.927	13535.12
581.287	13649.7
581.648	13766.76
582.008	13923.59
582.368	13945.28
582.728	14199.29
583.089	14406.29
583.449	14475.66
583.809	14690.12
584.169	14763.11
584.529	14987.97
584.889	15346.38
585.249	15370.56
585.609	15557.67
585.969	15890.77
586.329	16085.11
586.688	16252.12
587.048	16545.89
587.408	16674.02
587.768	16863.17
588.127	17110.85
588.487	17410.95
588.846	17732.08
589.206	17782.47
589.565	18110.37
589.925	18459.97
590.284	18643.69
590.643	18947.86
591.003	19240.74
591.362	19655.42
591.721	19777.67
592.08	19918.46
592.44	20332.46
592.799	20665.78
593.158	20958.21
593.517	21290.63
593.876	21474.12
594.235	21729.71
594.593	22004.28
594.952	22421.9
595.311	22653.08
595.67	22957.7
596.029	23364.47
596.387	23662.54
596.746	23997.45
597.104	24157.67
597.463	24414.61
597.822	24897.31
598.18	25039.23
598.538	25349.95
598.897	25775.03
599.255	25766.44
599.613	26516.93
599.972	26724.61
600.33	27017.26
600.688	27075.56
601.046	27415.21
601.404	27889.55
601.762	28012.71
602.12	28438.69
602.478	28656.53
602.836	29039.35
603.194	29075.96
603.552	29393.46
603.91	29568.83
604.268	30012.21
604.625	30231.86
604.983	30516.82
605.341	30630.27
605.698	31093.08
606.056	31321.1
606.413	31566.06
606.771	31846.51
607.128	32059.38
607.485	32139.83
607.843	32394.74
608.2	32886.25
608.557	33096.19
608.914	33202.86
609.272	33448.27
609.629	33660.47
609.986	34173.45
610.343	34059.78
610.7	34379.55
611.057	34677.17
611.414	34739.31
611.771	34996.93
612.127	35262.24
612.484	35302.24
612.841	35640.53
613.198	35674.88
613.554	35884.59
613.911	36299.5
614.267	36363.68
614.624	36448.87
614.98	36647.96
615.337	37051.12
615.693	37034.17
616.05	37192.58
616.406	37714.83
616.762	37436.42
617.118	37677.54
617.475	37866.91
617.831	38023.29
618.187	38136.51
618.543	38355.26
618.899	38635.71
619.255	38656.05
619.611	38755.25
619.967	39078.63
620.323	39081.8
620.678	39061.68
621.034	39168.8
621.39	39243.15
621.746	39302.58
622.101	39854.88
622.457	39527.89
622.812	39716.13
623.168	40070.02
623.523	39876.13
623.879	40212.84
624.234	39875.9
624.589	40014.43
624.945	40263.46
625.3	40345.04
625.655	40330.13
626.01	40501.42
626.365	40603.57
626.72	40608.31
627.075	40518.14
627.43	40624.13
627.785	40667.07
628.14	40887.17
628.495	41047.17
628.85	40948.87
629.205	40893.05
629.559	41150.22
629.914	40978.02
630.269	41127.62
630.623	41088.3
630.978	41199.93
631.332	41253.94
631.687	41561.96
632.041	41267.5
632.396	41435.86
632.75	41113.61
633.104	41522.19
633.459	41215.98
633.813	41111.12
634.167	41294.85
634.521	41164.45
634.875	41520.38
635.229	41310.89
635.583	41169.65
635.937	41239.93
636.291	41167.84
636.645	41315.86
636.999	41263.66
637.352	41273.6
637.706	41104.79
638.06	41327.84
638.413	41262.3
638.767	41177.79
639.121	41329.87
639.474	41080.16
639.828	41121.97
640.181	41250.33
640.534	41224.34
640.888	41149.99
641.241	40983.22
641.594	41156.32
641.947	41229.76
642.301	41155.64
642.654	41165.36
643.007	41133.72
643.36	41031.12
643.713	41061.41
644.066	41325.81
644.419	41027.06
644.771	40808.76
645.124	40385.49
645.477	40279.28
645.83	40208.77
646.182	39967.42
646.535	39860.53
646.888	40011.49
647.24	39826.41
647.593	39985.28
647.945	40101.66
648.298	39873.87
648.65	39873.87
649.002	39605.4
649.355	39956.35
649.707	39730.82
650.059	40074.77
650.411	40447.41
650.763	40344.59
651.115	40753.62
651.467	40717.69
651.819	40778.25
652.171	40554.53
652.523	40483.57
652.875	40479.73
653.227	40472.5
653.578	40553.85
653.93	40587.07
654.282	40391.59
654.633	40373.06
654.985	40452.38
655.337	40446.96
655.688	40565.6
656.039	40606.05
656.391	40225.27
656.742	40515.21
657.094	40486.96
657.445	40416.45
657.796	40529.44
658.147	40388.88
658.498	40309.11
658.849	40556.33
659.2	40300.52
659.551	40329.67
659.902	40377.58
660.253	40360.18
660.604	40393.85
660.955	40133.97
661.306	40345.49
661.656	40313.4
662.007	40209.68
662.358	40424.36
662.708	40289.22
663.059	40423.68
663.409	40068.21
663.76	40276.12
664.11	40423.68
664.461	40303.46
664.811	40430.46
665.161	40206.51
665.511	40380.75
665.862	40284.7
666.212	40359.5
666.562	40338.71
666.912	40280.86
667.262	40200.86
667.612	40154.31
667.962	40267.53
668.312	40178.94
668.662	40506.62
669.011	40245.16
669.361	40177.14
669.711	40209.9
670.06	40171.49
670.41	40009.23
670.76	39857.82
671.109	40077.25
671.459	39995.9
671.808	39811.04
672.157	40030.47
672.507	39778.28
672.856	39824.38
673.205	39856.69
673.554	40087.42
673.904	39875.9
674.253	40152.73
674.602	39881.78
674.951	39391.62
675.3	39239.76
675.649	39918.39
675.998	39795.45
676.346	39736.24
676.695	39869.57
677.044	39720.65
677.393	39744.38
677.741	39819.18
678.09	39672.52
678.438	39601.78
678.787	39691.95
679.135	39733.53
679.484	39292.41
679.832	39752.06
680.181	39341.23
680.529	39605.63
680.877	39403.14
681.225	39497.38
681.573	39651.5
681.922	39295.8
682.27	39196.37
682.618	39219.19
682.966	39111.4
683.314	39248.8
683.661	39163.15
684.009	38925.87
684.357	38921.58
684.705	38753.22
685.053	38896.72
685.4	38812.88
685.748	38711.64
686.095	38605.88
686.443	38321.59
686.79	38433.9
687.138	38440.91
687.485	38502.6
687.832	38166.79
688.18	38362.49
688.527	38148.71
688.874	38128.15
689.221	38144.42
689.568	37861.04
689.915	37947.59
690.262	37856.52
690.609	37684.09
690.956	37724.77
691.303	37687.26
691.65	37559.13
691.997	37365.01
692.344	37238.91
692.69	37304.67
693.037	37264.9
693.383	36777.9
693.73	37112.58
694.077	36687.06
694.423	36955.3
694.769	36815.42
695.116	36655.19
695.462	36607.51
695.808	36530.9
696.155	36615.65
696.501	36396.67
696.847	36288.2
697.193	36113.74
697.539	36303.57
697.885	35811.15
698.231	36016.12
698.577	35756.46
698.923	35774.77
699.269	35505.85
699.614	35338.39
699.96	35312.63
700.306	35454.1
700.651	35244.61
700.997	35064.05
701.342	35122.35
701.688	34980.21
702.033	34926.88
702.379	34934.56
702.724	34897.05
703.069	34866.77
703.415	34597.4
703.76	34608.69
704.105	34581.12
704.45	34492.77
704.795	34332.09
705.14	34147.01
705.485	34106.56
705.83	33955.38
706.175	34081.7
706.52	33903.63
706.865	33767.81
707.209	33829.73
707.554	33661.83
707.899	33838.55
708.243	33565.11
708.588	33412.57
708.932	33261.61
709.277	33286.92
709.621	33207.15
709.966	32918.8
710.31	32974.61
710.654	32865.24
710.998	32884.67
711.342	32999.02
711.687	32930.77
712.031	32695.52
712.375	32645.58
712.719	32633.15
713.063	32566.26
713.407	32675.19
713.75	32408.98
714.094	32431.35
714.438	32222.54
714.782	32373.73
715.125	32139.83
715.469	32262.54
715.812	32190.23
716.156	31957.01
716.499	32037.01
716.843	31915.88
717.186	31769
717.53	31970.57
717.873	31896.68
718.216	31902.78
718.559	31701.2
718.902	31454.2
719.246	31605.61
719.589	31502.79
719.932	31318.16
720.275	31304.37
720.617	31232.29
720.96	31080.65
721.303	31182.12
721.646	31143.93
721.989	30926.53
722.331	30983.25
722.674	31087.66
723.016	30999.75
723.359	30928.11
723.701	30967.66
724.044	30791.17
724.386	30659.19
724.729	30823.26
725.071	30718.4
725.413	30689.7
725.755	30586.88
726.097	30534.9
726.439	30398.86
726.782	30341.69
727.124	30379.43
727.465	30336.94
727.807	30280.67
728.149	30221.01
728.491	30044.29
728.833	30210.17
729.175	30083.62
729.516	30027.8
729.858	29909.84
730.199	30044.29
730.541	29978.99
730.882	29863.73
731.224	29932.21
731.565	29667.36
731.906	29782.83
732.248	29727.92
732.589	29588.49
732.93	29471.65
733.271	29595.72
733.612	29610.18
733.953	29591.43
734.294	29448.15
734.635	29402.73
734.976	29508.94
735.317	29318.21
735.658	29285.9
735.999	29245.22
736.339	29094.04
736.68	29381.04
737.021	29178.33
737.361	28996.19
737.702	29226.01
738.042	28958.45
738.383	28920.48
738.723	28963.42
739.063	28954.61
739.404	28855.4
739.744	28851.33
740.084	28735.85
740.424	28842.52
740.764	28667.61
741.104	28813.37
741.444	28576.54
741.784	28485.47
742.124	28600.94
742.464	28591.23
742.804	28428.07
743.143	28422.64
743.483	28468.29
743.823	28298.58
744.162	28306.49
744.502	28362.76
744.841	28268.97
745.181	28336.54
745.52	28178.13
745.86	28099.04
746.199	28049.54
746.538	28072.82
746.877	28173.84
747.216	28161.18
747.556	27951.02
747.895	28020.85
748.234	27882.54
748.573	27799.38
748.911	27841.87
749.25	27740.4
749.589	27610.23
749.928	27768.65
750.267	27725.03
750.605	27623.57
750.944	27578.14
751.283	27497.47
751.621	27566.39
751.96	27505.6
752.298	27492.5
752.636	27468.09
752.975	27332.95
753.313	27110.36
753.651	27280.3
753.989	27174.99
754.327	27075.79
754.666	26858.62
755.004	27094.32
755.342	26954.66
755.679	27011.61
756.017	26893.64
756.355	26954.88
756.693	26674.89
757.031	26664.5
757.368	26431.96
757.706	26555.8
758.044	26513.54
758.381	26476.03
758.719	26375.24
759.056	26345.41
759.394	26264.96
759.731	26112.87
760.068	26136.15
760.405	26075.81
760.743	26051.63
761.08	26002.37
761.417	25860.45
761.754	25802.15
762.091	25757.18
762.428	25726.67
762.765	25489.16
763.102	25621.36
763.438	25485.09
763.775	25327.58
764.112	25282.16
764.449	25321.03
764.785	25176.4
765.122	24960.13
765.458	25002.85
765.795	24940.7
766.131	24768.5
766.467	24760.14
766.804	24707.71
767.14	24572.8
767.476	24565.79
767.812	24373.94
768.148	24478.34
768.485	24283.32
768.821	24224.79
769.157	24041.51
769.492	24035.87
769.828	24091.68
770.164	23807.62
770.5	23783.67
770.836	23846.49
771.171	23577.12
771.507	23590.23
771.842	23444.92
772.178	23420.74
772.513	23386.39
772.849	23257.35
773.184	23331.25
773.519	23161.99
773.855	23159.73
774.19	22958.38
774.525	22929.23
774.86	22837.48
775.195	22748.67
775.53	22794.09
775.865	22557.26
776.2	22476.36
776.535	22320.2
776.87	22336.93
777.205	22285.85
777.539	22139.87
777.874	22208.79
778.209	22058.52
778.543	21915.47
778.878	21847.67
779.212	21808.13
779.547	21651.97
779.881	21775.36
780.215	21600
780.55	21625.76
780.884	21494.01
781.218	21426.44
781.552	21441.36
781.886	21187.8
782.22	21190.52
782.554	21030.97
782.888	20816.74
783.222	20772.45
783.556	20840.47
783.889	20680.02
784.223	20595.5
784.557	20481.16
784.89	20541.49
785.224	20398.45
785.557	20244.1
785.891	20343.31
786.224	20141.5
786.558	20215.17
786.891	20010.43
787.224	19963.43
787.557	19833.04
787.891	19839.59
788.224	19793.72
788.557	19847.27
788.89	19657.45
789.223	19609.77
789.556	19447.29
789.888	19440.96
790.221	19428.3
790.554	19189.21
790.887	19269.89
791.219	19239.16
791.552	19101.31
791.884	18979.5
792.217	18995.55
792.549	18939.28
792.882	18745.61
793.214	18779.96
793.546	18770.01
793.879	18704.71
794.211	18523.69
794.543	18651.83
794.875	18508.33
795.207	18619.74
795.539	18432.4
795.871	18442.34
796.203	18148.34
796.535	18177.26
796.867	18104.95
797.198	18025.4
797.53	18080.32
797.862	18003.26
798.193	17977.27
798.525	17809.59
798.856	17937.04
799.188	17729.14
799.519	17659.31
799.85	17512.19
800.182	17584.06
800.513	17473.1
800.844	17426.32
801.175	17505.42
801.506	17492.99
801.837	17314.23
802.168	17269.04
802.499	17212.99
802.83	17127.57
803.161	17118.76
803.491	17008.48
803.822	16974.36
804.153	16884.41
804.483	16840.35
804.814	16742.5
805.145	16680.8
805.475	16714.93
805.805	16617.53
806.136	16687.36
806.466	16621.14
806.796	16565.33
807.126	16390.64
807.457	16350.87
807.787	16341.38
808.117	16383.86
808.447	16279.46
808.777	16319.68
809.107	16166.47
809.436	16180.03
809.766	16148.61
810.096	16046.7
810.426	16085.79
810.755	16036.08
811.085	16010.54
811.414	15957.89
811.744	15761.51
812.073	15821.17
812.403	15811
812.732	15729.19
813.061	15728.29
813.39	15618.01
813.719	15602.64
814.049	15649.19
814.378	15627.05
814.707	15615.07
815.036	15454.85
815.365	15336.21
815.693	15242.65
816.022	15337.56
816.351	15221.41
816.68	15130.56
817.008	15203.56
817.337	15098.93
817.665	15092.37
817.994	15108.42
818.322	15146.38
818.651	14946.16
818.979	14940.96
819.307	14969.66
819.636	14863.9
819.964	14756.11
820.292	14841.98
820.62	14904.58
820.948	14785.71
821.276	14871.13
821.604	14831.81
821.932	14882.21
822.259	14814.19
822.587	14741.19
822.915	14678.6
823.243	14762.89
823.57	14757.24
823.898	14831.81
824.225	14701.87
824.553	14679.5
824.88	14705.49
825.207	14761.53
825.535	14730.57
825.862	14734.87
826.189	14632.72
826.516	14807.86
826.843	14717.47
827.17	14670.46
827.497	14711.36
827.824	14746.84
828.151	14747.52
828.478	14680.18
828.805	14726.96
829.131	14627.75
829.458	14671.82
829.785	14630.01
830.111	14616
830.438	14713.17
830.764	14651.25
831.09	14628.88
831.417	14521.77
831.743	14624.81
832.069	14652.16
832.395	14608.09
832.722	14554.31
833.048	14584.14
833.374	14491.03
833.7	14571.48
834.026	14507.08
834.351	14594.76
834.677	14450.13
835.003	14583.23
835.329	14490.35
835.654	14439.06
835.98	14448.55
836.306	14448.55
836.631	14371.94
836.956	14377.36
837.282	14357.7
837.607	14307.31
837.932	14309.79
838.258	14274.77
838.583	14311.38
838.908	14199.74
839.233	14249
839.558	14153.87
839.883	14119.06
840.208	14062.79
840.533	14082.91
840.858	14084.71
841.182	14061.89
841.507	14036.58
841.832	14047.88
842.156	14013.98
842.481	13990.25
842.805	13899.63
843.13	13795
843.454	13818.73
843.778	13736.47
844.103	13782.12
844.427	13742.12
844.751	13710.49
845.075	13726.98
845.399	13676.82
845.723	13658.06
846.047	13612.18
846.371	13542.36
846.695	13404.28
847.019	13378.52
847.343	13301.91
847.666	13259.43
847.99	13243.15
848.313	13163.16
848.637	13177.39
848.96	13133.1
849.284	13119.32
849.607	12964.07
849.931	12882.03
850.254	12872.77
850.577	12792.32
850.9	12737.86
851.223	12684.3
851.546	12597.97
851.869	12502.16
852.192	12593.68
852.515	12510.29
852.838	12449.5
853.161	12512.33
853.483	12386.91
853.806	12331.77
854.129	12301.71
854.451	12268.72
854.774	12192.56
855.096	12174.03
855.419	12137.65
855.741	12059.68
856.063	12030.31
856.385	11997.54
856.708	11937.43
857.03	11899.69
857.352	11857.65
857.674	11862.4
857.996	11805
858.318	11707.83
858.64	11711.44
858.961	11703.08
859.283	11688.62
859.605	11621.5
859.926	11610.43
860.248	11561.39
860.57	11554.16
860.891	11578.79
861.212	11518
861.534	11406.59
861.855	11383.77
862.176	11416.08
862.498	11409.98
862.819	11452.02
863.14	11330.44
863.461	11295.18
863.782	11278.23
864.103	11295.18
864.424	11294.05
864.745	11254.96
865.065	11177.45
865.386	11205.47
865.707	11135.64
866.027	11098.35
866.348	11137.22
866.668	11086.83
866.989	11103.1
867.309	11096.54
867.63	11085.02
867.95	11037.11
868.27	11048.86
868.59	11044.12
868.91	10902.65
869.23	10930.67
869.55	10939.71
869.87	10993.72
870.19	10968.64
870.51	10966.15
870.83	10857
871.15	10889.77
871.469	10871.01
871.789	10909.88
872.109	10932.48
872.428	10831.47
872.748	10823.33
873.067	10737.46
873.386	10743.79
873.706	10725.71
874.025	10666.27
874.344	10719.83
874.663	10710.79
874.982	10642.55
875.301	10615.2
875.62	10627.4
875.939	10598.48
876.258	10534.3
876.577	10536.33
876.896	10507.18
877.214	10518.71
877.533	10554.19
877.852	10518.48
878.17	10475.54
878.489	10498.59
878.807	10538.14
879.125	10410.46
879.444	10384.25
879.762	10339.95
880.08	10336.34
880.398	10294.53
880.716	10321.2
881.034	10282.55
881.352	10299.96
881.67	10221.31
881.988	10307.86
882.306	10213.4
882.624	10160.52
882.941	10173.63
883.259	10072.62
883.577	10111.71
883.894	10104.25
884.212	10062
884.529	10130.24
884.846	10023.35
885.164	10029.91
885.481	9967.31
885.798	9973.41
886.115	9891.83
886.432	9924.37
886.75	9857.25
887.067	9870.59
887.383	9838.72
887.7	9841.89
888.017	9774.77
888.334	9812.74
888.651	9746.75
888.967	9739.52
889.284	9728.44
889.6	9635.34
889.917	9598.05
890.233	9585.17
890.55	9609.35
890.866	9605.96
891.182	9526.87
891.498	9541.56
891.815	9515.34
892.131	9450.71
892.447	9451.39
892.763	9382.24
893.079	9340.21
893.395	9283.03
893.71	9312.41
894.026	9337.27
894.342	9323.48
894.657	9203.49
894.973	9142.47
895.289	9181.57
895.604	9160.78
895.92	9084.17
896.235	9085.3
896.55	9064.51
896.865	8998.75
897.181	8951.29
897.496	8975.47
897.811	8983.15
898.126	8895.7
898.441	8901.12
898.756	8867.9
899.071	8748.13
899.386	8758.98
899.7	8757.62
900.015	8663.61
900.33	8566.44
900.644	8594.92
900.959	8635.14
901.273	8608.93
901.588	8473.56
901.902	8533.67
902.216	8525.54
902.531	8481.92
902.845	8425.65
903.159	8403.51
903.473	8368.25
903.787	8361.93
904.101	8267.24
904.415	8213.68
904.729	8279.9
905.042	8191.08
905.356	8194.02
905.67	8155.38
905.984	8187.69
906.297	8109.96
906.611	8046
906.924	8009.39
907.237	8058.66
907.551	8000.35
907.864	7965.1
908.177	7965.55
908.491	7877.65
908.804	7858.21
909.117	7789.06
909.43	7829.74
909.743	7763.52
910.056	7768.95
910.368	7666.58
910.681	7614.38
910.994	7690.98
911.307	7587.71
911.619	7502.06
911.932	7599.24
912.244	7478.56
912.557	7472.68
912.869	7414.38
913.181	7430.43
913.494	7439.01
913.806	7387.26
914.118	7262.97
914.43	7279.02
914.742	7267.27
915.054	7182.3
915.366	7275.18
915.678	7164.9
915.99	7178
916.302	7130.77
916.613	7120.6
916.925	7062.75
917.236	7095.52
917.548	7009.19
917.859	6967.39
918.171	6976.43
918.482	6971
918.794	6924.68
919.105	6851.23
919.416	6815.3
919.727	6724.46
920.038	6781.18
920.349	6737.79
920.66	6710.9
920.971	6716.09
921.282	6632.71
921.593	6633.84
921.903	6632.03
922.214	6555.19
922.525	6555.65
922.835	6529.88
923.146	6486.04
923.456	6506.16
923.767	6411.24
924.077	6442.43
924.387	6415.99
924.697	6359.27
925.008	6340.06
925.318	6308.87
925.628	6272.72
925.938	6270.23
926.248	6196.79
926.558	6172.15
926.867	6136.9
927.177	6187.29
927.487	6147.75
927.796	6064.59
928.106	6094.64
928.416	6028.66
928.725	6010.8
929.034	5946.4
929.344	6024.81
929.653	5957.92
929.962	5975.55
930.271	5865.5
930.581	5902.1
930.89	5852.84
931.199	5827.98
931.508	5822.33
931.817	5777.36
932.125	5760.87
932.434	5696.46
932.743	5673.86
933.051	5652.85
933.36	5630.93
933.669	5590.47
933.977	5574.2
934.286	5580.08
934.594	5536.69
934.902	5519.52
935.21	5519.74
935.519	5499.18
935.827	5504.15
936.135	5422.12
936.443	5398.84
936.751	5392.74
937.059	5385.96
937.367	5285.17
937.674	5390.48
937.982	5281.33
938.29	5278.84
938.597	5247.88
938.905	5233.65
939.213	5189.36
939.52	5163.82
939.827	5187.77
940.135	5114.1
940.442	5095.8
940.749	5069.81
941.056	5127.44
941.363	5021
941.67	5066.19
941.977	5045.63
942.284	4975.8
942.591	4967.67
942.898	4947.33
943.205	4968.12
943.511	4891.06
943.818	4876.37
944.125	4858.52
944.431	4850.61
944.738	4825.97
945.044	4797.27
945.35	4764.51
945.657	4774.45
945.963	4697.84
946.269	4658.52
946.575	4689.93
946.881	4675.47
947.187	4663.27
947.493	4637.73
947.799	4622.14
948.105	4588.69
948.41	4545.08
948.716	4554.12
949.022	4507.11
949.327	4515.25
949.633	4496.04
949.938	4486.32
950.244	4475.7
950.549	4405.87
950.854	4403.84
951.16	4425.08
951.465	4342.82
951.77	4350.96
952.075	4354.12
952.38	4285.65
952.685	4347.12
952.99	4278.19
953.294	4249.04
953.599	4239.78
953.904	4229.38
954.209	4214.01
954.513	4223.73
954.818	4177.18
955.122	4180.34
955.426	4154.35
955.731	4114.13
956.035	4031.65
956.339	4070.29
956.643	4072.32
956.948	4050.85
957.252	4026.9
957.556	4029.16
957.86	3974.7
958.163	3951.42
958.467	3919.11
958.771	3958.88
959.075	3960.91
959.378	3902.61
959.682	3924.98
959.985	3856.28
960.289	3800.47
960.592	3843.63
960.896	3838.43
961.199	3794.14
961.502	3819
961.805	3751.2
962.108	3756.62
962.411	3758.43
962.714	3685.44
963.017	3688.6
963.32	3744.42
963.623	3685.67
963.926	3693.12
964.228	3607.48
964.531	3642.73
964.833	3650.64
965.136	3592.11
965.438	3543.52
965.741	3570.19
966.043	3529.29
966.345	3539.45
966.648	3516.63
966.95	3520.92
967.252	3519.57
967.554	3454.26
967.856	3479.8
968.158	3390.98
968.46	3419.23
968.761	3400.7
969.063	3430.98
969.365	3418.1
969.666	3359.8
969.968	3329.29
970.269	3300.59
970.571	3326.58
970.872	3353.7
971.174	3302.17
971.475	3260.59
971.776	3285.9
972.077	3256.3
972.378	3254.72
972.679	3214.94
972.98	3202.29
973.281	3207.94
973.582	3180.37
973.883	3192.8
974.183	3128.62
974.484	3172.91
974.785	3129.75
975.085	3127.49
975.386	3137.66
975.686	3060.15
975.986	3092.24
976.287	3075.51
976.587	3001.16
976.887	3035.51
977.187	3058.79
977.487	2993.93
977.787	2978.34
978.087	2967.72
978.387	2951.9
978.687	2974.72
978.987	2909.87
979.286	2890.88
979.586	2915.97
979.885	2902.86
980.185	2865.35
980.484	2895.4
980.784	2807.95
981.083	2844.11
981.382	2827.84
981.682	2820.6
981.981	2788.29
982.28	2805.01
982.579	2758.46
982.878	2777.67
983.177	2775.86
983.475	2752.81
983.774	2743.09
984.073	2750.78
984.372	2726.59
984.67	2690.44
984.969	2688.4
985.267	2671.23
985.566	2671.68
985.864	2686.14
986.162	2656.31
986.461	2617.22
986.759	2616.32
987.057	2583.77
987.355	2579.93
987.653	2574.51
987.951	2546.26
988.249	2561.85
988.547	2580.61
988.844	2542.65
989.142	2559.82
989.44	2502.42
989.737	2490.67
990.035	2482.08
990.332	2491.12
990.63	2453.16
990.927	2430.78
991.224	2434.17
991.521	2458.81
991.819	2414.29
992.116	2408.86
992.413	2415.42
992.71	2361.63
993.006	2401.63
993.303	2400.73
993.6	2374.06
993.897	2345.14
994.193	2356.89
994.49	2317.79
994.787	2327.74
995.083	2319.83
995.379	2317.79
995.676	2285.48
995.972	2266.72
996.268	2261.3
996.565	2262.2
996.861	2248.19
997.157	2223.33
997.453	2202.31
997.749	2187.17
998.044	2221.3
998.34	2241.64
998.636	2173.16
998.932	2144.69
999.227	2164.8
999.523	2187.63
999.818	2103.79
1000.114	2114.18
1000.409	2139.27
1000.704	2112.6
1001	2098.36
1001.295	2084.35
1001.59	2066.5
1001.885	2052.04
1002.18	2044.58
1002.475	2025.14
1002.77	1993.28
1003.065	2012.04
1003.359	1967.97
1003.654	2000.51
1003.949	1968.2
1004.243	1994.64
1004.538	1970
1004.832	1966.16
1005.127	1930.46
1005.421	1902.21
1005.715	1915.09
1006.009	1887.97
1006.304	1919.38
1006.598	1877.58
1006.892	1878.48
1007.186	1828.09
1007.48	1852.27
1007.773	1833.51
1008.067	1817.47
1008.361	1820.4
1008.655	1788.54
1008.948	1775.21
1009.242	1808.88
1009.535	1772.72
1009.829	1763.46
1010.122	1750.58
1010.415	1726.17
1010.708	1740.63
1011.001	1752.16
1011.295	1694.31
1011.588	1709.9
1011.881	1703.57
1012.173	1697.7
1012.466	1666.51
1012.759	1688.66
1013.052	1673.74
1013.344	1660.63
1013.637	1658.83
1013.93	1642.1
1014.222	1645.04
1014.514	1615.66
1014.807	1607.98
1015.099	1597.59
1015.391	1592.16
1015.683	1578.6
1015.976	1610.47
1016.268	1529.11
1016.56	1546.29
1016.851	1549
1017.143	1559.62
1017.435	1532.95
1017.727	1492.28
1018.018	1488.44
1018.31	1507.19
1018.602	1490.47
1018.893	1474.42
1019.185	1451.83
1019.476	1420.64
1019.767	1453.18
1020.058	1429.68
1020.35	1416.12
1020.641	1407.31
1020.932	1427.19
1021.223	1401.88
1021.514	1369.57
1021.804	1373.18
1022.095	1388.1
1022.386	1382.9
1022.677	1335.9
1022.967	1345.39
1023.258	1337.93
1023.548	1338.61
1023.839	1333.19
1024.129	1317.82
1024.419	1309.68
1024.709	1291.38
1025	1277.37
1025.29	1291.38
1025.58	1273.07
1025.87	1262.68
1026.16	1245.28
1026.449	1255.22
1026.739	1228.56
1027.029	1222
1027.319	1227.43
1027.608	1205.73
1027.898	1192.17
1028.187	1187.2
1028.477	1197.6
1028.766	1185.39
1029.055	1173.64
1029.344	1158.27
1029.634	1166.41
1029.923	1158.5
1030.212	1130.48
1030.501	1158.27
1030.79	1130.93
1031.078	1130.7
1031.367	1107.65
1031.656	1106.3
1031.945	1090.48
1032.233	1095
1032.522	1112.85
1032.81	1097.26
1033.099	1067.43
1033.387	1085.96
1033.675	1052.06
1033.963	1048.45
1034.251	1043.7
1034.54	1033.31
1034.828	1022.91
1035.116	1046.41
1035.403	1025.62
1035.691	1016.58
1035.979	1002.12
1036.267	1016.36
1036.554	1000.54
1036.842	973.19
1037.129	981.78
1037.417	985.17
1037.704	980.43
1037.992	957.6
1038.279	951.05
1038.566	953.31
1038.853	953.31
1039.14	953.31
