Data from hue_100_FLMS001491_00015.txt Node
Date: Tue Feb 07 17:02:43 GMT 2017
User: dcchb
Spectrometer: FLMS00149
Trigger mode: 0
Integration Time (sec): 2.000000E-2
Scans to average: 10
Electric dark correction enabled: true
Nonlinearity correction enabled: false
Boxcar width: 0
XAxis mode: Wavelengths
Number of Pixels in Spectrum: 2048
>>>>>Begin Spectral Data<<<<<
341.393	-18.49
341.776	-18.49
342.16	-18.49
342.543	-71.37
342.927	-93.06
343.31	-75.89
343.693	-70.24
344.077	-64.59
344.46	-47.41
344.843	-73.63
345.226	-49.45
345.61	-29.34
345.993	-29.56
346.376	-4.48
346.759	26.26
347.142	19.48
347.525	21.74
347.908	65.58
348.291	90.66
348.674	94.73
349.057	126.14
349.44	125.91
349.823	136.08
350.206	172.92
350.588	195.52
350.971	214.73
351.354	242.97
351.737	248.85
352.119	246.59
352.502	252.24
352.884	285.68
353.267	259.7
353.65	279.13
354.032	301.5
354.414	314.38
354.797	343.31
355.179	327.72
355.562	312.12
355.944	343.99
356.326	344.89
356.709	335.17
357.091	322.52
357.473	334.04
357.855	351.22
358.238	363.2
358.62	331.11
359.002	347.15
359.384	350.32
359.766	343.08
360.148	334.5
360.53	314.38
360.912	336.08
361.294	336.53
361.676	325.01
362.057	333.82
362.439	358.9
362.821	313.71
363.203	335.4
363.584	334.5
363.966	352.58
364.348	340.6
364.729	346.7
365.111	316.42
365.493	324.78
365.874	306.93
366.256	323.42
366.637	330.43
367.019	307.6
367.4	307.38
367.781	327.49
368.163	320.71
368.544	314.61
368.925	302.63
369.306	328.85
369.688	314.38
370.069	306.25
370.45	307.38
370.831	318.9
371.212	311.9
371.593	319.36
371.974	305.12
372.355	302.41
372.736	334.72
373.117	315.06
373.498	316.42
373.879	312.8
374.26	317.77
374.641	318.45
375.021	308.06
375.402	318.9
375.783	332.46
376.163	315.29
376.544	343.08
376.925	325.91
377.305	339.47
377.686	331.33
378.066	332.46
378.447	331.33
378.827	341.95
379.208	330.88
379.588	327.49
379.968	331.56
380.349	338.79
380.729	338.56
381.109	332.24
381.489	315.51
381.87	347.6
382.25	337.43
382.63	331.79
383.01	346.93
383.39	334.27
383.77	338.34
384.15	340.82
384.53	339.02
384.91	374.04
385.29	357.32
385.67	354.61
386.049	350.32
386.429	346.02
386.809	336.3
387.189	358.23
387.568	355.97
387.948	347.38
388.328	359.81
388.707	362.74
389.087	361.39
389.466	367.26
389.846	368.17
390.225	371.56
390.605	382.18
390.984	382.86
391.363	357.77
391.743	385.57
392.122	385.34
392.501	390.31
392.881	374.95
393.26	374.72
393.639	387.15
394.018	382.63
394.397	402.07
394.776	398.68
395.155	410.2
395.534	381.28
395.913	368.39
396.292	386.25
396.671	393.93
397.05	411.78
397.429	408.17
397.808	402.07
398.186	410.88
398.565	408.39
398.944	409.52
399.323	413.82
399.701	393.48
400.08	430.54
400.458	419.69
400.837	408.62
401.215	417.88
401.594	402.07
401.972	429.86
402.351	426.7
402.729	416.98
403.107	436.42
403.486	428.96
403.864	416.3
404.242	411.33
404.62	424.89
404.999	440.71
405.377	448.39
405.755	452.69
406.133	447.49
406.511	454.27
406.889	461.73
407.267	439.58
407.645	462.63
408.023	462.4
408.401	468.05
408.779	447.04
409.156	482.06
409.534	471.89
409.912	477.77
410.29	486.36
410.667	479.8
411.045	475.06
411.422	510.09
411.8	468.28
412.178	523.19
412.555	505.11
412.933	503.98
413.31	494.94
413.687	515.28
414.065	494.72
414.442	508.96
414.819	511.67
415.197	506.7
415.574	540.37
415.951	524.55
416.328	537.2
416.705	516.64
417.082	537.2
417.46	505.57
417.837	539.01
418.214	537.88
418.591	543.08
418.967	534.94
419.344	542.4
419.721	570.2
420.098	590.99
420.475	556.19
420.852	580.82
421.228	578.56
421.605	581.5
421.982	552.57
422.358	578.33
422.735	603.42
423.111	583.98
423.488	589.18
423.864	589.18
424.241	615.85
424.617	614.04
424.994	601.83
425.37	628.27
425.746	614.72
426.123	621.27
426.499	647.93
426.875	645
427.251	644.55
427.627	651.32
428.003	668.5
428.379	641.38
428.756	667.82
429.132	659.69
429.507	670.08
429.883	688.39
430.259	685.45
430.635	675.05
431.011	677.31
431.387	716.18
431.763	697.43
432.138	694.94
432.514	728.38
432.89	721.38
433.265	728.61
433.641	771.77
434.016	741.94
434.392	767.93
434.767	765.9
435.143	742.62
435.518	786.69
435.894	777.65
436.269	776.97
436.644	799.57
437.02	810.19
437.395	819.68
437.77	807.48
438.145	821.94
438.52	839.34
438.895	849.74
439.271	846.35
439.646	873.24
440.021	853.13
440.395	855.16
440.77	880.02
441.145	861.94
441.52	863.97
441.895	876.86
442.27	892.9
442.645	889.51
443.019	887.25
443.394	889.74
443.769	882.51
444.143	903.97
444.518	908.95
444.892	908.72
445.267	945.55
445.641	957.08
446.016	932.67
446.39	943.75
446.764	959.34
447.139	968.38
447.513	932.45
447.887	975.38
448.262	957.08
448.636	985.1
449.01	988.04
449.384	986.46
449.758	1022.16
450.132	1033.24
450.506	1021.71
450.88	1039.79
451.254	1025.55
451.628	1045.44
452.002	1059.68
452.376	1090.18
452.75	1080.92
453.123	1080.24
453.497	1117.75
453.871	1105.32
454.244	1126.79
454.618	1138.54
454.992	1157.98
455.365	1134.02
455.739	1181.03
456.112	1182.16
456.486	1185.55
456.859	1215.6
457.232	1224.42
457.606	1256.96
457.979	1245.66
458.352	1279.1
458.725	1279.1
459.099	1282.72
459.472	1324.75
459.845	1340.35
460.218	1360.01
460.591	1317.97
460.964	1381.47
461.337	1405.88
461.71	1431.87
462.083	1438.2
462.456	1449.04
462.829	1490.17
463.201	1439.78
463.574	1512.77
463.947	1500.12
464.32	1558.65
464.692	1586.89
465.065	1587.12
465.438	1625.08
465.81	1619.89
466.183	1661.24
466.555	1701.69
466.928	1693.11
467.3	1718.87
467.672	1759.54
468.045	1785.98
468.417	1784.85
468.789	1829.15
469.161	1828.69
469.534	1869.15
469.906	1928.13
470.278	1958.63
470.65	1985.3
471.022	2022.14
471.394	2072.53
471.766	2104.85
472.138	2127.9
472.51	2210.15
472.882	2246.31
473.253	2285.41
473.625	2322.24
473.997	2380.54
474.369	2386.87
474.74	2475.68
475.112	2488.56
475.484	2575.57
475.855	2669.8
476.227	2692.63
476.598	2795.45
476.97	2814.43
477.341	2905.05
477.713	2990.92
478.084	3050.36
478.455	3121.09
478.827	3185.5
479.198	3301.65
479.569	3322.89
479.94	3496.22
480.311	3533.51
480.682	3655.77
481.053	3796.55
481.424	3858.7
481.795	3925.36
482.166	4004.46
482.537	4179.59
482.908	4302.98
483.279	4412.13
483.65	4560.15
484.021	4585.91
484.391	4754.95
484.762	4815.06
485.133	4973.02
485.503	5089.17
485.874	5267.02
486.244	5356.74
486.615	5474.7
486.985	5631.76
487.356	5850.74
487.726	5935.03
488.097	6088.7
488.467	6227.22
488.837	6404.17
489.207	6502.24
489.578	6688.91
489.948	6840.31
490.318	7025.39
490.688	7114.88
491.058	7283.24
491.428	7490.92
491.798	7585.83
492.168	7821.76
492.538	7863.11
492.908	8098.36
493.278	8275.76
493.648	8341.29
494.017	8562.08
494.387	8671
494.757	8784.9
495.126	9013.14
495.496	9107.15
495.866	9216.75
496.235	9336.29
496.605	9566.8
496.974	9652.22
497.344	9800.91
497.713	9887.92
498.082	10014.69
498.452	10215.14
498.821	10303.73
499.19	10338.3
499.559	10523.61
499.928	10689.93
500.298	10838.4
500.667	10992.52
501.036	11063.25
501.405	11178.73
501.774	11232.29
502.143	11409.91
502.512	11470.7
502.88	11559.29
503.249	11682.45
503.618	11785.5
503.987	11897.36
504.356	11980.74
504.724	12126.73
505.093	12114.75
505.462	12220.29
505.83	12329.89
506.199	12405.59
506.567	12608.3
506.936	12634.74
507.304	12846.26
507.672	12851.46
508.041	12978.46
508.409	13029.53
508.777	13138.91
509.145	13192.46
509.514	13233.59
509.882	13359.92
510.25	13421.61
510.618	13451.44
510.986	13479.24
511.354	13639.01
511.722	13748.16
512.09	13853.24
512.458	13798.1
512.826	13985.21
513.193	14079.22
513.561	14047.58
513.929	14175.26
514.297	14277.41
514.664	14267.92
515.032	14344.3
515.4	14418.19
515.767	14473.79
516.135	14535.03
516.502	14408.48
516.869	14747.23
517.237	14587.46
517.604	14692.76
517.972	14751.29
518.339	14811.4
518.706	14885.07
519.073	14849.82
519.44	14862.48
519.808	15045.75
520.175	15017.27
520.542	15077.61
520.909	15180.89
521.276	15111.06
521.643	15257.04
522.009	15292.97
522.376	15299.3
522.743	15321
523.11	15499.3
523.477	15444.38
523.843	15560.09
524.21	15666.52
524.577	15749.91
524.943	15763.7
525.31	15778.16
525.676	15875.33
526.043	15854.09
526.409	15916.69
526.776	15981.32
527.142	15972.05
527.508	16021.77
527.874	16046.85
528.241	16031.49
528.607	16094.99
528.973	16184.02
529.339	16037.81
529.705	16199.84
530.071	16254.53
530.437	16299.5
530.803	16245.26
531.169	16302.66
531.535	16278.94
531.901	16124.82
532.267	16273.06
532.632	16304.7
532.998	16190.13
533.364	16287.98
533.73	16263.8
534.095	16345.38
534.461	16299.05
534.826	16349.22
535.192	16311.03
535.557	16263.8
535.923	16301.08
536.288	16212.72
536.653	16287.07
537.019	16124.59
537.384	16159.17
537.749	16170.46
538.114	16126.17
538.479	16177.7
538.845	16196
539.21	15993.07
539.575	16118.26
539.94	16078.49
540.305	16003.46
540.67	15910.13
541.034	15978.15
541.399	16044.82
541.764	15899.51
542.129	15888.21
542.494	15857.03
542.858	15904.71
543.223	15794.88
543.587	15843.24
543.952	15694.77
544.316	15773.41
544.681	15639.18
545.045	15687.99
545.41	15756.24
545.774	15659.74
546.138	15629.69
546.503	15576.58
546.867	15562.35
547.231	15619.74
547.595	15557.83
547.959	15494.78
548.324	15486.19
548.688	15450.26
549.052	15418.85
549.416	15350.37
549.779	15334.55
550.143	15251.62
550.507	15278.06
550.871	15386.98
551.235	15133.88
551.599	15279.87
551.962	15210.72
552.326	15161.45
552.689	15237.83
553.053	15107.44
553.417	15104.73
553.78	15197.16
554.143	15074.45
554.507	15058.4
554.87	15050.72
555.234	15139.53
555.597	14999.65
555.96	15055.24
556.323	15131.17
556.686	14934.34
557.05	14973.66
557.413	15028.12
557.776	14930.72
558.139	15032.42
558.502	14984.51
558.865	14984.96
559.228	15043.94
559.59	14988.12
559.953	14907.67
560.316	15105.18
560.679	15025.64
561.041	15093.66
561.404	15026.77
561.767	15129.59
562.129	15005.3
562.492	15073.77
562.854	15022.02
563.217	15079.87
563.579	15086.65
563.941	15189.25
564.304	15077.39
564.666	15246.42
565.028	15135.69
565.39	15177.5
565.753	15143.15
566.115	15188.8
566.477	15204.39
566.839	15201.45
567.201	15323.71
567.563	15358.28
567.925	15333.42
568.287	15245.52
568.648	15301.33
569.01	15314.22
569.372	15465.62
569.734	15374.55
570.095	15379.75
570.457	15438.73
570.819	15475.79
571.18	15526.87
571.542	15479.64
571.903	15446.42
572.265	15573.64
572.626	15489.13
572.987	15574.55
573.349	15487.32
573.71	15515.79
574.071	15555.57
574.432	15636.47
574.794	15664.26
575.155	15581.78
575.516	15521.67
575.877	15631.72
576.238	15638.05
576.599	15594.21
576.96	15614.32
577.32	15643.92
577.681	15725.28
578.042	15695.45
578.403	15635.11
578.763	15749.23
579.124	15723.24
579.485	15741.32
579.845	15723.02
580.206	15720.98
580.566	15731.15
580.927	15674.88
581.287	15676.92
581.648	15646.64
582.008	15743.36
582.368	15687.31
582.728	15716.92
583.089	15592.4
583.449	15700.42
583.809	15647.09
584.169	15681.21
584.529	15537.03
584.889	15752.62
585.249	15533.65
585.609	15628.11
585.969	15698.84
586.329	15608.45
586.688	15608.67
587.048	15640.08
587.408	15529.58
587.768	15525.96
588.127	15581.55
588.487	15472.4
588.846	15575.45
589.206	15578.16
589.565	15560.31
589.925	15470.6
590.284	15563.02
590.643	15483.7
591.003	15467.21
591.362	15569.35
591.721	15480.54
592.08	15503.59
592.44	15384.27
592.799	15420.88
593.158	15457.49
593.517	15384.72
593.876	15386.3
594.235	15399.19
594.593	15466.75
594.952	15414.78
595.311	15327.32
595.67	15471.27
596.029	15514.89
596.387	15532.97
596.746	15492.29
597.104	15391.5
597.463	15390.15
597.822	15458.17
598.18	15273.99
598.538	15295.23
598.897	15438.51
599.255	15240.32
599.613	15530.93
599.972	15390.15
600.33	15361.22
600.688	15421.11
601.046	15391.73
601.404	15412.52
601.762	15355.34
602.12	15428.79
602.478	15410.94
602.836	15380.88
603.194	15349.7
603.552	15467.66
603.91	15307.44
604.268	15321.67
604.625	15329.58
604.983	15435.57
605.341	15241.68
605.698	15341.79
606.056	15433.76
606.413	15374.1
606.771	15469.24
607.128	15438.96
607.485	15350.37
607.843	15362.8
608.2	15458.84
608.557	15419.75
608.914	15395.57
609.272	15486.87
609.629	15432.18
609.986	15582.46
610.343	15454.78
610.7	15512.63
611.057	15507.88
611.414	15489.13
611.771	15464.72
612.127	15608.22
612.484	15652.74
612.841	15636.02
613.198	15486.19
613.554	15581.1
613.911	15602.34
614.267	15628.56
614.624	15668.33
614.98	15602.12
615.337	15679.4
615.693	15794.2
616.05	15671.95
616.406	15753.53
616.762	15755.79
617.118	15671.04
617.475	15749.01
617.831	15767.09
618.187	15757.82
618.543	15806.63
618.899	15920.53
619.255	15865.39
619.611	15767.76
619.967	15887.53
620.323	15926.4
620.678	15844.15
621.034	15840.08
621.39	15824.49
621.746	15712.4
622.101	15944.48
622.457	15827.87
622.812	15794.2
623.168	15840.76
623.523	15824.03
623.879	15849.8
624.234	15756.46
624.589	15928.21
624.945	15818.84
625.3	15906.97
625.655	15808.89
626.01	15845.5
626.365	15845.73
626.72	15828.1
627.075	15761.44
627.43	15845.05
627.785	15733.87
628.14	15778.16
628.495	15874.88
628.85	15713.08
629.205	15705.17
629.559	15870.13
629.914	15748.78
630.269	15739.97
630.623	15716.69
630.978	15662.23
631.332	15730.48
631.687	15767.31
632.041	15629.69
632.396	15665.39
632.75	15674.43
633.104	15738.39
633.459	15576.58
633.813	15568.45
634.167	15605.73
634.521	15549.69
634.875	15569.8
635.229	15523.48
635.583	15457.49
635.937	15447.77
636.291	15497.49
636.645	15450.48
636.999	15492.74
637.352	15476.92
637.706	15432.86
638.06	15383.59
638.413	15430.37
638.767	15327.77
639.121	15356.02
639.474	15294.56
639.828	15274.67
640.181	15321.22
640.534	15322.8
640.888	15257.27
641.241	15149.25
641.594	15255.91
641.947	15256.82
642.301	15254.1
642.654	15240.32
643.007	15170.72
643.36	15184.73
643.713	15127.33
644.066	15214.78
644.419	15081.91
644.771	15048.91
645.124	14934.56
645.477	14928.01
645.83	14824.74
646.182	14804.62
646.535	14648.47
646.888	14821.35
647.24	14588.81
647.593	14729.82
647.945	14694.8
648.298	14600.11
648.65	14600.56
649.002	14552.2
649.355	14590.39
649.707	14654.57
650.059	14782.03
650.411	14864.51
650.763	14942.7
651.115	15004.17
651.467	14924.4
651.819	14968.46
652.171	14985.64
652.523	14978.41
652.875	14900.44
653.227	14919.65
653.578	15025.18
653.93	14957.16
654.282	14958.52
654.633	14820.22
654.985	14936.82
655.337	14902.7
655.688	14951.97
656.039	14979.54
656.391	14833.55
656.742	14922.36
657.094	14922.81
657.445	14983.38
657.796	14949.93
658.147	14969.82
658.498	14952.64
658.849	14966.2
659.2	14955.36
659.551	14920.78
659.902	15032.87
660.253	14916.03
660.604	15048.01
660.955	14951.51
661.306	14981.57
661.656	14991.06
662.007	15057.27
662.358	14945.86
662.708	15046.88
663.059	14970.27
663.409	14985.64
663.76	15050.72
664.11	15053.66
664.461	15054.34
664.811	14959.88
665.161	15003.26
665.511	14933.89
665.862	15069.93
666.212	15002.59
666.562	15086.2
666.912	14949.71
667.262	14995.58
667.612	14941.34
667.962	15012.53
668.312	15000.55
668.662	15076.71
669.011	14986.77
669.361	14993.09
669.711	15030.16
670.06	14968.24
670.41	14977.5
670.76	15011.4
671.109	14990.83
671.459	14954.9
671.808	15012.75
672.157	14994
672.507	14895.02
672.856	14906.54
673.205	14852.76
673.554	14899.31
673.904	14916.49
674.253	14942.02
674.602	14846.21
674.951	14635.36
675.3	14517.4
675.649	14800.11
675.998	14780.67
676.346	14770.95
676.695	14834.45
677.044	14754.23
677.393	14849.37
677.741	14795.59
678.09	14760.11
678.438	14692.31
678.787	14718.75
679.135	14723.27
679.484	14481.92
679.832	14633.78
680.181	14455.48
680.529	14508.59
680.877	14571.18
681.225	14496.61
681.573	14581.35
681.922	14489.38
682.27	14452.32
682.618	14462.49
682.966	14422.94
683.314	14435.37
683.661	14336.16
684.009	14296.16
684.357	14227.01
684.705	14238.54
685.053	14228.59
685.4	14240.12
685.748	14153.79
686.095	14111.99
686.443	14076.96
686.79	14117.41
687.138	14033.8
687.485	14130.74
687.832	14035.61
688.18	13996.96
688.527	13909.51
688.874	13944.99
689.221	13949.51
689.568	13831.09
689.915	13791.32
690.262	13793.13
690.609	13674.71
690.956	13681.26
691.303	13622.51
691.65	13515.85
691.997	13620.93
692.344	13477.65
692.69	13519.01
693.037	13426.13
693.383	13328.28
693.73	13366.47
694.077	13314.04
694.423	13335.51
694.769	13197.89
695.116	13225.46
695.462	13089.87
695.808	13142.97
696.155	13074.27
696.501	13025.46
696.847	12983.66
697.193	12925.13
697.539	12963.77
697.885	12749.99
698.231	12786.6
698.577	12747.96
698.923	12752.02
699.269	12648.98
699.614	12536.44
699.96	12531.46
700.306	12571.92
700.651	12480.62
700.997	12437.46
701.342	12361.07
701.688	12376.21
702.033	12309.78
702.379	12290.79
702.724	12302.54
703.069	12263.45
703.415	12092.15
703.76	12083.11
704.105	12018.03
704.45	12023
704.795	11996.56
705.14	11881.09
705.485	11899.39
705.83	11825.95
706.175	11905.49
706.52	11725.61
706.865	11826.85
707.209	11699.17
707.554	11625.5
707.899	11651.94
708.243	11574.2
708.588	11542.34
708.932	11529.46
709.277	11515.67
709.621	11493.3
709.966	11441.32
710.31	11399.52
710.654	11324.26
710.998	11402
711.342	11340.08
711.687	11265.73
712.031	11253.98
712.375	11219.41
712.719	11217.37
713.063	11201.78
713.407	11270.03
713.75	11118.39
714.094	11179.18
714.438	11088.56
714.782	11100.54
715.125	11071.62
715.469	11085.85
715.812	11001.56
716.156	10953.43
716.499	10933.09
716.843	10939.19
717.186	10850.15
717.53	10900.09
717.873	10950.71
718.216	10824.62
718.559	10889.25
718.902	10838.4
719.246	10910.72
719.589	10785.52
719.932	10725.64
720.275	10687.67
720.617	10797.27
720.96	10769.48
721.303	10777.61
721.646	10711.17
721.989	10719.53
722.331	10724.96
722.674	10696.26
723.016	10733.32
723.359	10628.92
723.701	10626.88
724.044	10653.77
724.386	10606.32
724.729	10656.26
725.071	10716.14
725.413	10629.59
725.755	10601.57
726.097	10567
726.439	10549.6
726.782	10522.93
727.124	10567.67
727.465	10549.14
727.807	10571.74
728.149	10482.48
728.491	10577.84
728.833	10548.92
729.175	10465.98
729.516	10522.48
729.858	10516.15
730.199	10569.26
730.541	10482.7
730.882	10483.61
731.224	10498.98
731.565	10389.37
731.906	10471.18
732.248	10410.16
732.589	10388.92
732.93	10313.22
733.271	10422.37
733.612	10496.94
733.953	10423.72
734.294	10423.27
734.635	10445.19
734.976	10481.57
735.317	10371.3
735.658	10428.47
735.999	10399.99
736.339	10510.73
736.68	10469.15
737.021	10425.3
737.361	10414.46
737.702	10444.74
738.042	10481.57
738.383	10449.03
738.723	10464.17
739.063	10433.44
739.404	10508.01
739.744	10495.81
740.084	10441.8
740.424	10509.82
740.764	10535.36
741.104	10550.27
741.444	10551.4
741.784	10548.47
742.124	10600.67
742.464	10637.5
742.804	10652.42
743.143	10551.18
743.483	10652.64
743.823	10669.82
744.162	10637.05
744.502	10734.68
744.841	10704.39
745.181	10795.69
745.52	10846.08
745.86	10877.72
746.199	10846.76
746.538	10963.14
746.877	11036.81
747.216	11047.44
747.556	11157.04
747.895	11214.66
748.234	11188.22
748.573	11212.85
748.911	11320.87
749.25	11322.23
749.589	11359.97
749.928	11595.9
750.267	11620.98
750.605	11689
750.944	11741.43
751.283	11790.24
751.621	11947.75
751.96	11859.84
752.298	12081.31
752.636	12206.73
752.975	12248.53
753.313	12297.35
753.651	12513.61
753.989	12558.36
754.327	12680.39
754.666	12787.95
755.004	12951.11
755.342	13141.17
755.679	13241.5
756.017	13349.52
756.355	13586.13
756.693	13658.21
757.031	13814.14
757.368	13951.09
757.706	14106.79
758.044	14219.78
758.381	14429.04
758.719	14533.67
759.056	14878.07
759.394	14931.18
759.731	14979.54
760.068	15201.45
760.405	15374.55
760.743	15456.36
761.08	15695.9
761.417	15862.9
761.754	15967.31
762.091	16198.49
762.428	16356.67
762.765	16456.33
763.102	16686.84
763.438	16706.27
763.775	16905.13
764.112	17155.3
764.449	17356.87
764.785	17439.81
765.122	17639.58
765.458	17666.7
765.795	17888.16
766.131	18013.35
766.467	18109.62
766.804	18340.8
767.14	18327.02
767.476	18600.91
767.812	18656.27
768.148	18810.4
768.485	18927
768.821	19032.99
769.157	19142.82
769.492	19293.55
769.828	19395.01
770.164	19351.85
770.5	19644.95
770.836	19719.98
771.171	19690.37
771.507	19783.25
771.842	19890.37
772.178	19999.97
772.513	20040.42
772.849	20216.23
773.184	20122.9
773.519	20329.9
773.855	20275.67
774.19	20318.83
774.525	20385.95
774.86	20501.65
775.195	20598.37
775.53	20594.98
775.865	20642.89
776.2	20523.12
776.535	20560.63
776.87	20628.65
777.205	20648.54
777.539	20581.87
777.874	20760.4
778.209	20704.13
778.543	20735.32
778.878	20692.83
779.212	20775.54
779.547	20744.36
779.881	20803.56
780.215	20914.75
780.55	20886.27
780.884	20750.01
781.218	20772.15
781.552	20939.38
781.886	20734.86
782.22	20728.99
782.554	20755.88
782.888	20553.85
783.222	20704.36
783.556	20646.05
783.889	20604.7
784.223	20472.95
784.557	20557.47
784.89	20663.91
785.224	20450.8
785.557	20431.6
785.891	20480.63
786.224	20491.48
786.558	20432.05
786.891	20303.24
787.224	20280.64
787.557	20283.35
787.891	20197.48
788.224	20285.38
788.557	20259.17
788.89	20361.31
789.223	20285.84
789.556	20155.22
789.888	20145.95
790.221	20084.26
790.554	19931.95
790.887	19944.38
791.219	20003.81
791.552	19938.95
791.884	19740.99
792.217	19882.46
792.549	19880.2
792.882	19691.5
793.214	19702.35
793.546	19623.48
793.879	19571.96
794.211	19476.37
794.543	19606.08
794.875	19471.62
795.207	19619.41
795.539	19524.27
795.871	19488.12
796.203	19301.46
796.535	19314.79
796.867	19152.53
797.198	19181.68
797.53	19368.12
797.862	19081.57
798.193	19076.6
798.525	19017.85
798.856	19011.75
799.188	18755.26
799.519	18810.62
799.85	18662.6
800.182	18716.16
800.513	18731.08
800.844	18604.75
801.175	18619.44
801.506	18634.58
801.837	18625.32
802.168	18511.65
802.499	18458.99
802.83	18393.68
803.161	18313.01
803.491	18294.48
803.822	18427.35
804.153	18238.88
804.483	18225.1
804.814	18120.7
805.145	18101.71
805.475	18046.8
805.805	17934.03
806.136	17948.72
806.466	17931.77
806.796	17972.23
807.126	17787.37
807.457	17738.11
807.787	17798.9
808.117	17711.67
808.447	17557.09
808.777	17668.5
809.107	17612.91
809.436	17527.04
809.766	17528.85
810.096	17447.04
810.426	17333.15
810.755	17364.11
811.085	17379.7
811.414	17331.11
811.744	17221.51
812.073	17224.67
812.403	17226.93
812.732	17058.35
813.061	17129.54
813.39	17051.57
813.719	17041.18
814.049	17142.87
814.378	16994.4
814.707	16960.27
815.036	16902.87
815.365	16972.93
815.693	16789.88
816.022	16795.76
816.351	16655.2
816.68	16598.25
817.008	16715.99
817.337	16532.94
817.665	16440.29
817.994	16617.23
818.322	16484.58
818.651	16423.79
818.979	16379.5
819.307	16504.47
819.636	16406.62
819.964	16330.46
820.292	16318.48
820.62	16309.22
820.948	16190.35
821.276	16262.44
821.604	16294.08
821.932	16316.45
822.259	16292.95
822.587	16242.1
822.915	16226.51
823.243	16253.63
823.57	16250.01
823.898	16224.25
824.225	16224.02
824.553	16213.18
824.88	16226.73
825.207	16294.08
825.535	16222.89
825.862	16250.24
826.189	16281.65
826.516	16350.35
826.843	16353.51
827.17	16313.96
827.497	16293.63
827.824	16303.57
828.151	16353.06
828.478	16309.67
828.805	16390.35
829.131	16230.12
829.458	16290.46
829.785	16099.05
830.111	16341.76
830.438	16381.08
830.764	16338.37
831.09	16279.39
831.417	16180.18
831.743	16197.36
832.069	16421.53
832.395	16207.98
832.722	16243.91
833.048	16205.27
833.374	16208.66
833.7	16163.23
834.026	16168.88
834.351	16185.61
834.677	16179.28
835.003	16188.32
835.329	16186.51
835.654	16061.31
835.98	16067.87
836.306	16056.57
836.631	15961.88
836.956	16096.57
837.282	16094.08
837.607	15947.42
837.932	15847.08
838.258	15939.96
838.583	15857.48
838.908	15769.57
839.233	15838.04
839.558	15757.14
839.883	15808.44
840.208	15681.21
840.533	15698.39
840.858	15688.44
841.182	15674.88
841.507	15599.18
841.832	15568.67
842.156	15578.39
842.481	15496.13
842.805	15456.81
843.13	15502.23
843.454	15486.41
843.778	15293.2
844.103	15333.2
844.427	15325.29
844.751	15340.66
845.075	15346.08
845.399	15258.4
845.723	15130.94
846.047	15170.94
846.371	15043.04
846.695	15019.31
847.019	14980.89
847.343	14871.97
847.666	14814.12
847.99	14751.97
848.313	14767.56
848.637	14632.2
848.96	14546.1
849.284	14516.04
849.607	14344.52
849.931	14392.66
850.254	14356.5
850.577	14282.38
850.9	14168.26
851.223	14257.29
851.546	14099.78
851.869	14006.45
852.192	14047.81
852.515	13899.34
852.838	13825.67
853.161	13834.93
853.483	13834.03
853.806	13783.63
854.129	13755.84
854.451	13655.05
854.774	13650.76
855.096	13614.37
855.419	13537.77
855.741	13566.01
856.063	13464.77
856.385	13420.48
856.708	13397.88
857.03	13318.79
857.352	13338.9
857.674	13262.29
857.996	13200.37
858.318	13127.15
858.64	13145.46
858.961	13137.78
859.283	13041.28
859.605	12973.94
859.926	13023.43
860.248	13061.85
860.57	12957.22
860.891	12983.2
861.212	12882.42
861.534	12862.08
861.855	12800.16
862.176	12720.16
862.498	12780.05
862.819	12759.71
863.14	12710.22
863.461	12682.42
863.782	12662.31
864.103	12677.68
864.424	12666.6
864.745	12650.56
865.065	12593.61
865.386	12449.21
865.707	12462.77
866.027	12460.96
866.348	12468.42
866.668	12421.64
866.989	12457.57
867.309	12327.18
867.63	12434.97
867.95	12468.42
868.27	12359.04
868.59	12375.99
868.91	12327.85
869.23	12227.07
869.55	12196.11
869.87	12273.84
870.19	12207.18
870.51	12269.55
870.83	12206.05
871.15	12081.98
871.469	12160.17
871.789	12207.18
872.109	12151.14
872.428	11975.77
872.748	12053.28
873.067	12059.61
873.386	12002.66
873.706	12001.53
874.025	11947.52
874.344	11912.27
874.663	11945.27
874.982	11919.73
875.301	11887.87
875.62	11896.9
875.939	11809.9
876.258	11983
876.577	11762.9
876.896	11846.28
877.214	11736.68
877.533	11694.42
877.852	11671.6
878.17	11761.54
878.489	11749.34
878.807	11729.23
879.125	11648.1
879.444	11689.23
879.762	11488.33
880.08	11612.17
880.398	11580.53
880.716	11529
881.034	11524.26
881.352	11554.54
881.67	11463.92
881.988	11410.14
882.306	11442.45
882.624	11435.22
882.941	11285.17
883.259	11275.45
883.577	11259.18
883.894	11250.14
884.212	11310.48
884.529	11267.32
884.846	11239.29
885.164	11327.65
885.481	11196.81
885.798	11224.38
886.115	11021.67
886.432	11112.52
886.75	11090.82
887.067	11102.35
887.383	11016.48
887.7	11077.27
888.017	10952.75
888.334	10993.43
888.651	10918.17
888.967	10927.89
889.284	10857.16
889.6	10943.71
889.917	10731.74
890.233	10776.93
890.55	10753.43
890.866	10753.43
891.182	10624.17
891.498	10616.71
891.815	10619.42
892.131	10596.83
892.447	10500.11
892.763	10516.38
893.079	10552.99
893.395	10410.84
893.71	10422.59
894.026	10405.42
894.342	10371.52
894.657	10334.23
894.973	10239.32
895.289	10252.43
895.604	10267.79
895.92	10083.85
896.235	10081.81
896.55	10112.09
896.865	10093.34
897.181	10027.12
897.496	9968.59
897.811	9955.49
898.126	9978.09
898.441	9920.91
898.756	9905.54
899.071	9828.26
899.386	9801.37
899.7	9742.61
900.015	9694.25
900.33	9618.09
900.644	9636.63
900.959	9659.68
901.273	9646.34
901.588	9470.3
901.902	9475.27
902.216	9503.3
902.531	9466.91
902.845	9435.73
903.159	9320.7
903.473	9332
903.787	9258.1
904.101	9216.98
904.415	9227.6
904.729	9192.57
905.042	9143.53
905.356	9130.42
905.67	9101.05
905.984	9102.85
906.297	9054.95
906.611	8929.3
906.924	8991.22
907.237	8983.53
907.551	8899.02
907.864	8916.64
908.177	8838
908.491	8815.63
908.804	8816.53
909.117	8717.78
909.43	8647.72
909.743	8631.91
910.056	8578.8
910.368	8570.89
910.681	8544.45
910.994	8520.72
911.307	8443.21
911.619	8440.95
911.932	8389.2
912.244	8352.82
912.557	8313.72
912.869	8225.36
913.181	8242.54
913.494	8294.06
913.806	8173.39
914.118	8139.49
914.43	8097
914.742	8058.14
915.054	8054.97
915.366	8027.63
915.678	8018.59
915.99	7936.1
916.302	7856.33
916.613	7881.19
916.925	7845.94
917.236	7848.88
917.548	7791.25
917.859	7792.61
918.171	7683.68
918.482	7647.75
918.794	7628.32
919.105	7695.66
919.416	7554.87
919.727	7630.35
920.038	7565.95
920.349	7477.59
920.66	7464.25
920.971	7465.16
921.282	7456.12
921.593	7352.17
921.903	7365.72
922.214	7321.21
922.525	7212.73
922.835	7273.52
923.146	7213.41
923.456	7188.55
923.767	7129.57
924.077	7183.36
924.387	7120.31
924.697	7054.32
925.008	7048.22
925.318	6934.32
925.628	6987.2
925.938	6995.34
926.248	6932.52
926.558	6880.99
926.867	6921.44
927.177	6840.99
927.487	6827.66
927.796	6756.02
928.106	6748.57
928.416	6741.56
928.725	6765.06
929.034	6655.01
929.344	6697.49
929.653	6629.47
929.962	6608
930.271	6539.76
930.581	6538.85
930.89	6534.33
931.199	6403.94
931.508	6464.28
931.817	6479.42
932.125	6392.42
932.434	6429.03
932.743	6386.32
933.051	6309.03
933.36	6317.62
933.669	6274
933.977	6241.01
934.286	6191.07
934.594	6197.85
934.902	6146.1
935.21	6090.96
935.519	6184.74
935.827	6083.95
936.135	6042.6
936.443	6055.93
936.751	6009.83
937.059	5994.91
937.367	5997.85
937.674	5946.55
937.982	5919.66
938.29	5922.15
938.597	5936.84
938.905	5809.83
939.213	5792.88
939.52	5805.54
939.827	5756.95
940.135	5759.66
940.442	5730.29
940.749	5661.14
941.056	5659.55
941.363	5614.13
941.67	5608.48
941.977	5596.05
942.284	5580.46
942.591	5516.51
942.898	5527.13
943.205	5510.86
943.511	5451.2
943.818	5471.76
944.125	5394.02
944.431	5411.43
944.738	5369.62
945.044	5356.06
945.35	5307.7
945.657	5275.38
945.963	5255.95
946.269	5245.78
946.575	5236.06
946.881	5233.58
947.187	5196.06
947.493	5167.82
947.799	5125.11
948.105	5114.03
948.41	5076.29
948.716	5077.2
949.022	5049.18
949.327	5052.34
949.633	5007.14
949.938	5014.15
950.244	4966.01
950.549	4979.57
950.854	4942.06
951.16	4921.04
951.465	4868.16
951.77	4859.12
952.075	4845.34
952.38	4812.8
952.685	4780.71
952.99	4752.01
953.294	4740.26
953.599	4725.12
953.904	4704.1
954.209	4681.5
954.513	4697.32
954.818	4621.62
955.122	4612.12
955.426	4634.5
955.731	4591.79
956.035	4563.09
956.339	4596.98
956.643	4556.53
956.948	4503.88
957.252	4504.33
957.556	4491.45
957.86	4452.58
958.163	4458
958.467	4383.43
958.771	4393.37
959.075	4398.8
959.378	4351.34
959.682	4333.26
959.985	4288.07
960.289	4302.75
960.592	4286.48
960.896	4238.57
961.199	4263.21
961.502	4251
961.805	4208.07
962.108	4172.59
962.411	4140.5
962.714	4186.82
963.017	4087.17
963.32	4131.01
963.623	4113.83
963.926	4104.34
964.228	4081.29
964.531	4028.19
964.833	4053.04
965.136	4020.73
965.438	3977.79
965.741	3961.97
966.043	3962.88
966.345	3972.37
966.648	3967.4
966.95	3935.98
967.252	3895.31
967.554	3853.73
967.856	3874.97
968.158	3837
968.46	3846.49
968.761	3792.71
969.063	3840.62
969.365	3775.76
969.666	3747.29
969.968	3723.33
970.269	3761.98
970.571	3696.22
970.872	3676.33
971.174	3699.61
971.475	3663
971.776	3680.85
972.077	3632.26
972.378	3603.79
972.679	3627.52
972.98	3584.13
973.281	3550.68
973.582	3581.19
973.883	3524.7
974.183	3512.49
974.484	3522.21
974.785	3517.24
975.085	3469.33
975.386	3493.74
975.686	3433.62
975.986	3411.25
976.287	3451.93
976.587	3364.25
976.887	3363.8
977.187	3364.02
977.487	3326.96
977.787	3345.94
978.087	3336.23
978.387	3315.66
978.687	3300.29
978.987	3284.48
979.286	3243.8
979.586	3272.5
979.885	3258.94
980.185	3210.58
980.484	3224.59
980.784	3184.82
981.083	3168.09
981.382	3151.37
981.682	3108.89
981.981	3124.93
982.28	3098.27
982.579	3070.92
982.878	3091.71
983.177	3045.16
983.475	3066.63
983.774	3042.9
984.073	3044.71
984.372	2984.6
984.67	2977.82
984.969	2988.44
985.267	3012.39
985.566	2950.7
985.864	2914.77
986.162	2933.52
986.461	2900.98
986.759	2923.13
987.057	2889.91
987.355	2874.54
987.653	2851.49
987.951	2863.7
988.249	2833.41
988.547	2863.92
988.844	2813.75
989.142	2832.51
989.44	2827.31
989.737	2786.64
990.035	2755.45
990.332	2731.27
990.63	2739.41
990.927	2711.61
991.224	2731.27
991.521	2740.54
991.819	2664.15
992.116	2660.76
992.413	2682.01
992.71	2673.64
993.006	2651.27
993.303	2597.26
993.6	2619.41
993.897	2603.14
994.193	2606.3
994.49	2575.79
994.787	2589.8
995.083	2559.3
995.379	2525.85
995.676	2555.46
995.972	2513.42
996.268	2490.82
996.565	2520.88
996.861	2490.15
997.157	2477.04
997.453	2428.45
997.749	2435.68
998.044	2425.52
998.34	2404.05
998.636	2392.75
998.932	2399.3
999.227	2385.97
999.523	2356.14
999.818	2362.69
1000.114	2311.39
1000.409	2326.99
1000.704	2318.17
1001	2318.85
1001.295	2284.05
1001.59	2259.42
1001.885	2268.23
1002.18	2266.65
1002.475	2253.77
1002.77	2204.5
1003.065	2200.89
1003.359	2227.1
1003.654	2195.46
1003.949	2174.22
1004.243	2152.53
1004.538	2144.17
1004.832	2136.03
1005.127	2145.52
1005.421	2119.31
1005.715	2117.5
1006.009	2126.99
1006.304	2081.8
1006.598	2082.25
1006.892	2045.86
1007.186	2077.05
1007.48	2039.54
1007.773	2008.58
1008.067	2030.27
1008.361	1988.69
1008.655	1971.29
1008.948	1959.54
1009.242	1997.28
1009.535	1983.04
1009.829	1938.52
1010.122	1916.38
1010.415	1914.12
1010.708	1950.27
1011.001	1875.47
1011.295	1894.91
1011.588	1878.64
1011.881	1841.8
1012.173	1843.16
1012.466	1825.08
1012.759	1830.5
1013.052	1827.79
1013.344	1833.89
1013.637	1805.42
1013.93	1807.23
1014.222	1781.92
1014.514	1777.4
1014.807	1765.65
1015.099	1737.62
1015.391	1767
1015.683	1713.44
1015.976	1702.6
1016.268	1710.05
1016.56	1674.12
1016.851	1681.58
1017.143	1657.85
1017.435	1631.41
1017.727	1636.84
1018.018	1636.84
1018.31	1618.3
1018.602	1661.69
1018.893	1596.61
1019.185	1589.15
1019.476	1578.31
1019.767	1597.97
1020.058	1546.89
1020.35	1579.44
1020.641	1572.43
1020.932	1546.67
1021.223	1531.75
1021.514	1529.04
1021.804	1491.08
1022.095	1466.44
1022.386	1497.18
1022.677	1491.08
1022.967	1460.79
1023.258	1458.76
1023.548	1430.29
1023.839	1444.3
1024.129	1435.94
1024.419	1438.87
1024.709	1405.66
1025	1425.99
1025.29	1400.68
1025.58	1371.08
1025.87	1343.06
1026.16	1372.66
1026.449	1374.24
1026.739	1374.24
1027.029	1335.83
1027.319	1330.85
1027.608	1330.4
1027.898	1295.83
1028.187	1313.45
1028.477	1273
1028.766	1307.8
1029.055	1261.48
1029.344	1249.95
1029.634	1227.58
1029.923	1264.42
1030.212	1228.71
1030.501	1231.42
1030.79	1233.46
1031.078	1231.42
1031.367	1202.72
1031.656	1177.19
1031.945	1177.64
1032.233	1158.2
1032.522	1175.15
1032.81	1173.34
1033.099	1164.31
1033.387	1174.47
1033.675	1118.21
1033.963	1144.87
1034.251	1170.86
1034.54	1126.57
1034.828	1111.88
1035.116	1110.75
1035.403	1117.3
1035.691	1104.19
1035.979	1112.1
1036.267	1083.63
1036.554	1080.24
1036.842	1063.74
1037.129	1052.44
1037.417	1048.6
1037.704	1053.8
1037.992	1047.92
1038.279	1029.62
1038.566	1050.64
1038.853	1050.64
1039.14	1050.64
