Data from hue_150_FLMS001491_00057.txt Node
Date: Tue Feb 07 16:54:14 GMT 2017
User: dcchb
Spectrometer: FLMS00149
Trigger mode: 0
Integration Time (sec): 2.000000E-2
Scans to average: 10
Electric dark correction enabled: true
Nonlinearity correction enabled: false
Boxcar width: 0
XAxis mode: Wavelengths
Number of Pixels in Spectrum: 2048
>>>>>Begin Spectral Data<<<<<
341.393	-15.07
341.776	-15.07
342.16	-15.07
342.543	-65.46
342.927	-85.58
343.31	-83.09
343.693	-77.44
344.077	-57.33
344.46	-73.6
344.843	-56.43
345.226	-39.25
345.61	-25.24
345.993	-7.84
346.376	-10.32
346.759	5.04
347.142	32.16
347.525	49.79
347.908	66.74
348.291	68.32
348.674	88.66
349.057	119.84
349.44	129.11
349.823	132.72
350.206	158.48
350.588	189.9
350.971	206.39
351.354	217.47
351.737	234.19
352.119	247.97
352.502	278.71
352.884	292.04
353.267	271.02
353.65	294.3
354.032	281.65
354.414	299.95
354.797	312.83
355.179	336.78
355.562	325.71
355.944	355.77
356.326	320.29
356.709	316.45
357.091	338.59
357.473	334.75
357.855	340.17
358.238	320.29
358.62	332.94
359.002	333.85
359.384	327.29
359.766	324.81
360.148	334.53
360.53	332.72
360.912	344.69
361.294	345.82
361.676	324.58
362.057	328.88
362.439	334.07
362.821	324.13
363.203	297.92
363.584	330.46
363.966	316.45
364.348	318.71
364.729	346.05
365.111	298.14
365.493	325.03
365.874	320.06
366.256	298.14
366.637	286.39
367.019	315.99
367.4	299.72
367.781	308.99
368.163	325.49
368.544	320.74
368.925	311.93
369.306	341.3
369.688	298.37
370.069	297.46
370.45	297.46
370.831	296.11
371.212	306.96
371.593	306.73
371.974	297.01
372.355	340.4
372.736	305.6
373.117	306.73
373.498	316.67
373.879	298.37
374.26	319.38
374.641	320.06
375.021	319.84
375.402	310.57
375.783	323
376.163	316.45
376.544	306.96
376.925	311.7
377.305	328.42
377.686	318.71
378.066	327.97
378.447	322.77
378.827	306.5
379.208	315.54
379.588	320.97
379.968	313.06
380.349	335.43
380.729	326.39
381.109	350.57
381.489	318.03
381.87	343.34
382.25	337.24
382.63	339.5
383.01	341.08
383.39	324.36
383.77	339.72
384.15	322.55
384.53	343.79
384.91	340.4
385.29	342.21
385.67	347.41
386.049	356.22
386.429	346.28
386.809	353.73
387.189	366.16
387.568	341.53
387.948	359.84
388.328	352.38
388.707	359.84
389.087	350.8
389.466	352.15
389.846	364.58
390.225	364.13
390.605	352.83
390.984	355.99
391.363	339.5
391.743	347.86
392.122	374.98
392.501	367.97
392.881	381.53
393.26	360.97
393.639	359.61
394.018	370.23
394.397	373.85
394.776	356.67
395.155	387.41
395.534	394.64
395.913	386.28
396.292	381.76
396.671	377.69
397.05	401.19
397.429	388.31
397.808	369.55
398.186	386.28
398.565	401.64
398.944	394.41
399.323	397.35
399.701	382.66
400.08	399.16
400.458	392.38
400.837	375.65
401.215	410.68
401.594	375.2
401.972	415.2
402.351	413.17
402.729	436.9
403.107	424.24
403.486	415.88
403.864	425.37
404.242	406.61
404.62	407.52
404.999	420.17
405.377	433.51
405.755	418.82
406.133	413.17
406.511	396.9
406.889	420.17
407.267	452.49
407.645	420.17
408.023	431.7
408.401	439.61
408.779	424.92
409.156	436.9
409.534	431.47
409.912	421.3
410.29	448.65
410.667	467.63
411.045	450
411.422	454.75
411.8	455.65
412.178	451.81
412.555	471.92
412.933	473.5
413.31	458.59
413.687	482.09
414.065	475.09
414.442	483.9
414.819	472.37
415.197	490
415.574	490.45
415.951	477.57
416.328	496.1
416.705	464.92
417.082	498.81
417.46	464.92
417.837	494.07
418.214	516.22
418.591	493.62
418.967	509.44
419.344	520.96
419.721	537.23
420.098	517.35
420.475	514.41
420.852	514.41
421.228	527.29
421.605	540.17
421.982	534.07
422.358	541.3
422.735	526.61
423.111	544.01
423.488	534.29
423.864	544.92
424.241	566.61
424.617	544.92
424.994	552.6
425.37	548.3
425.746	560.96
426.123	578.81
426.499	559.38
426.875	562.54
427.251	592.6
427.627	571.58
428.003	596.44
428.379	580.62
428.756	630.34
429.132	613.61
429.507	621.98
429.883	616.1
430.259	626.27
430.635	618.81
431.011	622.43
431.387	642.77
431.763	644.8
432.138	638.47
432.514	640.05
432.89	672.37
433.265	659.04
433.641	675.53
434.016	666.49
434.392	677.57
434.767	688.64
435.143	680.5
435.518	688.64
435.894	694.29
436.269	709.66
436.644	727.96
437.02	703.78
437.395	706.94
437.77	720.73
438.145	726.61
438.52	748.98
438.895	757.11
439.271	756.66
439.646	775.42
440.021	770.9
440.395	748.75
440.77	781.52
441.145	787.39
441.52	765.93
441.895	779.03
442.27	791.46
442.645	798.24
443.019	809.54
443.394	819.03
443.769	813.83
444.143	796.21
444.518	832.82
444.892	832.59
445.267	838.92
445.641	835.75
446.016	819.94
446.39	839.14
446.764	824.91
447.139	859.94
447.513	872.14
447.887	863.1
448.262	883.44
448.636	868.52
449.01	862.65
449.384	872.14
449.758	906.71
450.132	896.54
450.506	921.63
450.88	937.67
451.254	937.22
451.628	924.79
452.002	917.33
452.376	960.27
452.75	963.89
453.123	985.13
453.497	975.19
453.871	934.96
454.244	994.85
454.618	1024.9
454.992	1022.42
455.365	1011.34
455.739	1046.37
456.112	1027.61
456.486	1077.1
456.859	1054.51
457.232	1063.55
457.606	1059.03
457.979	1080.95
458.352	1097.89
458.725	1118.46
459.099	1142.41
459.472	1156.2
459.845	1173.37
460.218	1195.52
460.591	1177.89
460.964	1191.68
461.337	1215.86
461.71	1220.83
462.083	1233.94
462.456	1234.16
462.829	1270.09
463.201	1289.75
463.574	1320.04
463.947	1321.39
464.32	1343.54
464.692	1364.78
465.065	1401.16
465.438	1334.5
465.81	1396.19
466.183	1402.29
466.555	1465.79
466.928	1472.35
467.3	1493.82
467.672	1488.39
468.045	1556.87
468.417	1546.92
468.789	1579.24
469.161	1602.06
469.534	1624.89
469.906	1666.92
470.278	1671.21
470.65	1721.38
471.022	1732.45
471.394	1793.7
471.766	1820.14
472.138	1825.79
472.51	1902.85
472.882	1942.62
473.253	1953.24
473.625	2020.81
473.997	2041.37
474.369	2103.74
474.74	2074.82
475.112	2134.03
475.484	2169.28
475.855	2282.5
476.227	2281.14
476.598	2350.52
476.97	2414.47
477.341	2486.78
477.713	2534.02
478.084	2579.89
478.455	2653.56
478.827	2712.09
479.198	2842.48
479.569	2845.19
479.94	2937.17
480.311	2990.95
480.682	3095.81
481.053	3240.66
481.424	3277.27
481.795	3389.36
482.166	3451.05
482.537	3535.34
482.908	3646.75
483.279	3699.86
483.65	3815.56
484.021	3942.34
484.391	4043.13
484.762	4133.75
485.133	4189.79
485.503	4360.18
485.874	4441.99
486.244	4541.87
486.615	4608.76
486.985	4793.16
487.356	4935.08
487.726	5020.5
488.097	5192.25
488.467	5269.76
488.837	5347.95
489.207	5492.13
489.578	5703.2
489.948	5807.6
490.318	5874.49
490.688	5984.09
491.058	6165.11
491.428	6285.78
491.798	6411.65
492.168	6595.6
492.538	6660.01
492.908	6776.39
493.278	6950.62
493.648	7008.02
494.017	7107.23
494.387	7266.77
494.757	7419.54
495.126	7540.66
495.496	7624.28
495.866	7728.68
496.235	7887.77
496.605	8013.65
496.974	8092.29
497.344	8256.8
497.713	8346.52
498.082	8479.85
498.452	8571.14
498.821	8588.55
499.19	8763.68
499.559	8862.66
499.928	8974.75
500.298	9100.62
500.667	9137.46
501.036	9248.19
501.405	9341.07
501.774	9412.25
502.143	9484.12
502.512	9517.33
502.88	9631.68
503.249	9765.24
503.618	9817.21
503.987	9884.1
504.356	9981.73
504.724	10028.51
505.093	10101.27
505.462	10175.4
505.83	10201.61
506.199	10423.53
506.567	10564.09
506.936	10418.1
507.304	10574.26
507.672	10664.65
508.041	10620.58
508.409	10793.69
508.777	10891.99
509.145	10971.08
509.514	10955.26
509.882	11037.52
510.25	11076.84
510.618	11081.81
510.986	11165.65
511.354	11246.78
511.722	11324.74
512.09	11368.13
512.458	11365.2
512.826	11448.58
513.193	11505.98
513.561	11546.21
513.929	11589.82
514.297	11735.81
514.664	11776.94
515.032	11669.37
515.4	11791.62
515.767	11854
516.135	11863.26
516.502	11750.95
516.869	11991.62
517.237	12043.82
517.604	11967.44
517.972	12147.1
518.339	12115.01
518.706	12180.09
519.073	12075.91
519.44	12173.76
519.808	12242.23
520.175	12238.39
520.542	12326.53
520.909	12293.53
521.276	12240.65
521.643	12399.97
522.009	12363.81
522.376	12517.48
522.743	12383.25
523.11	12456.24
523.477	12612.39
523.843	12606.52
524.21	12744.59
524.577	12737.81
524.943	12710.92
525.31	12801.77
525.676	12839.51
526.043	12813.74
526.409	12771.03
526.776	12940.07
527.142	12890.81
527.508	12851.26
527.874	12880.86
528.241	12913.4
528.607	12921.76
528.973	12966.74
529.339	12908.21
529.705	13052.61
530.071	13040.86
530.437	13119.5
530.803	13113.4
531.169	13044.93
531.535	12997.24
531.901	13026.17
532.267	12958.37
532.632	13063
532.998	12973.74
533.364	13027.75
533.73	12945.27
534.095	13041.31
534.461	12960.63
534.826	13009.22
535.192	12997.47
535.557	13017.81
535.923	12933.06
536.288	12971.48
536.653	12915.44
537.019	12896.91
537.384	12905.27
537.749	12917.47
538.114	12878.38
538.479	12767.42
538.845	12816.68
539.21	12662.79
539.575	12665.73
539.94	12706.63
540.305	12628.21
540.67	12637.7
541.034	12584.15
541.399	12656.69
541.764	12561.77
542.129	12565.39
542.494	12512.06
542.858	12477.26
543.223	12448.56
543.587	12446.07
543.952	12406.3
544.316	12398.16
544.681	12401.33
545.045	12327.88
545.41	12322.68
545.774	12330.82
546.138	12193.2
546.503	12171.5
546.867	12141.22
547.231	12199.98
547.595	12180.54
547.959	12107.55
548.324	12023.94
548.688	12039.53
549.052	11978.96
549.416	12127.66
549.779	11966.31
550.143	11930.83
550.507	11944.62
550.871	11902.58
551.235	11858.52
551.599	11902.58
551.962	11867.78
552.326	11801.57
552.689	11837.05
553.053	11703.49
553.417	11703.27
553.78	11774.68
554.143	11698.29
554.507	11706.2
554.87	11726.09
555.234	11741.68
555.597	11643.61
555.96	11548.02
556.323	11608.13
556.686	11565.87
557.05	11588.24
557.413	11534.91
557.776	11513.44
558.139	11633.44
558.502	11582.59
558.865	11570.39
559.228	11544.63
559.59	11577.17
559.953	11524.29
560.316	11674.34
560.679	11545.98
561.041	11622.59
561.404	11571.97
561.767	11641.35
562.129	11525.87
562.492	11634.79
562.854	11557.51
563.217	11586.66
563.579	11620.33
563.941	11596.6
564.304	11668.24
564.666	11597.05
565.028	11632.76
565.39	11582.14
565.753	11635.47
566.115	11612.42
566.477	11584.17
566.839	11691.51
567.201	11710.27
567.563	11724.96
567.925	11761.12
568.287	11823.04
568.648	11829.36
569.01	11786.65
569.372	11842.25
569.734	11715.92
570.095	11791.85
570.457	11801.79
570.819	11816.03
571.18	11801.57
571.542	11880.44
571.903	11840.89
572.265	11945.29
572.626	11923.6
572.987	11921.11
573.349	11962.02
573.71	11875.46
574.071	11980.77
574.432	11886.09
574.794	12047.21
575.155	12014.9
575.516	12013.99
575.877	12031.39
576.238	11970.6
576.599	11964.95
576.96	11950.26
577.32	11929.47
577.681	12054.44
578.042	11928.12
578.403	12056.93
578.763	12004.5
579.124	11876.14
579.485	12037.72
579.845	12020.55
580.206	11950.04
580.566	11985.07
580.927	11916.37
581.287	11951.85
581.648	11952.52
582.008	11968.12
582.368	11917.05
582.728	11998.4
583.089	12006.76
583.449	11953.2
583.809	11897.16
584.169	12017.38
584.529	11970.6
584.889	12030.26
585.249	11967.21
585.609	11850.61
585.969	11973.09
586.329	11959.08
586.688	11909.59
587.048	11831.62
587.408	11797.95
587.768	11845.41
588.127	11858.97
588.487	11874.33
588.846	11920.44
589.206	11816.71
589.565	11804.05
589.925	11863.94
590.284	11826.65
590.643	11788.91
591.003	11812.87
591.362	11908.91
591.721	11883.6
592.08	11830.95
592.44	11803.83
592.799	11790.27
593.158	11797.27
593.517	11778.97
593.876	11763.6
594.235	11785.07
594.593	11709.82
594.952	11762.47
595.311	11796.6
595.67	11766.09
596.029	11835.47
596.387	11725.86
596.746	11827.56
597.104	11765.41
597.463	11693.1
597.822	11756.6
598.18	11726.77
598.538	11731.97
598.897	11771.06
599.255	11664.85
599.613	11820.1
599.972	11739.42
600.33	11758.63
600.688	11772.19
601.046	11729.71
601.404	11787.78
601.762	11757.95
602.12	11791.4
602.478	11800.44
602.836	11798.86
603.194	11691.29
603.552	11766.31
603.91	11663.72
604.268	11783.94
604.625	11678.86
604.983	11786.43
605.341	11672.76
605.698	11716.82
606.056	11737.84
606.413	11758.41
606.771	11827.56
607.128	11759.76
607.485	11764.73
607.843	11799.08
608.2	11761.8
608.557	11776.48
608.914	11740.1
609.272	11767.22
609.629	11795.69
609.986	11938.06
610.343	11777.84
610.7	11908.23
611.057	11874.33
611.414	11885.63
611.771	11891.28
612.127	11969.02
612.484	11914.56
612.841	11929.02
613.198	11924.28
613.554	11859.19
613.911	11966.99
614.267	11879.76
614.624	11889.02
614.98	11993.2
615.337	11966.76
615.693	11939.64
616.05	11973.32
616.406	11988
616.762	11961.11
617.118	11957.27
617.475	12070.04
617.831	11994.33
618.187	12014.44
618.543	12006.99
618.899	12015.57
619.255	12018.51
619.611	12012.64
619.967	12114.78
620.323	12136.25
620.678	11999.98
621.034	11954.56
621.39	12043.82
621.746	12002.92
622.101	12149.58
622.457	12033.65
622.812	12049.92
623.168	12145.51
623.523	12124.95
623.879	12176.47
624.234	11972.19
624.589	12075.46
624.945	12121.56
625.3	12183.48
625.655	12033.88
626.01	12058.74
626.365	12125.18
626.72	12064.39
627.075	12100.54
627.43	12083.59
627.785	12065.52
628.14	12009.02
628.495	12046.76
628.85	12001.34
629.205	12018.51
629.559	12055.12
629.914	12055.57
630.269	12002.24
630.623	11988
630.978	11934.67
631.332	12058.06
631.687	12077.95
632.041	11978.74
632.396	11930.83
632.75	11916.82
633.104	11940.77
633.459	11866.43
633.813	11984.84
634.167	11891.28
634.521	11905.07
634.875	11929.47
635.229	11903.94
635.583	11880.66
635.937	11843.6
636.291	11913.2
636.645	11689.25
636.999	11774.22
637.352	11782.59
637.706	11699.2
638.06	11766.54
638.413	11739.65
638.767	11657.84
639.121	11715.69
639.474	11671.63
639.828	11652.42
640.181	11618.97
640.534	11724.73
640.888	11537.85
641.241	11604.96
641.594	11540.78
641.947	11594.57
642.301	11557.96
642.654	11599.99
643.007	11537.85
643.36	11575.81
643.713	11608.8
644.066	11571.97
644.419	11507.34
644.771	11399.32
645.124	11322.71
645.477	11353.9
645.83	11265.76
646.182	11223.28
646.535	11227.57
646.888	11261.92
647.24	11135.82
647.593	11194.8
647.945	11164.97
648.298	11132.21
648.65	11111.87
649.002	11100.8
649.355	11183.05
649.707	11146.67
650.059	11223.28
650.411	11292.88
650.763	11280.45
651.115	11428.24
651.467	11303.05
651.819	11390.73
652.171	11358.19
652.523	11426.89
652.875	11360
653.227	11379.43
653.578	11463.5
653.93	11437.96
654.282	11237.52
654.633	11345.08
654.985	11334.24
655.337	11366.33
655.688	11457.62
656.039	11476.38
656.391	11305.31
656.742	11382.82
657.094	11375.82
657.445	11405.42
657.796	11394.57
658.147	11347.57
658.498	11342.6
658.849	11433.67
659.2	11386.21
659.551	11396.38
659.902	11361.58
660.253	11392.31
660.604	11423.05
660.955	11368.81
661.306	11414.01
661.656	11432.76
662.007	11433.44
662.358	11403.16
662.708	11336.5
663.059	11494.46
663.409	11361.58
663.76	11445.87
664.11	11401.35
664.461	11463.05
664.811	11417.85
665.161	11434.57
665.511	11438.87
665.862	11411.52
666.212	11440.67
666.562	11501.92
666.912	11408.36
667.262	11479.99
667.612	11444.06
667.962	11444.52
668.312	11429.83
668.662	11531.07
669.011	11398.64
669.361	11394.8
669.711	11375.59
670.06	11367.91
670.41	11406.78
670.76	11358.87
671.109	11456.49
671.459	11395.48
671.808	11363.39
672.157	11405.65
672.507	11366.55
672.856	11358.64
673.205	11341.02
673.554	11368.81
673.904	11254.24
674.253	11334.24
674.602	11317.29
674.951	11176.73
675.3	11038.42
675.649	11257.18
675.998	11247.23
676.346	11257.4
676.695	11294.91
677.044	11173.79
677.393	11201.13
677.741	11203.84
678.09	11164.75
678.438	11202.49
678.787	11227.8
679.135	11216.95
679.484	11111.64
679.832	11150.74
680.181	11087.24
680.529	11074.81
680.877	11072.77
681.225	11066.45
681.573	11141.02
681.922	11005.88
682.27	10973.34
682.618	10970.86
682.966	10961.82
683.314	10955.26
683.661	10934.02
684.009	10817.19
684.357	10842.5
684.705	10870.07
685.053	10817.64
685.4	10842.05
685.748	10767.25
686.095	10736.96
686.443	10675.04
686.79	10693.35
687.138	10728.38
687.485	10687.93
687.832	10654.25
688.18	10708.26
688.527	10552.34
688.874	10608.61
689.221	10595.27
689.568	10527.25
689.915	10489.74
690.262	10473.24
690.609	10444.32
690.956	10439.57
691.303	10460.59
691.65	10345.56
691.997	10326.35
692.344	10321.38
692.69	10290.87
693.037	10366.35
693.383	10185.79
693.73	10234.6
694.077	10147.83
694.423	10105.34
694.769	10070.77
695.116	10028.96
695.462	9993.71
695.808	10003.2
696.155	10002.07
696.501	9915.29
696.847	9949.19
697.193	9843.2
697.539	9867.83
697.885	9858.34
698.231	9736.54
698.577	9762.98
698.923	9656.31
699.269	9654.28
699.614	9620.83
699.96	9615.64
700.306	9537.45
700.651	9520.95
700.997	9468.75
701.342	9470.78
701.688	9434.17
702.033	9389.2
702.379	9418.81
702.724	9339.49
703.069	9352.14
703.415	9250.67
703.76	9299.04
704.105	9259.26
704.45	9186.04
704.795	9154.86
705.14	9198.02
705.485	9135.2
705.83	9046.61
706.175	9103.11
706.52	9059.27
706.865	9003.22
707.209	8987.63
707.554	8954.86
707.899	8898.59
708.243	8897.46
708.588	8847.75
708.932	8809.1
709.277	8837.35
709.621	8838.71
709.966	8718.94
710.31	8769.78
710.654	8624.93
710.998	8682.78
711.342	8687.53
711.687	8672.61
712.031	8584.7
712.375	8588.77
712.719	8645.94
713.063	8625.61
713.407	8564.14
713.75	8548.55
714.094	8510.58
714.438	8566.17
714.782	8509.45
715.125	8408.89
715.469	8509.9
715.812	8448.44
716.156	8390.81
716.499	8347.87
716.843	8403.01
717.186	8313.07
717.53	8355.78
717.873	8324.15
718.216	8335.22
718.559	8283.69
718.902	8310.81
719.246	8250.02
719.589	8274.2
719.932	8257.71
720.275	8307.2
720.617	8226.07
720.96	8187.2
721.303	8193.53
721.646	8224.26
721.989	8205.73
722.331	8256.8
722.674	8213.64
723.016	8272.62
723.359	8193.3
723.701	8224.94
724.044	8145.17
724.386	8153.75
724.729	8187.88
725.071	8085.96
725.413	8159.63
725.755	8146.3
726.097	8147.88
726.439	8070.59
726.782	8123.02
727.124	8131.83
727.465	8127.99
727.807	8084.15
728.149	8097.26
728.491	8101.1
728.833	8034.89
729.175	8012.97
729.516	8029.24
729.858	8031.5
730.199	8121.21
730.541	8067.2
730.882	8031.27
731.224	8120.99
731.565	8068.56
731.906	8032.18
732.248	7959.18
732.589	8009.35
732.93	7964.15
733.271	7981.33
733.612	7988.11
733.953	8037.37
734.294	7953.53
734.635	7942.69
734.976	7971.84
735.317	7984.04
735.658	7971.16
735.999	7988.34
736.339	8015.68
736.68	8005.51
737.021	8029.69
737.361	7976.13
737.702	8049.35
738.042	8010.71
738.383	8007.32
738.723	8037.6
739.063	8028.79
739.404	8066.3
739.744	8073.08
740.084	8088.9
740.424	8118.05
740.764	8041.44
741.104	8115.56
741.444	8093.87
741.784	8119.41
742.124	8146.98
742.464	8149.91
742.804	8160.08
743.143	8116.02
743.483	8183.58
743.823	8238.05
744.162	8242.11
744.502	8243.24
744.841	8249.12
745.181	8327.08
745.52	8382.68
745.86	8383.13
746.199	8412.96
746.538	8381.77
746.877	8479.17
747.216	8532.95
747.556	8585.61
747.895	8590.35
748.234	8604.14
748.573	8669.22
748.911	8707.41
749.25	8753.96
749.589	8760.74
749.928	8886.16
750.267	9024.47
750.605	9038.25
750.944	9047.29
751.283	9079.38
751.621	9169.1
751.96	9274.85
752.298	9330.67
752.636	9459.71
752.975	9536.77
753.313	9564.34
753.651	9752.13
753.989	9757.1
754.327	9890.66
754.666	10023.08
755.004	10049.98
755.342	10161.61
755.679	10319.57
756.017	10408.38
756.355	10651.09
756.693	10588.49
757.031	10832.55
757.368	10920.69
757.706	11067.12
758.044	11107.12
758.381	11372.65
758.719	11438.19
759.056	11661.91
759.394	11824.17
759.731	11924.28
760.068	12114.1
760.405	12116.59
760.743	12284.49
761.08	12557.93
761.417	12721.32
761.754	12802.45
762.091	12959.05
762.428	13136.9
762.765	13270.91
763.102	13394.52
763.438	13519.72
763.775	13662.54
764.112	13852.36
764.449	14051.45
764.785	14174.39
765.122	14231.56
765.458	14389.07
765.795	14520.82
766.131	14745.9
766.467	14830.19
766.804	14872.9
767.14	15124.87
767.476	15185.89
767.812	15169.39
768.148	15514.24
768.485	15442.38
768.821	15591.07
769.157	15756.94
769.492	15917.17
769.828	16021.57
770.164	15984.96
770.5	16096.14
770.836	16315.57
771.171	16372.75
771.507	16429.02
771.842	16497.94
772.178	16559.86
772.513	16690.71
772.849	16775.22
773.184	16703.59
773.519	16938.38
773.855	16954.2
774.19	16957.36
774.525	17059.74
774.86	17154.42
775.195	17265.61
775.53	17197.58
775.865	17233.29
776.2	17258.83
776.535	17277.36
776.87	17341.31
777.205	17400.52
777.539	17430.8
777.874	17599.61
778.209	17489.55
778.543	17608.65
778.878	17580.85
779.212	17649.55
779.547	17517.8
779.881	17617.69
780.215	17534.75
780.55	17649.78
780.884	17637.57
781.218	17655.65
781.552	17674.41
781.886	17673.5
782.22	17671.47
782.554	17517.35
782.888	17525.94
783.222	17442.55
783.556	17548.99
783.889	17601.19
784.223	17403.45
784.557	17510.8
784.89	17541.98
785.224	17466.05
785.557	17399.84
785.891	17372.95
786.224	17347.64
786.558	17465.37
786.891	17320.29
787.224	17259.96
787.557	17245.72
787.891	17271.03
788.224	17346.51
788.557	17312.84
788.89	17307.41
789.223	17253.63
789.556	17182.44
789.888	17113.52
790.221	17169.11
790.554	17025.39
790.887	17143.57
791.219	17018.15
791.552	17090.47
791.884	16926.41
792.217	16927.99
792.549	16972.05
792.882	16862.23
793.214	16780.19
793.546	16873.3
793.879	16692.51
794.211	16620.42
794.543	16800.53
794.875	16711.04
795.207	16724.15
795.539	16659.29
795.871	16653.42
796.203	16548.11
796.535	16511.5
796.867	16470.37
797.198	16425.85
797.53	16469.69
797.862	16316.7
798.193	16399.41
798.525	16284.84
798.856	16311.96
799.188	16127.78
799.519	16098.4
799.85	16057.95
800.182	16137.5
800.513	16057.05
800.844	15895.02
801.175	16026.99
801.506	15945.64
801.837	15887.56
802.168	15901.12
802.499	15877.85
802.83	15825.42
803.161	15773.44
803.491	15805.08
803.822	15776.83
804.153	15702.26
804.483	15527.12
804.814	15520.34
805.145	15492.54
805.475	15461.13
805.805	15337.07
806.136	15420.91
806.466	15516.05
806.796	15406.45
807.126	15347.92
807.457	15324.64
807.787	15284.87
808.117	15213
808.447	15160.58
808.777	15203.06
809.107	15057.98
809.436	15112.67
809.766	15125.1
810.096	14969.85
810.426	15002.84
810.755	15024.76
811.085	14969.85
811.414	14981.6
811.744	14862.5
812.073	14830.19
812.403	14887.36
812.732	14682.62
813.061	14725.79
813.39	14599.69
813.719	14623.19
814.049	14743.86
814.378	14664.77
814.707	14633.13
815.036	14602.17
815.365	14492.12
815.693	14434.49
816.022	14468.84
816.351	14436.75
816.68	14385.68
817.008	14408.96
817.337	14256.42
817.665	14285.8
817.994	14334.61
818.322	14191.34
818.651	14196.31
818.979	14184.1
819.307	14291.22
819.636	14211.9
819.964	14082.86
820.292	14175.07
820.62	14143.2
820.948	14051.45
821.276	14193.14
821.604	14055.29
821.932	14165.57
822.259	14043.77
822.587	14048.97
822.915	14027.5
823.243	14133.48
823.57	13971.45
823.898	14119.02
824.225	14000.83
824.553	14027.72
824.88	14138.91
825.207	14088.06
825.535	14014.17
825.862	14097.78
826.189	14012.81
826.516	14112.69
826.843	14095.75
827.17	14161.05
827.497	14098.68
827.824	14103.65
828.151	14106.59
828.478	14165.12
828.805	14219.13
829.131	14100.26
829.458	14130.55
829.785	14091.45
830.111	14045.13
830.438	14091.23
830.764	14078.12
831.09	14076.76
831.417	13993.6
831.743	14079.93
832.069	14062.98
832.395	14051.68
832.722	14028.18
833.048	13902.53
833.374	14024.79
833.7	13997.44
834.026	13916.77
834.351	13978.91
834.677	13944.11
835.003	13986.82
835.329	13931.68
835.654	13965.81
835.98	13881.51
836.306	13935.07
836.631	13837.67
836.956	13905.47
837.282	13942.3
837.607	13865.47
837.932	13790.67
838.258	13808.52
838.583	13782.31
838.908	13697.34
839.233	13711.57
839.558	13660.05
839.883	13613.5
840.208	13634.06
840.533	13658.24
840.858	13733.04
841.182	13655.98
841.507	13480.62
841.832	13451.47
842.156	13459.15
842.481	13472.48
842.805	13357.01
843.13	13400.85
843.454	13429.55
843.778	13324.69
844.103	13328.08
844.427	13250.34
844.751	13272.26
845.075	13244.47
845.399	13185.71
845.723	13139.16
846.047	13091.93
846.371	13005.15
846.695	13035.89
847.019	12973.97
847.343	12884.93
847.666	12884.7
847.99	12700.98
848.313	12780.98
848.637	12732.84
848.96	12684.93
849.284	12635.44
849.607	12502.34
849.931	12556.58
850.254	12509.12
850.577	12364.94
850.9	12289.24
851.223	12246.08
851.546	12245.4
851.869	12188.22
852.192	12289.92
852.515	12049.47
852.838	12047.89
853.161	11950.72
853.483	12003.14
853.806	11969.7
854.129	11907.1
854.451	11869.59
854.774	11743.72
855.096	11731.29
855.419	11734.45
855.741	11678.86
856.063	11741.46
856.385	11602.03
856.708	11592.53
857.03	11473.67
857.352	11569.26
857.674	11445.65
857.996	11444.06
858.318	11432.99
858.64	11401.58
858.961	11316.16
859.283	11310.51
859.605	11293.56
859.926	11269.15
860.248	11255.59
860.57	11151.64
860.891	11138.31
861.212	11110.96
861.534	11117.29
861.855	11038.88
862.176	11096.28
862.498	11121.59
862.819	11044.98
863.14	11034.13
863.461	10997.3
863.782	10996.39
864.103	10989.84
864.424	10982.61
864.745	10964.75
865.065	10865.55
865.386	10849.73
865.707	10861.93
866.027	10866.23
866.348	10847.24
866.668	10876.62
866.989	10830.97
867.309	10764.31
867.63	10838.2
867.95	10709.62
868.27	10622.62
868.59	10706.68
868.91	10680.02
869.23	10637.76
869.55	10657.64
869.87	10660.36
870.19	10601.6
870.51	10670.52
870.83	10571.32
871.15	10592.79
871.469	10524.31
871.789	10542.62
872.109	10486.57
872.428	10423.3
872.748	10486.8
873.067	10434.37
873.386	10494.03
873.706	10432.11
874.025	10308.5
874.344	10427.14
874.663	10368.16
874.982	10320.48
875.301	10270.76
875.62	10291.33
875.939	10286.58
876.258	10273.47
876.577	10199.35
876.896	10291.55
877.214	10237.54
877.533	10259.46
877.852	10164.32
878.17	10168.62
878.489	10122.97
878.807	10182.18
879.125	10085.68
879.444	10131.1
879.762	10116.19
880.08	10112.57
880.398	9998.23
880.716	10056.76
881.034	9985.57
881.352	10026.02
881.67	9987.83
881.988	9929.08
882.306	9883.65
882.624	9944.67
882.941	9856.99
883.259	9816.76
883.577	9834.16
883.894	9885.01
884.212	9784.45
884.529	9821.73
884.846	9742.41
885.164	9736.99
885.481	9655.41
885.798	9752.36
886.115	9694.96
886.432	9690.21
886.75	9673.49
887.067	9649.76
887.383	9579.03
887.7	9611.34
888.017	9515.3
888.334	9572.47
888.651	9440.05
888.967	9447.96
889.284	9456.09
889.6	9402.54
889.917	9290
890.233	9334.97
890.55	9337.9
890.866	9320.96
891.182	9252.93
891.498	9279.6
891.815	9157.12
892.131	9207.96
892.447	9131.13
892.763	9089.1
893.079	9155.54
893.395	9047.97
893.71	9026.05
894.026	8995.99
894.342	8966.61
894.657	8938.37
894.973	8897.69
895.289	8916.22
895.604	8837.35
895.92	8804.81
896.235	8779.73
896.55	8826.96
896.865	8722.33
897.181	8721.65
897.496	8782.21
897.811	8688.43
898.126	8634.19
898.441	8621.76
898.756	8548.77
899.071	8501.77
899.386	8551.48
899.7	8443.46
900.015	8403.01
900.33	8384.48
900.644	8396.01
900.959	8364.14
901.273	8317.14
901.588	8302.68
901.902	8283.92
902.216	8273.98
902.531	8227.88
902.845	8206.63
903.159	8125.05
903.473	8078.95
903.787	8113.98
904.101	8024.94
904.415	8032.4
904.729	7988.56
905.042	7976.13
905.356	7930.26
905.67	7933.42
905.984	7883.71
906.297	7856.36
906.611	7786.53
906.924	7846.87
907.237	7812.52
907.551	7717.38
907.864	7689.36
908.177	7754.89
908.491	7627.21
908.804	7546.31
909.117	7585.18
909.43	7541.34
909.743	7451.17
910.056	7481.23
910.368	7469.93
910.681	7419.54
910.994	7385.41
911.307	7349.03
911.619	7253.44
911.932	7333.21
912.244	7291.63
912.557	7251.41
912.869	7243.5
913.181	7235.81
913.494	7187.23
913.806	7068.13
914.118	7077.85
914.43	7004.63
914.742	7077.62
915.054	7011.64
915.366	6963.28
915.678	6951.98
915.99	6851.19
916.302	6905.65
916.613	6868.82
916.925	6804.41
917.236	6760.12
917.548	6794.47
917.859	6748.82
918.171	6750.4
918.482	6733.68
918.794	6682.15
919.105	6654.81
919.416	6568.71
919.727	6566
920.038	6555.15
920.349	6512.89
920.66	6534.14
920.971	6507.24
921.282	6487.13
921.593	6455.04
921.903	6367.13
922.214	6421.37
922.525	6307.7
922.835	6336.63
923.146	6319.23
923.456	6245.33
923.767	6203.07
924.077	6210.08
924.387	6160.13
924.697	6165.33
925.008	6186.35
925.318	6096.41
925.628	6109.51
925.938	6083.3
926.248	6013.92
926.558	6002.17
926.867	6005.11
927.177	6009.18
927.487	5942.29
927.796	5909.97
928.106	5858
928.416	5870.65
928.725	5850.31
929.034	5847.37
929.344	5844.44
929.653	5788.17
929.962	5740.48
930.271	5727.83
930.581	5702.75
930.89	5660.26
931.199	5612.8
931.508	5623.2
931.817	5617.32
932.125	5595.86
932.434	5612.8
932.743	5550.21
933.051	5510.21
933.36	5481.28
933.669	5511.79
933.977	5464.56
934.286	5443.32
934.594	5391.34
934.902	5358.35
935.21	5335.75
935.519	5325.13
935.827	5333.94
936.135	5254.17
936.443	5254.4
936.751	5243.55
937.059	5247.84
937.367	5213.49
937.674	5183.44
937.982	5250.78
938.29	5157
938.597	5188.18
938.905	5071.35
939.213	5028.64
939.52	5088.98
939.827	5019.37
940.135	5011.46
940.442	5011.92
940.749	5006.94
941.056	4943.22
941.363	4972.82
941.67	4918.81
941.977	4893.05
942.284	4889.21
942.591	4833.39
942.898	4786.61
943.205	4817.8
943.511	4796.78
943.818	4764.24
944.125	4754.07
944.431	4736.67
944.738	4728.31
945.044	4706.84
945.35	4601.76
945.657	4650.8
945.963	4646.28
946.269	4600.4
946.575	4610.57
946.881	4536
947.187	4516.34
947.493	4523.12
947.799	4546.39
948.105	4456.22
948.41	4474.53
948.716	4457.81
949.022	4432.5
949.327	4429.33
949.633	4377.13
949.938	4409.45
950.244	4385.04
950.549	4271.82
950.854	4364.7
951.16	4338.04
951.465	4278.6
951.77	4324.7
952.075	4220.75
952.38	4215.33
952.685	4244.03
952.99	4193.41
953.294	4174.42
953.599	4142.33
953.904	4142.79
954.209	4178.27
954.513	4101.21
954.818	4074.09
955.122	4054.88
955.426	4048.33
955.731	4036.8
956.035	4027.99
956.339	3994.32
956.643	4006.74
956.948	3946.18
957.252	3941.21
957.556	3926.75
957.86	3915.9
958.163	3909.57
958.467	3889.46
958.771	3841.1
959.075	3840.87
959.378	3813.53
959.682	3811.72
959.985	3815.34
960.289	3769.91
960.592	3776.24
960.896	3762.01
961.199	3705.28
961.502	3697.15
961.805	3765.4
962.108	3709.35
962.411	3669.35
962.714	3687.43
963.017	3621.9
963.32	3601.56
963.623	3640.2
963.926	3620.99
964.228	3578.73
964.531	3584.16
964.833	3534.89
965.136	3483.59
965.438	3538.73
965.741	3544.84
966.043	3491.5
966.345	3493.76
966.648	3488.57
966.95	3438.4
967.252	3424.84
967.554	3398.4
967.856	3403.82
968.158	3357.27
968.46	3364.73
968.761	3364.95
969.063	3323.15
969.365	3341.68
969.666	3316.37
969.968	3294.45
970.269	3269.82
970.571	3235.24
970.872	3279.76
971.174	3256.03
971.475	3225.52
971.776	3225.52
972.077	3201.57
972.378	3181
972.679	3189.82
972.98	3145.98
973.281	3146.43
973.582	3144.62
973.883	3134.23
974.183	3091.74
974.484	3111.18
974.785	3098.07
975.085	3042.48
975.386	3065.3
975.686	3039.31
975.986	3037.73
976.287	2989.6
976.587	2974.68
976.887	2976.72
977.187	2963.83
977.487	2979.2
977.787	2958.86
978.087	2920.9
978.387	2891.75
978.687	2924.06
978.987	2910.05
979.286	2879.09
979.586	2861.92
979.885	2837.28
980.185	2820.34
980.484	2840.22
980.784	2799.09
981.083	2806.78
981.382	2768.36
981.682	2767
981.981	2753.67
982.28	2751.18
982.579	2729.72
982.878	2724.29
983.177	2696.5
983.475	2707.8
983.774	2684.29
984.073	2651.3
984.372	2693.11
984.67	2663.5
984.969	2644.29
985.267	2640
985.566	2630.51
985.864	2648.14
986.162	2557.97
986.461	2554.58
986.759	2557.74
987.057	2563.17
987.355	2535.37
987.653	2589.83
987.951	2499.89
988.249	2501.25
988.547	2494.69
988.844	2506.22
989.142	2479.33
989.44	2471.87
989.737	2441.14
990.035	2471.64
990.332	2460.34
990.63	2394.13
990.927	2439.55
991.224	2389.16
991.521	2400.23
991.819	2379.44
992.116	2362.95
992.413	2392.1
992.71	2318.43
993.006	2332.66
993.303	2328.6
993.6	2313.91
993.897	2265.1
994.193	2336.28
994.49	2255.83
994.787	2266.45
995.083	2256.51
995.379	2255.83
995.676	2247.47
995.972	2228.03
996.268	2224.19
996.565	2184.42
996.861	2192.33
997.157	2199.79
997.453	2149.62
997.749	2153.01
998.044	2140.81
998.34	2146.45
998.636	2147.36
998.932	2115.27
999.227	2128.38
999.523	2112.56
999.818	2120.47
1000.114	2076.85
1000.409	2067.13
1000.704	2054.25
1001	2034.59
1001.295	2053.8
1001.59	2019.68
1001.885	2041.15
1002.18	2018.1
1002.475	1979.68
1002.77	1985.1
1003.065	1962.73
1003.359	1940.36
1003.654	1961.6
1003.949	1961.6
1004.243	1924.09
1004.538	1911.66
1004.832	1911.88
1005.127	1891.32
1005.421	1892.22
1005.715	1899.23
1006.009	1853.58
1006.304	1862.85
1006.598	1848.16
1006.892	1864.2
1007.186	1831.66
1007.48	1800.02
1007.773	1808.61
1008.067	1813.13
1008.361	1780.14
1008.655	1738.33
1008.948	1759.35
1009.242	1755.05
1009.535	1766.13
1009.829	1748.27
1010.122	1747.82
1010.415	1706.92
1010.708	1725.67
1011.001	1665.79
1011.295	1654.26
1011.588	1683.87
1011.881	1684.09
1012.173	1668.73
1012.466	1656.3
1012.759	1640.25
1013.052	1621.27
1013.344	1621.95
1013.637	1644.77
1013.93	1602.06
1014.222	1566.58
1014.514	1558.9
1014.807	1565.23
1015.099	1555.51
1015.391	1525.45
1015.683	1554.15
1015.976	1549.63
1016.268	1513.03
1016.56	1499.69
1016.851	1531.78
1017.143	1512.8
1017.435	1476.87
1017.727	1469.64
1018.018	1480.03
1018.31	1458.34
1018.602	1450.88
1018.893	1425.12
1019.185	1425.12
1019.476	1402.07
1019.767	1402.97
1020.058	1414.72
1020.35	1386.93
1020.641	1394.61
1020.932	1397.1
1021.223	1371.56
1021.514	1375.18
1021.804	1345.12
1022.095	1338.57
1022.386	1348.28
1022.677	1329.08
1022.967	1307.83
1023.258	1298.79
1023.548	1312.8
1023.839	1288.4
1024.129	1294.27
1024.419	1271.68
1024.709	1249.76
1025	1286.14
1025.29	1229.19
1025.58	1231.45
1025.87	1248.4
1026.16	1211.34
1026.449	1227.16
1026.739	1219.25
1027.029	1195.29
1027.319	1167.95
1027.608	1176.08
1027.898	1191.45
1028.187	1192.36
1028.477	1186.03
1028.766	1152.36
1029.055	1136.54
1029.344	1170.66
1029.634	1131.11
1029.923	1152.58
1030.212	1128.18
1030.501	1142.64
1030.79	1111
1031.078	1113.49
1031.367	1098.35
1031.656	1103.32
1031.945	1095.86
1032.233	1066.03
1032.522	1052.02
1032.81	1047.95
1033.099	1048.86
1033.387	1050.21
1033.675	1024.22
1033.963	1052.47
1034.251	1019.03
1034.54	1017.9
1034.828	1028.29
1035.116	1014.51
1035.403	1008.18
1035.691	983.55
1035.979	1010.67
1036.267	997.78
1036.554	967.28
1036.842	956.2
1037.129	965.02
1037.417	955.3
1037.704	961.85
1037.992	964.11
1038.279	938.35
1038.566	953.04
1038.853	953.04
1039.14	953.04
