Data from hue_22_FLMS001491_00046.txt Node
Date: Tue Feb 07 17:10:11 GMT 2017
User: dcchb
Spectrometer: FLMS00149
Trigger mode: 0
Integration Time (sec): 2.000000E-2
Scans to average: 10
Electric dark correction enabled: true
Nonlinearity correction enabled: false
Boxcar width: 0
XAxis mode: Wavelengths
Number of Pixels in Spectrum: 2048
>>>>>Begin Spectral Data<<<<<
341.393	-5.04
341.776	-5.04
342.16	-5.04
342.543	-64.48
342.927	-73.29
343.31	-61.09
343.693	-74.42
344.077	-71.93
344.46	-72.61
344.843	-64.25
345.226	-52.5
345.61	-22.22
345.993	-18.6
346.376	-8.21
346.759	29.08
347.142	25.47
347.525	39.25
347.908	82.41
348.291	78.12
348.674	92.58
349.057	98.91
349.44	116.99
349.823	139.59
350.206	164.9
350.588	183.2
350.971	184.11
351.354	243.76
351.737	232.69
352.119	245.35
352.502	242.63
352.884	248.28
353.267	283.54
353.65	303.2
354.032	303.88
354.414	324.89
354.797	309.98
355.179	337.77
355.562	318.79
355.944	311.79
356.326	306.36
356.709	309.75
357.091	348.85
357.473	346.36
357.855	335.29
358.238	332.12
358.62	337.1
359.002	345.01
359.384	327.83
359.766	331.45
360.148	335.51
360.53	345.01
360.912	316.08
361.294	348.17
361.676	348.17
362.057	347.94
362.439	343.88
362.821	329.64
363.203	323.99
363.584	331.22
363.966	331.9
364.348	314.95
364.729	326.47
365.111	323.99
365.493	326.25
365.874	302.97
366.256	312.46
366.637	306.81
367.019	328.28
367.4	335.06
367.781	326.47
368.163	321.5
368.544	298.68
368.925	339.81
369.306	324.89
369.688	319.92
370.069	303.65
370.45	328.28
370.831	312.92
371.212	310.88
371.593	298.23
371.974	309.98
372.355	298.68
372.736	308.62
373.117	303.88
373.498	333.25
373.879	306.36
374.26	321.73
374.641	286.7
375.021	309.07
375.402	332.58
375.783	330.77
376.163	351.33
376.544	328.96
376.925	319.24
377.305	327.83
377.686	324.21
378.066	342.07
378.447	330.32
378.827	351.78
379.208	346.81
379.588	329.86
379.968	333.25
380.349	344.55
380.729	344.78
381.109	342.97
381.489	343.2
381.87	334.16
382.25	342.07
382.63	344.55
383.01	352.46
383.39	344.33
383.77	334.38
384.15	342.29
384.53	347.26
384.91	373.7
385.29	340.03
385.67	342.07
386.049	351.33
386.429	343.65
386.809	366.7
387.189	332.58
387.568	358.11
387.948	360.15
388.328	350.65
388.707	340.71
389.087	338.45
389.466	357.21
389.846	371.9
390.225	360.37
390.605	360.6
390.984	352.01
391.363	363.99
391.743	369.64
392.122	371.22
392.501	372.57
392.881	391.11
393.26	375.51
393.639	378.68
394.018	359.47
394.397	357.66
394.776	352.01
395.155	374.38
395.534	383.87
395.913	374.16
396.292	394.72
396.671	374.16
397.05	382.52
397.429	391.33
397.808	396.98
398.186	388.17
398.565	407.38
398.944	381.61
399.323	396.76
399.701	413.03
400.08	385.91
400.458	389.75
400.837	413.93
401.215	392.91
401.594	412.35
401.972	401.95
402.351	412.12
402.729	395.17
403.107	401.73
403.486	419.81
403.864	414.83
404.242	410.31
404.62	403.08
404.999	429.97
405.377	427.71
405.755	412.35
406.133	413.7
406.511	408.28
406.889	433.59
407.267	427.49
407.645	450.09
408.023	434.95
408.401	444.89
408.779	419.58
409.156	441.95
409.534	434.95
409.912	439.69
410.29	448.96
410.667	458.45
411.045	462.74
411.422	425.45
411.8	469.52
412.178	466.13
412.555	458.67
412.933	459.13
413.31	467.04
413.687	483.31
414.065	467.49
414.442	461.84
414.819	459.58
415.197	469.07
415.574	490.54
415.951	468.84
416.328	491.22
416.705	464.78
417.082	495.06
417.46	477.43
417.837	481.72
418.214	490.54
418.591	519.92
418.967	499.8
419.344	493.48
419.721	515.62
420.098	495.96
420.475	529.86
420.852	520.82
421.228	517.88
421.605	523.31
421.982	531.21
422.358	521.27
422.735	525.79
423.111	526.24
423.488	549.75
423.864	557.88
424.241	552.91
424.617	548.16
424.994	519.24
425.37	550.42
425.746	530.31
426.123	560.14
426.499	550.42
426.875	550.42
427.251	578.45
427.627	586.35
428.003	553.81
428.379	593.13
428.756	571.44
429.132	594.04
429.507	597.2
429.883	569.18
430.259	603.76
430.635	618.9
431.011	605.79
431.387	607.82
431.763	615.96
432.138	644.88
432.514	654.38
432.89	611.21
433.265	648.73
433.641	653.25
434.016	670.87
434.392	645.11
434.767	675.62
435.143	664.09
435.518	699.8
435.894	685.34
436.269	688.95
436.644	681.72
437.02	697.76
437.395	693.24
437.77	706.35
438.145	696.86
438.52	721.49
438.895	731.66
439.271	738.44
439.646	736.63
440.021	712.9
440.395	731.89
440.77	725.33
441.145	746.35
441.52	769.4
441.895	756.29
442.27	760.59
442.645	754.26
443.019	768.5
443.394	760.59
443.769	778.21
444.143	760.36
444.518	788.61
444.892	766.46
445.267	781.15
445.641	797.87
446.016	766.69
446.39	784.54
446.764	816.86
447.139	820.25
447.513	808.95
447.887	812.34
448.262	808.27
448.636	802.39
449.01	841.04
449.384	815.73
449.758	824.77
450.132	843.52
450.506	851.21
450.88	851.66
451.254	877.19
451.628	850.08
452.002	871.32
452.376	880.36
452.75	876.74
453.123	894.82
453.497	895.73
453.871	902.28
454.244	930.3
454.618	910.87
454.992	942.28
455.365	947.02
455.739	960.36
456.112	970.3
456.486	951.09
456.859	990.86
457.232	984.99
457.606	993.58
457.979	988.15
458.352	995.84
458.725	1000.81
459.099	1008.49
459.472	1046
459.845	1022.95
460.218	1071.31
460.591	1052.56
460.964	1052.11
461.337	1095.95
461.71	1103.18
462.083	1083.97
462.456	1135.94
462.829	1106.57
463.201	1134.14
463.574	1152.89
463.947	1157.19
464.32	1178.66
464.692	1189.95
465.065	1197.41
465.438	1199.22
465.81	1229.28
466.183	1230.18
466.555	1266.34
466.928	1248.71
467.3	1265.88
467.672	1297.52
468.045	1310.63
468.417	1332.78
468.789	1321.25
469.161	1342.04
469.534	1363.28
469.906	1408.25
470.278	1387.69
470.65	1417.97
471.022	1461.36
471.394	1473.34
471.766	1462.72
472.138	1495.94
472.51	1512.88
472.882	1524.86
473.253	1545.65
473.625	1596.05
473.997	1650.06
474.369	1637.17
474.74	1657.51
475.112	1684.4
475.484	1722.37
475.855	1771.18
476.227	1756.72
476.598	1781.58
476.97	1824.74
477.341	1871.29
477.713	1902.48
478.084	1916.94
478.455	1964.17
478.827	1995.36
479.198	2024.06
479.569	2011.4
479.94	2101.12
480.311	2115.81
480.682	2204.84
481.053	2247.78
481.424	2233.54
481.795	2293.65
482.166	2328
482.537	2360.32
482.908	2405.74
483.279	2415.23
483.65	2494.55
484.021	2525.74
484.391	2588.79
484.762	2610.93
485.133	2647.32
485.503	2683.47
485.874	2715.56
486.244	2790.82
486.615	2875.56
486.985	2839.85
487.356	2946.29
487.726	2964.15
488.097	3020.87
488.467	3011.38
488.837	3081.43
489.207	3158.49
489.578	3229.45
489.948	3253.4
490.318	3283.23
490.688	3309.45
491.058	3369.78
491.428	3425.83
491.798	3452.95
492.168	3533.62
492.538	3553.73
492.908	3568.88
493.278	3636.9
493.648	3584.24
494.017	3708.98
494.387	3744.24
494.757	3742.2
495.126	3814.07
495.496	3794.63
495.866	3856.55
496.235	3879.38
496.605	3977.23
496.974	3976.55
497.344	4006.38
497.713	4060.61
498.082	4059.26
498.452	4108.75
498.821	4148.97
499.19	4148.29
499.559	4253.15
499.928	4258.12
500.298	4245.47
500.667	4315.3
501.036	4311.45
501.405	4367.95
501.774	4371.11
502.143	4410.21
502.512	4409.98
502.88	4458.8
503.249	4511.22
503.618	4488.17
503.987	4543.99
504.356	4562.75
504.724	4544.89
505.093	4581.28
505.462	4628.06
505.83	4652.24
506.199	4642.97
506.567	4712.8
506.936	4712.35
507.304	4769.52
507.672	4804.55
508.041	4811.33
508.409	4839.58
508.777	4899.91
509.145	4899.69
509.514	4934.49
509.882	4941.95
510.25	4973.58
510.618	5004.09
510.986	4946.69
511.354	4985.79
511.722	5115.73
512.09	5102.85
512.458	5139.68
512.826	5128.16
513.193	5158.44
513.561	5182.84
513.929	5230.75
514.297	5234.37
514.664	5250.64
515.032	5282.05
515.4	5292.45
515.767	5324.99
516.135	5309.62
516.502	5310.52
516.869	5404.53
517.237	5436.85
517.604	5374.7
517.972	5389.17
518.339	5458.09
518.706	5464.64
519.073	5475.27
519.44	5545.09
519.808	5598.88
520.175	5556.17
520.542	5637.07
520.909	5645.2
521.276	5565.43
521.643	5663.28
522.009	5688.37
522.376	5752.55
522.743	5763.85
523.11	5818.31
523.477	5884.75
523.843	5900.11
524.21	5943.28
524.577	5955.48
524.943	6021.01
525.31	6021.24
525.676	6035.93
526.043	6046.32
526.409	6070.28
526.776	6206.77
527.142	6173.55
527.508	6216.04
527.874	6196.83
528.241	6299.42
528.607	6287.45
528.973	6350.27
529.339	6340.33
529.705	6389.82
530.071	6437.95
530.437	6454.9
530.803	6539.64
531.169	6557.27
531.535	6560.89
531.901	6568.12
532.267	6555.46
532.632	6628.23
532.998	6702.8
533.364	6679.3
533.73	6675.46
534.095	6797.04
534.461	6779.19
534.826	6830.94
535.192	6821.22
535.557	6904.83
535.923	6884.72
536.288	6953.64
536.653	6922.23
537.019	6938.73
537.384	6943.25
537.749	6944.61
538.114	7015.34
538.479	7041.78
538.845	7119.97
539.21	7057.37
539.575	7091.49
539.94	7151.83
540.305	7233.64
540.67	7225.05
541.034	7194.77
541.399	7250.36
541.764	7307.99
542.129	7340.98
542.494	7395.89
542.858	7356.57
543.223	7383.01
543.587	7463.69
543.952	7459.17
544.316	7518.38
544.681	7549.34
545.045	7566.96
545.41	7640.86
545.774	7612.61
546.138	7629.79
546.503	7578.94
546.867	7622.78
547.231	7691.93
547.595	7700.97
547.959	7741.87
548.324	7686.51
548.688	7820.06
549.052	7799.95
549.416	7863.23
549.779	7869.78
550.143	7859.38
550.507	7957.23
550.871	7930.34
551.235	7947.74
551.599	8071.58
551.962	8081.07
552.326	8018.02
552.689	8114.29
553.053	8102.09
553.417	8114.97
553.78	8280.84
554.143	8227.96
554.507	8244.23
554.87	8239.49
555.234	8361.07
555.597	8327.85
555.96	8296.89
556.323	8357.68
556.686	8419.82
557.05	8472.7
557.413	8475.19
557.776	8478.8
558.139	8491.23
558.502	8545.69
558.865	8570.1
559.228	8602.87
559.59	8627.05
559.953	8636.31
560.316	8716.76
560.679	8726.25
561.041	8789.08
561.404	8798.12
561.767	8844.22
562.129	8844.67
562.492	8892.8
562.854	8949.07
563.217	8905.23
563.579	8961.95
563.941	8963.31
564.304	9064.32
564.666	9109.97
565.028	9118.79
565.39	9100.71
565.753	9189.07
566.115	9160.82
566.477	9229.97
566.839	9267.93
567.201	9334.83
567.563	9359.23
567.925	9385.67
568.287	9370.08
568.648	9448.95
569.01	9450.53
569.372	9509.28
569.734	9536.85
570.095	9535.5
570.457	9650.98
570.819	9670.64
571.18	9686.45
571.542	9761.93
571.903	9743.18
572.265	9794.47
572.626	9930.74
572.987	9858.65
573.349	9934.36
573.71	9996.5
574.071	10044.86
574.432	10105.88
574.794	10169.38
575.155	10214.35
575.516	10204.86
575.877	10343.84
576.238	10403.27
576.599	10435.59
576.96	10529.6
577.32	10578.63
577.681	10701.34
578.042	10804.17
578.403	10813.88
578.763	10848.01
579.124	11020.2
579.485	11101.33
579.845	11177.26
580.206	11270.14
580.566	11380.2
580.927	11430.36
581.287	11655.44
581.648	11740.41
582.008	11911.48
582.368	12040.97
582.728	12144.02
583.089	12326.84
583.449	12460.62
583.809	12682.53
584.169	12814.51
584.529	12816.99
584.889	13190.54
585.249	13236.64
585.609	13395.28
585.969	13695.61
586.329	13818.55
586.688	14118.2
587.048	14262.61
587.408	14411.3
587.768	14618.08
588.127	14906.2
588.487	15116.82
588.846	15459.41
589.206	15549.13
589.565	15820.53
589.925	16145.27
590.284	16426.62
590.643	16701.41
591.003	16872.25
591.362	17180.27
591.721	17552.24
592.08	17744.55
592.44	18041.26
592.799	18358.32
593.158	18667.91
593.517	18924.86
593.876	19311.74
594.235	19599.64
594.593	19930.93
594.952	20169.12
595.311	20346.74
595.67	20707.63
596.029	21070.56
596.387	21439.37
596.746	21830.99
597.104	21950.31
597.463	22260.59
597.822	22700.12
598.18	22900.34
598.538	23192.09
598.897	23577.39
599.255	23736.03
599.613	24308.67
599.972	24506.4
600.33	24893.74
600.688	25165.14
601.046	25494.4
601.404	25864.56
601.762	26095.29
602.12	26585.67
602.478	26810.98
602.836	26932.55
603.194	27300.45
603.552	27607.11
603.91	27931.62
604.268	28216.81
604.625	28372.29
604.983	28806.18
605.341	28932.5
605.698	29320.29
606.056	29544.46
606.413	29777.23
606.771	30183.99
607.128	30439.81
607.485	30440.03
607.843	30771.78
608.2	31187.58
608.557	31509.16
608.914	31680.45
609.272	32144.62
609.629	32296.48
609.986	32522.24
610.343	32591.16
610.7	33038.38
611.057	33062.79
611.414	33307.3
611.771	33617.35
612.127	33939.15
612.484	33971.47
612.841	34385.47
613.198	34408.74
613.554	34636.08
613.911	34982.29
614.267	35191.77
614.624	35265.44
614.98	35454.82
615.337	35664.3
615.693	35897.97
616.05	36059.32
616.406	36293.89
616.762	36301.57
617.118	36503.6
617.475	36704.95
617.831	36908.11
618.187	37022.68
618.543	37328.44
618.899	37509
619.255	37688.2
619.611	37736.79
619.967	37934.3
620.323	38012.26
620.678	38159.6
621.034	38031.02
621.39	38319.6
621.746	38408.19
622.101	38861.51
622.457	38780.6
622.812	38831.22
623.168	39101.05
623.523	39247.03
623.879	39491.09
624.234	39244.1
624.589	39514.37
624.945	39519.79
625.3	39737.87
625.655	39659
626.01	39828.71
626.365	39890.18
626.72	39799.33
627.075	39930.4
627.43	40114.35
627.785	40069.84
628.14	40138.54
628.495	40329.04
628.85	40413.33
629.205	40200
629.559	40403.84
629.914	40458.75
630.269	40466.66
630.623	40489.71
630.978	40458.98
631.332	40598.18
631.687	40699.42
632.041	40572.65
632.396	40725.86
632.75	40770.61
633.104	40837.05
633.459	40689.48
633.813	40777.39
634.167	40693.55
634.521	40859.65
634.875	40933.99
635.229	40684.96
635.583	40640.44
635.937	40634.57
636.291	40714.34
636.645	40665.07
636.999	40760.89
637.352	40813.55
637.706	40734.9
638.06	40821.91
638.413	40837.27
638.767	40788.24
639.121	40901
639.474	40537.17
639.828	40687
640.181	40859.19
640.534	40824.39
640.888	40526.32
641.241	40520.67
641.594	40663.72
641.947	40836.6
642.301	40637.28
642.654	40689.25
643.007	40762.25
643.36	40668.69
643.713	40595.25
644.066	40799.76
644.419	40537.39
644.771	40211.08
645.124	39999.56
645.477	39962.95
645.83	39721.37
646.182	39576.97
646.535	39610.19
646.888	39586.23
647.24	39373.81
647.593	39628.72
647.945	39567.93
648.298	39393.92
648.65	39313.02
649.002	39239.12
649.355	39462.62
649.707	39364.54
650.059	39516.63
650.411	40014.47
650.763	39965.66
651.115	40491.75
651.467	40340.56
651.819	40245.2
652.171	40264.41
652.523	40203.17
652.875	40234.13
653.227	40109.16
653.578	40298.76
653.93	40205.88
654.282	40088.59
654.633	39863.74
654.985	40100.34
655.337	40049.95
655.688	40176.27
656.039	40296.95
656.391	39978.77
656.742	39968.37
657.094	40000.69
657.445	40251.98
657.796	39913
658.147	39849.28
658.498	39874.14
658.849	39954.81
659.2	40029.39
659.551	39970.18
659.902	40000.69
660.253	39864.64
660.604	40100.8
660.955	39944.87
661.306	39919.56
661.656	40020.35
662.007	40054.24
662.358	40024.87
662.708	39851.31
663.059	40018.09
663.409	39769.05
663.76	39992.1
664.11	39892.89
664.461	40066.22
664.811	39838.66
665.161	39914.59
665.511	39848.15
665.862	39941.03
666.212	39880.01
666.562	39894.7
666.912	39797.98
667.262	39744.65
667.612	39775.38
667.962	39880.69
668.312	39851.08
668.662	39952.55
669.011	39861.25
669.361	39741.71
669.711	39782.84
670.06	39828.94
670.41	39651.32
670.76	39539.68
671.109	39735.38
671.459	39774.02
671.808	39640.47
672.157	39734.7
672.507	39591.88
672.856	39572.22
673.205	39524.54
673.554	39751.88
673.904	39575.61
674.253	39755.72
674.602	39622.16
674.951	39068.05
675.3	38878.91
675.649	39495.39
675.998	39416.07
676.346	39416.75
676.695	39494.48
677.044	39222.85
677.393	39455.84
677.741	39335.17
678.09	39484.54
678.438	39160.93
678.787	39280.7
679.135	39393.47
679.484	38948.51
679.832	39140.37
680.181	38944.44
680.529	39216.98
680.877	39061.5
681.225	39029.41
681.573	39194.61
681.922	38843.88
682.27	38720.72
682.618	38865.8
682.966	38783.99
683.314	38691.57
683.661	38648.4
684.009	38464
684.357	38411.57
684.705	38489.09
685.053	38490.44
685.4	38385.13
685.748	38243.44
686.095	38146.95
686.443	38080.06
686.79	38038.93
687.138	38042.77
687.485	38095.88
687.832	37962.1
688.18	38035.09
688.527	37780.86
688.874	37713.29
689.221	37691.82
689.568	37567.53
689.915	37540.64
690.262	37703.57
690.609	37450.02
690.956	37275.11
691.303	37199.86
691.65	37091.38
691.997	37154.43
692.344	36928.45
692.69	36800.09
693.037	36929.81
693.383	36534.79
693.73	36812.52
694.077	36524.62
694.423	36574.11
694.769	36404.17
695.116	36425.64
695.462	36305.42
695.808	36146.78
696.155	36313.55
696.501	35932.77
696.847	36012.32
697.193	35775.71
697.539	35934.35
697.885	35658.65
698.231	35556.51
698.577	35572.55
698.923	35475.38
699.269	35326.23
699.614	35074.71
699.96	35018.44
700.306	35017.99
700.651	34922.4
700.997	34907.94
701.342	34740.94
701.688	34731.9
702.033	34536.87
702.379	34586.36
702.724	34424.79
703.069	34506.37
703.415	34133.5
703.76	34194.74
704.105	34256.88
704.45	34067.51
704.795	33785.71
705.14	33879.49
705.485	33851.02
705.83	33695.31
706.175	33779.15
706.52	33601.08
706.865	33466.85
707.209	33433.4
707.554	33357.24
707.899	33424.59
708.243	33219.85
708.588	33149.11
708.932	32897.6
709.277	32868.9
709.621	32950.02
709.966	32753.87
710.31	32892.4
710.654	32550.26
710.998	32785.96
711.342	32747.99
711.687	32590.71
712.031	32286.54
712.375	32344.39
712.719	32366.08
713.063	32293.77
713.407	32452.41
713.75	32075.47
714.094	32141.46
714.438	32079.76
714.782	32001.8
715.125	31962.7
715.469	32000.22
715.812	31724.97
716.156	31666.22
716.499	31651.07
716.843	31642.71
717.186	31418.54
717.53	31613.11
717.873	31506.45
718.216	31390.52
718.559	31213.57
718.902	31054.25
719.246	31247.7
719.589	31055.38
719.932	31023.75
720.275	31085.21
720.617	31061.26
720.96	30889.06
721.303	31002.05
721.646	31023.75
721.989	30644.32
722.331	30849.74
722.674	30727.93
723.016	30672.57
723.359	30708.05
723.701	30738.56
724.044	30451.33
724.386	30388.73
724.729	30372.01
725.071	30323.65
725.413	30317.55
725.755	30434.84
726.097	30144.22
726.439	30087.05
726.782	30104
727.124	30190.77
727.465	30031.91
727.807	29978.58
728.149	29921.85
728.491	29903.32
728.833	29917.33
729.175	29766.83
729.516	29670.79
729.858	29767.73
730.199	29730.45
730.541	29648.64
730.882	29607.06
731.224	29713.72
731.565	29431.7
731.906	29476.89
732.248	29537.68
732.589	29329.1
732.93	29351.7
733.271	29306.73
733.612	29314.86
733.953	29220.86
734.294	29175.21
734.635	29023.35
734.976	29201.42
735.317	29042.1
735.658	29125.94
735.999	28945.38
736.339	28948.55
736.68	28961.88
737.021	28780.87
737.361	28876.01
737.702	28998.71
738.042	28859.28
738.383	28760.08
738.723	28777.93
739.063	28706.07
739.404	28615.22
739.744	28647.54
740.084	28440.76
740.424	28504.49
740.764	28453.87
741.104	28662.45
741.444	28390.82
741.784	28277.15
742.124	28403.7
742.464	28157.83
742.804	28295
743.143	28203.03
743.483	28181.56
743.823	28049.36
744.162	28058.85
744.502	28062.02
744.841	27929.82
745.181	28068.57
745.52	27910.38
745.86	27984.05
746.199	28027.44
746.538	27834.23
746.877	27836.71
747.216	27825.86
747.556	27895.24
747.895	27752.87
748.234	27600.79
748.573	27502.26
748.911	27645.53
749.25	27690.95
749.589	27484.18
749.928	27458.42
750.267	27499.09
750.605	27493.9
750.944	27294.35
751.283	27241.02
751.621	27328.02
751.96	27316.5
752.298	27300.68
752.636	27201.25
752.975	27052.55
753.313	26956.51
753.651	27116.96
753.989	27008.26
754.327	26980.46
754.666	26756.29
755.004	26873.8
755.342	26857.3
755.679	26765.33
756.017	26784.99
756.355	26779.56
756.693	26567.59
757.031	26670.41
757.368	26492.79
757.706	26492.57
758.044	26379.12
758.381	26378.9
758.719	26300.25
759.056	26345.45
759.394	26105.91
759.731	26068.85
760.068	26095.74
760.405	25979.81
760.743	25852.13
761.08	25811.91
761.417	25706.82
761.754	25722.64
762.091	25664.34
762.428	25621.18
762.765	25432.26
763.102	25475.87
763.438	25369.43
763.775	25287.4
764.112	25310.68
764.449	25317.46
764.785	25231.58
765.122	25004.47
765.458	24826.17
765.795	24853.06
766.131	24824.36
766.467	24748.88
766.804	24675.89
767.14	24673.63
767.476	24605.16
767.812	24504.14
768.148	24399.97
768.485	24286.3
768.821	24119.97
769.157	24140.99
769.492	24075.91
769.828	24088.56
770.164	23941.22
770.5	23807.21
770.836	23840.66
771.171	23640.66
771.507	23653.32
771.842	23391.4
772.178	23443.61
772.513	23289.94
772.849	23328.13
773.184	23145.76
773.519	23068.02
773.855	22972.88
774.19	22957.97
774.525	22960.91
774.86	22801.14
775.195	22898.76
775.53	22637.3
775.865	22586.68
776.2	22407.93
776.535	22214.94
776.87	22309.17
777.205	22198.44
777.539	22077.09
777.874	22152.34
778.209	21842.29
778.543	21945.57
778.878	21783.09
779.212	21773.37
779.547	21743.09
779.881	21685.69
780.215	21594.39
780.55	21674.39
780.884	21415.86
781.218	21399.14
781.552	21326.6
781.886	21218.35
782.22	21137
782.554	21078.25
782.888	20845.48
783.222	20917.57
783.556	20800.29
783.889	20675.32
784.223	20577.02
784.557	20509.9
784.89	20547.19
785.224	20413.4
785.557	20266.97
785.891	20322.56
786.224	20240.3
786.558	20217.02
786.891	19995.79
787.224	19968.44
787.557	19922.12
787.891	19807.32
788.224	19766.19
788.557	19760.31
788.89	19693.65
789.223	19666.76
789.556	19504.5
789.888	19450.04
790.221	19423.15
790.554	19247.56
790.887	19210.27
791.219	19190.61
791.552	19113.33
791.884	19039.65
792.217	19013.44
792.549	18938.64
792.882	18823.62
793.214	18764.18
793.546	18745.65
793.879	18639.21
794.211	18571.64
794.543	18601.7
794.875	18424.08
795.207	18604.64
795.539	18401.03
795.871	18450.52
796.203	18229.28
796.535	18213.24
796.867	18103.86
797.198	18087.14
797.53	18029.29
797.862	17878.1
798.193	17932.34
798.525	17851.44
798.856	17808.27
799.188	17618.22
799.519	17540.71
799.85	17509.3
800.182	17587.26
800.513	17601.95
800.844	17347.72
801.175	17465.23
801.506	17337.78
801.837	17369.64
802.168	17227.05
802.499	17210.32
802.83	17093.27
803.161	17116.09
803.491	17031.12
803.822	17034.74
804.153	16926.94
804.483	16897.79
804.814	16828.87
805.145	16712.94
805.475	16740.05
805.805	16683.56
806.136	16625.71
806.466	16569.44
806.796	16508.65
807.126	16423.68
807.457	16345.04
807.787	16439.95
808.117	16364.02
808.447	16207.41
808.777	16301.2
809.107	16201.31
809.436	16183.91
809.766	16103.01
810.096	16116.79
810.426	16109.56
810.755	16088.32
811.085	15959.06
811.414	15954.54
811.744	15797.03
812.073	15836.12
812.403	15787.76
812.732	15729.23
813.061	15730.36
813.39	15630.25
813.719	15515.68
814.049	15642
814.378	15618.5
814.707	15450.6
815.036	15436.36
815.365	15365.85
815.693	15245.86
816.022	15353.2
816.351	15220.77
816.68	15171.06
817.008	15218.74
817.337	14988.91
817.665	15027.1
817.994	15131.51
818.322	15032.75
818.651	14968.12
818.979	14910.95
819.307	14927.45
819.636	14976.71
819.964	14806.32
820.292	14959.99
820.62	14897.39
820.948	14817.84
821.276	14836.38
821.604	14776.49
821.932	14776.94
822.259	14771.97
822.587	14717.28
822.915	14649.94
823.243	14813.55
823.57	14620.11
823.898	14674.57
824.225	14691.29
824.553	14743.04
824.88	14775.81
825.207	14704.18
825.535	14772.42
825.862	14826.43
826.189	14619.21
826.516	14770.61
826.843	14766.55
827.17	14773.55
827.497	14753.44
827.824	14762.71
828.151	14651.07
828.478	14708.47
828.805	14807
829.131	14640.67
829.458	14611.3
829.785	14656.72
830.111	14645.87
830.438	14722.25
830.764	14767.9
831.09	14609.49
831.417	14590.51
831.743	14633.22
832.069	14610.17
832.395	14560.22
832.722	14621.01
833.048	14577.63
833.374	14556.38
833.7	14480.9
834.026	14577.4
834.351	14572.43
834.677	14515.71
835.003	14477.06
835.329	14542.82
835.654	14350.51
835.98	14400.45
836.306	14439.78
836.631	14435.26
836.956	14463.5
837.282	14383.96
837.607	14348.25
837.932	14305.99
838.258	14308.93
838.583	14342.83
838.908	14221.02
839.233	14264.64
839.558	14238.65
839.883	14206.11
840.208	14106.23
840.533	14066.23
840.858	14199.78
841.182	14095.6
841.507	14057.19
841.832	13945.78
842.156	13951.2
842.481	13948.26
842.805	13945.1
843.13	13817.19
843.454	13889.28
843.778	13805.44
844.103	13751.21
844.427	13734.03
844.751	13712.34
845.075	13800.92
845.399	13627.14
845.723	13531.78
846.047	13641.15
846.371	13472.57
846.695	13474.15
847.019	13298.56
847.343	13390.54
847.666	13346.25
847.99	13221.73
848.313	13159.58
848.637	13085.69
848.96	13085.69
849.284	13070.55
849.607	13050.43
849.931	12913.71
850.254	12852.25
850.577	12763.66
850.9	12750.78
851.223	12662.2
851.546	12673.72
851.869	12609.32
852.192	12682.08
852.515	12551.69
852.838	12458.13
853.161	12394.41
853.483	12394.18
853.806	12368.64
854.129	12330.45
854.451	12282.32
854.774	12200.74
855.096	12123.9
855.419	12188.99
855.741	12125.94
856.063	11957.13
856.385	11951.25
856.708	11987.41
857.03	11922.1
857.352	11899.28
857.674	11842.56
857.996	11790.58
858.318	11746.29
858.64	11720.75
858.961	11717.14
859.283	11733.86
859.605	11616.8
859.926	11703.35
860.248	11527.54
860.57	11539.29
860.891	11546.74
861.212	11498.61
861.534	11482.34
861.855	11464.26
862.176	11467.65
862.498	11431.72
862.819	11396.01
863.14	11337.03
863.461	11288.22
863.782	11338.61
864.103	11289.35
864.424	11258.84
864.745	11262.23
865.065	11197.38
865.386	11208.45
865.707	11180.88
866.027	11220.65
866.348	11136.13
866.668	11184.27
866.989	11145.17
867.309	11072.86
867.63	11034.44
867.95	11040.77
868.27	10965.52
868.59	10965.06
868.91	10962.58
869.23	10973.43
869.55	10893.2
869.87	10979.98
870.19	10992.63
870.51	10928.23
870.83	10904.5
871.15	10845.07
871.469	10830.83
871.789	10897.72
872.109	10769.59
872.428	10813.88
872.748	10738.63
873.067	10757.39
873.386	10724.17
873.706	10644.4
874.025	10581.8
874.344	10616.15
874.663	10682.36
874.982	10622.02
875.301	10650.27
875.62	10537.73
875.939	10547.9
876.258	10638.97
876.577	10537.51
876.896	10530.95
877.214	10489.82
877.533	10470.39
877.852	10492.31
878.17	10520.56
878.489	10449.6
878.807	10399.2
879.125	10376.61
879.444	10444.63
879.762	10391.97
880.08	10359.43
880.398	10289.15
880.716	10308.13
881.034	10264.74
881.352	10239.66
881.67	10204.41
881.988	10255.03
882.306	10248.93
882.624	10219.77
882.941	10184.52
883.259	10147.91
883.577	10066.78
883.894	10078.08
884.212	10056.61
884.529	10084.41
884.846	9969.61
885.164	10043.51
885.481	9983.4
885.798	9987.46
886.115	9866.11
886.432	9925.09
886.75	9908.37
887.067	9922.38
887.383	9840.12
887.7	9810.52
888.017	9798.77
888.334	9796.06
888.651	9783.85
888.967	9770.75
889.284	9685.32
889.6	9631.77
889.917	9591.99
890.233	9611.65
890.55	9556.97
890.866	9612.56
891.182	9574.82
891.498	9490.75
891.815	9461.38
892.131	9410.3
892.447	9431.77
892.763	9352.23
893.079	9355.39
893.395	9325.33
893.71	9315.39
894.026	9267.26
894.342	9250.76
894.657	9197.65
894.973	9194.94
895.289	9201.72
895.604	9138.67
895.92	9104.77
896.235	9113.36
896.55	9055.28
896.865	9025
897.181	9027.94
897.496	8999.69
897.811	8898.45
898.126	8922.41
898.441	8828.4
898.756	8906.59
899.071	8745.46
899.386	8799.92
899.7	8659.36
900.015	8708.17
900.33	8665.24
900.644	8687.84
900.959	8637.89
901.273	8613.04
901.588	8574.39
901.902	8503.66
902.216	8540.5
902.531	8468.18
902.845	8428.41
903.159	8422.08
903.473	8351.57
903.787	8271.12
904.101	8251.01
904.415	8278.58
904.729	8277.68
905.042	8241.29
905.356	8172.37
905.67	8137.12
905.984	8168.53
906.297	8143.9
906.611	7992.49
906.924	8112.03
907.237	8038.14
907.551	7950.91
907.864	7987.29
908.177	7933.05
908.491	7929.66
908.804	7838.37
909.117	7778.03
909.43	7739.39
909.743	7766.28
910.056	7727.18
910.368	7706.85
910.681	7667.52
910.994	7643.8
911.307	7643.8
911.619	7603.12
911.932	7567.41
912.244	7471.37
912.557	7464.14
912.869	7448.77
913.181	7403.58
913.494	7390.92
913.806	7336.69
914.118	7326.74
914.43	7286.07
914.742	7307.76
915.054	7242.45
915.366	7201.55
915.678	7189.57
915.99	7104.83
916.302	7065.96
916.613	7084.26
916.925	7060.31
917.236	7027.99
917.548	6987.99
917.859	6973.98
918.171	6937.83
918.482	6862.35
918.794	6832.29
919.105	6893.99
919.416	6807.66
919.727	6771.95
920.038	6805.63
920.349	6696.7
920.66	6765.85
920.971	6689.47
921.282	6686.76
921.593	6620.77
921.903	6628.68
922.214	6599.53
922.525	6547.33
922.835	6464.17
923.146	6500.1
923.456	6488.35
923.767	6406.31
924.077	6407.9
924.387	6397.5
924.697	6331.51
925.008	6383.26
925.318	6297.16
925.628	6235.92
925.938	6249.26
926.248	6200.44
926.558	6167.22
926.867	6174.91
927.177	6143.72
927.487	6153.67
927.796	6029.15
928.106	6110.96
928.416	6013.33
928.725	5996.38
929.034	5978.53
929.344	5983.27
929.653	5974.01
929.962	5888.14
930.271	5852.2
930.581	5914.8
930.89	5853.33
931.199	5816.73
931.508	5793.9
931.817	5824.63
932.125	5784.18
932.434	5749.16
932.743	5722.04
933.051	5657.63
933.36	5641.81
933.669	5622.15
933.977	5614.02
934.286	5572.66
934.594	5576.51
934.902	5504.64
935.21	5482.5
935.519	5486.11
935.827	5439.33
936.135	5417.87
936.443	5362.73
936.751	5354.82
937.059	5364.76
937.367	5321.82
937.674	5317.3
937.982	5331.09
938.29	5280.92
938.597	5316.17
938.905	5191.21
939.213	5186.69
939.52	5129.74
939.827	5189.85
940.135	5142.17
940.442	5122.96
940.749	5086.12
941.056	5108.5
941.363	5070.53
941.67	5027.14
941.977	4955.05
942.284	4952.12
942.591	4976.3
942.898	4903.3
943.205	4915.96
943.511	4908.73
943.818	4895.39
944.125	4820.82
944.431	4849.97
944.738	4795.51
945.044	4823.08
945.35	4729.97
945.657	4739.01
945.963	4710.54
946.269	4702.86
946.575	4687.72
946.881	4637.32
947.187	4626.25
947.493	4619.69
947.799	4587.15
948.105	4620.82
948.41	4605.68
948.716	4550.54
949.022	4525.01
949.327	4530.66
949.633	4460.6
949.938	4446.82
950.244	4450.66
950.549	4408.63
950.854	4410.43
951.16	4360.04
951.465	4375.41
951.77	4380.83
952.075	4314.62
952.38	4290.89
952.685	4335.63
952.99	4283.66
953.294	4312.81
953.599	4271.46
953.904	4227.39
954.209	4226.48
954.513	4207.73
954.818	4217.67
955.122	4186.49
955.426	4120.95
955.731	4084.79
956.035	4116.43
956.339	4067.17
956.643	4087.96
956.948	4049.54
957.252	4026.94
957.556	4006.83
957.86	3995.08
958.163	4006.83
958.467	3956.21
958.771	3966.6
959.075	3910.79
959.378	3901.3
959.682	3902.88
959.985	3837.79
960.289	3854.29
960.592	3837.34
960.896	3841.64
961.199	3816.33
961.502	3826.5
961.805	3788.98
962.108	3742.2
962.411	3746.72
962.714	3699.72
963.017	3708.31
963.32	3709.66
963.623	3701.53
963.926	3645.03
964.228	3624.92
964.531	3581.53
964.833	3611.81
965.136	3584.47
965.438	3571.36
965.741	3571.59
966.043	3574.75
966.345	3520.74
966.648	3536.33
966.95	3542.44
967.252	3436.68
967.554	3462.66
967.856	3446.62
968.158	3403.23
968.46	3383.57
968.761	3426.28
969.063	3376.34
969.365	3395.77
969.666	3348.54
969.968	3329.56
970.269	3317.81
970.571	3314.19
970.872	3308.99
971.174	3296.34
971.475	3276.45
971.776	3286.85
972.077	3251.6
972.378	3230.13
972.679	3227.64
972.98	3244.14
973.281	3220.18
973.582	3150.81
973.883	3169.11
974.183	3141.09
974.484	3152.39
974.785	3133.86
975.085	3110.81
975.386	3146.51
975.686	3096.57
975.986	3078.27
976.287	3073.75
976.587	3020.19
976.887	3033.75
977.187	3034.43
977.487	3000.3
977.787	2985.84
978.087	2945.16
978.387	2979.74
978.687	2986.07
978.987	2973.18
979.286	2900.64
979.586	2927.99
979.885	2921.43
980.185	2892.06
980.484	2857.71
980.784	2892.06
981.083	2886.41
981.382	2865.39
981.682	2821.1
981.981	2839.18
982.28	2753.98
982.579	2777.71
982.878	2784.49
983.177	2764.15
983.475	2766.64
983.774	2744.72
984.073	2775
984.372	2687.32
984.67	2716.47
984.969	2696.13
985.267	2663.59
985.566	2690.48
985.864	2638.96
986.162	2661.78
986.461	2639.63
986.759	2588.79
987.057	2611.16
987.355	2576.13
987.653	2583.14
987.951	2556.7
988.249	2574.78
988.547	2528.45
988.844	2536.59
989.142	2527.32
989.44	2496.13
989.737	2498.17
990.035	2471.05
990.332	2455.91
990.63	2465.4
990.927	2434.44
991.224	2456.14
991.521	2435.8
991.819	2414.1
992.116	2412.75
992.413	2408.68
992.71	2356.03
993.006	2404.61
993.303	2359.64
993.6	2339.75
993.897	2349.92
994.193	2368.45
994.49	2313.31
994.787	2332.07
995.083	2312.64
995.379	2276.25
995.676	2283.71
995.972	2277.61
996.268	2233.09
996.565	2258.18
996.861	2224.05
997.157	2228.8
997.453	2246.65
997.749	2197.61
998.044	2167.78
998.34	2154.45
998.636	2181.57
998.932	2168.46
999.227	2135.69
999.523	2131.85
999.818	2110.83
1000.114	2102.92
1000.409	2068.58
1000.704	2085.98
1001	2068.35
1001.295	2044.85
1001.59	2043.04
1001.885	2031.06
1002.18	2029.25
1002.475	2037.62
1002.77	2031.29
1003.065	2016.83
1003.359	2031.29
1003.654	1986.09
1003.949	1984.28
1004.243	1989.71
1004.538	1929.37
1004.832	1971.85
1005.127	1952.65
1005.421	1924.17
1005.715	1911.07
1006.009	1892.31
1006.304	1877.17
1006.598	1855.47
1006.892	1888.69
1007.186	1874.23
1007.48	1845.53
1007.773	1856.83
1008.067	1857.06
1008.361	1786.78
1008.655	1830.62
1008.948	1770.73
1009.242	1812.54
1009.535	1757.85
1009.829	1736.83
1010.122	1775.25
1010.415	1740.9
1010.708	1740.9
1011.001	1730.28
1011.295	1716.72
1011.588	1713.78
1011.881	1677.85
1012.173	1680.56
1012.466	1648.93
1012.759	1656.83
1013.052	1646.44
1013.344	1652.77
1013.637	1671.52
1013.93	1619.77
1014.222	1642.15
1014.514	1607.57
1014.807	1612.09
1015.099	1605.76
1015.391	1608.02
1015.683	1579.1
1015.976	1566.89
1016.268	1558.31
1016.56	1565.31
1016.851	1542.26
1017.143	1512.66
1017.435	1528.7
1017.727	1505.65
1018.018	1483.73
1018.31	1503.17
1018.602	1494.13
1018.893	1466.78
1019.185	1467.24
1019.476	1471.3
1019.767	1483.51
1020.058	1437.86
1020.35	1436.73
1020.641	1410.74
1020.932	1391.76
1021.223	1380.68
1021.514	1390.4
1021.804	1373.45
1022.095	1380.23
1022.386	1349.95
1022.677	1359.89
1022.967	1348.37
1023.258	1322.61
1023.548	1335.49
1023.839	1294.81
1024.129	1334.58
1024.419	1298.43
1024.709	1305.88
1025	1290.52
1025.29	1265.21
1025.58	1255.26
1025.87	1284.19
1026.16	1261.82
1026.449	1250.97
1026.739	1235.83
1027.029	1230.18
1027.319	1218.88
1027.608	1234.25
1027.898	1200.8
1028.187	1180.69
1028.477	1197.19
1028.766	1186.11
1029.055	1186.79
1029.344	1155.83
1029.634	1191.08
1029.923	1158.32
1030.212	1147.24
1030.501	1140.92
1030.79	1131.65
1031.078	1132.78
1031.367	1111.09
1031.656	1088.94
1031.945	1106.34
1032.233	1121.71
1032.522	1093.46
1032.81	1098.88
1033.099	1061.14
1033.387	1069.28
1033.675	1038.09
1033.963	1030.64
1034.251	1048.04
1034.54	1076.74
1034.828	1042.16
1035.116	1024.76
1035.403	1024.31
1035.691	994.48
1035.979	999.68
1036.267	989.28
1036.554	989.28
1036.842	974.37
1037.129	983.41
1037.417	984.76
1037.704	983.41
1037.992	976.4
1038.279	931.2
1038.566	958.77
1038.853	958.77
1039.14	958.77
