Data from hue_30_FLMS001491_41.txt Node
Date: Mon Feb 06 15:05:22 GMT 2017
User: dcchb
Spectrometer: FLMS00149
Trigger mode: 0
Integration Time (sec): 2.000000E-2
Scans to average: 10
Electric dark correction enabled: true
Nonlinearity correction enabled: false
Boxcar width: 0
XAxis mode: Wavelengths
Number of Pixels in Spectrum: 2048
>>>>>Begin Spectral Data<<<<<
341.393	-9.42
341.776	-9.42
342.16	-9.42
342.543	-72.7
342.927	-68.85
343.31	-64.56
343.693	-78.35
344.077	-69.53
344.46	-67.95
344.843	-38.12
345.226	-37.67
345.61	-24.79
345.993	-27.73
346.376	-8.74
346.759	18.38
347.142	43.91
347.525	40.3
347.908	56.57
348.291	74.87
348.674	83.68
349.057	99.73
349.44	113.29
349.823	137.24
350.206	165.94
350.588	183.57
350.971	214.98
351.354	207.3
351.737	227.41
352.119	266.28
352.502	251.36
352.884	273.96
353.267	298.59
353.65	310.12
354.032	310.57
354.414	331.14
354.797	308.09
355.179	321.42
355.562	337.24
355.944	320.51
356.326	326.84
356.709	340.85
357.091	331.14
357.473	343.11
357.855	328.42
358.238	332.27
358.62	350.34
359.002	328.65
359.384	333.85
359.766	334.53
360.148	335.66
360.53	344.47
360.912	342.66
361.294	340.63
361.676	330.01
362.057	346.5
362.439	327.07
362.821	310.34
363.203	310.57
363.584	331.14
363.966	325.94
364.348	295.2
364.729	322.1
365.111	341.53
365.493	311.02
365.874	332.94
366.256	309.22
366.637	275.77
367.019	297.69
367.4	321.87
367.781	329.55
368.163	304.47
368.544	317.8
368.925	304.7
369.306	318.93
369.688	316.22
370.069	318.93
370.45	321.42
370.831	301.31
371.212	301.98
371.593	309.67
371.974	311.7
372.355	328.2
372.736	315.77
373.117	316.22
373.498	316.9
373.879	326.16
374.26	303.57
374.641	301.98
375.021	312.15
375.402	324.81
375.783	320.74
376.163	337.01
376.544	358.71
376.925	332.04
377.305	307.63
377.686	339.27
378.066	329.55
378.447	320.06
378.827	310.57
379.208	321.19
379.588	325.03
379.968	324.36
380.349	328.88
380.729	353.73
381.109	337.24
381.489	317.58
381.87	326.16
382.25	348.76
382.63	351.47
383.01	346.95
383.39	318.03
383.77	342.43
384.15	340.85
384.53	344.69
384.91	362.77
385.29	326.62
385.67	346.95
386.049	348.76
386.429	313.28
386.809	354.86
387.189	334.53
387.568	352.6
387.948	339.72
388.328	336.33
388.707	336.11
389.087	348.08
389.466	357.12
389.846	350.57
390.225	357.8
390.605	369.78
390.984	352.83
391.363	369.55
391.743	391.25
392.122	341.53
392.501	373.39
392.881	367.29
393.26	389.89
393.639	381.98
394.018	379.5
394.397	374.98
394.776	363
395.155	386.05
395.534	381.08
395.913	367.29
396.292	386.05
396.671	393.51
397.05	379.72
397.429	387.86
397.808	379.95
398.186	385.37
398.565	377.01
398.944	394.86
399.323	387.18
399.701	389.89
400.08	375.2
400.458	382.66
400.837	398.25
401.215	391.7
401.594	418.36
401.972	390.79
402.351	394.41
402.729	393.96
403.107	402.09
403.486	412.72
403.864	411.81
404.242	390.12
404.62	393.96
404.999	399.16
405.377	399.61
405.755	393.96
406.133	418.36
406.511	442.09
406.889	459.95
407.267	422.88
407.645	426.05
408.023	420.85
408.401	428.53
408.779	398.48
409.156	439.38
409.534	404.58
409.912	430.57
410.29	459.72
410.667	450.91
411.045	430.57
411.422	443.22
411.8	455.65
412.178	479.15
412.555	453.39
412.933	441.19
413.31	450.91
413.687	465.37
414.065	451.36
414.442	432.6
414.819	478.48
415.197	468.53
415.574	469.44
415.951	477.35
416.328	469.66
416.705	482.32
417.082	483
417.46	487.52
417.837	475.31
418.214	492.04
418.591	486.61
418.967	508.53
419.344	517.8
419.721	510.79
420.098	508.53
420.475	504.46
420.852	494.07
421.228	515.09
421.605	509.89
421.982	527.51
422.358	532.49
422.735	511.24
423.111	517.35
423.488	514.63
423.864	553.28
424.241	525.25
424.617	536.1
424.994	559.15
425.37	530.68
425.746	535.2
426.123	555.54
426.499	544.92
426.875	548.98
427.251	560.96
427.627	570.68
428.003	574.97
428.379	572.03
428.756	584.01
429.132	567.06
429.507	595.31
429.883	594.18
430.259	580.62
430.635	600.28
431.011	605.93
431.387	602.09
431.763	618.81
432.138	626.72
432.514	624.69
432.89	597.57
433.265	613.61
433.641	651.58
434.016	630.34
434.392	652.93
434.767	649.09
435.143	654.06
435.518	689.54
435.894	650.22
436.269	651.8
436.644	679.37
437.02	665.82
437.395	676.66
437.77	682.54
438.145	684.8
438.52	681.86
438.895	683.67
439.271	690.9
439.646	702.88
440.021	702.65
440.395	732.48
440.77	708.53
441.145	719.83
441.52	717.57
441.895	729.09
442.27	722.31
442.645	776.77
443.019	753.95
443.394	724.57
443.769	762.76
444.143	728.19
444.518	757.34
444.892	752.14
445.267	756.66
445.641	764.12
446.016	760.5
446.39	772.25
446.764	756.66
447.139	770.22
447.513	788.3
447.887	783.33
448.262	780.84
448.636	781.74
449.01	817.22
449.384	797.56
449.758	815.64
450.132	807.28
450.506	809.09
450.88	821.07
451.254	810.67
451.628	833.72
452.002	850.9
452.376	872.59
452.75	859.26
453.123	870.1
453.497	875.3
453.871	875.3
454.244	871.91
454.618	887.28
454.992	900.84
455.365	903.1
455.739	925.7
456.112	908.3
456.486	915.75
456.859	937.45
457.232	953.04
457.606	967.95
457.979	971.57
458.352	997.78
458.725	992.13
459.099	997.33
459.472	1029.2
459.845	1008.86
460.218	1026.26
460.591	1023.09
460.964	1040.04
461.337	1049.53
461.71	1085.47
462.083	1101.51
462.456	1074.62
462.829	1066.26
463.201	1127.72
463.574	1113.94
463.947	1111.23
464.32	1137.67
464.692	1160.94
465.065	1162.3
465.438	1187.16
465.81	1193.26
466.183	1195.07
466.555	1223.32
466.928	1264.67
467.3	1239.59
467.672	1230.32
468.045	1281.62
468.417	1298.34
468.789	1290.88
469.161	1309.19
469.534	1347.38
469.906	1378.79
470.278	1365.68
470.65	1402.07
471.022	1431.45
471.394	1447.49
471.766	1474.61
472.138	1474.38
472.51	1511.67
472.882	1512.57
473.253	1574.49
473.625	1594.6
473.997	1579.24
474.369	1630.76
474.74	1656.75
475.112	1687.03
475.484	1697.2
475.855	1744.21
476.227	1756.86
476.598	1840.25
476.97	1842.06
477.341	1871.43
477.713	1913.69
478.084	1933.58
478.455	1959.57
478.827	1999.79
479.198	2056.51
479.569	2093.35
479.94	2143.74
480.311	2174.25
480.682	2233.01
481.053	2275.94
481.424	2347.13
481.795	2376.51
482.166	2431.65
482.537	2447.01
482.908	2534.24
483.279	2574.92
483.65	2594.13
484.021	2630.51
484.391	2704.18
484.762	2763.39
485.133	2808.13
485.503	2812.2
485.874	2885.87
486.244	2956.83
486.615	3017.62
486.985	3068.92
487.356	3156.37
487.726	3157.73
488.097	3277.72
488.467	3244.73
488.837	3347.1
489.207	3425.52
489.578	3467.1
489.948	3541.67
490.318	3607.66
490.688	3620.09
491.058	3728.11
491.428	3757.49
491.798	3825.05
492.168	3897.6
492.538	3918.39
492.908	4020.76
493.278	4050.81
493.648	4113.63
494.017	4154.31
494.387	4236.57
494.757	4237.25
495.126	4312.5
495.496	4328.54
495.866	4429.56
496.235	4453.51
496.605	4484.92
496.974	4507.75
497.344	4574.19
497.713	4619.38
498.082	4682.89
498.452	4761.75
498.821	4835.2
499.19	4828.42
499.559	4830.23
499.928	4866.38
500.298	4914.97
500.667	4965.59
501.036	5013.5
501.405	5053.72
501.774	5051.01
502.143	5175.53
502.512	5172.59
502.88	5188.18
503.249	5210.1
503.618	5303.89
503.987	5273.15
504.356	5377.33
504.724	5383.21
505.093	5398.57
505.462	5396.76
505.83	5450.32
506.199	5514.5
506.567	5587.04
506.936	5581.39
507.304	5677.89
507.672	5660.03
508.041	5686.93
508.409	5745
508.777	5772.12
509.145	5825
509.514	5861.84
509.882	5934.6
510.25	5924.89
510.618	5957.65
510.986	5956.52
511.354	6020.25
511.722	6114.26
512.09	6090.98
512.458	6124.88
512.826	6143.19
513.193	6193.81
513.561	6210.75
513.929	6261.15
514.297	6310.87
514.664	6340.02
515.032	6302.96
515.4	6354.71
515.767	6477.19
516.135	6469.51
516.502	6379.11
516.869	6484.65
517.237	6519.67
517.604	6564.42
517.972	6560.8
518.339	6641.93
518.706	6638.77
519.073	6619.56
519.44	6660.01
519.808	6770.06
520.175	6719.89
520.542	6765.09
520.909	6841.7
521.276	6792.66
521.643	6882.83
522.009	6918.98
522.376	6997.17
522.743	7007.12
523.11	7025.87
523.477	7134.12
523.843	7173.22
524.21	7157.4
524.577	7208.69
524.943	7259.09
525.31	7325.75
525.676	7343.83
526.043	7460.67
526.409	7417.28
526.776	7445.3
527.142	7516.94
527.508	7567.1
527.874	7570.04
528.241	7593.32
528.607	7625.18
528.973	7679.87
529.339	7741.56
529.705	7775.69
530.071	7878.51
530.437	7896.36
530.803	7907.43
531.169	7925.74
531.535	7959.41
531.901	7984.04
532.267	8071.04
532.632	8053.42
532.998	8158.27
533.364	8181.55
533.73	8142.91
534.095	8233.3
534.461	8258.38
534.826	8285.5
535.192	8290.47
535.557	8309.46
535.923	8406.4
536.288	8383.35
536.653	8497.02
537.019	8440.3
537.384	8537.02
537.749	8504.48
538.114	8611.37
538.479	8668.77
538.845	8612.73
539.21	8639.84
539.575	8718.94
539.94	8749.22
540.305	8817.47
540.67	8784.25
541.034	8892.94
541.399	8843.23
541.764	8882.77
542.129	8917.58
542.494	8977.24
542.858	8988.76
543.223	9060.17
543.587	9064.47
543.952	9179.04
544.316	9194.86
544.681	9124.12
545.045	9167.97
545.41	9287.74
545.774	9285.7
546.138	9290.22
546.503	9395.53
546.867	9320.5
547.231	9517.33
547.595	9438.69
547.959	9574.73
548.324	9525.02
548.688	9565.47
549.052	9584.68
549.416	9644.34
549.779	9670.55
550.143	9669.87
550.507	9729.08
550.871	9759.36
551.235	9802.3
551.599	9809.3
551.962	9871.22
552.326	9838.68
552.689	9914.61
553.053	9932.01
553.417	9961.84
553.78	10065.34
554.143	10039.13
554.507	10032.35
554.87	10129.3
555.234	10174.72
555.597	10099.69
555.96	10155.28
556.323	10246.81
556.686	10258.78
557.05	10261.27
557.413	10386.92
557.776	10309.86
558.139	10383.53
558.502	10450.42
558.865	10456.29
559.228	10514.37
559.59	10521.83
559.953	10560.7
560.316	10620.36
560.679	10639.11
561.041	10751.43
561.404	10845.89
561.767	10854.93
562.129	10820.35
562.492	10887.69
562.854	10830.52
563.217	10872.78
563.579	10960.46
563.941	11026.22
564.304	11018.09
564.666	11086.56
565.028	11098.99
565.39	11151.64
565.753	11128.14
566.115	11197.52
566.477	11216.5
566.839	11295.82
567.201	11321.35
567.563	11357.74
567.925	11435.48
568.287	11477.73
568.648	11502.14
569.01	11555.25
569.372	11641.57
569.734	11595.25
570.095	11668.46
570.457	11741.68
570.819	11732.42
571.18	11799.31
571.542	11928.12
571.903	11860.78
572.265	11961.79
572.626	11945.29
572.987	12089.02
573.349	12171.05
573.71	12252.18
574.071	12267.09
574.432	12327.43
574.794	12438.39
575.155	12485.84
575.516	12507.31
575.877	12642.68
576.238	12659.85
576.599	12819.62
576.96	12734.43
577.32	12879.28
577.681	13000.18
578.042	13130.57
578.403	13179.39
578.763	13258.48
579.124	13324.92
579.485	13435.65
579.845	13621.63
580.206	13755.19
580.566	13836.77
580.927	13973.71
581.287	14113.37
581.648	14232.24
582.008	14473.14
582.368	14503.87
582.728	14724.43
583.089	14888.94
583.449	15029.05
583.809	15249.61
584.169	15358.99
584.529	15515.82
584.889	15786.1
585.249	15805.76
585.609	15968.01
585.969	16228.34
586.329	16352.86
586.688	16676.24
587.048	16807.54
587.408	16957.14
587.768	17243.46
588.127	17510.8
588.487	17693.62
588.846	17986.72
589.206	18068.3
589.565	18271.91
589.925	18679.13
590.284	18855.85
590.643	19093.13
591.003	19285.21
591.362	19597.07
591.721	19846.1
592.08	20073.44
592.44	20300.78
592.799	20583.26
593.158	20899.86
593.517	21059.4
593.876	21315.67
594.235	21519.05
594.593	21849.67
594.952	22138.25
595.311	22224.8
595.67	22473.38
596.029	22944.33
596.387	23108.62
596.746	23406.91
597.104	23456.18
597.463	23722.84
597.822	24145.2
598.18	24275.14
598.538	24507.67
598.897	24803.71
599.255	24852.52
599.613	25439.63
599.972	25516.91
600.33	25806.62
600.688	25887.98
601.046	26222.66
601.404	26633.49
601.762	26679.14
602.12	27058.12
602.478	27235.51
602.836	27432.8
603.194	27534.71
603.552	27792.56
603.91	27861.03
604.268	28159.78
604.625	28350.96
604.983	28591.41
605.341	28625.53
605.698	29033.88
606.056	29213.09
606.413	29467.32
606.771	29570.59
607.128	29903.92
607.485	29810.59
607.843	30064.14
608.2	30313.62
608.557	30627.74
608.914	30654.63
609.272	31028.41
609.629	31113.83
609.986	31495.29
610.343	31435.4
610.7	31804.88
611.057	32039.91
611.414	31970.3
611.771	31987.93
612.127	32333.01
612.484	32448.93
612.841	32647.12
613.198	32749.04
613.554	32915.14
613.911	33119.65
614.267	33182.47
614.624	33302.7
614.98	33479.42
615.337	33643.93
615.693	33891.38
616.05	33780.43
616.406	34067.65
616.762	34281.2
617.118	34177.25
617.475	34219.28
617.831	34546.28
618.187	34653.17
618.543	34835.99
618.899	34978.36
619.255	35003.9
619.611	35224.23
619.967	35290.89
620.323	35463.32
620.678	35240.27
621.034	35192.37
621.39	35407.95
621.746	35403.43
622.101	35936.98
622.457	35694.95
622.812	35857.88
623.168	36062.63
623.523	36039.8
623.879	36186.46
624.234	35906.92
624.589	36282.51
624.945	36266.91
625.3	36416.74
625.655	36391.88
626.01	36562.5
626.365	36429.85
626.72	36530.41
627.075	36600.92
627.43	36644.3
627.785	36606.11
628.14	36727.69
628.495	36760.23
628.85	36760.91
629.205	36611.54
629.559	36918.2
629.914	36802.72
630.269	36908.7
630.623	36756.62
630.978	36916.84
631.332	36991.41
631.687	37075.03
632.041	36844.3
632.396	37027.12
632.75	36966.56
633.104	37107.57
633.459	36796.17
633.813	36862.15
634.167	36901.93
634.521	36861.02
634.875	37112.09
635.229	37105.08
635.583	36895.82
635.937	36848.37
636.291	36851.98
636.645	36850.63
636.999	36876.62
637.352	37092.43
637.706	36789.16
638.06	36956.39
638.413	36858.31
638.767	36781.02
639.121	37003.17
639.474	36845.2
639.828	36878.65
640.181	36887.91
640.534	36859.44
640.888	36722.72
641.241	36627.13
641.594	36753.68
641.947	36920
642.301	36798.2
642.654	36816.5
643.007	36685.21
643.36	36770.4
643.713	36574.93
644.066	36743.29
644.419	36558.43
644.771	36365.22
645.124	36070.31
645.477	36055.85
645.83	35738.79
646.182	35706.93
646.535	35452.02
646.888	35613.6
647.24	35405.92
647.593	35696.08
647.945	35490.89
648.298	35506.93
648.65	35323.66
649.002	35376.99
649.355	35556.42
649.707	35427.39
650.059	35577.44
650.411	35979.46
650.763	36131.55
651.115	36368.83
651.467	36296.07
651.819	36299.23
652.171	36223.07
652.523	36135.39
652.875	36230.3
653.227	36054.94
653.578	36320.25
653.93	36190.53
654.282	36046.81
654.633	36060.82
654.985	36123.19
655.337	36081.61
655.688	36067.82
656.039	36236.86
656.391	35927.94
656.742	36010.65
657.094	35942.18
657.445	36220.14
657.796	35904.21
658.147	35902.18
658.498	35942.85
658.849	36047.26
659.2	35871.67
659.551	35711.45
659.902	35898.34
660.253	35831.9
660.604	36047.48
660.955	35780.6
661.306	35933.36
661.656	35759.36
662.007	35798.68
662.358	35817.21
662.708	35826.7
663.059	35813.14
663.409	35611.79
663.76	35854.04
664.11	35822.18
664.461	35899.69
664.811	35798.23
665.161	35835.51
665.511	35640.72
665.862	35829.19
666.212	35886.58
666.562	35788.96
666.912	35826.93
667.262	35709.64
667.612	35656.08
667.962	35762.52
668.312	35856.3
668.662	35843.65
669.011	35820.15
669.361	35764.1
669.711	35687.49
670.06	35635.52
670.41	35648.62
670.76	35549.64
671.109	35771.33
671.459	35668.29
671.808	35631.9
672.157	35741.73
672.507	35568.85
672.856	35499.7
673.205	35574.95
673.554	35507.39
673.904	35518.01
674.253	35569.98
674.602	35628.29
674.951	35010.68
675.3	34798.03
675.649	35308.52
675.998	35298.13
676.346	35452.92
676.695	35454.96
677.044	35201.18
677.393	35366.82
677.741	35335.19
678.09	35167.06
678.438	35048.41
678.787	35269.2
679.135	35155.76
679.484	34972.94
679.832	35186.04
680.181	34963.45
680.529	35044.12
680.877	35002.31
681.225	34811.58
681.573	35176.55
681.922	34912.82
682.27	34778.82
682.618	34842.09
682.966	34604.13
683.314	34734.07
683.661	34799.83
684.009	34617.69
684.357	34454.98
684.705	34379.73
685.053	34531.14
685.4	34361.88
685.748	34273.97
686.095	34256.35
686.443	34178.83
686.79	34056.35
687.138	34124.15
687.485	34145.39
687.832	33878.95
688.18	34067.42
688.527	33770.48
688.874	33828.11
689.221	33693.42
689.568	33713.31
689.915	33641.22
690.262	33640.99
690.609	33496.82
690.956	33334.11
691.303	33308.12
691.65	33201.68
691.997	33230.84
692.344	33118.75
692.69	33117.84
693.037	32952.2
693.383	32762.37
693.73	32906.1
694.077	32719.89
694.423	32600.8
694.769	32553.79
695.116	32543.62
695.462	32446.68
695.808	32279.9
696.155	32401.93
696.501	32151.54
696.847	32194.93
697.193	31862.74
697.539	32069.74
697.885	31813.7
698.231	31738.22
698.577	31741.16
698.923	31718.56
699.269	31560.6
699.614	31380.49
699.96	31292.58
700.306	31313.15
700.651	31112.92
700.997	31172.13
701.342	31042.87
701.688	31010.1
702.033	30999.03
702.379	30924
702.724	30733.95
703.069	30811.69
703.415	30566.72
703.76	30653.28
704.105	30605.59
704.45	30412.15
704.795	30230.01
705.14	30249.9
705.485	30090.58
705.83	30004.71
706.175	30085.83
706.52	30005.61
706.865	29960.64
707.209	29854.43
707.554	29754.32
707.899	29834.31
708.243	29640.65
708.588	29660.76
708.932	29441.33
709.277	29371.5
709.621	29440.43
709.966	29275.91
710.31	29243.37
710.654	29028.01
710.998	29144.62
711.342	29158.63
711.687	28967.67
712.031	28969.03
712.375	28808.35
712.719	28848.8
713.063	28774.91
713.407	28934
713.75	28719.54
714.094	28775.13
714.438	28382.15
714.782	28633.67
715.125	28493.56
715.469	28445.42
715.812	28233.23
716.156	28155.04
716.499	28332.43
716.843	28274.13
717.186	27886.34
717.53	28147.81
717.873	28175.15
718.216	28077.07
718.559	27982.61
718.902	27843.41
719.246	27821.71
719.589	27750.75
719.932	27588.27
720.275	27703.52
720.617	27675.28
720.96	27590.53
721.303	27526.8
721.646	27542.85
721.989	27412.01
722.331	27518.22
722.674	27360.03
723.016	27341.95
723.359	27397.54
723.701	27311.22
724.044	27133.14
724.386	26965.24
724.729	27152.35
725.071	26934.5
725.413	26918.01
725.755	27038.23
726.097	26805.24
726.439	26722.31
726.782	26746.26
727.124	26869.19
727.465	26723.44
727.807	26688.63
728.149	26588.98
728.491	26466.04
728.833	26649.99
729.175	26460.62
729.516	26431.24
729.858	26509.88
730.199	26471.24
730.541	26399.15
730.882	26350.79
731.224	26451.58
731.565	26248.19
731.906	26300.85
732.248	26206.84
732.589	26203.22
732.93	26000.29
733.271	26070.35
733.612	26074.64
733.953	26034.41
734.294	25966.17
734.635	25883.23
734.976	25923
735.317	25836.23
735.658	25714.42
735.999	25728.66
736.339	25706.51
736.68	25947.64
737.021	25771.37
737.361	25630.36
737.702	25706.97
738.042	25602.34
738.383	25490.25
738.723	25614.31
739.063	25544.94
739.404	25635.55
739.744	25431.27
740.084	25314.66
740.424	25431.04
740.764	25351.49
741.104	25412.28
741.444	25171.84
741.784	25049.81
742.124	25173.19
742.464	25248.67
742.804	25100.43
743.143	25165.06
743.483	25143.14
743.823	24963.26
744.162	24942.47
744.502	24962.58
744.841	24864.5
745.181	24976.14
745.52	24940.21
745.86	24890.49
746.199	24820.43
746.538	24843.94
746.877	24826.54
747.216	24822.24
747.556	24672.42
747.895	24708.57
748.234	24714.45
748.573	24579.09
748.911	24475.36
749.25	24544.96
749.589	24444.4
749.928	24481.91
750.267	24476.04
750.605	24459.77
750.944	24324.85
751.283	24426.1
751.621	24354.23
751.96	24179.77
752.298	24237.63
752.636	24318.98
752.975	24151.3
753.313	24000.8
753.651	24159.89
753.989	23979.33
754.327	23960.12
754.666	23808.94
755.004	23882.83
755.342	23813.46
755.679	23809.61
756.017	23741.82
756.355	23743.4
756.693	23544.54
757.031	23657.53
757.368	23455.27
757.706	23530.3
758.044	23389.06
758.381	23451.21
758.719	23373.02
759.056	23506.35
759.394	23281.49
759.731	23204.66
760.068	23182.06
760.405	23121.5
760.743	23062.74
761.08	22972.8
761.417	22933.25
761.754	22801.5
762.091	22760.6
762.428	22764.22
762.765	22794.5
763.102	22671.56
763.438	22542.53
763.775	22390.67
764.112	22427.96
764.449	22403.1
764.785	22296.43
765.122	22155.87
765.458	22057.57
765.795	22067.96
766.131	22091.02
766.467	21928.99
766.804	21920.4
767.14	21817.35
767.476	21792.94
767.812	21724.92
768.148	21773.74
768.485	21519.28
768.821	21469.79
769.157	21440.18
769.492	21344.14
769.828	21301.43
770.164	21198.61
770.5	21144.15
770.836	21141.21
771.171	21027.77
771.507	20906.87
771.842	20772.86
772.178	20934.66
772.513	20835.91
772.849	20806.3
773.184	20634.1
773.519	20604.73
773.855	20423.49
774.19	20419.42
774.525	20416.26
774.86	20360.44
775.195	20219.65
775.53	20172.65
775.865	20141.91
776.2	19908.25
776.535	19792.77
776.87	19895.14
777.205	19699.89
777.539	19586.9
777.874	19618.99
778.209	19416.51
778.543	19424.87
778.878	19311.88
779.212	19445.66
779.547	19157.31
779.881	19306
780.215	19142.39
780.55	19117.53
780.884	19028.27
781.218	18955.28
781.552	19018.1
781.886	18849.07
782.22	18694.27
782.554	18675.06
782.888	18495.63
783.222	18496.76
783.556	18299.93
783.889	18382.41
784.223	18242.08
784.557	18179.25
784.89	18278.01
785.224	18081.63
785.557	17966.83
785.891	18019.94
786.224	17881.18
786.558	17960.28
786.891	17822.65
787.224	17762.99
787.557	17619.72
787.891	17665.82
788.224	17602.77
788.557	17603.9
788.89	17413.17
789.223	17452.72
789.556	17308.09
789.888	17307.41
790.221	17163.69
790.554	17055.22
790.887	17058.83
791.219	16937.48
791.552	16892.28
791.884	16918.27
792.217	16788.56
792.549	16848.67
792.882	16620.42
793.214	16600.09
793.546	16687.54
793.879	16492.29
794.211	16408.68
794.543	16519.41
794.875	16477.83
795.207	16481.67
795.539	16314.67
795.871	16344.73
796.203	16157.16
796.535	16084.85
796.867	16074.68
797.198	16030.61
797.53	16005.53
797.862	15917.84
798.193	15922.14
798.525	15831.07
798.856	15867.22
799.188	15665.87
799.519	15652.09
799.85	15581.13
800.182	15505.43
800.513	15488.7
800.844	15408.48
801.175	15500.68
801.506	15366.45
801.837	15259.56
802.168	15252.32
802.499	15330.29
802.83	15175.04
803.161	15108.37
803.491	15119
803.822	15038.32
804.153	15054.14
804.483	14906.12
804.814	14904.99
805.145	14897.53
805.475	14806.69
805.805	14744.32
806.136	14775.05
806.466	14699.12
806.796	14744.32
807.126	14531.44
807.457	14647.6
807.787	14521.72
808.117	14458.22
808.447	14429.97
808.777	14467.03
809.107	14383.87
809.436	14344.1
809.766	14310.88
810.096	14259.36
810.426	14175.97
810.755	14258.23
811.085	14251.9
811.414	14051.9
811.744	14060.04
812.073	14064.11
812.403	14021.85
812.732	13905.02
813.061	13922.42
813.39	13877.9
813.719	13786.6
814.049	13834.06
814.378	13756.32
814.707	13660.5
815.036	13723.1
815.365	13657.34
815.693	13606.04
816.022	13571.01
816.351	13496.66
816.68	13408.31
817.008	13422.09
817.337	13378.25
817.665	13369.89
817.994	13383.67
818.322	13362.88
818.651	13171.25
818.979	13218.71
819.307	13260.29
819.636	13230.01
819.964	13163.79
820.292	13276.56
820.62	13188.88
820.948	13175.54
821.276	13133.28
821.604	13099.61
821.932	13168.76
822.259	13244.47
822.587	13121.31
822.915	13116.11
823.243	13126.96
823.57	13089.9
823.898	13104.81
824.225	13000.86
824.553	13096
824.88	13016.9
825.207	13061.65
825.535	13051.7
825.862	13062.33
826.189	13071.14
826.516	13056.22
826.843	13075.66
827.17	13017.58
827.497	13058.94
827.824	13100.97
828.151	13024.13
828.478	13030.91
828.805	12997.69
829.131	13062.1
829.458	13057.13
829.785	12924.25
830.111	12981.42
830.438	13052.16
830.764	12989.11
831.09	12991.59
831.417	12889
831.743	13018.03
832.069	13023.46
832.395	12928.09
832.722	13023.68
833.048	12914.99
833.374	12958.15
833.7	12889
834.026	12834.08
834.351	12914.99
834.677	12893.06
835.003	12896.68
835.329	12929.45
835.654	12793.18
835.98	12765.84
836.306	12755.22
836.631	12740.75
836.956	12734.2
837.282	12782.56
837.607	12720.87
837.932	12681.77
838.258	12676.35
838.583	12600.64
838.908	12667.53
839.233	12662.79
839.558	12572.85
839.883	12536.24
840.208	12550.02
840.533	12541.66
840.858	12522
841.182	12502.57
841.507	12422.34
841.832	12380.08
842.156	12393.87
842.481	12362.91
842.805	12370.14
843.13	12308
843.454	12260.54
843.778	12179.41
844.103	12216.92
844.427	12220.77
844.751	12102.13
845.075	12180.77
845.399	12118.4
845.723	11996.82
846.047	12107.77
846.371	11947.55
846.695	11890.83
847.019	11885.86
847.343	11803.15
847.666	11703.94
847.99	11669.37
848.313	11689.48
848.637	11627.11
848.96	11689.48
849.284	11615.13
849.607	11451.52
849.931	11463.05
850.254	11364.07
850.577	11400.45
850.9	11285.42
851.223	11281.58
851.546	11157.52
851.869	11026.45
852.192	11082.04
852.515	11013.11
852.838	11049.05
853.161	11061.47
853.483	10923.4
853.806	10923.63
854.129	10908.03
854.451	10914.13
854.774	10797.98
855.096	10776.96
855.419	10732.9
855.741	10719.11
856.063	10712.11
856.385	10578.32
856.708	10606.8
857.03	10542.84
857.352	10650.64
857.674	10479.57
857.996	10531.09
858.318	10450.42
858.64	10446.35
858.961	10383.3
859.283	10372.23
859.605	10304.43
859.926	10376.97
860.248	10314.83
860.57	10181.95
860.891	10233.47
861.212	10181.95
861.534	10243.42
861.855	10094.49
862.176	10145.11
862.498	10124.78
862.819	10061.27
863.14	10074.83
863.461	10021.28
863.782	10038.22
864.103	10052.69
864.424	10061.95
864.745	10022.41
865.065	9898.79
865.386	9900.15
865.707	9895.86
866.027	9960.26
866.348	9847.27
866.668	9875.29
866.989	9792.58
867.309	9728.85
867.63	9797.1
867.95	9804.11
868.27	9824.67
868.59	9812.02
868.91	9757.1
869.23	9761.62
869.55	9665.35
869.87	9787.38
870.19	9721.85
870.51	9706.71
870.83	9687.27
871.15	9611.34
871.469	9597.78
871.789	9644.79
872.109	9581.29
872.428	9568.41
872.748	9595.07
873.067	9587.39
873.386	9614.06
873.706	9570.89
874.025	9451.35
874.344	9447.28
874.663	9521.85
874.982	9423.1
875.301	9467.17
875.62	9407.51
875.939	9353.72
876.258	9448.41
876.577	9414.06
876.896	9325.7
877.214	9279.6
877.533	9330.9
877.852	9372.48
878.17	9312.37
878.489	9318.92
878.807	9362.76
879.125	9261.75
879.444	9294.06
879.762	9250.67
880.08	9231.47
880.398	9193.73
880.716	9218.36
881.034	9138.59
881.352	9115.09
881.67	9084.58
881.988	9094.52
882.306	9097.46
882.624	9136.33
882.941	9038.93
883.259	9026.73
883.577	8988.76
883.894	8923
884.212	8970.68
884.529	8954.64
884.846	8869.89
885.164	8864.92
885.481	8858.14
885.798	8860.4
886.115	8804.58
886.432	8790.57
886.75	8879.61
887.067	8801.87
887.383	8687.53
887.7	8728.43
888.017	8702.21
888.334	8756.22
888.651	8649.56
888.967	8659.73
889.284	8618.83
889.6	8530.92
889.917	8518.94
890.233	8516
890.55	8464.93
890.866	8491.6
891.182	8427.65
891.498	8437.36
891.815	8431.49
892.131	8388.78
892.447	8363.69
892.763	8365.73
893.079	8287.31
893.395	8305.39
893.71	8299.06
894.026	8254.99
894.342	8269.01
894.657	8175.22
894.973	8128.22
895.289	8163.7
895.604	8118.28
895.92	8098.61
896.235	8066.07
896.55	8009.35
896.865	8036.47
897.181	7987.66
897.496	7972.06
897.811	7900.88
898.126	7896.36
898.441	7831.05
898.756	7898.39
899.071	7812.52
899.386	7869.47
899.7	7757.61
900.015	7725.07
900.33	7591.96
900.644	7699.3
900.959	7652.75
901.273	7676.7
901.588	7605.52
901.902	7553.77
902.216	7546.76
902.531	7506.54
902.845	7545.63
903.159	7404.4
903.473	7386.77
903.787	7384.28
904.101	7314.68
904.415	7344.96
904.729	7346.54
905.042	7320.78
905.356	7260.22
905.67	7190.84
905.984	7232.87
906.297	7207.34
906.611	7126.66
906.924	7140.67
907.237	7120.11
907.551	7099.77
907.864	7084.4
908.177	7035.37
908.491	6958.98
908.804	7001.69
909.117	6935.93
909.43	6923.96
909.743	6888.7
910.056	6882.83
910.368	6827.24
910.681	6773.9
910.994	6792.66
911.307	6742.49
911.619	6676.96
911.932	6711.76
912.244	6628.6
912.557	6617.75
912.869	6631.31
913.181	6588.6
913.494	6578.2
913.806	6512.22
914.118	6526.23
914.43	6471.76
914.742	6481.71
915.054	6448.26
915.366	6430.64
915.678	6370.3
915.99	6334.14
916.302	6300.02
916.613	6281.26
916.925	6255.27
917.236	6244.65
917.548	6185.9
917.859	6217.31
918.171	6191.09
918.482	6149.51
918.794	6100.93
919.105	6190.42
919.416	6059.8
919.727	6058.89
920.038	6080.36
920.349	6015.28
920.66	5956.52
920.971	5954.49
921.282	5913.14
921.593	5900.03
921.903	5867.94
922.214	5875.85
922.525	5845.34
922.835	5779.81
923.146	5777.32
923.456	5736.19
923.767	5706.14
924.077	5684.89
924.387	5627.72
924.697	5699.58
925.008	5661.84
925.318	5608.06
925.628	5572.35
925.938	5579.13
926.248	5524.45
926.558	5502.98
926.867	5497.78
927.177	5443.09
927.487	5449.87
927.796	5399.25
928.106	5402.64
928.416	5405.35
928.725	5347.73
929.034	5313.38
929.344	5309.99
929.653	5311.8
929.962	5293.72
930.271	5245.13
930.581	5245.81
930.89	5209.88
931.199	5163.55
931.508	5180.5
931.817	5176.66
932.125	5119.03
932.434	5054.4
932.743	5068.19
933.051	5008.07
933.36	5006.49
933.669	5011.69
933.977	4972.37
934.286	4964.46
934.594	4952.48
934.902	4921.07
935.21	4912.94
935.519	4892.37
935.827	4871.35
936.135	4814.63
936.443	4790
936.751	4822.54
937.059	4801.3
937.367	4755.43
937.674	4757.01
937.982	4724.47
938.29	4675.2
938.597	4701.87
938.905	4673.39
939.213	4655.99
939.52	4617.12
939.827	4634.07
940.135	4588.65
940.442	4537.58
940.749	4574.19
941.056	4567.86
941.363	4468.43
941.67	4486.73
941.977	4478.37
942.284	4449.9
942.591	4439.5
942.898	4429.78
943.205	4432.95
943.511	4357.24
943.818	4392.27
944.125	4289.68
944.431	4345.04
944.738	4311.14
945.044	4266.17
945.35	4288.09
945.657	4274.99
945.963	4284.7
946.269	4204.25
946.575	4219.85
946.881	4215.33
947.187	4131.26
947.493	4123.8
947.799	4138.94
948.105	4125.39
948.41	4088.55
948.716	4056.24
949.022	4067.53
949.327	4089.45
949.633	4037.03
949.938	3992.28
950.244	4010.13
950.549	3951.83
950.854	3927.88
951.16	3962.23
951.465	3933.07
951.77	3886.75
952.075	3878.16
952.38	3838.84
952.685	3852.85
952.99	3849.01
953.294	3823.92
953.599	3802.91
953.904	3727.43
954.209	3756.36
954.513	3757.94
954.818	3742.12
955.122	3709.13
955.426	3727.66
955.731	3696.47
956.035	3663.48
956.339	3689.01
956.643	3679.07
956.948	3594.1
957.252	3591.84
957.556	3608.56
957.86	3575.34
958.163	3594.55
958.467	3546.87
958.771	3532.86
959.075	3489.24
959.378	3522.46
959.682	3484.72
959.985	3509.81
960.289	3462.58
960.592	3421.68
960.896	3421
961.199	3418.74
961.502	3373.09
961.805	3379.42
962.108	3370.15
962.411	3350.72
962.714	3301.9
963.017	3312.98
963.32	3323.83
963.623	3316.59
963.926	3253.54
964.228	3218.29
964.531	3250.61
964.833	3237.73
965.136	3241.12
965.438	3205.64
965.741	3168.57
966.043	3194.79
966.345	3166.54
966.648	3154.34
966.95	3147.56
967.252	3138.97
967.554	3091.97
967.856	3082.7
968.158	3063.49
968.46	3051.06
968.761	3044.51
969.063	3066.2
969.365	3044.96
969.666	3020.1
969.968	2964.96
970.269	3001.57
970.571	3004.29
970.872	2974.91
971.174	2926.77
971.475	2949.82
971.776	2902.59
972.077	2931.97
972.378	2934.91
972.679	2932.87
972.98	2902.59
973.281	2937.39
973.582	2851.52
973.883	2856.72
974.183	2844.52
974.484	2830.73
974.785	2776.27
975.085	2781.47
975.386	2770.62
975.686	2793.9
975.986	2756.16
976.287	2754.57
976.587	2704.86
976.887	2748.25
977.187	2728.36
977.487	2682.71
977.787	2676.16
978.087	2688.36
978.387	2679.55
978.687	2693.79
978.987	2622.6
979.286	2627.57
979.586	2609.04
979.885	2620.11
980.185	2588.7
980.484	2576.27
980.784	2584.86
981.083	2571.53
981.382	2578.31
981.682	2542.38
981.981	2508.71
982.28	2510.06
982.579	2485.2
982.878	2499.44
983.177	2513.22
983.475	2482.72
983.774	2490.17
984.073	2465.32
984.372	2429.39
984.67	2454.7
984.969	2436.84
985.267	2430.06
985.566	2407.24
985.864	2427.8
986.162	2408.59
986.461	2371.99
986.759	2383.96
987.057	2362.04
987.355	2345.55
987.653	2359.1
987.951	2334.92
988.249	2309.84
988.547	2310.29
988.844	2266.9
989.142	2291.54
989.44	2278.43
989.737	2245.66
990.035	2266.68
990.332	2239.11
990.63	2209.96
990.927	2196.4
991.224	2180.8
991.521	2193.23
991.819	2188.04
992.116	2188.26
992.413	2160.69
992.71	2135.16
993.006	2145.32
993.303	2167.02
993.6	2123.63
993.897	2134.7
994.193	2112.78
994.49	2110.07
994.787	2056.74
995.083	2031.88
995.379	2091.77
995.676	2054.71
995.972	2057.42
996.268	2056.29
996.565	1980.81
996.861	2025.55
997.157	2040.47
997.453	2009.51
997.749	1989.4
998.044	2016.97
998.34	1966.12
998.636	1963.41
998.932	1945.56
999.227	1926.12
999.523	1921.6
999.818	1920.7
1000.114	1925.9
1000.409	1930.87
1000.704	1895.39
1001	1880.47
1001.295	1897.42
1001.59	1875.05
1001.885	1856.29
1002.18	1844.54
1002.475	1824.2
1002.77	1830.08
1003.065	1834.15
1003.359	1809.29
1003.654	1803.64
1003.949	1795.28
1004.243	1793.24
1004.538	1759.8
1004.832	1764.32
1005.127	1746.92
1005.421	1754.37
1005.715	1752.34
1006.009	1729.74
1006.304	1699.69
1006.598	1704.88
1006.892	1721.61
1007.186	1678.44
1007.48	1676.86
1007.773	1665.79
1008.067	1668.95
1008.361	1692.68
1008.655	1645.45
1008.948	1614.04
1009.242	1633.25
1009.535	1627.82
1009.829	1603.42
1010.122	1609.07
1010.415	1591.67
1010.708	1582.85
1011.001	1581.27
1011.295	1563.87
1011.588	1565.68
1011.881	1539.24
1012.173	1509.18
1012.466	1516.64
1012.759	1498.56
1013.052	1541.95
1013.344	1497.66
1013.637	1495.4
1013.93	1497.21
1014.222	1473.93
1014.514	1483.2
1014.807	1499.47
1015.099	1476.87
1015.391	1444.1
1015.683	1435.97
1015.976	1477.77
1016.268	1402.97
1016.56	1418.79
1016.851	1393.25
1017.143	1376.31
1017.435	1392.58
1017.727	1375.85
1018.018	1352.13
1018.31	1374.27
1018.602	1326.82
1018.893	1370.43
1019.185	1351.67
1019.476	1328.85
1019.767	1353.03
1020.058	1334.95
1020.35	1306.48
1020.641	1309.87
1020.932	1298.34
1021.223	1292.01
1021.514	1284.56
1021.804	1256.99
1022.095	1250.66
1022.386	1259.47
1022.677	1251.79
1022.967	1241.39
1023.258	1229.19
1023.548	1205.69
1023.839	1181.73
1024.129	1222.19
1024.419	1183.32
1024.709	1210.89
1025	1200.04
1025.29	1153.03
1025.58	1177.67
1025.87	1154.84
1026.16	1121.4
1026.449	1146.03
1026.739	1155.29
1027.029	1127.72
1027.319	1122.98
1027.608	1105.8
1027.898	1117.56
1028.187	1121.85
1028.477	1085.24
1028.766	1082.08
1029.055	1066.26
1029.344	1073.04
1029.634	1083.66
1029.923	1074.62
1030.212	1067.39
1030.501	1043.66
1030.79	1066.71
1031.078	1055.86
1031.367	1052.02
1031.656	992.81
1031.945	1005.24
1032.233	1020.83
1032.522	1004.56
1032.81	1014.06
1033.099	965.24
1033.387	994.62
1033.675	960.27
1033.963	971.8
1034.251	966.82
1034.54	924.34
1034.828	962.31
1035.116	959.59
1035.403	953.49
1035.691	947.16
1035.979	960.5
1036.267	923.89
1036.554	917.11
1036.842	911.23
1037.129	900.84
1037.417	912.59
1037.704	913.94
1037.992	887.73
1038.279	900.61
1038.566	884.34
1038.853	884.34
1039.14	884.34
