Data from hue_210_FLMS001491_00046.txt Node
Date: Tue Feb 07 16:41:15 GMT 2017
User: dcchb
Spectrometer: FLMS00149
Trigger mode: 0
Integration Time (sec): 2.000000E-2
Scans to average: 10
Electric dark correction enabled: true
Nonlinearity correction enabled: false
Boxcar width: 0
XAxis mode: Wavelengths
Number of Pixels in Spectrum: 2048
>>>>>Begin Spectral Data<<<<<
341.393	-35.56
341.776	-35.56
342.16	-35.56
342.543	-65.17
342.927	-54.09
343.31	-71.5
343.693	-60.65
344.077	-38.95
344.46	-63.81
344.843	-50.7
345.226	-30.82
345.61	-27.43
345.993	-17.94
346.376	-18.39
346.759	3.98
347.142	31.1
347.525	36.98
347.908	45.34
348.291	70.42
348.674	84.21
349.057	108.16
349.44	134.15
349.823	142.28
350.206	173.7
350.588	196.97
350.971	208.72
351.354	236.07
351.737	244.65
352.119	275.84
352.502	253.47
352.884	277.65
353.267	267.25
353.65	267.7
354.032	309.51
354.414	309.51
354.797	296.86
355.179	299.57
355.562	314.48
355.944	352
356.326	345.22
356.709	333.24
357.091	336.18
357.473	329.17
357.855	327.36
358.238	349.74
358.62	348.61
359.002	340.92
359.384	332.79
359.766	343.64
360.148	342.96
360.53	310.42
360.912	328.95
361.294	342.28
361.676	330.08
362.057	331.66
362.439	327.14
362.821	317.2
363.203	336.63
363.584	345.44
363.966	317.87
364.348	320.58
364.729	337.31
365.111	297.76
365.493	313.35
365.874	305.9
366.256	309.74
366.637	308.38
367.019	302.05
367.4	312.9
367.781	318.1
368.163	316.52
368.544	337.53
368.925	308.16
369.306	295.05
369.688	312.68
370.069	289.63
370.45	313.35
370.831	298.66
371.212	306.35
371.593	315.61
371.974	310.42
372.355	315.84
372.736	321.71
373.117	312
373.498	296.86
373.879	311.55
374.26	290.98
374.641	306.35
375.021	303.86
375.402	318.1
375.783	320.58
376.163	344.31
376.544	319.68
376.925	327.14
377.305	331.43
377.686	332.56
378.066	312
378.447	357.65
378.827	340.7
379.208	339.12
379.588	340.02
379.968	340.02
380.349	328.72
380.729	349.06
381.109	317.65
381.489	346.57
381.87	359.91
382.25	326.23
382.63	339.79
383.01	340.47
383.39	341.38
383.77	349.06
384.15	353.8
384.53	333.92
384.91	337.99
385.29	337.08
385.67	354.71
386.049	356.52
386.429	339.79
386.809	364.88
387.189	360.36
387.568	346.8
387.948	354.03
388.328	350.19
388.707	383.41
389.087	365.33
389.466	362.39
389.846	370.98
390.225	350.87
390.605	357.19
390.984	369.85
391.363	359.91
391.743	367.36
392.122	376.4
392.501	387.7
392.881	382.73
393.26	370.08
393.639	381.6
394.018	368.49
394.397	361.26
394.776	382.05
395.155	384.54
395.534	394.48
395.913	392.22
396.292	392.45
396.671	414.82
397.05	380.7
397.429	398.32
397.808	385.22
398.186	403.52
398.565	396.51
398.944	403.52
399.323	421.15
399.701	400.58
400.08	399.9
400.458	420.24
400.837	435.16
401.215	418.66
401.594	415.05
401.972	410.3
402.351	427.93
402.729	423.41
403.107	436.74
403.486	433.8
403.864	427.02
404.242	466.34
404.62	441.94
404.999	457.98
405.377	471.77
405.755	431.32
406.133	465.89
406.511	460.02
406.889	466.12
407.267	491.65
407.645	474.71
408.023	497.3
408.401	488.72
408.779	491.43
409.156	500.69
409.534	510.64
409.912	515.16
410.29	512.22
410.667	521.94
411.045	535.49
411.422	548.6
411.8	536.17
412.178	566
412.555	567.13
412.933	578.66
413.31	577.53
413.687	601.26
414.065	615.49
414.442	593.8
414.819	604.42
415.197	612.1
415.574	630.18
415.951	650.29
416.328	655.94
416.705	649.84
417.082	674.93
417.46	669.73
417.837	695.49
418.214	699.11
418.591	688.71
418.967	728.26
419.344	732.78
419.721	729.84
420.098	725.32
420.475	721.7
420.852	769.39
421.228	769.39
421.605	801.25
421.982	805.77
422.358	789.5
422.735	829.95
423.111	826.79
423.488	846.45
423.864	843.73
424.241	860.01
424.617	876.95
424.994	913.34
425.37	925.09
425.746	916.05
426.123	922.15
426.499	934.13
426.875	982.71
427.251	971.64
427.627	992.88
428.003	990.4
428.379	1002.37
428.756	1031.75
429.132	1048.02
429.507	1058.87
429.883	1047.8
430.259	1054.35
430.635	1077.85
431.011	1093.67
431.387	1114.46
431.763	1149.94
432.138	1135.7
432.514	1178.64
432.89	1175.93
433.265	1196.95
433.641	1232.2
434.016	1243.27
434.392	1284.4
434.767	1291.86
435.143	1315.13
435.518	1335.47
435.894	1370.05
436.269	1388.13
436.644	1410.73
437.02	1421.12
437.395	1424.06
437.77	1474.45
438.145	1495.02
438.52	1521.01
438.895	1548.12
439.271	1565.07
439.646	1557.16
440.021	1612.08
440.395	1637.16
440.77	1614.11
441.145	1682.13
441.52	1692.07
441.895	1702.92
442.27	1736.59
442.645	1730.94
443.019	1765.52
443.394	1767.33
443.769	1797.16
444.143	1789.92
444.518	1848.91
444.892	1813.2
445.267	1845.97
445.641	1851.62
446.016	1849.13
446.39	1913.99
446.764	1923.48
447.139	1936.36
447.513	1933.2
447.887	1929.13
448.262	1968.23
448.636	1984.5
449.01	2013.65
449.384	2032.18
449.758	2017.94
450.132	2048.22
450.506	2078.5
450.88	2059.3
451.254	2085.28
451.628	2119.41
452.002	2139.52
452.376	2129.8
452.75	2161.67
453.123	2184.72
453.497	2223.36
453.871	2273.08
454.244	2280.53
454.618	2286.41
454.992	2306.52
455.365	2317.82
455.739	2393.98
456.112	2399.4
456.486	2429.68
456.859	2438.72
457.232	2475.56
457.606	2450.92
457.979	2506.74
458.352	2532.73
458.725	2553.07
459.099	2626.29
459.472	2664.03
459.845	2635.78
460.218	2665.61
460.591	2735.66
460.964	2741.54
461.337	2780.63
461.71	2867.41
462.083	2817.92
462.456	2907.64
462.829	2901.53
463.201	2921.19
463.574	2907.41
463.947	2984.92
464.32	3072.83
464.692	3040.29
465.065	3090.23
465.438	3122.09
465.81	3156.22
466.183	3213.84
466.555	3290.68
466.928	3283.67
467.3	3249.1
467.672	3317.79
468.045	3395.76
468.417	3416.55
468.789	3386.94
469.161	3493.38
469.534	3546.94
469.906	3573.61
470.278	3601.4
470.65	3645.24
471.022	3737.67
471.394	3794.62
471.766	3800.49
472.138	3831.23
472.51	3918
472.882	3979.25
473.253	3953.03
473.625	4030.32
473.997	4069.41
474.369	4123.2
474.74	4189.86
475.112	4258.56
475.484	4307.37
475.855	4405.9
476.227	4414.94
476.598	4532.23
476.97	4518.44
477.341	4644.54
477.713	4685.44
478.084	4683.86
478.455	4846.57
478.827	4879.33
479.198	4958.65
479.569	4948.94
479.94	5103.51
480.311	5167.46
480.682	5227.57
481.053	5323.17
481.424	5415.37
481.795	5465.08
482.166	5529.26
482.537	5583.5
482.908	5643.38
483.279	5738.97
483.65	5844.73
484.021	5891.96
484.391	5982.36
484.762	5999.76
485.133	6026.2
485.503	6130.6
485.874	6210.15
486.244	6279.75
486.615	6339.41
486.985	6437.49
487.356	6552.74
487.726	6551.61
488.097	6679.74
488.467	6690.13
488.837	6788.89
489.207	6893.07
489.578	7021.65
489.948	7027.98
490.318	7111.37
490.688	7123.12
491.058	7197.47
491.428	7253.74
491.798	7364.02
492.168	7515.88
492.538	7482.2
492.908	7593.16
493.278	7688.98
493.648	7681.3
494.017	7786.83
494.387	7867.96
494.757	7840.84
495.126	7952.47
495.496	7957.45
495.866	8000.61
496.235	8051.45
496.605	8093.04
496.974	8100.72
497.344	8201.06
497.713	8225.24
498.082	8309.98
498.452	8299.13
498.821	8369.86
499.19	8413.48
499.559	8473.59
499.928	8480.82
500.298	8493.7
500.667	8533.02
501.036	8529.18
501.405	8636.75
501.774	8606.69
502.143	8660.48
502.512	8634.04
502.88	8743.41
503.249	8725.11
503.618	8777.31
503.987	8788.38
504.356	8789.06
504.724	8870.42
505.093	8842.62
505.462	8891.66
505.83	8836.75
506.199	8976.18
506.567	8969.85
506.936	8970.3
507.304	9092.33
507.672	9102.73
508.041	9107.02
508.409	9134.59
508.777	9238.54
509.145	9272.21
509.514	9182.95
509.882	9248.26
510.25	9166.23
510.618	9238.32
510.986	9281.93
511.354	9326.9
511.722	9357.64
512.09	9408.03
512.458	9318.09
512.826	9439.89
513.193	9469.27
513.561	9363.06
513.929	9453.23
514.297	9488.93
514.664	9509.04
515.032	9540
515.4	9631.98
515.767	9512.21
516.135	9593.34
516.502	9479.89
516.869	9608.7
517.237	9601.47
517.604	9542.94
517.972	9620.45
518.339	9639.89
518.706	9512.43
519.073	9601.92
519.44	9644.86
519.808	9698.87
520.175	9662.26
520.542	9723.05
520.909	9638.76
521.276	9669.27
521.643	9751.52
522.009	9773.22
522.376	9770.51
522.743	9793.33
523.11	9811.86
523.477	9849.15
523.843	9843.95
524.21	9871.07
524.577	9930.95
524.943	9895.25
525.31	9945.19
525.676	9979.31
526.043	9846.21
526.409	9971.86
526.776	9999.2
527.142	9990.39
527.508	9953.78
527.874	10057.5
528.241	10043.94
528.607	9990.39
528.973	10081.68
529.339	9991.52
529.705	10000.33
530.071	10016.38
530.437	10036.04
530.803	10027.22
531.169	10076.94
531.535	9997.62
531.901	9999.43
532.267	9921.69
532.632	9965.53
532.998	9963.95
533.364	9998.97
533.73	9930.73
534.095	9939.99
534.461	9924.85
534.826	9872.88
535.192	9905.42
535.557	9881.46
535.923	9845.76
536.288	9878.07
536.653	9859.32
537.019	9723.95
537.384	9736.38
537.749	9790.17
538.114	9732.99
538.479	9635.82
538.845	9729.83
539.21	9675.82
539.575	9671.3
539.94	9688.7
540.305	9648.93
540.67	9607.57
541.034	9609.15
541.399	9531.19
541.764	9526.67
542.129	9496.84
542.494	9480.12
542.858	9486.9
543.223	9484.41
543.587	9459.78
543.952	9435.37
544.316	9312.21
544.681	9286.22
545.045	9312.21
545.41	9331.65
545.774	9314.25
546.138	9264.53
546.503	9254.81
546.867	9215.04
547.231	9213.23
547.595	9128.26
547.959	9186.34
548.324	9052.78
548.688	8994.26
549.052	9045.33
549.416	9018.44
549.779	9007.36
550.143	8983.18
550.507	8967.59
550.871	8923.75
551.235	8852.56
551.599	8917.87
551.962	8901.6
552.326	8882.17
552.689	8889.4
553.053	8824.54
553.417	8791.77
553.78	8841.04
554.143	8758.56
554.507	8774.6
554.87	8792.9
555.234	8743.19
555.597	8652.57
555.96	8698.9
556.323	8670.65
556.686	8702.06
557.05	8667.03
557.413	8719.46
557.776	8656.18
558.139	8634.26
558.502	8621.16
558.865	8575.73
559.228	8652.12
559.59	8596.53
559.953	8591.55
560.316	8637.88
560.679	8627.26
561.041	8615.73
561.404	8614.6
561.767	8644.43
562.129	8612.8
562.492	8672
562.854	8616.19
563.217	8598.79
563.579	8599.69
563.941	8648.5
564.304	8617.99
564.666	8607.15
565.028	8610.31
565.39	8653.47
565.753	8647.82
566.115	8646.47
566.477	8672.23
566.839	8645.79
567.201	8708.84
567.563	8704.77
567.925	8672
568.287	8702.51
568.648	8686.01
569.01	8738.67
569.372	8768.95
569.734	8698.22
570.095	8677.65
570.457	8763.75
570.819	8768.05
571.18	8745.22
571.542	8850.53
571.903	8799.68
572.265	8798.78
572.626	8845.33
572.987	8797.88
573.349	8847.59
573.71	8868.61
574.071	8893.47
574.432	8898.21
574.794	8949.74
575.155	8883.98
575.516	8902.05
575.877	8937.31
576.238	8970.75
576.599	8946.12
576.96	8923.97
577.32	8945.44
577.681	9048.94
578.042	9010.53
578.403	8994.48
578.763	8987.7
579.124	9004.88
579.485	9068.83
579.845	9122.61
580.206	9070.86
580.566	9039.23
580.927	9108.15
581.287	9084.2
581.648	9064.54
582.008	9109.28
582.368	9131.65
582.728	9091.2
583.089	9084.2
583.449	9079.45
583.809	9097.53
584.169	9109.51
584.529	9105.21
584.889	9164.42
585.249	9131.2
585.609	9095.72
585.969	9227.24
586.329	9102.95
586.688	9173.01
587.048	9191.54
587.408	9128.26
587.768	9170.75
588.127	9263.63
588.487	9115.61
588.846	9157.41
589.206	9184.76
589.565	9139.34
589.925	9221.37
590.284	9171.88
590.643	9248.26
591.003	9228.15
591.362	9235.83
591.721	9248.71
592.08	9211.65
592.44	9290.29
592.799	9219.79
593.158	9206.68
593.517	9150.64
593.876	9207.58
594.235	9200.58
594.593	9223.85
594.952	9247.81
595.311	9206.68
595.67	9230.63
596.029	9275.6
596.387	9268.15
596.746	9304.08
597.104	9244.42
597.463	9251.2
597.822	9240.8
598.18	9177.53
598.538	9272.21
598.897	9273.57
599.255	9206.45
599.613	9325.55
599.972	9241.25
600.33	9181.59
600.688	9248.26
601.046	9263.17
601.404	9327.81
601.762	9265.43
602.12	9394.92
602.478	9329.16
602.836	9297.52
603.194	9270.63
603.552	9243.74
603.91	9271.08
604.268	9301.59
604.625	9294.13
604.983	9327.35
605.341	9307.69
605.698	9324.64
606.056	9332.78
606.413	9319.44
606.771	9375.49
607.128	9307.92
607.485	9287.13
607.843	9337.52
608.2	9365.77
608.557	9348.6
608.914	9293.23
609.272	9370.97
609.629	9355.38
609.986	9419.78
610.343	9370.74
610.7	9412.32
611.057	9438.09
611.414	9421.36
611.771	9458.65
612.127	9469.5
612.484	9400.35
612.841	9500.23
613.198	9385.43
613.554	9377.3
613.911	9500.46
614.267	9458.88
614.624	9382.27
614.98	9466.56
615.337	9565.31
615.693	9444.41
616.05	9452.1
616.406	9528.93
616.762	9479.21
617.118	9510.63
617.475	9500.46
617.831	9537.52
618.187	9557.63
618.543	9542.94
618.899	9598.76
619.255	9648.7
619.611	9563.05
619.967	9610.06
620.323	9612.77
620.678	9582.71
621.034	9525.31
621.39	9555.14
621.746	9532.77
622.101	9654.35
622.457	9629.72
622.812	9554.24
623.168	9550.4
623.523	9579.78
623.879	9590.4
624.234	9569.83
624.589	9551.53
624.945	9577.97
625.3	9610.74
625.655	9612.54
626.01	9593.56
626.365	9538.87
626.72	9513.34
627.075	9543.17
627.43	9512.43
627.785	9488.25
628.14	9573
628.495	9582.94
628.85	9576.61
629.205	9509.72
629.559	9593.79
629.914	9446.45
630.269	9508.14
630.623	9521.02
630.978	9469.72
631.332	9491.19
631.687	9528.93
632.041	9476.95
632.396	9493
632.75	9366.9
633.104	9420.68
633.459	9371.65
633.813	9386.79
634.167	9368.03
634.521	9365.09
634.875	9383.17
635.229	9324.42
635.583	9289.61
635.937	9297.52
636.291	9283.96
636.645	9294.13
636.999	9260.91
637.352	9303.4
637.706	9265.89
638.06	9299.11
638.413	9285.32
638.767	9181.59
639.121	9275.6
639.474	9191.09
639.828	9238.77
640.181	9188.15
640.534	9252.1
640.888	9219.11
641.241	9103.86
641.594	9195.83
641.947	9242.61
642.301	9131.43
642.654	9233.34
643.007	9228.6
643.36	9159.22
643.713	9142.73
644.066	9145.89
644.419	9078.32
644.771	9039
645.124	8916.06
645.477	8908.61
645.83	8893.69
646.182	8909.29
646.535	8885.56
646.888	8848.27
647.24	8752.23
647.593	8834.49
647.945	8896.86
648.298	8785.45
648.65	8810.08
649.002	8840.81
649.355	8833.58
649.707	8788.16
650.059	8896.18
650.411	8964.43
650.763	9013.69
651.115	9030.19
651.467	8988.61
651.819	9002.84
652.171	8998.32
652.523	8983.18
652.875	8933.01
653.227	9024.76
653.578	9050.52
653.93	9028.6
654.282	9001.49
654.633	8976.4
654.985	8965.1
655.337	9002.39
655.688	8981.37
656.039	9083.52
656.391	9032.22
656.742	9041.71
657.094	8973.69
657.445	8986.35
657.796	9025.67
658.147	8976.85
658.498	9024.08
658.849	8946.57
659.2	9019.34
659.551	8993.8
659.902	9088.04
660.253	9024.99
660.604	9041.03
660.955	9043.75
661.306	9068.83
661.656	9036.51
662.007	9036.51
662.358	9006.91
662.708	9040.58
663.059	9026.8
663.409	8959.91
663.76	9029.51
664.11	8973.46
664.461	9086.23
664.811	8981.6
665.161	9019.79
665.511	8991.32
665.862	9039
666.212	9026.12
666.562	9104.99
666.912	9067.47
667.262	8987.48
667.612	9023.18
667.962	9076.74
668.312	8996.74
668.662	8947.7
669.011	9096.4
669.361	9089.62
669.711	9016.4
670.06	9020.02
670.41	8987.48
670.76	8901.83
671.109	8993.8
671.459	9040.13
671.808	9000.58
672.157	8968.72
672.507	8936.86
672.856	8987.7
673.205	8978.44
673.554	8998.77
673.904	8913.81
674.253	9004.42
674.602	8989.28
674.951	8820.02
675.3	8792.68
675.649	8912.22
675.998	8916.29
676.346	8851.89
676.695	8911.32
677.044	8871.55
677.393	8860.02
677.741	8836.52
678.09	8882.62
678.438	8779.8
678.787	8899.34
679.135	8794.71
679.484	8820.47
679.832	8735.5
680.181	8741.38
680.529	8803.3
680.877	8764.43
681.225	8716.3
681.573	8745.45
681.922	8733.7
682.27	8681.95
682.618	8654.15
682.966	8624.32
683.314	8644.21
683.661	8612.8
684.009	8581.16
684.357	8541.39
684.705	8549.52
685.053	8584.32
685.4	8543.87
685.748	8480.6
686.095	8471.56
686.443	8436.98
686.79	8444.89
687.138	8398.56
687.485	8406.93
687.832	8393.59
688.18	8435.17
688.527	8323.99
688.874	8326.02
689.221	8282.41
689.568	8254.84
689.915	8229.98
690.262	8324.44
690.609	8247.16
690.956	8205.8
691.303	8179.14
691.65	8205.35
691.997	8150.66
692.344	8064.56
692.69	8093.94
693.037	8035.86
693.383	8001.96
693.73	8032.7
694.077	7957.22
694.423	7918.58
694.769	7893.04
695.116	7881.29
695.462	7901.63
695.808	7878.35
696.155	7882.65
696.501	7770.11
696.847	7751.8
697.193	7675.87
697.539	7699.6
697.885	7669.54
698.231	7628.42
698.577	7641.3
698.923	7617.34
699.269	7563.11
699.614	7524.46
699.96	7437.01
700.306	7457.35
700.651	7420.96
700.997	7439.27
701.342	7373.28
701.688	7389.78
702.033	7301.42
702.379	7350.91
702.724	7331.93
703.069	7317.24
703.415	7292.38
703.76	7232.49
704.105	7256.45
704.45	7216.67
704.795	7128.77
705.14	7128.09
705.485	7166.51
705.83	7094.19
706.175	7112.72
706.52	7059.62
706.865	7038.37
707.209	6980.07
707.554	6936.46
707.899	6989.34
708.243	6937.81
708.588	6892.16
708.932	6917.02
709.277	6880.86
709.621	6840.64
709.966	6853.97
710.31	6830.7
710.654	6751.15
710.998	6773.52
711.342	6776.46
711.687	6757.7
712.031	6754.09
712.375	6744.6
712.719	6739.4
713.063	6736.69
713.407	6704.82
713.75	6691.04
714.094	6656.01
714.438	6656.92
714.782	6673.64
715.125	6551.61
715.469	6593.19
715.812	6620.76
716.156	6541.89
716.499	6611.49
716.843	6587.99
717.186	6559.97
717.53	6566.52
717.873	6572.62
718.216	6521.55
718.559	6511.61
718.902	6529.69
719.246	6476.58
719.589	6502.12
719.932	6445.4
720.275	6385.74
720.617	6444.94
720.96	6441.1
721.303	6447.88
721.646	6442.68
721.989	6376.92
722.331	6422.35
722.674	6398.62
723.016	6419.41
723.359	6419.41
723.701	6439.07
724.044	6350.93
724.386	6338.28
724.729	6379.18
725.071	6363.59
725.413	6401.78
725.755	6362.01
726.097	6343.25
726.439	6352.52
726.782	6359.52
727.124	6319.52
727.465	6338.28
727.807	6299.18
728.149	6334.66
728.491	6274.55
728.833	6333.76
729.175	6305.06
729.516	6254.44
729.858	6303.93
730.199	6359.97
730.541	6312.29
730.882	6268.23
731.224	6308
731.565	6308
731.906	6319.3
732.248	6294.44
732.589	6308.68
732.93	6231.16
733.271	6262.12
733.612	6298.28
733.953	6299.18
734.294	6232.07
734.635	6306.64
734.976	6316.59
735.317	6324.72
735.658	6308.9
735.999	6305.06
736.339	6287.66
736.68	6272.74
737.021	6281.33
737.361	6333.08
737.702	6347.32
738.042	6359.3
738.383	6307.32
738.723	6343.93
739.063	6360.88
739.404	6361.56
739.744	6349.35
740.084	6377.15
740.424	6430.25
740.764	6399.75
741.104	6468.22
741.444	6418.28
741.784	6403.36
742.124	6482
742.464	6455.34
742.804	6476.81
743.143	6464.6
743.483	6498.28
743.823	6520.65
744.162	6475.45
744.502	6599.52
744.841	6563.36
745.181	6658.05
745.52	6620.31
745.86	6665.28
746.199	6733.75
746.538	6728.78
746.877	6788.66
747.216	6764.71
747.556	6844.71
747.895	6889.45
748.234	6905.04
748.573	6958.83
748.911	7000.86
749.25	7071.14
749.589	7074.98
749.928	7204.47
750.267	7226.39
750.605	7292.83
750.944	7393.39
751.283	7418.25
751.621	7445.82
751.96	7523.11
752.298	7634.52
752.636	7721.97
752.975	7786.6
753.313	7850.1
753.651	8046.26
753.989	8088.97
754.327	8189.3
754.666	8300.71
755.004	8503.65
755.342	8523.76
755.679	8669.97
756.017	8735.96
756.355	8876.52
756.693	8977.76
757.031	9172.33
757.368	9247.58
757.706	9398.99
758.044	9461.59
758.381	9697.06
758.719	9807.57
759.056	9905.64
759.394	10085.75
759.731	10279.87
760.068	10419.3
760.405	10584.27
760.743	10671.05
761.08	10905.84
761.417	10956.69
761.754	11209.11
762.091	11355.77
762.428	11483.91
762.765	11621.08
763.102	11819.04
763.438	11985.81
763.775	12136.09
764.112	12344.22
764.449	12537.89
764.785	12650.2
765.122	12723.87
765.458	12892.46
765.795	13045
766.131	13214.71
766.467	13388.04
766.804	13475.49
767.14	13576.28
767.476	13822.38
767.812	13968.14
768.148	14111.63
768.485	14164.51
768.821	14262.82
769.157	14486.31
769.492	14563.6
769.828	14744.39
770.164	14765.18
770.5	14898.28
770.836	15023.7
771.171	15181.44
771.507	15238.16
771.842	15274.99
772.178	15483.35
772.513	15595.21
772.849	15683.57
773.184	15764.47
773.519	15879.5
773.855	15892.38
774.19	15992.26
774.525	16073.39
774.86	16232.03
775.195	16249.21
775.53	16391.8
775.865	16330.56
776.2	16304.8
776.535	16353.16
776.87	16427.28
777.205	16507.96
777.539	16461.63
777.874	16666.14
778.209	16553.83
778.543	16657.78
778.878	16601.29
779.212	16759.47
779.547	16673.15
779.881	16840.38
780.215	16729.64
780.55	16839.02
780.884	16876.08
781.218	16831.79
781.552	16913.59
781.886	16880.6
782.22	16979.81
782.554	16909.3
782.888	16749.76
783.222	16929.41
783.556	16836.76
783.889	16791.34
784.223	16839.92
784.557	16803.09
784.89	16995.85
785.224	16787.27
785.557	16872.69
785.891	16872.01
786.224	16898.45
786.558	16869.75
786.891	16604.45
787.224	16737.33
787.557	16795.18
787.891	16739.59
788.224	16849.42
788.557	16739.59
788.89	16820.94
789.223	16799.7
789.556	16692.81
789.888	16748.4
790.221	16636.31
790.554	16597.44
790.887	16667.95
791.219	16666.82
791.552	16533.49
791.884	16535.07
792.217	16475.87
792.549	16496.2
792.882	16362.2
793.214	16356.77
793.546	16435.42
793.879	16367.39
794.211	16254.63
794.543	16356.1
794.875	16340.5
795.207	16354.97
795.539	16281.3
795.871	16291.69
796.203	16189.55
796.535	16093.73
796.867	16085.82
797.198	16103.9
797.53	16016.22
797.862	15987.07
798.193	16014.18
798.525	15985.48
798.856	15933.51
799.188	15813.06
799.519	15691.71
799.85	15631.14
800.182	15688.99
800.513	15732.38
800.844	15579.17
801.175	15711.59
801.506	15658.49
801.837	15670.01
802.168	15609.9
802.499	15550.01
802.83	15486.51
803.161	15479.06
803.491	15489.45
803.822	15451.94
804.153	15337.82
804.483	15298.5
804.814	15224.37
805.145	15298.04
805.475	15157.03
805.805	15197.48
806.136	15274.99
806.466	15167.65
806.796	15182.11
807.126	15029.8
807.457	15074.32
807.787	15058.28
808.117	15018.05
808.447	14912.74
808.777	14932.86
809.107	14932.63
809.436	14843.14
809.766	14883.82
810.096	14803.37
810.426	14828
810.755	14778.51
811.085	14761.11
811.414	14785.52
811.744	14559.08
812.073	14674.33
812.403	14621.23
812.732	14615.8
813.061	14552.3
813.39	14588.23
813.719	14411.74
814.049	14590.94
814.378	14420.33
814.707	14470.04
815.036	14414.68
815.365	14413.32
815.693	14251.29
816.022	14322.7
816.351	14259.65
816.68	14158.41
817.008	14312.31
817.337	14107.34
817.665	14025.31
817.994	14086.1
818.322	14095.82
818.651	14077.51
818.979	14001.36
819.307	14142.59
819.636	14078.64
819.964	14025.76
820.292	13983.05
820.62	13979.43
820.948	13955.71
821.276	14005.87
821.604	14004.07
821.932	13943.73
822.259	13948.7
822.587	13898.76
822.915	13864.18
823.243	13957.06
823.57	13856.5
823.898	13955.25
824.225	13876.39
824.553	13814.92
824.88	13898.31
825.207	13926.33
825.535	13872.54
825.862	13960.68
826.189	13950.73
826.516	13976.95
826.843	13977.85
827.17	13969.49
827.497	14023.28
827.824	13944.41
828.151	13988.47
828.478	13938.53
828.805	14075.48
829.131	13913.22
829.458	13960.23
829.785	13861.92
830.111	13964.52
830.438	13995.03
830.764	13983.73
831.09	14025.76
831.417	13843.17
831.743	14009.72
832.069	13991.19
832.395	13868.48
832.722	13971.07
833.048	13880
833.374	13904.86
833.7	13804.98
834.026	13885.43
834.351	13884.75
834.677	13857.63
835.003	13919.32
835.329	13892.66
835.654	13815.6
835.98	13770.17
836.306	13859.44
836.631	13743.51
836.956	13831.42
837.282	13864.86
837.607	13784.19
837.932	13706.22
838.258	13685.43
838.583	13817.63
838.908	13706.22
839.233	13654.7
839.558	13599.78
839.883	13605.43
840.208	13510.29
840.533	13528.15
840.858	13537.64
841.182	13531.54
841.507	13425.55
841.832	13406.57
842.156	13475.95
842.481	13432.33
842.805	13396.4
843.13	13377.42
843.454	13418.32
843.778	13276.85
844.103	13175.16
844.427	13203.41
844.751	13185.78
845.075	13156.41
845.399	13097.65
845.723	13005
846.047	13068.72
846.371	12945.79
846.695	12975.17
847.019	12825.11
847.343	12822.18
847.666	12786.47
847.99	12689.98
848.313	12692.24
848.637	12603.65
848.96	12664.22
849.284	12542.64
849.607	12459.02
849.931	12446.59
850.254	12330.66
850.577	12299.48
850.9	12231.91
851.223	12249.99
851.546	12181.29
851.869	12101.74
852.192	12147.39
852.515	12017.45
852.838	11948.3
853.161	11959.6
853.483	11920.73
853.806	11836.67
854.129	11882.31
854.451	11757.8
854.774	11725.71
855.096	11763
855.419	11652.49
855.741	11683.22
856.063	11566.84
856.385	11591.25
856.708	11536.11
857.03	11494.3
857.352	11474.64
857.674	11465.6
857.996	11460.63
858.318	11322.1
858.64	11412.04
858.961	11247.76
859.283	11223.8
859.605	11145.38
859.926	11251.6
860.248	11222.22
860.57	11165.5
860.891	11123.92
861.212	11066.52
861.534	11017.48
861.855	10983.13
862.176	11014.54
862.498	11044.37
862.819	10995.56
863.14	10996.91
863.461	10916.69
863.782	10883.7
864.103	10819.52
864.424	10934.09
864.745	10898.39
865.065	10788.33
865.386	10797.37
865.707	10767.09
866.027	10825.17
866.348	10725.06
866.668	10752.4
866.989	10725.96
867.309	10657.71
867.63	10692.06
867.95	10624.27
868.27	10573.65
868.59	10672.63
868.91	10637.83
869.23	10595.57
869.55	10545.63
869.87	10567.32
870.19	10532.75
870.51	10510.83
870.83	10601.67
871.15	10432.64
871.469	10431.73
871.789	10546.08
872.109	10433.77
872.428	10443.48
872.748	10498.62
873.067	10407.33
873.386	10384.5
873.706	10341.79
874.025	10391.51
874.344	10301.79
874.663	10343.6
874.982	10310.83
875.301	10308.57
875.62	10236.71
875.939	10270.15
876.258	10276.71
876.577	10198.74
876.896	10154
877.214	10264.28
877.533	10191.96
877.852	10197.84
878.17	10057.96
878.489	10143.15
878.807	10130.5
879.125	10080.1
879.444	10140.44
879.762	10034.68
880.08	10072.87
880.398	10022.25
880.716	10025.19
881.034	10018.41
881.352	10000.78
881.67	9957.39
881.988	9940.9
882.306	9957.39
882.624	9884.85
882.941	9807.79
883.259	9806.21
883.577	9805.53
883.894	9791.97
884.212	9784.06
884.529	9744.97
884.846	9712.43
885.164	9691.86
885.481	9608.02
885.798	9689.83
886.115	9575.93
886.432	9601.24
886.75	9627.46
887.067	9481.02
887.383	9477.63
887.7	9523.05
888.017	9502.94
888.334	9501.59
888.651	9467.46
888.967	9403.96
889.284	9430.85
889.6	9347.01
889.917	9336.17
890.233	9314.92
890.55	9278.32
890.866	9200.8
891.182	9208.03
891.498	9223.85
891.815	9154.25
892.131	9092.78
892.447	9155.61
892.763	9097.3
893.079	9083.52
893.395	9007.81
893.71	9048.49
894.026	8991.54
894.342	8935.73
894.657	8878.1
894.973	8988.15
895.289	8853.24
895.604	8834.71
895.92	8812.56
896.235	8708.84
896.55	8750.42
896.865	8732.57
897.181	8674.94
897.496	8638.56
897.811	8630.2
898.126	8589.07
898.441	8611.21
898.756	8585.68
899.071	8498
899.386	8490.31
899.7	8440.15
900.015	8373.48
900.33	8331.67
900.644	8343.88
900.959	8324.67
901.273	8239.7
901.588	8262.97
901.902	8209.87
902.216	8190.89
902.531	8185.69
902.845	8166.48
903.159	8108.18
903.473	8058.01
903.787	8053.26
904.101	8003.55
904.415	8030.44
904.729	7992.47
905.042	7894.17
905.356	7892.14
905.67	7902.98
905.984	7874.96
906.297	7844.68
906.611	7753.16
906.924	7780.05
907.237	7730.56
907.551	7738.69
907.864	7654.18
908.177	7606.49
908.491	7648.3
908.804	7557.91
909.117	7476.55
909.43	7466.61
909.743	7411.47
910.056	7377.12
910.368	7353.39
910.681	7379.61
910.994	7358.37
911.307	7338.71
911.619	7276.11
911.932	7263.23
912.244	7169.67
912.557	7194.98
912.869	7134.64
913.181	7150.69
913.494	7126.96
913.806	7044.93
914.118	7118.37
914.43	7000.18
914.742	7026.62
915.054	6962.9
915.366	6938.26
915.678	6946.85
915.99	6916.34
916.302	6815.78
916.613	6806.29
916.925	6793.18
917.236	6777.14
917.548	6702.11
917.859	6689
918.171	6699.85
918.482	6685.16
918.794	6601.32
919.105	6589.8
919.416	6508.22
919.727	6575.11
920.038	6552.74
920.349	6521.33
920.66	6452.63
920.971	6482.91
921.282	6422.8
921.593	6369.92
921.903	6335.34
922.214	6325.85
922.525	6355.91
922.835	6277.04
923.146	6289.24
923.456	6230.49
923.767	6171.96
924.077	6214.44
924.387	6157.95
924.697	6144.84
925.008	6152.75
925.318	6113.2
925.628	6101.68
925.938	6049.47
926.248	6008.34
926.558	5985.97
926.867	5978.29
927.177	5964.73
927.487	5938.06
927.796	5876.37
928.106	5879.31
928.416	5799.76
928.725	5825.75
929.034	5764.74
929.344	5804.73
929.653	5750.95
929.962	5717.05
930.271	5690.61
930.581	5653.55
930.89	5629.15
931.199	5624.63
931.508	5604.97
931.817	5597.51
932.125	5600.45
932.434	5581.24
932.743	5507.57
933.051	5481.13
933.36	5456.27
933.669	5438.42
933.977	5426.67
934.286	5435.03
934.594	5365.65
934.902	5358.64
935.21	5306.22
935.519	5329.72
935.827	5322.26
936.135	5266.9
936.443	5273.45
936.751	5243.62
937.059	5239.1
937.367	5222.83
937.674	5236.39
937.982	5194.13
938.29	5176.28
938.597	5142.6
938.905	5071.87
939.213	5076.84
939.52	5007.92
939.827	5062.16
940.135	5017.64
940.442	4968.15
940.749	5016.73
941.056	4991.2
941.363	4887.24
941.67	4890.18
941.977	4889.5
942.284	4841.82
942.591	4875.72
942.898	4811.31
943.205	4844.08
943.511	4764.31
943.818	4767.7
944.125	4706.91
944.431	4731.77
944.738	4708.94
945.044	4677.08
945.35	4639.79
945.657	4623.07
945.963	4634.14
946.269	4562.28
946.575	4563.86
946.881	4563.64
947.187	4527.93
947.493	4499.23
947.799	4521.38
948.105	4465.56
948.41	4480.48
948.716	4448.39
949.022	4423.75
949.327	4413.13
949.633	4350.31
949.938	4345.34
950.244	4342.4
950.549	4265.11
950.854	4256.53
951.16	4264.44
951.465	4252.68
951.77	4240.48
952.075	4221.73
952.38	4240.03
952.685	4193.03
952.99	4142.63
953.294	4153.7
953.599	4121.16
953.904	4105.34
954.209	4099.47
954.513	4094.72
954.818	4045.23
955.122	4091.56
955.426	4090.66
955.731	4025.12
956.035	4023.99
956.339	3995.97
956.643	3976.76
956.948	3935.18
957.252	3940.6
957.556	3912.13
957.86	3952.35
958.163	3928.4
958.467	3872.36
958.771	3887.72
959.075	3834.16
959.378	3817.89
959.682	3811.11
959.985	3791.23
960.289	3773.15
960.592	3709.2
960.896	3720.27
961.199	3726.37
961.502	3692.25
961.805	3673.04
962.108	3697.67
962.411	3645.92
962.714	3614.28
963.017	3634.17
963.32	3672.81
963.623	3596.66
963.926	3565.47
964.228	3584.68
964.531	3590.1
964.833	3563.89
965.136	3556.21
965.438	3524.12
965.741	3522.99
966.043	3467.39
966.345	3441.18
966.648	3443.67
966.95	3436.89
967.252	3457.9
967.554	3408.87
967.856	3388.75
968.158	3361.63
968.46	3380.17
968.761	3350.34
969.063	3336.32
969.365	3312.6
969.666	3347.62
969.968	3273.5
970.269	3268.76
970.571	3305.82
970.872	3252.03
971.174	3245.48
971.475	3221.53
971.776	3230.79
972.077	3156.67
972.378	3184.46
972.679	3200.28
972.98	3146.05
973.281	3113.51
973.582	3109.44
973.883	3105.6
974.183	3099.72
974.484	3133.84
974.785	3116.44
975.085	3053.39
975.386	3060.85
975.686	3041.87
975.986	2989.67
976.287	3007.07
976.587	2967.75
976.887	2985.37
977.187	3004.13
977.487	2964.81
977.787	2909.67
978.087	2922.32
978.387	2931.14
978.687	2894.3
978.987	2888.2
979.286	2869.44
979.586	2859.95
979.885	2820.41
980.185	2835.32
980.484	2856.79
980.784	2812.04
981.083	2805.94
981.382	2797.81
981.682	2814.76
981.981	2778.15
982.28	2770.24
982.579	2761.2
982.878	2722.78
983.177	2717.81
983.475	2744.25
983.774	2683.23
984.073	2668.77
984.372	2670.13
984.67	2638.72
984.969	2643.46
985.267	2646.85
985.566	2626.29
985.864	2615.89
986.162	2607.98
986.461	2576.8
986.759	2610.92
987.057	2543.35
987.355	2531.37
987.653	2500.87
987.951	2520.07
988.249	2523.01
988.547	2498.83
988.844	2494.54
989.142	2469
989.44	2466.29
989.737	2453.41
990.035	2451.38
990.332	2413.86
990.63	2406.63
990.927	2415.44
991.224	2394.43
991.521	2390.13
991.819	2363.24
992.116	2362.79
992.413	2366.63
992.71	2321.89
993.006	2357.37
993.303	2315.11
993.6	2315.11
993.897	2281.44
994.193	2287.76
994.49	2288.22
994.787	2292.74
995.083	2248.44
995.379	2234.43
995.676	2227.65
995.972	2252.29
996.268	2206.64
996.565	2196.69
996.861	2191.27
997.157	2177.03
997.453	2148.56
997.749	2178.16
998.044	2161.67
998.34	2166.64
998.636	2118.5
998.932	2135.23
999.227	2111.95
999.523	2101.33
999.818	2085.51
1000.114	2122.12
1000.409	2067.88
1000.704	2082.57
1001	2022.46
1001.295	2010.48
1001.59	2060.65
1001.885	2016.36
1002.18	1991.5
1002.475	2006.19
1002.77	1979.07
1003.065	1956.47
1003.359	1951.28
1003.654	1939.3
1003.949	1965.06
1004.243	1949.92
1004.538	1918.73
1004.832	1895.23
1005.127	1918.28
1005.421	1893.2
1005.715	1870.83
1006.009	1885.29
1006.304	1840.54
1006.598	1847.1
1006.892	1825.18
1007.186	1813.2
1007.48	1823.14
1007.773	1767.78
1008.067	1789.7
1008.361	1789.25
1008.655	1752.86
1008.948	1771.17
1009.242	1763.48
1009.535	1750.83
1009.829	1763.03
1010.122	1730.72
1010.415	1674.22
1010.708	1685.97
1011.001	1675.35
1011.295	1664.05
1011.588	1679.65
1011.881	1663.6
1012.173	1641.68
1012.466	1643.04
1012.759	1644.62
1013.052	1640.1
1013.344	1635.8
1013.637	1634.67
1013.93	1608.23
1014.222	1587.44
1014.514	1578.4
1014.807	1565.75
1015.099	1567.11
1015.391	1526.88
1015.683	1525.07
1015.976	1506.32
1016.268	1522.81
1016.56	1515.36
1016.851	1523.49
1017.143	1497.73
1017.435	1460.22
1017.727	1482.36
1018.018	1461.8
1018.31	1455.92
1018.602	1446.66
1018.893	1423.38
1019.185	1421.57
1019.476	1419.54
1019.767	1410.27
1020.058	1387.22
1020.35	1392.87
1020.641	1380.9
1020.932	1380.22
1021.223	1369.14
1021.514	1339.77
1021.804	1335.25
1022.095	1337.06
1022.386	1362.14
1022.677	1356.94
1022.967	1325.53
1023.258	1307.68
1023.548	1305.19
1023.839	1261.58
1024.129	1280.56
1024.419	1271.29
1024.709	1265.87
1025	1269.26
1025.29	1253.89
1025.58	1226.32
1025.87	1261.13
1026.16	1201.92
1026.449	1249.37
1026.739	1220.45
1027.029	1214.12
1027.319	1193.56
1027.608	1189.94
1027.898	1165.31
1028.187	1197.17
1028.477	1160.34
1028.766	1137.06
1029.055	1163.05
1029.344	1132.54
1029.634	1127.12
1029.923	1124.41
1030.212	1134.8
1030.501	1117.4
1030.79	1097.97
1031.078	1098.19
1031.367	1094.8
1031.656	1092.77
1031.945	1078.3
1032.233	1088.93
1032.522	1051.86
1032.81	1045.54
1033.099	1078.53
1033.387	1059.1
1033.675	1048.48
1033.963	1055.71
1034.251	1036.5
1034.54	1019.78
1034.828	1001.02
1035.116	1009.15
1035.403	992.88
1035.691	993.79
1035.979	983.17
1036.267	999.21
1036.554	980
1036.842	972.09
1037.129	943.62
1037.417	945.2
1037.704	954.69
1037.992	943.17
1038.279	959.66
1038.566	923.96
1038.853	923.96
1039.14	923.96
