Data from hue_120_FLMS001491_00046.txt Node
Date: Tue Feb 07 16:59:26 GMT 2017
User: dcchb
Spectrometer: FLMS00149
Trigger mode: 0
Integration Time (sec): 2.000000E-2
Scans to average: 10
Electric dark correction enabled: true
Nonlinearity correction enabled: false
Boxcar width: 0
XAxis mode: Wavelengths
Number of Pixels in Spectrum: 2048
>>>>>Begin Spectral Data<<<<<
341.393	-4.65
341.776	-4.65
342.16	-4.65
342.543	-45.1
342.927	-72.67
343.31	-73.12
343.693	-78.32
344.077	-53.91
344.46	-50.3
344.843	-51.65
345.226	-44.65
345.61	-29.28
345.993	-32.22
346.376	7.78
346.759	9.14
347.142	22.25
347.525	38.52
347.908	57.72
348.291	71.51
348.674	100.21
349.057	106.31
349.44	133.65
349.823	155.12
350.206	171.17
350.588	206.65
350.971	202.35
351.354	230.83
351.737	241.22
352.119	250.26
352.502	260.66
352.884	271.05
353.267	276.25
353.65	312.63
354.032	301.33
354.414	304.27
354.797	327.77
355.179	323.25
355.562	343.82
355.944	316.47
356.326	342.01
356.709	340.88
357.091	330.26
357.473	370.94
357.855	352.86
358.238	342.46
358.62	342.91
359.002	326.19
359.384	353.31
359.766	349.02
360.148	342.46
360.53	362.12
360.912	361.67
361.294	348.11
361.676	339.3
362.057	348.11
362.439	334.1
362.821	340.43
363.203	346.08
363.584	319.41
363.966	314.89
364.348	322.8
364.729	333.88
365.111	317.6
365.493	309.47
365.874	317.83
366.256	329.36
366.637	325.51
367.019	340.88
367.4	330.94
367.781	319.64
368.163	322.58
368.544	320.99
368.925	328.9
369.306	317.83
369.688	328
370.069	298.17
370.45	342.69
370.831	333.65
371.212	323.48
371.593	328.45
371.974	312.18
372.355	323.03
372.736	318.96
373.117	330.49
373.498	353.08
373.879	330.71
374.26	316.7
374.641	326.42
375.021	334.78
375.402	331.84
375.783	320.77
376.163	323.25
376.544	319.41
376.925	343.14
377.305	339.3
377.686	354.21
378.066	351.5
378.447	340.88
378.827	350.37
379.208	324.84
379.588	339.52
379.968	339.75
380.349	332.52
380.729	344.5
381.109	356.7
381.489	351.05
381.87	342.01
382.25	365.29
382.63	359.64
383.01	359.41
383.39	362.12
383.77	378.62
384.15	354.21
384.53	361.45
384.91	363.71
385.29	360.54
385.67	363.71
386.049	372.52
386.429	382.69
386.809	367.77
387.189	354.67
387.568	377.04
387.948	364.38
388.328	361.9
388.707	363.93
389.087	366.64
389.466	370.94
389.846	363.03
390.225	379.52
390.605	389.24
390.984	373.42
391.363	388.56
391.743	384.72
392.122	398.73
392.501	412.52
392.881	393.99
393.26	402.35
393.639	427.66
394.018	382.01
394.397	416.13
394.776	402.35
395.155	423.59
395.534	398.96
395.913	397.15
396.292	424.27
396.671	424.04
397.05	425.85
397.429	404.61
397.808	425.4
398.186	409.58
398.565	435.12
398.944	429.69
399.323	411.84
399.701	425.4
400.08	408.22
400.458	438.05
400.837	432.63
401.215	456.81
401.594	436.7
401.972	432.86
402.351	446.41
402.729	457.71
403.107	443.03
403.486	457.49
403.864	447.09
404.242	473.08
404.62	466.75
404.999	475.79
405.377	461.33
405.755	443.25
406.133	468.34
406.511	492.74
406.889	466.75
407.267	482.12
407.645	469.69
408.023	489.35
408.401	490.71
408.779	497.71
409.156	491.84
409.534	489.35
409.912	487.77
410.29	509.69
410.667	499.07
411.045	504.72
411.422	513.76
411.8	511.95
412.178	517.83
412.555	530.48
412.933	538.16
413.31	557.6
413.687	551.5
414.065	540.2
414.442	538.16
414.819	549.91
415.197	538.84
415.574	570.71
415.951	581.33
416.328	579.07
416.705	537.94
417.082	571.84
417.46	574.77
417.837	590.37
418.214	568.22
418.591	586.07
418.967	601.89
419.344	585.17
419.721	604.38
420.098	591.04
420.475	590.82
420.852	610.25
421.228	628.33
421.605	609.8
421.982	636.24
422.358	632.17
422.735	647.77
423.111	647.99
423.488	631.49
423.864	642.79
424.241	666.97
424.617	666.75
424.994	658.84
425.37	653.19
425.746	658.84
426.123	681.66
426.499	684.37
426.875	654.54
427.251	686.41
427.627	691.83
428.003	724.83
428.379	696.58
428.756	701.78
429.132	713.3
429.507	726.18
429.883	723.24
430.259	728.44
430.635	754.2
431.011	728.22
431.387	758.95
431.763	736.58
432.138	764.37
432.514	780.64
432.89	786.97
433.265	790.36
433.641	801.21
434.016	774.09
434.392	829.23
434.767	826.29
435.143	834.65
435.518	822.45
435.894	847.31
436.269	862.22
436.644	854.99
437.02	861.55
437.395	862.22
437.77	880.3
438.145	894.31
438.52	878.04
438.895	882.79
439.271	891.83
439.646	915.56
440.021	948.32
440.395	917.59
440.77	946.06
441.145	945.38
441.52	958.49
441.895	962.56
442.27	959.4
442.645	951.94
443.019	977.47
443.394	976.34
443.769	1004.37
444.143	1002.78
444.518	995.33
444.892	1019.73
445.267	1023.12
445.641	1006.17
446.016	1023.35
446.39	1035.33
446.764	1047.3
447.139	1035.78
447.513	1055.66
447.887	1051.82
448.262	1093.86
448.636	1036.46
449.01	1085.95
449.384	1100.41
449.758	1099.5
450.132	1113.97
450.506	1107.87
450.88	1109.9
451.254	1136.34
451.628	1144.25
452.002	1185.15
452.376	1167.07
452.75	1171.59
453.123	1200.52
453.497	1183.34
453.871	1223.12
454.244	1232.16
454.618	1234.42
454.992	1243.46
455.365	1262.66
455.739	1265.6
456.112	1313.51
456.486	1275.77
456.859	1319.16
457.232	1348.09
457.606	1338.14
457.979	1341.76
458.352	1388.99
458.725	1396.45
459.099	1435.54
459.472	1465.6
459.845	1439.84
460.218	1466.5
460.591	1470.34
460.964	1497.69
461.337	1508.31
461.71	1556.67
462.083	1597.8
462.456	1570.68
462.829	1580.17
463.201	1656.55
463.574	1650.45
463.947	1635.76
464.32	1716.21
464.692	1715.31
465.065	1688.87
465.438	1738.58
465.81	1767.28
466.183	1834.17
466.555	1846.15
466.928	1814.29
467.3	1841.63
467.672	1945.13
468.045	1950.78
468.417	1979.93
468.789	1950.56
469.161	2000.95
469.534	2051.8
469.906	2082.76
470.278	2138.57
470.65	2151.91
471.022	2209.76
471.394	2275.75
471.766	2270.1
472.138	2302.86
472.51	2389.64
472.882	2421.05
473.253	2449.07
473.625	2513.25
473.997	2572.23
474.369	2628.05
474.74	2652.23
475.112	2697.43
475.484	2812.45
475.855	2868.72
476.227	2890.42
476.598	2994.82
476.97	3061.26
477.341	3152.11
477.713	3247.92
478.084	3269.84
478.455	3356.17
478.827	3479.56
479.198	3584.64
479.569	3571.3
479.94	3737.63
480.311	3787.12
480.682	3910.5
481.053	4046.55
481.424	4134.91
481.795	4222.13
482.166	4305.3
482.537	4432.98
482.908	4541.67
483.279	4728.11
483.65	4769.69
484.021	4968.1
484.391	5030.48
484.762	5146.4
485.133	5260.98
485.503	5346.85
485.874	5564.7
486.244	5672.94
486.615	5818.93
486.985	5966.72
487.356	6082.88
487.726	6244.91
488.097	6363.32
488.467	6496.65
488.837	6730.54
489.207	6830.43
489.578	7017.99
489.948	7214.6
490.318	7328.04
490.688	7436.51
491.058	7623.4
491.428	7742.04
491.798	7919.44
492.168	8100.9
492.538	8213.22
492.908	8428.58
493.278	8558.52
493.648	8622.7
494.017	8822.69
494.387	8970.03
494.757	9138.62
495.126	9285.96
495.496	9358.5
495.866	9493.86
496.235	9640.3
496.605	9835.09
496.974	9953.96
497.344	10053.39
497.713	10156.44
498.082	10367.74
498.452	10485.25
498.821	10617.67
499.19	10649.08
499.559	10859.02
499.928	10886.37
500.298	11009.3
500.667	11221.72
501.036	11256.53
501.405	11386.69
501.774	11451.55
502.143	11649.51
502.512	11711.2
502.88	11823.74
503.249	11859.67
503.618	12012.66
503.987	12074.36
504.356	12208.59
504.724	12249.04
505.093	12345.54
505.462	12428.7
505.83	12525.42
506.199	12639.09
506.567	12806.77
506.936	12868.69
507.304	13044.95
507.672	12938.06
508.041	13011.96
508.409	13209.7
508.777	13397.03
509.145	13404.94
509.514	13424.38
509.882	13517.71
510.25	13597.71
510.618	13622.79
510.986	13675.45
511.354	13875.89
511.722	13922.9
512.09	14033.85
512.458	14009.22
512.826	14069.33
513.193	14155.21
513.561	14209.44
513.929	14306.84
514.297	14385.94
514.664	14485.37
515.032	14539.15
515.4	14568.3
515.767	14563.11
516.135	14631.13
516.502	14581.18
516.869	14832.93
517.237	14841.52
517.604	14818.24
517.972	14926.26
518.339	14889.42
518.706	14872.48
519.073	15084.45
519.44	15064.34
519.808	15192.47
520.175	15156.31
520.542	15295.97
520.909	15324.89
521.276	15378
521.643	15445.12
522.009	15456.19
522.376	15500.03
522.743	15552.91
523.11	15656.18
523.477	15746.8
523.843	15814.37
524.21	15848.95
524.577	15975.95
524.943	15925.1
525.31	15925.78
525.676	15969.62
526.043	16079
526.409	16118.09
526.776	16251.42
527.142	16164.19
527.508	16193.12
527.874	16322.38
528.241	16323.74
528.607	16387.24
528.973	16429.95
529.339	16357.41
529.705	16413.68
530.071	16482.15
530.437	16514.01
530.803	16493.45
531.169	16588.82
531.535	16521.25
531.901	16341.14
532.267	16462.72
532.632	16598.08
532.998	16543.84
533.364	16560.57
533.73	16510.4
534.095	16612.32
534.461	16530.51
534.826	16638.98
535.192	16560.79
535.557	16662.26
535.923	16607.12
536.288	16650.06
536.653	16585.2
537.019	16491.42
537.384	16512.89
537.749	16498.87
538.114	16497.52
538.479	16426.56
538.845	16386.79
539.21	16362.15
539.575	16397.41
539.94	16404.19
540.305	16443.06
540.67	16293.46
541.034	16370.97
541.399	16254.81
541.764	16308.82
542.129	16312.66
542.494	16267.92
542.858	16259.78
543.223	16175.94
543.587	16287.35
543.952	16101.6
544.316	16192.44
544.681	16115.61
545.045	16156.06
545.41	16137.3
545.774	16086.46
546.138	15997.19
546.503	16094.59
546.867	15956.74
547.231	16064.99
547.595	15946.12
547.959	16004.42
548.324	15899.34
548.688	15871.77
549.052	15876.52
549.416	15928.49
549.779	15864.99
550.143	15835.16
550.507	15869.06
550.871	15834.94
551.235	15758.55
551.599	15851.43
551.962	15792.23
552.326	15703.87
552.689	15704.09
553.053	15667.26
553.417	15673.36
553.78	15775.28
554.143	15655.51
554.507	15674.49
554.87	15678.33
555.234	15725.34
555.597	15609.86
555.96	15593.14
556.323	15596.75
556.686	15553.36
557.05	15620.03
557.413	15586.36
557.776	15654.38
558.139	15728.27
558.502	15610.31
558.865	15569.63
559.228	15609.41
559.59	15637.65
559.953	15645.56
560.316	15733.92
560.679	15742.51
561.041	15807.37
561.404	15800.14
561.767	15820.02
562.129	15632.68
562.492	15923.97
562.854	15833.58
563.217	15770.76
563.579	15780.47
563.941	15892.79
564.304	15909.51
564.666	15936.4
565.028	15952.45
565.39	15926.01
565.753	16008.49
566.115	15999.45
566.477	16051.65
566.839	16037.87
567.201	16063.41
567.563	16065.44
567.925	16186.34
568.287	16088.94
568.648	16065.67
569.01	16189.96
569.372	16341.14
569.734	16177.53
570.095	16301.82
570.457	16334.58
570.819	16256.39
571.18	16249.39
571.542	16316.28
571.903	16338.2
572.265	16396.96
572.626	16393.79
572.987	16389.27
573.349	16389.5
573.71	16466.78
574.071	16444.86
574.432	16474.24
574.794	16604.41
575.155	16448.25
575.516	16527.35
575.877	16516.95
576.238	16569.38
576.599	16516.05
576.96	16528.03
577.32	16593.11
577.681	16615.03
578.042	16667.01
578.403	16581.13
578.763	16623.16
579.124	16649.15
579.485	16710.85
579.845	16852.09
580.206	16684.63
580.566	16610.96
580.927	16708.36
581.287	16695.48
581.648	16704.52
582.008	16694.8
582.368	16596.5
582.728	16644.41
583.089	16690.06
583.449	16748.36
583.809	16754.69
584.169	16716.04
584.529	16576.84
584.889	16623.16
585.249	16589.27
585.609	16568.7
585.969	16716.72
586.329	16611.87
586.688	16594.01
587.048	16626.33
587.408	16592.2
587.768	16564.86
588.127	16584.75
588.487	16496.84
588.846	16621.58
589.206	16513.56
589.565	16484.19
589.925	16533.9
590.284	16420.91
590.643	16534.81
591.003	16513.79
591.362	16582.71
591.721	16457.97
592.08	16417.97
592.44	16462.72
592.799	16472.89
593.158	16531.42
593.517	16559.66
593.876	16506.33
594.235	16375.26
594.593	16446.22
594.952	16459.33
595.311	16484.41
595.67	16497.07
596.029	16471.08
596.387	16561.47
596.746	16483.51
597.104	16464.07
597.463	16499.55
597.822	16480.57
598.18	16417.29
598.538	16378.88
598.897	16461.81
599.255	16388.82
599.613	16534.81
599.972	16341.82
600.33	16473.56
600.688	16480.12
601.046	16498.65
601.404	16480.34
601.762	16461.59
602.12	16597.4
602.478	16500
602.836	16516.27
603.194	16425.66
603.552	16429.72
603.91	16313.34
604.268	16385.88
604.625	16316.96
604.983	16393.11
605.341	16334.13
605.698	16375.49
606.056	16616.84
606.413	16385.66
606.771	16513.79
607.128	16537.97
607.485	16458.88
607.843	16456.39
608.2	16522.38
608.557	16567.35
608.914	16508.14
609.272	16663.62
609.629	16611.19
609.986	16657.97
610.343	16563.96
610.7	16765.76
611.057	16732.77
611.414	16723.5
611.771	16643.28
612.127	16707.91
612.484	16755.59
612.841	16762.82
613.198	16713.56
613.554	16720.79
613.911	16829.03
614.267	16687.57
614.624	16709.26
614.98	16785.42
615.337	16870.16
615.693	16806.44
616.05	16786.78
616.406	16805.53
616.762	16794.46
617.118	16851.41
617.475	16842.14
617.831	16934.57
618.187	16953.55
618.543	16841.69
618.899	17033.55
619.255	16901.8
619.611	16975.47
619.967	17027.45
620.323	17074.9
620.678	16964.85
621.034	17016.83
621.39	16929.37
621.746	16948.58
622.101	17107.22
622.457	17047.11
622.812	16975.25
623.168	16966.43
623.523	17065.41
623.879	17058.63
624.234	17029.26
624.589	17067.45
624.945	17083.94
625.3	17002.14
625.655	17003.95
626.01	16968.24
626.365	16969.6
626.72	17029.71
627.075	16986.09
627.43	16937.96
627.785	16890.28
628.14	17069.93
628.495	17005.53
628.85	16982.93
629.205	16842.59
629.559	17049.14
629.914	16913.1
630.269	16925.53
630.623	16905.42
630.978	16811.63
631.332	16894.34
631.687	17000.1
632.041	16814.57
632.396	16883.5
632.75	16801.92
633.104	16792.88
633.459	16773.22
633.813	16784.74
634.167	16751.3
634.521	16740.9
634.875	16697.29
635.229	16686.67
635.583	16618.64
635.937	16667.46
636.291	16521.92
636.645	16584.52
636.999	16529.38
637.352	16641.7
637.706	16490.74
638.06	16594.24
638.413	16533
638.767	16531.87
639.121	16533
639.474	16495.26
639.828	16467.69
640.181	16497.74
640.534	16336.62
640.888	16265.89
641.241	16335.04
641.594	16341.36
641.947	16368.93
642.301	16280.12
642.654	16323.96
643.007	16363.96
643.36	16320.35
643.713	16228.82
644.066	16282.38
644.419	16164.87
644.771	16154.48
645.124	16056.17
645.477	15960.13
645.83	15866.57
646.182	15855.73
646.535	15714.49
646.888	15782.51
647.24	15700.25
647.593	15733.02
647.945	15750.65
648.298	15603.3
648.65	15692.12
649.002	15613.7
649.355	15700.7
649.707	15697.77
650.059	15783.41
650.411	15979.57
650.763	16020.02
651.115	16100.47
651.467	16024.31
651.819	16060.47
652.171	16076.96
652.523	15988.61
652.875	15993.12
653.227	15984.76
653.578	16048.94
653.93	16136.85
654.282	15957.87
654.633	15888.49
654.985	16056.17
655.337	15978.89
655.688	15967.36
656.039	16087.13
656.391	15921.26
656.742	15936.85
657.094	16014.82
657.445	16062.73
657.796	15915.84
658.147	15956.74
658.498	15912.45
658.849	16012.56
659.2	16061.6
659.551	16020.24
659.902	16068.38
660.253	15914.71
660.604	16041.26
660.955	15943.18
661.306	16074.03
661.656	15989.28
662.007	16088.49
662.358	16028.15
662.708	16044.2
663.059	16009.4
663.409	15992.22
663.76	16143.18
664.11	16032.9
664.461	16093.01
664.811	16076.06
665.161	15987.02
665.511	15991.77
665.862	16038.77
666.212	16064.99
666.562	16057.98
666.912	16042.16
667.262	15910.87
667.612	16010.3
667.962	16023.18
668.312	16067.7
668.662	16000.13
669.011	16043.74
669.361	15952.67
669.711	15970.07
670.06	15939.34
670.41	15924.88
670.76	15878.1
671.109	15911.32
671.459	15957.65
671.808	15925.56
672.157	15956.29
672.507	15842.17
672.856	15923.52
673.205	15808.95
673.554	15936.63
673.904	15935.27
674.253	15956.06
674.602	15846.69
674.951	15697.31
675.3	15538.45
675.649	15825.67
675.998	15804.88
676.346	15773.92
676.695	15878.33
677.044	15624.77
677.393	15757.65
677.741	15759.23
678.09	15707.48
678.438	15665
678.787	15665.22
679.135	15646.02
679.484	15605.56
679.832	15640.14
680.181	15539.35
680.529	15589.52
680.877	15428.85
681.225	15458.68
681.573	15537.77
681.922	15460.26
682.27	15355.63
682.618	15421.84
682.966	15348.4
683.314	15336.42
683.661	15301.84
684.009	15251.68
684.357	15160.6
684.705	15233.37
685.053	15234.5
685.4	15196.31
685.748	15050.55
686.095	15102.98
686.443	15083.54
686.79	15012.13
687.138	15090.1
687.485	15054.84
687.832	14939.82
688.18	14976.65
688.527	14827.96
688.874	14868.63
689.221	14811.23
689.568	14729.88
689.915	14656.44
690.262	14700.96
690.609	14599.71
690.956	14606.49
691.303	14597.91
691.65	14451.7
691.997	14432.26
692.344	14434.3
692.69	14377.12
693.037	14377.57
693.383	14215.09
693.73	14155.21
694.077	14184.36
694.423	14185.04
694.769	14107.98
695.116	13994.08
695.462	13990.24
695.808	14002.89
696.155	14061.2
696.501	13929.45
696.847	13818.94
697.193	13783.69
697.539	13761.32
697.885	13727.65
698.231	13668.44
698.577	13708.44
698.923	13666.63
699.269	13542.57
699.614	13470.71
699.96	13470.48
700.306	13436.13
700.651	13363.82
700.997	13211.05
701.342	13212.41
701.688	13180.54
702.033	13217.15
702.379	13172.86
702.724	13098.96
703.069	13132.41
703.415	12925.18
703.76	13011.96
704.105	12988.91
704.45	12978.74
704.795	12785.75
705.14	12782.59
705.485	12841.8
705.83	12749.59
706.175	12685.42
706.52	12728.8
706.865	12696.49
707.209	12604.51
707.554	12493.33
707.899	12575.36
708.243	12461.01
708.588	12486.1
708.932	12376.27
709.277	12353.45
709.621	12386.44
709.966	12242.71
710.31	12329.49
710.654	12180.34
710.998	12180.57
711.342	12217.86
711.687	12155.03
712.031	12080.01
712.375	12037.07
712.719	12115.71
713.063	12025.55
713.407	12079.78
713.75	12122.72
714.094	11991.65
714.438	11922.27
714.782	11943.29
715.125	11890.86
715.469	11892.67
715.812	11805.21
716.156	11751.65
716.499	11797.08
716.843	11840.24
717.186	11695.84
717.53	11794.37
717.873	11790.52
718.216	11770.64
718.559	11632.11
718.902	11673.46
719.246	11643.18
719.589	11558.44
719.932	11649.96
720.275	11603.86
720.617	11570.19
720.96	11534.94
721.303	11563.41
721.646	11553.24
721.989	11440.93
722.331	11472.34
722.674	11373.36
723.016	11438.22
723.359	11435.5
723.701	11389.18
724.044	11425.56
724.386	11322.06
724.729	11388.5
725.071	11367.48
725.413	11277.54
725.755	11347.37
726.097	11306.47
726.439	11257.2
726.782	11309.63
727.124	11340.82
727.465	11259.92
727.807	11248.16
728.149	11273.02
728.491	11223.08
728.833	11252.01
729.175	11213.59
729.516	11188.96
729.858	11142.18
730.199	11267.6
730.541	11278.45
730.882	11159.81
731.224	11196.19
731.565	11115.29
731.906	11153.7
732.248	11147.15
732.589	11145.34
732.93	11106.93
733.271	11175.4
733.612	11166.81
733.953	11202.06
734.294	11089.75
734.635	11084.55
734.976	11123.87
735.317	11050.66
735.658	11118.45
735.999	11082.07
736.339	11141.27
736.68	11109.64
737.021	11148.51
737.361	11113.03
737.702	11118.68
738.042	11076.87
738.383	11121.16
738.723	11189.41
739.063	11099.47
739.404	11177.88
739.744	11134.95
740.084	11118.22
740.424	11144.89
740.764	11171.56
741.104	11255.17
741.444	11146.25
741.784	11176.98
742.124	11176.3
742.464	11216.98
742.804	11199.13
743.143	11278.9
743.483	11197.32
743.823	11183.76
744.162	11337.88
744.502	11404.09
744.841	11364.55
745.181	11429.85
745.52	11388.05
745.86	11454.26
746.199	11442.28
746.538	11520.7
746.877	11546.24
747.216	11644.76
747.556	11661.49
747.895	11724.08
748.234	11656.29
748.573	11754.82
748.911	11840.24
749.25	11913.01
749.589	11844.99
749.928	11966.56
750.267	12161.14
750.605	12073
750.944	12157.29
751.283	12280.45
751.621	12324.07
751.96	12507.57
752.298	12550.73
752.636	12642.25
752.975	12682.93
753.313	12734.91
753.651	13008.8
753.989	13052.19
754.327	13112.3
754.666	13165.4
755.004	13321.1
755.342	13439.97
755.679	13637.03
756.017	13663.24
756.355	13914.76
756.693	13908.43
757.031	14099.39
757.368	14212.38
757.706	14261.42
758.044	14488.53
758.381	14701.18
758.719	14824.12
759.056	15028.63
759.394	15134.62
759.731	15233.6
760.068	15379.13
760.405	15568.5
760.743	15681.72
761.08	15862.28
761.417	16018.21
761.754	16125.32
762.091	16272.89
762.428	16500.46
762.765	16594.92
763.102	16839.2
763.438	16954.68
763.775	17104.06
764.112	17343.15
764.449	17424.27
764.785	17579.07
765.122	17645.28
765.458	17838.73
765.795	18005.28
766.131	18130.24
766.467	18291.6
766.804	18398.71
767.14	18551.48
767.476	18782.66
767.812	18795.54
768.148	19000.5
768.485	19048.64
768.821	19129.09
769.157	19272.59
769.492	19382.87
769.828	19559.81
770.164	19510.55
770.5	19694.04
770.836	19855.85
771.171	19851.1
771.507	19986.92
771.842	19903.76
772.178	20030.76
772.513	20171.09
772.849	20293.35
773.184	20316.4
773.519	20509.84
773.855	20415.38
774.19	20428.26
774.525	20482.27
774.86	20654.7
775.195	20690.63
775.53	20679.56
775.865	20751.42
776.2	20594.81
776.535	20691.98
776.87	20666.9
777.205	20775.6
777.539	20721.14
777.874	20842.26
778.209	20768.82
778.543	20901.92
778.878	20723.17
779.212	20845.2
779.547	20858.53
779.881	20948.93
780.215	20831.64
780.55	21002.94
780.884	20943.95
781.218	21004.29
781.552	20959.32
781.886	20936.05
782.22	20851.3
782.554	20961.13
782.888	20703.51
783.222	20807.24
783.556	20711.87
783.889	20784.41
784.223	20637.75
784.557	20471.88
784.89	20769.5
785.224	20687.92
785.557	20514.36
785.891	20588.48
786.224	20581.03
786.558	20614.25
786.891	20460.58
787.224	20367.7
787.557	20378.77
787.891	20379.45
788.224	20420.8
788.557	20443.86
788.89	20488.83
789.223	20411.99
789.556	20303.07
789.888	20252.67
790.221	20175.61
790.554	20058.55
790.887	20044.09
791.219	20010.42
791.552	20099.01
791.884	19919.12
792.217	19907.37
792.549	19976.52
792.882	19848.16
793.214	19715.51
793.546	19801.84
793.879	19781.27
794.211	19685.01
794.543	19725.68
794.875	19636.64
795.207	19668.96
795.539	19670.32
795.871	19615.85
796.203	19465.35
796.535	19427.16
796.867	19370.21
797.198	19320.95
797.53	19349.65
797.862	19160.27
798.193	19174.51
798.525	19058.81
798.856	19207.5
799.188	18945.36
799.519	18967.28
799.85	18840.73
800.182	18869.66
800.513	18901.07
800.844	18652.49
801.175	18773.39
801.506	18787.63
801.837	18635.32
802.168	18534.3
802.499	18667.86
802.83	18597.35
803.161	18526.62
803.491	18372.72
803.822	18377.47
804.153	18383.57
804.483	18302.67
804.814	18185.61
805.145	18217.7
805.475	18281.2
805.805	18155.33
806.136	18172.5
806.466	18138.83
806.796	18153.07
807.126	18003.47
807.457	17963.24
807.787	17918.05
808.117	17871.95
808.447	17880.31
808.777	17815.22
809.107	17736.58
809.436	17709.46
809.766	17716.24
810.096	17608.68
810.426	17639.41
810.755	17522.8
811.085	17505.85
811.414	17516.7
811.744	17443.71
812.073	17368.91
812.403	17319.87
812.732	17234.22
813.061	17361
813.39	17216.82
813.719	17169.36
814.049	17188.35
814.378	17197.84
814.707	17184.96
815.036	17148.57
815.365	16995.81
815.693	16897.06
816.022	17008.24
816.351	16867.68
816.68	16781.13
817.008	16827.68
817.337	16712.88
817.665	16710.17
817.994	16741.81
818.322	16719.43
818.651	16619.1
818.979	16625.65
819.307	16623.39
819.636	16585.2
819.964	16503.39
820.292	16513.34
820.62	16547.01
820.948	16473.11
821.276	16535.71
821.604	16443.51
821.932	16372.32
822.259	16500
822.587	16476.05
822.915	16453.45
823.243	16551.75
823.57	16470.85
823.898	16501.13
824.225	16292.33
824.553	16468.14
824.88	16450.74
825.207	16470.63
825.535	16449.16
825.862	16523.73
826.189	16351.76
826.516	16467.69
826.843	16548.82
827.17	16431.08
827.497	16517.86
827.824	16441.47
828.151	16573.67
828.478	16420.23
828.805	16577.74
829.131	16449.84
829.458	16480.57
829.785	16372.55
830.111	16377.75
830.438	16543.62
830.764	16485.32
831.09	16472.66
831.417	16452.55
831.743	16578.65
832.069	16378.2
832.395	16455.94
832.722	16488.25
833.048	16324.42
833.374	16447.58
833.7	16340.46
834.026	16355.6
834.351	16337.07
834.677	16323.29
835.003	16412.1
835.329	16308.6
835.654	16283.96
835.98	16213.68
836.306	16330.06
836.631	16197.41
836.956	16255.49
837.282	16154.93
837.607	16176.62
837.932	16080.81
838.258	16133.91
838.583	16134.59
838.908	15925.78
839.233	15964.88
839.558	15798.33
839.883	15925.56
840.208	15830.19
840.533	15916.74
840.858	16004.65
841.182	15835.16
841.507	15829.06
841.832	15812.56
842.156	15733.02
842.481	15685.56
842.805	15782.28
843.13	15633.59
843.454	15688.05
843.778	15617.09
844.103	15601.72
844.427	15535.74
844.751	15521.5
845.075	15490.99
845.399	15385.68
845.723	15320.37
846.047	15400.82
846.371	15216.87
846.695	15279.7
847.019	15207.16
847.343	15056.43
847.666	14993.15
847.99	14940.27
848.313	14953.83
848.637	14883.32
848.96	14808.75
849.284	14707.06
849.607	14642.65
849.931	14617.57
850.254	14489.21
850.577	14396.78
850.9	14370.57
851.223	14372.83
851.546	14289.44
851.869	14184.36
852.192	14169.67
852.515	14129.9
852.838	14100.97
853.161	14087.19
853.483	14001.31
853.806	13898.04
854.129	13899.62
854.451	13757.48
854.774	13828.44
855.096	13726.07
855.419	13669.8
855.741	13713.18
856.063	13672.06
856.385	13549.57
856.708	13503.7
857.03	13513.87
857.352	13475
857.674	13392.74
857.996	13417.83
858.318	13316.13
858.64	13294.89
858.961	13291.95
859.283	13204.95
859.605	13158.62
859.926	13221.67
860.248	13128.12
860.57	13140.77
860.891	13216.02
861.212	13057.38
861.534	12997.5
861.855	12945.3
862.176	12959.31
862.498	12916.37
862.819	12935.8
863.14	12900.78
863.461	12852.64
863.782	12799.99
864.103	12826.88
864.424	12740.55
864.745	12797.73
865.065	12741.23
865.386	12683.83
865.707	12602.03
866.027	12635.47
866.348	12563.38
866.668	12492.65
866.989	12570.39
867.309	12435.03
867.63	12518.41
867.95	12538.75
868.27	12472.77
868.59	12530.84
868.91	12462.14
869.23	12424.63
869.55	12404.52
869.87	12420.56
870.19	12346.67
870.51	12362.26
870.83	12400
871.15	12242.71
871.469	12340.11
871.789	12344.18
872.109	12281.58
872.428	12198.87
872.748	12185.99
873.067	12151.19
873.386	12273.9
873.706	12120.01
874.025	12094.7
874.344	12120.91
874.663	12062.61
874.982	12063.06
875.301	12084.53
875.62	12089.95
875.939	11992.78
876.258	12036.62
876.577	11994.59
876.896	11942.38
877.214	11942.16
877.533	11886.11
877.852	11912.78
878.17	11916.17
878.489	11848.37
878.807	11808.83
879.125	11852.89
879.444	11763.18
879.762	11724.08
880.08	11740.13
880.398	11734.03
880.716	11732.67
881.034	11705.1
881.352	11666.91
881.67	11611.54
881.988	11634.6
882.306	11618.55
882.624	11530.42
882.941	11523.19
883.259	11493.13
883.577	11474.6
883.894	11410.65
884.212	11446.13
884.529	11447.93
884.846	11382.62
885.164	11365
885.481	11262.4
885.798	11348.05
886.115	11174.04
886.432	11232.57
886.75	11148.96
887.067	11172.01
887.383	11088.39
887.7	11168.17
888.017	11088.85
888.334	11106.02
888.651	11058.79
888.967	11033.03
889.284	10987.83
889.6	10969.53
889.917	10912.13
890.233	10942.41
890.55	10842.98
890.866	10869.87
891.182	10780.83
891.498	10791.23
891.815	10772.25
892.131	10703.32
892.447	10634.17
892.763	10605.7
893.079	10607.05
893.395	10588.3
893.71	10553.72
894.026	10491.8
894.342	10499.71
894.657	10359.83
894.973	10353.72
895.289	10392.59
895.604	10392.59
895.92	10253.16
896.235	10243.67
896.55	10218.36
896.865	10187.18
897.181	10191.7
897.496	10182.43
897.811	10104.47
898.126	10113.96
898.441	10043.45
898.756	10017.01
899.071	9878.03
899.386	9923.23
899.7	9770.46
900.015	9739.5
900.33	9765.49
900.644	9752.61
900.959	9774.76
901.273	9712.39
901.588	9630.13
901.902	9610.02
902.216	9599.39
902.531	9580.64
902.845	9650.24
903.159	9465.84
903.473	9446.4
903.787	9407.31
904.101	9337.25
904.415	9343.36
904.729	9344.49
905.042	9259.06
905.356	9200.53
905.67	9172.97
905.984	9215.68
906.297	9126.64
906.611	9118.73
906.924	9071.72
907.237	9054.78
907.551	9076.24
907.864	8986.08
908.177	8975.91
908.491	8811.17
908.804	8828.12
909.117	8763.71
909.43	8754.44
909.743	8707.67
910.056	8700.21
910.368	8702.69
910.681	8641.91
910.994	8612.98
911.307	8624.05
911.619	8506.09
911.932	8530.5
912.244	8443.27
912.557	8480.1
912.869	8388.58
913.181	8456.15
913.494	8388.13
913.806	8331.86
914.118	8251.63
914.43	8205.53
914.742	8237.85
915.054	8168.25
915.366	8134.35
915.678	8071.53
915.99	8062.49
916.302	8048.93
916.613	7955.37
916.925	7936.84
917.236	7930.96
917.548	7927.35
917.859	7844.86
918.171	7793.79
918.482	7818.42
918.794	7725.77
919.105	7715.15
919.416	7667.02
919.727	7705.21
920.038	7694.13
920.349	7563.06
920.66	7541.82
920.971	7621.82
921.282	7528.04
921.593	7505.44
921.903	7473.57
922.214	7456.85
922.525	7412.79
922.835	7383.41
923.146	7283.07
923.456	7280.36
923.767	7222.51
924.077	7232.9
924.387	7191.32
924.697	7090.31
925.008	7167.59
925.318	7025.45
925.628	7095.73
925.938	7003.3
926.248	6990.2
926.558	6995.85
926.867	6974.6
927.177	6915.17
927.487	6931.22
927.796	6810.77
928.106	6848.96
928.416	6864.78
928.725	6801.28
929.034	6726.93
929.344	6740.71
929.653	6734.61
929.962	6628.85
930.271	6639.47
930.581	6581.17
930.89	6631.79
931.199	6498.91
931.508	6531.23
931.817	6523.54
932.125	6549.98
932.434	6463.21
932.743	6454.39
933.051	6421.62
933.36	6359.71
933.669	6372.59
933.977	6334.85
934.286	6295.98
934.594	6324.23
934.902	6250.1
935.21	6208.3
935.519	6253.04
935.827	6204.68
936.135	6101.41
936.443	6037.68
936.751	6100.28
937.059	6081.75
937.367	5988.42
937.674	6006.49
937.982	6029.32
938.29	5964.91
938.597	5936.44
938.905	5874.75
939.213	5856.89
939.52	5808.31
939.827	5868.42
940.135	5787.52
940.442	5802.43
940.749	5777.57
941.056	5767.63
941.363	5701.64
941.67	5688.76
941.977	5668.65
942.284	5636.79
942.591	5611.02
942.898	5590.69
943.205	5581.2
943.511	5573.29
943.818	5509.78
944.125	5500.52
944.431	5461.88
944.738	5473.4
945.044	5385.27
945.35	5419.62
945.657	5368.55
945.963	5346.4
946.269	5340.75
946.575	5314.31
946.881	5301.88
947.187	5256.91
947.493	5207.19
947.799	5283.58
948.105	5164.26
948.41	5187.53
948.716	5159.29
949.022	5106.63
949.327	5115.9
949.633	5095.33
949.938	5038.16
950.244	5063.24
950.549	5074.32
950.854	4983.7
951.16	4941.66
951.465	4947.09
951.77	4922
952.075	4879.74
952.38	4865.96
952.685	4875.45
952.99	4839.97
953.294	4851.95
953.599	4808.79
953.904	4779.41
954.209	4781.44
954.513	4730.14
954.818	4705.06
955.122	4692.18
955.426	4692.4
955.731	4648.79
956.035	4611.28
956.339	4578.28
956.643	4628.9
956.948	4557.04
957.252	4535.8
957.556	4545.29
957.86	4516.14
958.163	4498.29
958.467	4479.3
958.771	4486.31
959.075	4471.62
959.378	4438.85
959.682	4438.4
959.985	4361.57
960.289	4375.8
960.592	4336.26
960.896	4350.27
961.199	4328.12
961.502	4359.08
961.805	4279.53
962.108	4268.69
962.411	4151.63
962.714	4221.91
963.017	4178.75
963.32	4228.24
963.623	4160.44
963.926	4163.15
964.228	4143.72
964.531	4136.26
964.833	4069.14
965.136	4023.04
965.438	4100.78
965.741	4019.88
966.043	4017.39
966.345	4012.2
966.648	3988.47
966.95	3991.63
967.252	3949.37
967.554	3957.96
967.856	3933.33
968.158	3879.09
968.46	3899.88
968.761	3866.89
969.063	3839.55
969.365	3807.68
969.666	3843.61
969.968	3828.02
970.269	3796.61
970.571	3788.7
970.872	3746.89
971.174	3737.18
971.475	3712.54
971.776	3689.95
972.077	3683.84
972.378	3660.12
972.679	3624.64
972.98	3649.72
973.281	3615.6
973.582	3608.59
973.883	3585.99
974.183	3587.58
974.484	3555.26
974.785	3564.98
975.085	3541.47
975.386	3487.92
975.686	3509.39
975.986	3473.91
976.287	3449.73
976.587	3453.79
976.887	3436.62
977.187	3437.97
977.487	3419.44
977.787	3389.16
978.087	3390.97
978.387	3365.89
978.687	3377.64
978.987	3343.29
979.286	3286.57
979.586	3266.23
979.885	3294.7
980.185	3263.97
980.484	3281.82
980.784	3277.3
981.083	3271.88
981.382	3219.68
981.682	3157.53
981.981	3188.72
982.28	3164.31
982.579	3169.51
982.878	3162.28
983.177	3126.34
983.475	3115.27
983.774	3113.69
984.073	3070.75
984.372	3039.12
984.67	3059.91
984.969	3067.36
985.267	3036.18
985.566	2989.17
985.864	3020.81
986.162	2973.35
986.461	2964.31
986.759	2955.05
987.057	2899.68
987.355	2937.65
987.653	2901.04
987.951	2912.79
988.249	2922.51
988.547	2865.56
988.844	2879.35
989.142	2840.48
989.44	2807.03
989.737	2817.2
990.035	2812.23
990.332	2768.61
990.63	2804.09
990.927	2748.73
991.224	2752.12
991.521	2744.21
991.819	2722.06
992.116	2727.94
992.413	2706.47
992.71	2668.05
993.006	2668.96
993.303	2662.4
993.6	2638.22
993.897	2627.83
994.193	2595.51
994.49	2599.8
994.787	2609.97
995.083	2579.24
995.379	2588.05
995.676	2578.34
995.972	2540.82
996.268	2557.09
996.565	2520.48
996.861	2529.3
997.157	2511.22
997.453	2514.61
997.749	2496.53
998.044	2466.25
998.34	2452.01
998.636	2456.31
998.932	2414.27
999.227	2443.2
999.523	2427.38
999.818	2407.04
1000.114	2356.2
1000.409	2335.4
1000.704	2335.4
1001	2313.71
1001.295	2336.99
1001.59	2306.93
1001.885	2295.63
1002.18	2285.69
1002.475	2292.47
1002.77	2249.31
1003.065	2272.13
1003.359	2247.5
1003.654	2226.71
1003.949	2192.13
1004.243	2208.63
1004.538	2159.82
1004.832	2168.86
1005.127	2165.92
1005.421	2135.64
1005.715	2115.52
1006.009	2107.16
1006.304	2096.77
1006.598	2109.2
1006.892	2099.7
1007.186	2061.29
1007.48	2044.34
1007.773	2050.89
1008.067	2026.26
1008.361	2001.4
1008.655	2031.91
1008.948	1998.24
1009.242	2007.05
1009.535	1962.99
1009.829	1956.88
1010.122	1990.56
1010.415	1940.84
1010.708	1952.59
1011.001	1954.85
1011.295	1941.52
1011.588	1875.53
1011.881	1881.41
1012.173	1895.19
1012.466	1896.55
1012.759	1884.34
1013.052	1862.2
1013.344	1860.16
1013.637	1841.63
1013.93	1828.98
1014.222	1826.94
1014.514	1808.64
1014.807	1839.15
1015.099	1767.28
1015.391	1747.4
1015.683	1748.08
1015.976	1743.56
1016.268	1740.84
1016.56	1706.49
1016.851	1732.48
1017.143	1714.18
1017.435	1695.87
1017.727	1687.96
1018.018	1700.17
1018.31	1659.94
1018.602	1645.93
1018.893	1611.13
1019.185	1639.15
1019.476	1598.25
1019.767	1604.35
1020.058	1588.98
1020.35	1574.97
1020.641	1588.98
1020.932	1563
1021.223	1523.45
1021.514	1525.03
1021.804	1535.65
1022.095	1526.61
1022.386	1504.01
1022.677	1486.39
1022.967	1498.82
1023.258	1471.47
1023.548	1446.39
1023.839	1437.12
1024.129	1433.96
1024.419	1453.17
1024.709	1433.06
1025	1401.19
1025.29	1426.05
1025.58	1407.07
1025.87	1397.35
1026.16	1419.27
1026.449	1404.36
1026.739	1355.32
1027.029	1373.17
1027.319	1385.15
1027.608	1354.64
1027.898	1325.94
1028.187	1320.97
1028.477	1327.52
1028.766	1312.38
1029.055	1313.51
1029.344	1274.87
1029.634	1292.27
1029.923	1278.48
1030.212	1265.38
1030.501	1257.92
1030.79	1259.73
1031.078	1224.93
1031.367	1233.29
1031.656	1232.16
1031.945	1217.47
1032.233	1213.85
1032.522	1211.37
1032.81	1203.68
1033.099	1207.75
1033.387	1175.21
1033.675	1135.21
1033.963	1143.8
1034.251	1172.72
1034.54	1147.19
1034.828	1140.41
1035.116	1143.57
1035.403	1131.59
1035.691	1111.26
1035.979	1100.41
1036.267	1091.37
1036.554	1092.95
1036.842	1067.64
1037.129	1069.22
1037.417	1057.92
1037.704	1046.63
1037.992	1063.57
1038.279	1069.22
1038.566	1044.59
1038.853	1044.59
1039.14	1044.59
