Data from hue_220_FLMS001491_00070.txt Node
Date: Tue Feb 07 16:39:48 GMT 2017
User: dcchb
Spectrometer: FLMS00149
Trigger mode: 0
Integration Time (sec): 2.000000E-2
Scans to average: 10
Electric dark correction enabled: true
Nonlinearity correction enabled: false
Boxcar width: 0
XAxis mode: Wavelengths
Number of Pixels in Spectrum: 2048
>>>>>Begin Spectral Data<<<<<
341.393	-12.32
341.776	-12.32
342.16	-12.32
342.543	-62.26
342.927	-80.11
343.31	-70.85
343.693	-66.1
344.077	-78.75
344.46	-56.83
344.843	-48.7
345.226	-29.72
345.61	-26.78
345.993	-14.8
346.376	-12.09
346.759	14.12
347.142	31.3
347.525	44.86
347.908	55.93
348.291	72.43
348.674	88.7
349.057	97.29
349.44	122.6
349.823	137.28
350.206	154.46
350.588	189.49
350.971	215.02
351.354	217.06
351.737	213.44
352.119	253.44
352.502	239.2
352.884	250.5
353.267	257.06
353.65	296.38
354.032	290.5
354.414	307.9
354.797	297.05
355.179	307.22
355.562	317.84
355.944	315.13
356.326	325.75
356.709	344.06
357.091	308.81
357.473	333.44
357.855	323.72
358.238	335.7
358.62	337.96
359.002	330.95
359.384	349.93
359.766	325.75
360.148	317.84
360.53	340.44
360.912	327.34
361.294	339.09
361.676	330.5
362.057	349.26
362.439	323.95
362.821	337.05
363.203	312.2
363.584	315.58
363.966	337.73
364.348	301.57
364.729	321.01
365.111	304.29
365.493	306.55
365.874	288.02
366.256	320.1
366.637	317.17
367.019	321.01
367.4	306.55
367.781	298.18
368.163	316.94
368.544	308.81
368.925	301.57
369.306	299.54
369.688	318.3
370.069	298.86
370.45	310.84
370.831	311.29
371.212	310.39
371.593	311.07
371.974	310.39
372.355	303.16
372.736	281.46
373.117	303.83
373.498	310.16
373.879	301.57
374.26	313.78
374.641	299.31
375.021	287.79
375.402	314.68
375.783	323.72
376.163	325.53
376.544	320.56
376.925	309.71
377.305	320.33
377.686	300.9
378.066	325.98
378.447	315.13
378.827	335.92
379.208	316.71
379.588	331.18
379.968	345.64
380.349	329.6
380.729	320.1
381.109	327.11
381.489	332.08
381.87	313.1
382.25	327.11
382.63	334.57
383.01	328.24
383.39	356.49
383.77	334.57
384.15	322.36
384.53	338.86
384.91	342.7
385.29	335.47
385.67	345.19
386.049	350.61
386.429	321.01
386.809	332.53
387.189	345.64
387.568	332.08
387.948	323.95
388.328	342.93
388.707	348.8
389.087	346.54
389.466	349.03
389.846	338.86
390.225	372.31
390.605	324.62
390.984	353.78
391.363	350.16
391.743	374.79
392.122	342.25
392.501	372.53
392.881	361.69
393.26	364.4
393.639	377.96
394.018	371.63
394.397	370.05
394.776	358.07
395.155	389.71
395.534	361.69
395.913	387.22
396.292	385.64
396.671	382.02
397.05	385.19
397.429	370.27
397.808	397.16
398.186	359.43
398.565	388.35
398.944	383.38
399.323	392.87
399.701	401.46
400.08	403.27
400.458	385.87
400.837	400.78
401.215	410.5
401.594	399.65
401.972	404.62
402.351	411.4
402.729	428.8
403.107	406.88
403.486	420.44
403.864	415.7
404.242	414.34
404.62	420.44
404.999	422.25
405.377	436.94
405.755	441.23
406.133	423.38
406.511	456.15
406.889	460.67
407.267	448.69
407.645	480.1
408.023	483.26
408.401	459.31
408.779	470.84
409.156	471.74
409.534	474.22
409.912	476.26
410.29	513.32
410.667	496.82
411.045	504.73
411.422	520.33
411.8	530.72
412.178	534.79
412.555	531.85
412.933	545.64
413.31	562.13
413.687	540.21
414.065	569.14
414.442	557.16
414.819	550.83
415.197	595.35
415.574	602.13
415.951	632.86
416.328	613.43
416.705	629.02
417.082	628.57
417.46	608.23
417.837	648.23
418.214	650.94
418.591	663.6
418.967	678.51
419.344	683.94
419.721	683.71
420.098	702.47
420.475	699.53
420.852	707.67
421.228	715.57
421.605	736.59
421.982	724.39
422.358	749.02
422.735	757.16
423.111	779.53
423.488	789.24
423.864	793.54
424.241	795.35
424.617	819.53
424.994	824.72
425.37	841.45
425.746	861.79
426.123	855.46
426.499	894.33
426.875	890.71
427.251	895
427.627	931.16
428.003	939.98
428.379	947.43
428.756	964.38
429.132	970.93
429.507	975.91
429.883	984.49
430.259	1005.28
430.635	1018.84
431.011	1010.93
431.387	1044.15
431.763	1058.62
432.138	1050.71
432.514	1096.58
432.89	1084.83
433.265	1142.23
433.641	1149.91
434.016	1127.54
434.392	1192.4
434.767	1210.02
435.143	1228.1
435.518	1229.69
435.894	1247.76
436.269	1266.97
436.644	1276.01
437.02	1335.45
437.395	1321.43
437.77	1353.3
438.145	1395.56
438.52	1374.99
438.895	1420.19
439.271	1413.18
439.646	1470.36
440.021	1460.41
440.395	1502.45
440.77	1475.78
441.145	1506.51
441.52	1566.4
441.895	1548.09
442.27	1595.33
442.645	1589.22
443.019	1617.25
443.394	1617.02
443.769	1615.21
444.143	1633.29
444.518	1688.2
444.892	1666.28
445.267	1671.48
445.641	1753.97
446.016	1738.37
446.39	1700.41
446.764	1756.68
447.139	1769.11
447.513	1747.41
447.887	1769.11
448.262	1789.44
448.636	1800.52
449.01	1836.45
449.384	1822.89
449.758	1860.18
450.132	1832.38
450.506	1915.77
450.88	1866.96
451.254	1889.78
451.628	1937.69
452.002	1959.61
452.376	1937.92
452.75	1956.45
453.123	1978.82
453.497	2025.14
453.871	2042.77
454.244	2112.37
454.618	2060.17
454.992	2100.4
455.365	2111.24
455.739	2172.26
456.112	2155.76
456.486	2181.3
456.859	2216.78
457.232	2247.29
457.606	2262.2
457.979	2268.53
458.352	2329.54
458.725	2329.77
459.099	2340.39
459.472	2414.96
459.845	2418.81
460.218	2413.61
460.591	2463.55
460.964	2458.58
461.337	2520.05
461.71	2547.39
462.083	2556.88
462.456	2579.25
462.829	2544
463.201	2620.84
463.574	2633.49
463.947	2661.74
464.32	2728.85
464.692	2737.67
465.065	2747.39
465.438	2791.68
465.81	2841.62
466.183	2851.79
466.555	2921.62
466.928	2925.01
467.3	2898.57
467.672	2975.85
468.045	3048.17
468.417	3033.25
468.789	3044.78
469.161	3127.71
469.534	3137.43
469.906	3183.98
470.278	3261.72
470.65	3260.14
471.022	3273.93
471.394	3376.07
471.766	3385.79
472.138	3410.87
472.51	3440.02
472.882	3531.09
473.253	3499.91
473.625	3594.14
473.997	3655.61
474.369	3686.8
474.74	3734.48
475.112	3768.83
475.484	3834.36
475.855	3902.38
476.227	3914.81
476.598	3986.45
476.97	4022.38
477.341	4108.03
477.713	4154.81
478.084	4183.96
478.455	4304.86
478.827	4281.81
479.198	4402.26
479.569	4414.46
479.94	4535.59
480.311	4577.17
480.682	4592.31
481.053	4707.56
481.424	4729.48
481.795	4782.36
482.166	4863.49
482.537	4909.59
482.908	4982.35
483.279	5013.99
483.65	5144.16
484.021	5120.2
484.391	5259.18
484.762	5282.91
485.133	5348.9
485.503	5340.76
485.874	5438.39
486.244	5503.02
486.615	5620.53
486.985	5650.59
487.356	5717.93
487.726	5763.35
488.097	5880.41
488.467	5843.58
488.837	5910.24
489.207	6023.23
489.578	6117.47
489.948	6123.57
490.318	6248.54
490.688	6224.81
491.058	6302.09
491.428	6351.13
491.798	6461.86
492.168	6543.67
492.538	6500.96
492.908	6633.16
493.278	6668.41
493.648	6670.45
494.017	6769.65
494.387	6759.71
494.757	6816.2
495.126	6937.56
495.496	6845.81
495.866	6957.22
496.235	7026.14
496.605	7025.01
496.974	7079.7
497.344	7094.16
497.713	7095.97
498.082	7219.36
498.452	7215.52
498.821	7265.23
499.19	7295.74
499.559	7386.13
499.928	7331.67
500.298	7351.56
500.667	7417.55
501.036	7386.13
501.405	7476.53
501.774	7452.57
502.143	7488.28
502.512	7497.32
502.88	7504.77
503.249	7563.98
503.618	7487.6
503.987	7581.38
504.356	7580.93
504.724	7621.83
505.093	7660.93
505.462	7651.21
505.83	7714.71
506.199	7669.06
506.567	7791.32
506.936	7695.96
507.304	7877.87
507.672	7863.64
508.041	7878.32
508.409	7893.46
508.777	8001.48
509.145	7975.27
509.514	7897.53
509.882	8006.91
510.25	7947.02
510.618	7986.8
510.986	8032.22
511.354	8077.41
511.722	8133.91
512.09	8104.53
512.458	8067.92
512.826	8162.16
513.193	8091.2
513.561	8181.82
513.929	8133.46
514.297	8181.14
514.664	8250.29
515.032	8207.13
515.4	8264.75
515.767	8217.75
516.135	8208.94
516.502	8238.77
516.869	8310.85
517.237	8286.22
517.604	8227.69
517.972	8297.3
518.339	8282.61
518.706	8276.28
519.073	8278.77
519.44	8265.88
519.808	8326.45
520.175	8290.06
520.542	8344.3
520.909	8372.55
521.276	8304.3
521.643	8408.03
522.009	8359.89
522.376	8386.79
522.743	8395.6
523.11	8398.99
523.477	8427.01
523.843	8422.94
524.21	8447.35
524.577	8462.04
524.943	8467.69
525.31	8477.18
525.676	8462.04
526.043	8538.65
526.409	8493
526.776	8565.09
527.142	8543.17
527.508	8571.64
527.874	8553.56
528.241	8526.44
528.607	8549.27
528.973	8579.77
529.339	8535.71
529.705	8547.68
530.071	8557.18
530.437	8576.38
530.803	8614.35
531.169	8519.89
531.535	8479.44
531.901	8521.7
532.267	8468.59
532.632	8575.93
532.998	8431.53
533.364	8483.05
533.73	8470.85
534.095	8535.03
534.461	8450.06
534.826	8449.16
535.192	8412.1
535.557	8445.54
535.923	8417.74
536.288	8383.62
536.653	8404.64
537.019	8323.96
537.384	8296.62
537.749	8318.76
538.114	8248.48
538.479	8226.34
538.845	8251.87
539.21	8200.35
539.575	8151.09
539.94	8138.2
540.305	8219.78
540.67	8107.24
541.034	8198.54
541.399	8140.46
541.764	8198.54
542.129	8067.7
542.494	8100.69
542.858	8029.73
543.223	8004.87
543.587	7966.91
543.952	7969.39
544.316	7953.35
544.681	7883.07
545.045	7898.44
545.41	7919.68
545.774	7844.43
546.138	7836.74
546.503	7799.46
546.867	7746.35
547.231	7780.02
547.595	7786.8
547.959	7747.48
548.324	7760.36
548.688	7685.79
549.052	7697.76
549.416	7647.6
549.779	7614.83
550.143	7592.91
550.507	7587.71
550.871	7571.21
551.235	7526.69
551.599	7512.23
551.962	7535.51
552.326	7539.8
552.689	7536.41
553.053	7453.48
553.417	7474.94
553.78	7540.48
554.143	7405.79
554.507	7416.42
554.87	7381.61
555.234	7381.39
555.597	7329.19
555.96	7279.7
556.323	7252.13
556.686	7294.16
557.05	7337.77
557.413	7356.08
557.776	7302.97
558.139	7306.59
558.502	7265.23
558.865	7246.7
559.228	7302.29
559.59	7297.55
559.953	7316.08
560.316	7306.14
560.679	7239.92
561.041	7252.58
561.404	7278.79
561.767	7289.86
562.129	7205.57
562.492	7274.72
562.854	7273.37
563.217	7258.68
563.579	7242.41
563.941	7267.04
564.304	7250.09
564.666	7293.71
565.028	7247.15
565.39	7353.14
565.753	7302.75
566.115	7299.81
566.477	7319.69
566.839	7315.4
567.201	7347.49
567.563	7330.32
567.925	7390.43
568.287	7400.37
568.648	7378.68
569.01	7402.18
569.372	7393.59
569.734	7359.24
570.095	7427.71
570.457	7404.21
570.819	7396.75
571.18	7406.25
571.542	7423.42
571.903	7436.3
572.265	7452.57
572.626	7482.18
572.987	7486.92
573.349	7564.21
573.71	7526.24
574.071	7530.54
574.432	7524.89
574.794	7603.98
575.155	7521.95
575.516	7546.36
575.877	7579.12
576.238	7620.7
576.599	7608.95
576.96	7575.06
577.32	7670.87
577.681	7632.91
578.042	7649.86
578.403	7708.16
578.763	7699.8
579.124	7667.03
579.485	7735.73
579.845	7719.46
580.206	7625.9
580.566	7749.51
580.927	7803.3
581.287	7799.68
581.648	7743.86
582.008	7855.5
582.368	7785.67
582.728	7827.25
583.089	7811.88
583.449	7857.76
583.809	7858.44
584.169	7934.59
584.529	7832
584.889	7913.13
585.249	7906.8
585.609	7839.91
585.969	7985.67
586.329	7951.32
586.688	7910.87
587.048	7957.42
587.408	8001.71
587.768	7974.82
588.127	7986.34
588.487	8007.81
588.846	8020.47
589.206	8074.7
589.565	7998.77
589.925	8039.45
590.284	8001.71
590.643	8035.38
591.003	8083.74
591.362	8075.61
591.721	8182.5
592.08	8103.63
592.44	8102.95
592.799	8121.03
593.158	8059.79
593.517	8124.87
593.876	8166.45
594.235	8181.82
594.593	8148.15
594.952	8163.74
595.311	8141.14
595.67	8169.16
596.029	8257.97
596.387	8250.52
596.746	8221.37
597.104	8212.1
597.463	8146.34
597.822	8307.24
598.18	8155.15
598.538	8298.2
598.897	8323.51
599.255	8184.98
599.613	8284.87
599.972	8260.69
600.33	8263.17
600.688	8246.22
601.046	8317.63
601.404	8310.63
601.762	8284.41
602.12	8373.68
602.478	8354.02
602.836	8316.28
603.194	8301.82
603.552	8272.21
603.91	8350.4
604.268	8336.62
604.625	8329.61
604.983	8325.54
605.341	8327.8
605.698	8410.74
606.056	8319.89
606.413	8396.73
606.771	8381.81
607.128	8395.82
607.485	8360.8
607.843	8406.22
608.2	8482.15
608.557	8422.26
608.914	8408.93
609.272	8491.64
609.629	8421.81
609.986	8461.36
610.343	8506.1
610.7	8498.65
611.057	8454.13
611.414	8481.25
611.771	8494.58
612.127	8540.91
612.484	8564.86
612.841	8615.48
613.198	8484.18
613.554	8540.68
613.911	8570.06
614.267	8610.73
614.624	8547.23
614.98	8588.81
615.337	8604.41
615.693	8601.92
616.05	8615.48
616.406	8635.37
616.762	8553.11
617.118	8566.22
617.475	8583.84
617.831	8640.79
618.187	8584.75
618.543	8648.02
618.899	8706.32
619.255	8631.3
619.611	8721.69
619.967	8717.62
620.323	8733.44
620.678	8686.21
621.034	8621.13
621.39	8666.33
621.746	8628.81
622.101	8793.1
622.457	8692.09
622.812	8645.99
623.168	8715.82
623.523	8688.7
623.879	8732.99
624.234	8660
624.589	8750.17
624.945	8740.67
625.3	8642.6
625.655	8624.07
626.01	8695.48
626.365	8655.7
626.72	8669.26
627.075	8696.83
627.43	8662.94
627.785	8608.25
628.14	8738.41
628.495	8696.61
628.85	8643.28
629.205	8642.37
629.559	8686.89
629.914	8614.35
630.269	8646.67
630.623	8617.29
630.978	8591.98
631.332	8616.61
631.687	8612.99
632.041	8617.97
632.396	8630.85
632.75	8566.22
633.104	8556.95
633.459	8563.5
633.813	8543.17
634.167	8517.4
634.521	8507.91
634.875	8516.95
635.229	8506.56
635.583	8514.69
635.937	8460.91
636.291	8496.84
636.645	8377.07
636.999	8440.34
637.352	8467.01
637.706	8502.94
638.06	8463.85
638.413	8416.16
638.767	8393.79
639.121	8432.66
639.474	8410.97
639.828	8325.09
640.181	8356.73
640.534	8420.91
640.888	8340.23
641.241	8314.47
641.594	8317.63
641.947	8353.11
642.301	8393.56
642.654	8320.8
643.007	8350.63
643.36	8333.91
643.713	8297.75
644.066	8437.63
644.419	8323.74
644.771	8228.82
645.124	8196.51
645.477	8213.46
645.83	8139.56
646.182	8076.06
646.535	8076.51
646.888	8128.71
647.24	8051.65
647.593	8108.37
647.945	8079.9
648.298	8039.22
648.65	8000.13
649.002	8063.86
649.355	8085.1
649.707	8058.43
650.059	8055.04
650.411	8177.53
650.763	8170.52
651.115	8272.89
651.467	8228.15
651.819	8229.28
652.171	8256.85
652.523	8224.3
652.875	8224.76
653.227	8187.02
653.578	8299.78
653.93	8273.57
654.282	8177.98
654.633	8234.02
654.985	8182.5
655.337	8202.16
655.688	8209.16
656.039	8234.25
656.391	8201.71
656.742	8198.09
657.094	8198.99
657.445	8223.63
657.796	8192.21
658.147	8269.95
658.498	8193.8
658.849	8255.72
659.2	8264.75
659.551	8243.96
659.902	8265.43
660.253	8276.73
660.604	8313.11
660.955	8227.02
661.306	8268.82
661.656	8321.25
662.007	8280.12
662.358	8309.27
662.708	8273.12
663.059	8238.77
663.409	8208.26
663.76	8263.62
664.11	8270.18
664.461	8258.2
664.811	8255.72
665.161	8325.09
665.511	8206.45
665.862	8303.17
666.212	8313.11
666.562	8296.62
666.912	8341.36
667.262	8361.93
667.612	8370.74
667.962	8351.31
668.312	8244.42
668.662	8353.79
669.011	8329.16
669.361	8324.87
669.711	8280.8
670.06	8249.61
670.41	8277.64
670.76	8322.83
671.109	8309.73
671.459	8310.4
671.808	8210.74
672.157	8253.23
672.507	8232.44
672.856	8243.74
673.205	8248.26
673.554	8223.63
673.904	8231.08
674.253	8279.44
674.602	8196.73
674.951	8099.34
675.3	8064.08
675.649	8210.97
675.998	8221.37
676.346	8218.88
676.695	8190.63
677.044	8184.3
677.393	8135.27
677.741	8146.79
678.09	8106.34
678.438	8186.56
678.787	8091.65
679.135	8134.36
679.484	8064.99
679.832	8091.65
680.181	8064.31
680.529	8085.32
680.877	8092.56
681.225	8000.58
681.573	8098.88
681.922	8050.52
682.27	7970.75
682.618	7979.79
682.966	7946.34
683.314	8001.48
683.661	7949.73
684.009	7924.2
684.357	7880.58
684.705	7887.36
685.053	7881.49
685.4	7866.57
685.748	7803.52
686.095	7805.33
686.443	7850.3
686.79	7796.52
687.138	7772.11
687.485	7797.42
687.832	7748.61
688.18	7767.59
688.527	7669.52
688.874	7676.75
689.221	7635.62
689.568	7589.97
689.915	7560.59
690.262	7595.17
690.609	7587.94
690.956	7476.53
691.303	7509.29
691.65	7483.76
691.997	7517.43
692.344	7486.02
692.69	7414.38
693.037	7385.68
693.383	7329.86
693.73	7377.32
694.077	7369.86
694.423	7347.04
694.769	7288.28
695.116	7210.32
695.462	7238.34
695.808	7245.57
696.155	7250.09
696.501	7146.59
696.847	7143.88
697.193	7098.23
697.539	7095.07
697.885	7079.47
698.231	7011.23
698.577	6995.64
698.923	6952.7
699.269	7007.16
699.614	6915.86
699.96	6903.66
700.306	6931.23
700.651	6886.03
700.997	6866.15
701.342	6800.39
701.688	6809.43
702.033	6832.93
702.379	6776.88
702.724	6737.11
703.069	6713.38
703.415	6663.21
703.76	6665.7
704.105	6627.74
704.45	6647.17
704.795	6564.46
705.14	6550
705.485	6555.19
705.83	6535.31
706.175	6508.42
706.52	6499.6
706.865	6467.74
707.209	6400.62
707.554	6458.02
707.899	6435.65
708.243	6414.86
708.588	6413.05
708.932	6375.76
709.277	6350.45
709.621	6368.08
709.966	6258.48
710.31	6305.94
710.654	6262.77
710.998	6253.73
711.342	6242.66
711.687	6190.46
712.031	6179.61
712.375	6203.34
712.719	6197.46
713.063	6159.73
713.407	6195.88
713.75	6158.14
714.094	6116.56
714.438	6132.61
714.782	6110.46
715.125	6075.43
715.469	6105.26
715.812	6110.91
716.156	6049.9
716.499	6086.51
716.843	6065.26
717.186	5961.76
717.53	6041.31
717.873	5999.28
718.216	6047.86
718.559	5986.62
718.902	5946.17
719.246	5997.24
719.589	6016.23
719.932	5921.31
720.275	5953.18
720.617	5921.31
720.96	5941.88
721.303	5924.48
721.646	5917.92
721.989	5891.94
722.331	5929.67
722.674	5962.44
723.016	5958.6
723.359	5910.47
723.701	5902.56
724.044	5896.68
724.386	5878.83
724.729	5927.19
725.071	5878.38
725.413	5872.5
725.755	5853.74
726.097	5873.4
726.439	5822.11
726.782	5882.9
727.124	5861.88
727.465	5889.22
727.807	5824.82
728.149	5860.3
728.491	5842.45
728.833	5830.24
729.175	5854.2
729.516	5821.2
729.858	5807.64
730.199	5827.53
730.541	5823.01
730.882	5841.54
731.224	5870.92
731.565	5820.98
731.906	5809.68
732.248	5841.54
732.589	5794.08
732.93	5812.39
733.271	5810.81
733.612	5809.23
733.953	5837.93
734.294	5774.65
734.635	5845.16
734.976	5846.06
735.317	5802.67
735.658	5813.97
735.999	5795.44
736.339	5801.54
736.68	5851.94
737.021	5826.85
737.361	5803.8
737.702	5924.03
738.042	5876.12
738.383	5849.9
738.723	5865.27
739.063	5871.82
739.404	5889.9
739.744	5917.7
740.084	5914.31
740.424	5942.1
740.764	5865.27
741.104	5939.17
741.444	5943.23
741.784	5968.77
742.124	6008.32
742.464	5939.84
742.804	6023.46
743.143	5988.2
743.483	6065.94
743.823	6006.06
744.162	6036.56
744.502	6122.21
744.841	6147.3
745.181	6165.15
745.52	6188.88
745.86	6211.02
746.199	6210.12
746.538	6279.95
746.877	6281.3
747.216	6335.31
747.556	6359.72
747.895	6475.65
748.234	6456.44
748.573	6540.05
748.911	6503.67
749.25	6608.75
749.589	6630.9
749.928	6750.9
750.267	6817.56
750.605	6880.16
750.944	6914.28
751.283	6986.82
751.621	7059.36
751.96	7107.95
752.298	7196.08
752.636	7342.97
752.975	7404.44
753.313	7469.75
753.651	7616.41
753.989	7660.7
754.327	7778.67
754.666	7903.63
755.004	7981.6
755.342	8193.8
755.679	8285.09
756.017	8362.38
756.355	8469.95
756.693	8640.79
757.031	8722.6
757.368	8845.08
757.706	8947.67
758.044	9078.52
758.381	9355.57
758.719	9419.75
759.056	9678.28
759.394	9765.96
759.731	9878.72
760.068	10005.95
760.405	10124.59
760.743	10274.42
761.08	10594.18
761.417	10672.37
761.754	10816.78
762.091	10940.16
762.428	11140.16
762.765	11307.16
763.102	11505.8
763.438	11652.46
763.775	11796.86
764.112	11955.5
764.449	12237.08
764.785	12347.36
765.122	12480.24
765.458	12611.98
765.795	12758.87
766.131	12859.66
766.467	13037.51
766.804	13202.93
767.14	13388.46
767.476	13516.14
767.812	13613.99
768.148	13783.93
768.485	13977.37
768.821	13959.07
769.157	14165.16
769.492	14294.65
769.828	14390.7
770.164	14437.25
770.5	14597.02
770.836	14703.23
771.171	14797.24
771.507	14951.58
771.842	14916.56
772.178	15085.82
772.513	15239.94
772.849	15293.5
773.184	15384.79
773.519	15512.25
773.855	15597.67
774.19	15507.73
774.525	15784.1
774.86	15833.37
775.195	15931.67
775.53	16010.99
775.865	15902.29
776.2	16023.42
776.535	16056.41
776.87	16115.4
777.205	16092.35
777.539	16152
777.874	16263.64
778.209	16245.79
778.543	16323.98
778.878	16315.39
779.212	16392
779.547	16378.21
779.881	16464.76
780.215	16419.12
780.55	16527.81
780.884	16412.11
781.218	16580.92
781.552	16614.37
781.886	16530.53
782.22	16496.18
782.554	16570.07
782.888	16518.55
783.222	16594.7
783.556	16553.35
783.889	16433.81
784.223	16431.55
784.557	16544.54
784.89	16588.38
785.224	16400.59
785.557	16479.45
785.891	16475.84
786.224	16472.22
786.558	16498.89
786.891	16396.07
787.224	16403.07
787.557	16452.56
787.891	16466.57
788.224	16485.33
788.557	16500.02
788.89	16495.72
789.223	16461.15
789.556	16453.24
789.888	16393.35
790.221	16474.03
790.554	16228.84
790.887	16270.87
791.219	16259.8
791.552	16237.88
791.884	16145
792.217	16202.62
792.549	16172.57
792.882	16158.78
793.214	16147.03
793.546	16119.69
793.879	16128.95
794.211	16032.01
794.543	16047.6
794.875	15978.22
795.207	16051.67
795.539	15958.11
795.871	16084.21
796.203	15930.32
796.535	15744.56
796.867	15827.72
797.198	15773.94
797.53	15797.44
797.862	15728.74
798.193	15783.65
798.525	15606.03
798.856	15684.67
799.188	15575.07
799.519	15438.13
799.85	15411.91
800.182	15515.86
800.513	15401.74
800.844	15432.93
801.175	15509.76
801.506	15437.67
801.837	15314.74
802.168	15281.29
802.499	15291.24
802.83	15192.03
803.161	15221.18
803.491	15157
803.822	15178.24
804.153	15015.99
804.483	15052.82
804.814	14912.26
805.145	14985.03
805.475	15014.18
805.805	14834.3
806.136	14869.1
806.466	14888.54
806.796	14820.29
807.126	14737.13
807.457	14746.84
807.787	14751.14
808.117	14694.64
808.447	14630.01
808.777	14698.71
809.107	14682.44
809.436	14568.54
809.766	14479.73
810.096	14445.61
810.426	14448.09
810.755	14536.23
811.085	14553.63
811.414	14491.94
811.744	14371.03
812.073	14385.05
812.403	14360.19
812.732	14296.01
813.061	14275.22
813.39	14266.18
813.719	14142.57
814.049	14198.61
814.378	14146.63
814.707	14070.48
815.036	14007.43
815.365	14073.42
815.693	13991.38
816.022	14018.28
816.351	13882.23
816.68	13895.79
817.008	13974.66
817.337	13793.2
817.665	13758.62
817.994	13861.9
818.322	13842.01
818.651	13716.81
818.979	13698.96
819.307	13809.92
819.636	13708
819.964	13701.45
820.292	13769.69
820.62	13694.67
820.948	13649.25
821.276	13703.93
821.604	13662.8
821.932	13723.82
822.259	13653.09
822.587	13703.71
822.915	13587.1
823.243	13662.13
823.57	13585.29
823.898	13666.42
824.225	13616.25
824.553	13639.08
824.88	13573.77
825.207	13638.4
825.535	13677.04
825.862	13629.81
826.189	13611.28
826.516	13638.62
826.843	13642.47
827.17	13676.36
827.497	13749.36
827.824	13630.72
828.151	13654.67
828.478	13682.69
828.805	13711.62
829.131	13698.74
829.458	13665.97
829.785	13599.98
830.111	13597.72
830.438	13696.93
830.764	13695.12
831.09	13708
831.417	13667.32
831.743	13708.23
832.069	13621.9
832.395	13606.99
832.722	13648.57
833.048	13715.46
833.374	13605.18
833.7	13658.96
834.026	13592.07
834.351	13542.36
834.677	13569.47
835.003	13660.32
835.329	13601.11
835.654	13594.11
835.98	13532.41
836.306	13492.87
836.631	13445.18
836.956	13588
837.282	13524.96
837.607	13420.55
837.932	13474.33
838.258	13405.41
838.583	13414.22
838.908	13321.34
839.233	13388.91
839.558	13256.94
839.883	13277.05
840.208	13233.21
840.533	13282.48
840.858	13263.95
841.182	13265.75
841.507	13243.61
841.832	13103.95
842.156	13143.27
842.481	13145.08
842.805	13066.21
843.13	13095.81
843.454	13105.53
843.778	13012.43
844.103	12962.94
844.427	13000
844.751	12916.61
845.075	12841.58
845.399	12774.69
845.723	12727.01
846.047	12798.19
846.371	12746.22
846.695	12664.19
847.019	12647.01
847.343	12555.94
847.666	12497.64
847.99	12501.93
848.313	12453.57
848.637	12380.8
848.96	12340.13
849.284	12210.87
849.607	12203.63
849.931	12181.26
850.254	12067.14
850.577	12086.35
850.9	11949.63
851.223	11896.3
851.546	11930.42
851.869	11888.16
852.192	11931.78
852.515	11797.54
852.838	11666.02
853.161	11717.32
853.483	11694.72
853.806	11658.11
854.129	11590.99
854.451	11503.99
854.774	11489.75
855.096	11438
855.419	11459.02
855.741	11365.46
856.063	11321.4
856.385	11338.12
856.708	11240.5
857.03	11258.35
857.352	11266.26
857.674	11213.15
857.996	11148.07
858.318	11057.9
858.64	11108.52
858.961	11076.88
859.283	11021.07
859.605	10998.24
859.926	10987.17
860.248	10993.95
860.57	10937.9
860.891	10903.56
861.212	10864.23
861.534	10778.59
861.855	10851.13
862.176	10844.35
862.498	10835.76
862.819	10772.26
863.14	10763.67
863.461	10767.97
863.782	10753.5
864.103	10707.85
864.424	10706.72
864.745	10668.53
865.065	10622.21
865.386	10592.83
865.707	10601.64
866.027	10551.02
866.348	10585.82
866.668	10614.07
866.989	10573.17
867.309	10456.34
867.63	10526.62
867.95	10473.06
868.27	10412.49
868.59	10492.72
868.91	10415.21
869.23	10423.79
869.55	10331.37
869.87	10330.91
870.19	10331.37
870.51	10306.28
870.83	10342.67
871.15	10259.96
871.469	10390.57
871.789	10275.55
872.109	10287.53
872.428	10186.51
872.748	10225.83
873.067	10189.45
873.386	10207.98
873.706	10172.27
874.025	10163.46
874.344	10099.06
874.663	10153.29
874.982	10167.76
875.301	10124.59
875.62	10139.96
875.939	10018.38
876.258	10035.1
876.577	10056.8
876.896	10013.18
877.214	9950.81
877.533	9934.09
877.852	9956.91
878.17	9942.9
878.489	9924.15
878.807	9950.81
879.125	9861.1
879.444	9875.79
879.762	9892.73
880.08	9835.33
880.398	9753.3
880.716	9834.66
881.034	9759.63
881.352	9780.19
881.67	9699.29
881.988	9742.91
882.306	9707.2
882.624	9693.64
882.941	9654.32
883.259	9560.99
883.577	9566.42
883.894	9530.94
884.212	9555.34
884.529	9526.42
884.846	9534.1
885.164	9504.27
885.481	9448.9
885.798	9466.76
886.115	9419.53
886.432	9391.5
886.75	9371.39
887.067	9426.76
887.383	9372.52
887.7	9417.04
888.017	9420.2
888.334	9305.86
888.651	9323.03
888.967	9275.35
889.284	9176.59
889.6	9125.97
889.917	9128.91
890.233	9172.08
890.55	9121.46
890.866	9068.35
891.182	9036.03
891.498	9075.81
891.815	8954.91
892.131	9005.53
892.447	8938.86
892.763	8957.62
893.079	8871.97
893.395	8843.72
893.71	8836.94
894.026	8851.41
894.342	8821.12
894.657	8730.73
894.973	8631.98
895.289	8734.57
895.604	8704.52
895.92	8649.6
896.235	8578.87
896.55	8622.71
896.865	8575.71
897.181	8483.05
897.496	8544.97
897.811	8493.45
898.126	8489.83
898.441	8413
898.756	8411.19
899.071	8327.35
899.386	8291.87
899.7	8282.83
900.015	8258.65
900.33	8217.98
900.644	8149.96
900.959	8170.52
901.273	8120.58
901.588	8137.3
901.902	8045.33
902.216	8068.83
902.531	8040.58
902.845	7934.37
903.159	7919.23
903.473	7953.8
903.787	7837.87
904.101	7814.14
904.415	7840.36
904.729	7789.74
905.042	7754.49
905.356	7740.93
905.67	7701.15
905.984	7690.98
906.297	7656.41
906.611	7661.83
906.924	7578.67
907.237	7625.9
907.551	7578.22
907.864	7489.18
908.177	7488.96
908.491	7410.09
908.804	7432.23
909.117	7357.43
909.43	7337.77
909.743	7296.87
910.056	7270.88
910.368	7223.43
910.681	7222.3
910.994	7238.57
911.307	7130.77
911.619	7118.34
911.932	7137.55
912.244	7088.74
912.557	7091.9
912.869	6997.22
913.181	6978.91
913.494	6986.14
913.806	6985.01
914.118	6897.78
914.43	6856.43
914.742	6938.24
915.054	6832.48
915.366	6808.97
915.678	6771.46
915.99	6756.55
916.302	6712.7
916.613	6669.09
916.925	6669.54
917.236	6651.24
917.548	6633.61
917.859	6639.71
918.171	6611.01
918.482	6552.26
918.794	6490.11
919.105	6505.25
919.416	6444.46
919.727	6445.82
920.038	6445.14
920.349	6357.01
920.66	6384.13
920.971	6350.45
921.282	6260.29
921.593	6294.86
921.903	6225.71
922.214	6214.19
922.525	6242.66
922.835	6164.02
923.146	6108.43
923.456	6096.45
923.767	6051.25
924.077	6087.18
924.387	6039.05
924.697	5999.05
925.008	5974.65
925.318	5971.03
925.628	5946.62
925.938	5956.57
926.248	5926.06
926.558	5893.74
926.867	5887.42
927.177	5821.2
927.487	5829.34
927.796	5754.76
928.106	5769.9
928.416	5700.53
928.725	5764.48
929.034	5691.71
929.344	5677.93
929.653	5684.71
929.962	5635.22
930.271	5607.42
930.581	5590.25
930.89	5579.18
931.199	5533.98
931.508	5509.8
931.817	5499.63
932.125	5490.82
932.434	5427.31
932.743	5406.07
933.051	5389.58
933.36	5352.74
933.669	5337.37
933.977	5326.53
934.286	5310.03
934.594	5317.26
934.902	5249.47
935.21	5255.57
935.519	5291.95
935.827	5253.76
936.135	5190.94
936.443	5129.7
936.751	5095.57
937.059	5114.55
937.367	5084.73
937.674	5097.83
937.982	5024.84
938.29	5040.43
938.597	5052.18
938.905	4982.81
939.213	4974.67
939.52	4939.64
939.827	4939.19
940.135	4895.8
940.442	4912.53
940.749	4893.77
941.056	4877.5
941.363	4798.4
941.67	4815.13
941.977	4771.74
942.284	4792.76
942.591	4703.04
942.898	4739.88
943.205	4722.25
943.511	4688.8
943.818	4675.24
944.125	4664.62
944.431	4692.42
944.738	4601.8
945.044	4558.19
945.35	4586.66
945.657	4578.52
945.963	4533.55
946.269	4485.87
946.575	4454.91
946.881	4483.84
947.187	4437.51
947.493	4445.87
947.799	4404.29
948.105	4364.52
948.41	4344.41
948.716	4327.68
949.022	4364.07
949.327	4276.61
949.633	4303.95
949.938	4302.82
950.244	4289.04
950.549	4234.58
950.854	4204.07
951.16	4212.43
951.465	4157.97
951.77	4179.66
952.075	4139.67
952.38	4104.64
952.685	4129.95
952.99	4094.92
953.294	4106.45
953.599	4042.94
953.904	4067.35
954.209	4022.61
954.513	3984.19
954.818	4019.67
955.122	3971.76
955.426	3976.28
955.731	3963.4
956.035	3910.52
956.339	3883.63
956.643	3891.76
956.948	3820.8
957.252	3853.35
957.556	3837.07
957.86	3821.26
958.163	3843.4
958.467	3745.1
958.771	3801.14
959.075	3763.18
959.378	3769.51
959.682	3743.74
959.985	3716.17
960.289	3682.5
960.592	3698.55
960.896	3683.86
961.199	3660.58
961.502	3650.41
961.805	3616.97
962.108	3589.4
962.411	3604.31
962.714	3582.62
963.017	3581.49
963.32	3530.64
963.623	3533.35
963.926	3528.61
964.228	3515.5
964.531	3484.32
964.833	3477.99
965.136	3499
965.438	3435.28
965.741	3450.64
966.043	3413.81
966.345	3387.59
966.648	3355.5
966.95	3383.3
967.252	3346.01
967.554	3381.94
967.856	3337.65
968.158	3306.92
968.46	3296.75
968.761	3320.93
969.063	3262.85
969.365	3277.31
969.666	3263.98
969.968	3205.9
970.269	3205
970.571	3213.59
970.872	3203.42
971.174	3155.51
971.475	3169.3
971.776	3149.63
972.077	3131.56
972.378	3110.31
972.679	3101.27
972.98	3077.77
973.281	3088.62
973.582	3083.65
973.883	3060.82
974.183	3042.97
974.484	3032.35
974.785	3012.69
975.085	3022.63
975.386	2984.44
975.686	2965.23
975.986	3007.04
976.287	2968.62
976.587	2891.34
976.887	2903.99
977.187	2910.54
977.487	2909.64
977.787	2883.43
978.087	2844.78
978.387	2842.98
978.687	2877.33
978.987	2812.02
979.286	2802.75
979.586	2825.8
979.885	2785.58
980.185	2775.18
980.484	2757.78
980.784	2765.69
981.083	2730.21
981.382	2770.89
981.682	2738.57
981.981	2697.9
982.28	2718.23
982.579	2689.53
982.878	2692.92
983.177	2623.09
983.475	2678.46
983.774	2633.49
984.073	2651.57
984.372	2594.17
984.67	2624.9
984.969	2577.45
985.267	2579.71
985.566	2561.18
985.864	2566.37
986.162	2531.57
986.461	2536.32
986.759	2516.21
987.057	2512.36
987.355	2471.01
987.653	2492.48
987.951	2466.94
988.249	2462.87
988.547	2470.78
988.844	2451.8
989.142	2468.52
989.44	2429.43
989.737	2409.77
990.035	2386.26
990.332	2389.43
990.63	2368.41
990.927	2386.72
991.224	2326.38
991.521	2355.31
991.819	2334.06
992.116	2312.82
992.413	2298.13
992.71	2300.39
993.006	2309.2
993.303	2288.87
993.6	2298.13
993.897	2269.66
994.193	2242.54
994.49	2264.23
994.787	2236.89
995.083	2239.15
995.379	2219.49
995.676	2193.73
995.972	2194.18
996.268	2179.49
996.565	2149.66
996.861	2144.46
997.157	2144.92
997.453	2132.03
997.749	2153.95
998.044	2094.97
998.34	2088.87
998.636	2089.55
998.932	2073.5
999.227	2078.48
999.523	2068.31
999.818	2029.21
1000.114	2031.25
1000.409	2002.55
1000.704	2026.95
1001	2004.58
1001.295	1964.58
1001.59	1959.16
1001.885	1988.76
1002.18	1951.02
1002.475	1953.28
1002.77	1950.57
1003.065	1912.15
1003.359	1890.23
1003.654	1893.62
1003.949	1908.76
1004.243	1880.29
1004.538	1871.93
1004.832	1866.96
1005.127	1871.48
1005.421	1831.7
1005.715	1856.79
1006.009	1836
1006.304	1801.65
1006.598	1840.29
1006.892	1786.96
1007.186	1769.56
1007.48	1776.34
1007.773	1764.59
1008.067	1789.9
1008.361	1761.87
1008.655	1753.74
1008.948	1727.98
1009.242	1735.43
1009.535	1711.71
1009.829	1716
1010.122	1699.96
1010.415	1684.36
1010.708	1656.57
1011.001	1657.92
1011.295	1666.28
1011.588	1634.19
1011.881	1647.53
1012.173	1637.36
1012.466	1603.91
1012.759	1579.51
1013.052	1592.16
1013.344	1569.11
1013.637	1573.4
1013.93	1570.92
1014.222	1547.42
1014.514	1531.82
1014.807	1531.37
1015.099	1525.04
1015.391	1540.41
1015.683	1514.42
1015.976	1513.29
1016.268	1494.99
1016.56	1488.66
1016.851	1483.69
1017.143	1490.92
1017.435	1477.59
1017.727	1445.05
1018.018	1421.32
1018.31	1433.3
1018.602	1413.86
1018.893	1416.12
1019.185	1411.38
1019.476	1365.5
1019.767	1390.36
1020.058	1384.71
1020.35	1378.16
1020.641	1355.56
1020.932	1345.16
1021.223	1356.24
1021.514	1354.88
1021.804	1314.88
1022.095	1344.03
1022.386	1336.12
1022.677	1292.51
1022.967	1288.67
1023.258	1273.07
1023.548	1291.83
1023.839	1261.77
1024.129	1284.82
1024.419	1241.21
1024.709	1214.54
1025	1258.38
1025.29	1226.07
1025.58	1220.19
1025.87	1219.06
1026.16	1203.7
1026.449	1208.67
1026.739	1196.01
1027.029	1193.75
1027.319	1164.6
1027.608	1189.01
1027.898	1160.08
1028.187	1138.61
1028.477	1155.79
1028.766	1131.61
1029.055	1154.21
1029.344	1138.39
1029.634	1125.73
1029.923	1128.9
1030.212	1103.59
1030.501	1105.17
1030.79	1094.32
1031.078	1101.78
1031.367	1102.68
1031.656	1059.29
1031.945	1068.79
1032.233	1068.11
1032.522	1049.35
1032.81	1049.8
1033.099	1024.27
1033.387	1022.46
1033.675	1021.78
1033.963	1032.63
1034.251	1006.41
1034.54	1000.99
1034.828	1006.87
1035.116	1035.57
1035.403	992.4
1035.691	985.62
1035.979	968.68
1036.267	972.29
1036.554	953.76
1036.842	968
1037.129	943.14
1037.417	962.35
1037.704	942.24
1037.992	926.42
1038.279	928.45
1038.566	904.27
1038.853	904.27
1039.14	904.27
