Data from hue_330_FLMS001491_25.txt Node
Date: Mon Feb 06 15:45:10 GMT 2017
User: dcchb
Spectrometer: FLMS00149
Trigger mode: 0
Integration Time (sec): 2.000000E-2
Scans to average: 10
Electric dark correction enabled: true
Nonlinearity correction enabled: false
Boxcar width: 0
XAxis mode: Wavelengths
Number of Pixels in Spectrum: 2048
>>>>>Begin Spectral Data<<<<<
341.393	-30.65
341.776	-30.65
342.16	-30.65
342.543	-67.94
342.927	-77.43
343.31	-68.84
343.693	-54.83
344.077	-61.16
344.46	-74.49
344.843	-37.65
345.226	-33.81
345.61	-40.37
345.993	-5.56
346.376	-3.3
346.759	12.51
347.142	18.39
347.525	29.24
347.908	55
348.291	81.89
348.674	81.89
349.057	101.1
349.44	122.57
349.823	121.44
350.206	160.31
350.588	189.68
350.971	195.56
351.354	209.12
351.737	238.95
352.119	252.28
352.502	255.45
352.884	275.11
353.267	271.72
353.65	286.4
354.032	288.21
354.414	298.83
354.797	297.7
355.179	305.61
355.562	315.1
355.944	311.49
356.326	338.15
356.709	337.03
357.091	319.85
357.473	332.28
357.855	335.44
358.238	357.36
358.62	334.99
359.002	320.3
359.384	313.75
359.766	336.35
360.148	339.06
360.53	320.75
360.912	321.21
361.294	307.42
361.676	311.49
362.057	329.34
362.439	331.83
362.821	320.08
363.203	318.72
363.584	318.95
363.966	318.72
364.348	323.01
364.729	313.3
365.111	313.07
365.493	323.47
365.874	313.75
366.256	310.36
366.637	293.41
367.019	319.17
367.4	304.48
367.781	296.8
368.163	330.02
368.544	304.94
368.925	312.62
369.306	304.94
369.688	307.87
370.069	331.15
370.45	331.38
370.831	316.01
371.212	335.9
371.593	311.26
371.974	304.48
372.355	302.45
372.736	294.54
373.117	300.42
373.498	304.48
373.879	313.3
374.26	311.04
374.641	322.34
375.021	284.15
375.402	329.57
375.783	303.81
376.163	299.51
376.544	334.09
376.925	322.34
377.305	333.64
377.686	330.25
378.066	304.48
378.447	339.51
378.827	326.63
379.208	329.57
379.588	317.14
379.968	319.85
380.349	326.18
380.729	334.99
381.109	340.41
381.489	334.54
381.87	331.6
382.25	315.33
382.63	337.03
383.01	332.96
383.39	324.37
383.77	332.28
384.15	338.61
384.53	330.02
384.91	330.47
385.29	339.51
385.67	347.42
386.049	360.53
386.429	337.48
386.809	341.77
387.189	324.14
387.568	337.03
387.948	353.3
388.328	346.74
388.707	346.52
389.087	351.49
389.466	342
389.846	356.91
390.225	373.18
390.605	335.67
390.984	345.61
391.363	363.92
391.743	355.78
392.122	346.06
392.501	363.24
392.881	383.58
393.26	374.76
393.639	371.15
394.018	362.34
394.397	367.76
394.776	366.85
395.155	376.8
395.534	338.83
395.913	361.21
396.292	359.62
396.671	382.45
397.05	397.81
397.429	371.6
397.808	390.36
398.186	383.8
398.565	378.38
398.944	386.97
399.323	384.26
399.701	401.66
400.08	398.94
400.458	396.91
400.837	385.39
401.215	406.63
401.594	376.8
401.972	398.04
402.351	401.43
402.729	382.67
403.107	403.46
403.486	387.87
403.864	414.09
404.242	399.85
404.62	401.43
404.999	432.84
405.377	406.4
405.755	415.22
406.133	423.8
406.511	416.8
406.889	423.12
407.267	424.25
407.645	439.85
408.023	441.88
408.401	462.67
408.779	436.23
409.156	432.16
409.534	444.37
409.912	472.16
410.29	489.11
410.667	460.41
411.045	475.1
411.422	471.94
411.8	457.47
412.178	492.5
412.555	497.7
412.933	507.64
413.31	483.46
413.687	507.87
414.065	485.27
414.442	516.68
414.819	510.35
415.197	536.79
415.574	551.48
415.951	542.9
416.328	542.67
416.705	535.21
417.082	547.87
417.46	568.88
417.837	573.85
418.214	564.82
418.591	556
418.967	579.28
419.344	585.15
419.721	593.52
420.098	581.99
420.475	608.2
420.852	626.96
421.228	631.93
421.605	630.58
421.982	604.14
422.358	623.57
422.735	635.77
423.111	645.72
423.488	624.25
423.864	659.5
424.241	647.75
424.617	659.95
424.994	655.43
425.37	671.71
425.746	683
426.123	686.85
426.499	699.5
426.875	691.37
427.251	691.59
427.627	708.77
428.003	728.65
428.379	710.57
428.756	744.02
429.132	722.33
429.507	751.93
429.883	779.05
430.259	777.24
430.635	775.88
431.011	759.16
431.387	817.69
431.763	809.78
432.138	802.55
432.514	795.32
432.89	822.21
433.265	834.41
433.641	880.51
434.016	840.74
434.392	848.65
434.767	850.01
435.143	877.12
435.518	872.15
435.894	903.34
436.269	906.05
436.644	917.12
437.02	908.54
437.395	909.89
437.77	930.46
438.145	928.65
438.52	928.2
438.895	976.78
439.271	956.44
439.646	954.86
440.021	958.7
440.395	965.94
440.77	967.52
441.145	979.27
441.52	1010.45
441.895	982.88
442.27	1010.23
442.645	982.43
443.019	1030.79
443.394	1021.3
443.769	1068.53
444.143	1020.62
444.518	1054.52
444.892	1029.44
445.267	1059.72
445.641	1049.32
446.016	1045.71
446.39	1040.74
446.764	1046.16
447.139	1052.03
447.513	1071.02
447.887	1062.2
448.262	1084.8
448.636	1079.38
449.01	1090.23
449.384	1143.33
449.758	1086.38
450.132	1106.04
450.506	1084.58
450.88	1109.21
451.254	1113.28
451.628	1126.61
452.002	1145.14
452.376	1155.99
452.75	1152.37
453.123	1140.17
453.497	1157.79
453.871	1171.81
454.244	1179.71
454.618	1200.96
454.992	1199.6
455.365	1214.52
455.739	1231.24
456.112	1217.91
456.486	1230.11
456.859	1237.79
457.232	1265.59
457.606	1249.09
457.979	1268.53
458.352	1293.16
458.725	1323.44
459.099	1297
459.472	1320.73
459.845	1318.02
460.218	1339.03
460.591	1341.29
460.964	1366.38
461.337	1375.87
461.71	1389.43
462.083	1380.84
462.456	1414.51
462.829	1381.97
463.201	1429.43
463.574	1449.09
463.947	1435.98
464.32	1470.55
464.692	1466.03
465.065	1466.03
465.438	1480.5
465.81	1488.86
466.183	1520.5
466.555	1556.2
466.928	1556.88
467.3	1568.41
467.672	1570.66
468.045	1615.41
468.417	1599.14
468.789	1577.67
469.161	1629.87
469.534	1623.77
469.906	1653.6
470.278	1683.66
470.65	1682.98
471.022	1702.41
471.394	1751.23
471.766	1757.55
472.138	1753.48
472.51	1811.11
472.882	1776.08
473.253	1831.68
473.625	1851.79
473.997	1882.75
474.369	1916.19
474.74	1900.83
475.112	1929.3
475.484	1980.15
475.855	1992.35
476.227	2021.5
476.598	2027.15
476.97	2044.55
477.341	2087.71
477.713	2095.62
478.084	2113.02
478.455	2160.93
478.827	2210.2
479.198	2227.82
479.569	2221.72
479.94	2284.77
480.311	2305.11
480.682	2340.14
481.053	2401.83
481.424	2406.8
481.795	2432.11
482.166	2503.97
482.537	2481.38
482.908	2512.34
483.279	2585.33
483.65	2590.07
484.021	2647.47
484.391	2650.86
484.762	2662.16
485.133	2696.74
485.503	2705.78
485.874	2774.48
486.244	2770.86
486.615	2813.57
486.985	2867.13
487.356	2900.35
487.726	2928.6
488.097	2999.33
488.467	2961.36
488.837	3035.94
489.207	3066.22
489.578	3089.72
489.948	3097.18
490.318	3142.15
490.688	3151.64
491.058	3235.48
491.428	3232.09
491.798	3281.58
492.168	3303.95
492.538	3289.04
492.908	3345.31
493.278	3369.04
493.648	3376.04
494.017	3439.32
494.387	3481.58
494.757	3504.4
495.126	3526.77
495.496	3534.23
495.866	3539.65
496.235	3581.69
496.605	3595.92
496.974	3628.69
497.344	3621.68
497.713	3678.63
498.082	3695.13
498.452	3720.66
498.821	3729.7
499.19	3735.58
499.559	3787.1
499.928	3755.24
500.298	3785.07
500.667	3825.97
501.036	3800.66
501.405	3891.96
501.774	3855.58
502.143	3843.15
502.512	3917.72
502.88	3936.7
503.249	3889.47
503.618	3951.39
503.987	3932.18
504.356	3960.43
504.724	3995.69
505.093	3982.8
505.462	3992.97
505.83	4059.64
506.199	4059.64
506.567	4099.86
506.936	4064.61
507.304	4115.91
507.672	4123.82
508.041	4141.67
508.409	4143.48
508.777	4203.82
509.145	4185.06
509.514	4207.66
509.882	4257.83
510.25	4192.52
510.618	4260.31
510.986	4247.43
511.354	4265.51
511.722	4293.98
512.09	4342.57
512.458	4326.75
512.826	4344.38
513.193	4388.67
513.561	4362
513.929	4375.34
514.297	4415.34
514.664	4431.38
515.032	4443.36
515.4	4455.33
515.767	4460.98
516.135	4477.03
516.502	4409.46
516.869	4499.4
517.237	4546.41
517.604	4531.94
517.972	4535.33
518.339	4594.99
518.706	4556.58
519.073	4606.97
519.44	4605.84
519.808	4619.85
520.175	4644.71
520.542	4686.74
520.909	4677.25
521.276	4624.6
521.643	4724.93
522.009	4724.25
522.376	4723.12
522.743	4721.99
523.11	4761.77
523.477	4840.86
523.843	4801.99
524.21	4840.41
524.577	4867.98
524.943	4923.8
525.31	4925.38
525.676	4962.67
526.043	4952.04
526.409	4986.39
526.776	5011.7
527.142	4994.98
527.508	5063.91
527.874	5022.33
528.241	5102.1
528.607	5127.63
528.973	5169.67
529.339	5151.36
529.705	5239.95
530.071	5260.06
530.437	5219.38
530.803	5314.52
531.169	5350.45
531.535	5273.84
531.901	5276.78
532.267	5337.35
532.632	5389.77
532.998	5372.37
533.364	5414.18
533.73	5426.61
534.095	5483.1
534.461	5478.36
534.826	5506.15
535.192	5538.47
535.557	5578.02
535.923	5547.28
536.288	5589.54
536.653	5649.2
537.019	5627.96
537.384	5681.29
537.749	5726.26
538.114	5660.05
538.479	5714.51
538.845	5776.2
539.21	5729.2
539.575	5759.26
539.94	5776.43
540.305	5795.19
540.67	5853.72
541.034	5916.09
541.399	5933.94
541.764	5884.9
542.129	5942.53
542.494	5967.84
542.858	6026.14
543.223	5994.73
543.587	6071.11
543.952	6043.32
544.316	6083.09
544.681	6106.36
545.045	6114.05
545.41	6165.8
545.774	6195.4
546.138	6194.72
546.503	6218
546.867	6218.9
547.231	6279.69
547.595	6246.25
547.959	6340.48
548.324	6297.32
548.688	6410.31
549.052	6326.7
549.416	6415.28
549.779	6388.62
550.143	6433.14
550.507	6469.97
550.871	6492.34
551.235	6484.66
551.599	6527.14
551.962	6545.9
552.326	6576.86
552.689	6583.41
553.053	6545.68
553.417	6629.97
553.78	6654.83
554.143	6636.07
554.507	6669.06
554.87	6692.34
555.234	6750.19
555.597	6702.06
555.96	6783.18
556.323	6780.47
556.686	6769.17
557.05	6808.27
557.413	6828.38
557.776	6864.09
558.139	6900.02
558.502	6915.61
558.865	6892.78
559.228	6956.29
559.59	7043.74
559.953	7027.47
560.316	7050.29
560.679	7056.85
561.041	7047.81
561.404	7074.93
561.767	7107.69
562.129	7096.4
562.492	7160.35
562.854	7143.85
563.217	7173
563.579	7137.52
563.941	7273.57
564.304	7296.62
564.666	7258.88
565.028	7313.56
565.39	7259.1
565.753	7364.86
566.115	7377.52
566.477	7410.06
566.839	7417.52
567.201	7502.03
567.563	7447.35
567.925	7490.96
568.287	7536.61
568.648	7597.17
569.01	7593.11
569.372	7614.12
569.734	7638.53
570.095	7723.5
570.457	7735.93
570.819	7737.28
571.18	7786.32
571.542	7862.7
571.903	7866.09
572.265	7939.54
572.626	7919.65
572.987	7969.37
573.349	8016.15
573.71	8091.4
574.071	8123.49
574.432	8149.02
574.794	8236.48
575.155	8299.3
575.516	8337.27
575.877	8400.09
576.238	8439.41
576.599	8522.12
576.96	8537.71
577.32	8583.59
577.681	8748.56
578.042	8834.43
578.403	8862.45
578.763	8910.81
579.124	9060.19
579.485	9172.95
579.845	9278.03
580.206	9409.55
580.566	9445.71
580.927	9570.68
581.287	9737.46
581.648	9783.78
582.008	9978.58
582.368	10111.01
582.728	10294.96
583.089	10393.03
583.449	10558.23
583.809	10691.33
584.169	10889.74
584.529	11046.12
584.889	11267.36
585.249	11416.28
585.609	11531.08
585.969	11812.88
586.329	12021.46
586.688	12218.07
587.048	12418.52
587.408	12547.55
587.768	12900.31
588.127	13111.6
588.487	13160.64
588.846	13654.64
589.206	13768.99
589.565	14000.62
589.925	14241.74
590.284	14483.09
590.643	14808.73
591.003	15031.1
591.362	15304.77
591.721	15587.02
592.08	15841.48
592.44	16139.1
592.799	16381.8
593.158	16653.21
593.517	16994.89
593.876	17261.1
594.235	17460.87
594.593	17822.89
594.952	18098.59
595.311	18309.66
595.67	18623.1
596.029	18958.91
596.387	19226.47
596.746	19504.66
597.104	19798.66
597.463	20083.85
597.822	20417.63
598.18	20734.45
598.538	20984.84
598.897	21323.14
599.255	21444.94
599.613	22041.54
599.972	22167.19
600.33	22546.38
600.688	22668.64
601.046	23016.43
601.404	23359.24
601.762	23457.77
602.12	24032.9
602.478	24111.09
602.836	24426.56
603.194	24409.84
603.552	24910.84
603.91	24960.56
604.268	25428.79
604.625	25655.68
604.983	26008.89
605.341	26049.57
605.698	26373.63
606.056	26726.84
606.413	26835.76
606.771	27164.79
607.128	27508.06
607.485	27540.15
607.843	27659.7
608.2	28069.86
608.557	28334.93
608.914	28414.25
609.272	28742.61
609.629	29052.43
609.986	29296.49
610.343	29322.93
610.7	29897.38
611.057	29852.86
611.414	30058.73
611.771	30288.78
612.127	30483.58
612.484	30746.39
612.841	30897.58
613.198	30940.97
613.554	31138.93
613.911	31479.26
614.267	31642.87
614.624	31675.41
614.98	31905.01
615.337	32196.53
615.693	32266.35
616.05	32361.27
616.406	32710.41
616.762	32806.23
617.118	32703.18
617.475	33039.89
617.831	33182.49
618.187	33360.11
618.543	33427.68
618.899	33789.93
619.255	33733.89
619.611	33911.06
619.967	34009.81
620.323	34295.91
620.678	34272.18
621.034	34264.95
621.39	34469.91
621.746	34385.17
622.101	35029.67
622.457	34670.81
622.812	34888.21
623.168	35003.46
623.523	35137.92
623.879	35301.53
624.234	35082.55
624.589	35315.09
624.945	35466.95
625.3	35489.32
625.655	35545.59
626.01	35715.98
626.365	35763.21
626.72	35788.52
627.075	35853.61
627.43	35946.48
627.785	35938.8
628.14	36110.1
628.495	36131.11
628.85	36043.2
629.205	35995.52
629.559	36378.79
629.914	36280.26
630.269	36401.16
630.623	36272.13
630.978	36257.66
631.332	36355.51
631.687	36562.97
632.041	36509.41
632.396	36564.1
632.75	36431.67
633.104	36514.38
633.459	36480.48
633.813	36561.38
634.167	36553.25
634.521	36599.12
634.875	36722.96
635.229	36647.03
635.583	36580.14
635.937	36614.04
636.291	36565.23
636.645	36627.37
636.999	36465.34
637.352	36733.13
637.706	36508.73
638.06	36741.49
638.413	36568.61
638.767	36556.41
639.121	36622.4
639.474	36393.48
639.828	36434.38
640.181	36606.35
640.534	36601.83
640.888	36446.13
641.241	36372.01
641.594	36577.65
641.947	36516.19
642.301	36419.24
642.654	36567.48
643.007	36506.02
643.36	36392.35
643.713	36347.6
644.066	36635.96
644.419	36320.26
644.771	36094.95
645.124	35828.52
645.477	35763.44
645.83	35639.83
646.182	35547.17
646.535	35455.65
646.888	35518.47
647.24	35260.85
647.593	35416.55
647.945	35400.51
648.298	35260.63
648.65	35214.98
649.002	35167.75
649.355	35422.2
649.707	35226.28
650.059	35392.37
650.411	35892.7
650.763	35869.65
651.115	36252.92
651.467	36164.33
651.819	36115.07
652.171	36221.28
652.523	36004.11
652.875	36143.09
653.227	35948.07
653.578	36263.09
653.93	36092.92
654.282	36085.46
654.633	35834.85
654.985	35938.35
655.337	35995.3
655.688	35957.11
656.039	36058.57
656.391	35853.61
656.742	35912.36
657.094	35878.69
657.445	35995.52
657.796	35828.3
658.147	35737.9
658.498	35785.13
658.849	35921.85
659.2	35828.3
659.551	35683.21
659.902	35909.2
660.253	35777.45
660.604	35840.95
660.955	35678.02
661.306	35831.46
661.656	35732.48
662.007	35642.99
662.358	35694.29
662.708	35727.05
663.059	35678.47
663.409	35431.7
663.76	35759.6
664.11	35681.63
664.461	35772.7
664.811	35717.56
665.161	35610.45
665.511	35553.95
665.862	35686.15
666.212	35774.74
666.562	35789.88
666.912	35704
667.262	35673.95
667.612	35611.35
667.962	35745.36
668.312	35792.59
668.662	35685.7
669.011	35664.91
669.361	35557.12
669.711	35608.87
670.06	35520.73
670.41	35547.17
670.76	35490.45
671.109	35649.32
671.459	35567.06
671.808	35434.18
672.157	35642.31
672.507	35414.29
672.856	35268.54
673.205	35348.31
673.554	35504.91
673.904	35440.28
674.253	35612.71
674.602	35382.88
674.951	35035.55
675.3	34717.82
675.649	35108.09
675.998	35178.59
676.346	35327.29
676.695	35325.71
677.044	35237.12
677.393	35210.46
677.741	35346.05
678.09	35064.93
678.438	35050.01
678.787	35144.25
679.135	35247.52
679.484	34951.26
679.832	35113.06
680.181	34978.15
680.529	35077.81
680.877	34803.46
681.225	34861.77
681.573	35103.79
681.922	34810.92
682.27	34811.37
682.618	34783.58
682.966	34658.16
683.314	34693.86
683.661	34576.12
684.009	34479.86
684.357	34463.59
684.705	34339.29
685.053	34537.71
685.4	34431.27
685.748	34067.44
686.095	34288.9
686.443	34157.6
686.79	34090.49
687.138	34155.34
687.485	34004.16
687.832	33888.91
688.18	34069.7
688.527	33706.32
688.874	33825.41
689.221	33706.09
689.568	33700.22
689.915	33627
690.262	33507.23
690.609	33417.06
690.956	33312.2
691.303	33417.96
691.65	33138.42
691.997	33272.2
692.344	33019.78
692.69	33082.15
693.037	33053
693.383	32679.68
693.73	32898.88
694.077	32723.07
694.423	32666.34
694.769	32724.87
695.116	32580.25
695.462	32436.75
695.808	32342.06
696.155	32510.87
696.501	32224.55
696.847	32211.89
697.193	31973.26
697.539	32129.86
697.885	31854.61
698.231	31801.51
698.577	31766.71
698.923	31773.03
699.269	31575.98
699.614	31515.87
699.96	31427.06
700.306	31285.82
700.651	31354.29
700.997	31138.93
701.342	31150.23
701.688	31124.24
702.033	30956.78
702.379	30970.12
702.724	30911.36
703.069	30824.58
703.415	30611.71
703.76	30578.04
704.105	30590.24
704.45	30500.07
704.795	30455.56
705.14	30348.89
705.485	30169.01
705.83	30192.29
706.175	30070.48
706.52	30103.93
706.865	29976.25
707.209	29898.96
707.554	29741.45
707.899	29799.53
708.243	29796.59
708.588	29749.59
708.932	29513.88
709.277	29456.03
709.621	29572.64
709.966	29414.23
710.31	29291.97
710.654	29068.92
710.998	29268.92
711.342	29313.89
711.687	29129.49
712.031	28931.75
712.375	28832.77
712.719	29047.46
713.063	28900.34
713.407	28989.38
713.75	28641.14
714.094	28753.68
714.438	28573.8
714.782	28571.76
715.125	28468.04
715.469	28446.79
715.812	28360.69
716.156	28191.89
716.499	28240.25
716.843	28300.58
717.186	28235.05
717.53	28397.3
717.873	28178.33
718.216	28112.57
718.559	27989.63
718.902	27908.28
719.246	27905.79
719.589	27827.6
719.932	27722.97
720.275	27732.01
720.617	27708.96
720.96	27673.71
721.303	27636.42
721.646	27783.54
721.989	27484.33
722.331	27548.06
722.674	27469.64
723.016	27560.04
723.359	27272.59
723.701	27390.55
724.044	27221.97
724.386	27106.72
724.729	27215.87
725.071	27091.58
725.413	27201.4
725.755	27015.42
726.097	26988.75
726.439	26877.8
726.782	26842.54
727.124	26870.11
727.465	26818.81
727.807	26683.45
728.149	26829.89
728.491	26868.08
728.833	26724.58
729.175	26643.45
729.516	26576.11
729.858	26559.61
730.199	26566.39
730.541	26353.97
730.882	26378.37
731.224	26552.15
731.565	26396.68
731.906	26330.24
732.248	26232.84
732.589	26181.32
732.93	26150.13
733.271	26202.56
733.612	26189.45
733.953	26185.61
734.294	26076.46
734.635	26019.06
734.976	25973.87
735.317	25901.32
735.658	25876.47
735.999	25876.47
736.339	25743.14
736.68	25818.84
737.021	25788.33
737.361	25688
737.702	25791.72
738.042	25690.93
738.383	25622.46
738.723	25671.95
739.063	25470.38
739.404	25485.74
739.744	25473.54
740.084	25431.96
740.424	25537.72
740.764	25450.26
741.104	25449.36
741.444	25285.07
741.784	25301.11
742.124	25290.27
742.464	25307.22
742.804	25196.48
743.143	25070.84
743.483	25064.51
743.823	24970.73
744.162	24931.63
744.502	25010.95
744.841	24888.47
745.181	25033.1
745.52	24917.17
745.86	24893.89
746.199	24808.47
746.538	24817.06
746.877	24822.71
747.216	24704.07
747.556	24777.29
747.895	24722.15
748.234	24632.88
748.573	24508.59
748.911	24548.14
749.25	24460.91
749.589	24315.38
749.928	24420.69
750.267	24440.35
750.605	24338.2
750.944	24290.97
751.283	24280.8
751.621	24292.78
751.96	24099.11
752.298	24121.48
752.636	24161.03
752.975	24041.26
753.313	23864.77
753.651	23952
753.989	23766.92
754.327	23830.19
754.666	23630.65
755.004	23784.77
755.342	23730.31
755.679	23666.13
756.017	23464.1
756.355	23449.41
756.693	23465.91
757.031	23405.8
757.368	23276.76
757.706	23346.59
758.044	23163.54
758.381	23126.71
758.719	23176.42
759.056	23227.72
759.394	23064.56
759.731	22890.1
760.068	22905.47
760.405	22758.36
760.743	22868.18
761.08	22756.32
761.417	22643.11
761.754	22608.53
762.091	22564.46
762.428	22434.98
762.765	22338.03
763.102	22373.96
763.438	22360.4
763.775	22237.92
764.112	22211.48
764.449	22210.12
764.785	22099.39
765.122	21939.85
765.458	21809.23
765.795	21831.83
766.131	21727.65
766.467	21702.11
766.804	21706.86
767.14	21452.4
767.476	21533.08
767.812	21283.82
768.148	21483.14
768.485	21142.58
768.821	21177.38
769.157	21141.9
769.492	21088.12
769.828	21058.74
770.164	20937.16
770.5	20753.66
770.836	20938.29
771.171	20677.73
771.507	20635.25
771.842	20493.78
772.178	20535.82
772.513	20455.14
772.849	20380.57
773.184	20244.52
773.519	20208.14
773.855	20229.16
774.19	20096.96
774.525	20071.42
774.86	20093.12
775.195	19957.53
775.53	19912.33
775.865	19756.4
776.2	19661.26
776.535	19496.52
776.87	19482.28
777.205	19348.5
777.539	19309.86
777.874	19374.49
778.209	19265.79
778.543	19216.3
778.878	19053.14
779.212	19077.32
779.547	18938.8
779.881	18959.36
780.215	18820.15
780.55	18813.83
780.884	18723.89
781.218	18678.92
781.552	18560.27
781.886	18561.63
782.22	18508.52
782.554	18383.56
782.888	18152.83
783.222	18128.42
783.556	18130.91
783.889	18030.35
784.223	17956.9
784.557	17837.36
784.89	17826.96
785.224	17868.32
785.557	17657.93
785.891	17650.24
786.224	17623.58
786.558	17602.79
786.891	17457.7
787.224	17331.83
787.557	17363.24
787.891	17287.09
788.224	17276.47
788.557	17226.07
788.89	17289.12
789.223	17192.85
789.556	17112.4
789.888	16934.78
790.221	16930.04
790.554	16748.57
790.887	16807.78
791.219	16725.52
791.552	16684.17
791.884	16642.13
792.217	16582.25
792.549	16554.68
792.882	16377.96
793.214	16358.98
793.546	16365.08
793.879	16220.22
794.211	16191.75
794.543	16196.95
794.875	16126.67
795.207	16091.19
795.539	16048.25
795.871	16125.08
796.203	15939.33
796.535	15850.97
796.867	15820.91
797.198	15704.53
797.53	15757.64
797.862	15585.66
798.193	15551.31
798.525	15511.32
798.856	15570.07
799.188	15335.05
799.519	15254.82
799.85	15249.18
800.182	15278.55
800.513	15295.95
800.844	15087.82
801.175	15152.68
801.506	15203.75
801.837	15095.28
802.168	15070.87
802.499	14968.96
802.83	14914.49
803.161	14892.12
803.491	14845.8
803.822	14818.45
804.153	14905.46
804.483	14672.02
804.814	14613.71
805.145	14620.04
805.475	14573.26
805.805	14508.63
806.136	14504.34
806.466	14443.77
806.796	14426.15
807.126	14320.16
807.457	14266.38
807.787	14297.56
808.117	14290.33
808.447	14198.81
808.777	14291.69
809.107	14130.56
809.436	14056.66
809.766	14155.87
810.096	13976.67
810.426	13961.53
810.755	14033.39
811.085	13887.4
811.414	13939.38
811.744	13919.94
812.073	13760.63
812.403	13778.93
812.732	13634.75
813.061	13612.61
813.39	13611.03
813.719	13555.21
814.049	13656.45
814.378	13527.19
814.707	13587.75
815.036	13580.52
815.365	13457.81
815.693	13304.37
816.022	13419.39
816.351	13352.73
816.68	13209.91
817.008	13174.65
817.337	13211.26
817.665	13166.07
817.994	13092.17
818.322	13097.82
818.651	13042
818.979	12990.48
819.307	13093.3
819.636	12950.25
819.964	12944.83
820.292	12996.13
820.62	12971.27
820.948	12930.37
821.276	12934.89
821.604	12917.49
821.932	12831.84
822.259	12886.53
822.587	12802.69
822.915	12855.34
823.243	12871.38
823.57	12789.13
823.898	12848.56
824.225	12784.16
824.553	12837.71
824.88	12868.45
825.207	12825.74
825.535	12757.26
825.862	12854.66
826.189	12740.54
826.516	12859.86
826.843	12911.38
827.17	12847.2
827.497	12848.56
827.824	12795.91
828.151	12849.46
828.478	12767.43
828.805	12817.83
829.131	12720.65
829.458	12712.97
829.785	12671.84
830.111	12824.15
830.438	12839.3
830.764	12804.72
831.09	12801.1
831.417	12700.77
831.743	12777.83
832.069	12726.08
832.395	12703.93
832.722	12805.62
833.048	12696.02
833.374	12730.37
833.7	12655.57
834.026	12715
834.351	12715.68
834.677	12691.28
835.003	12723.59
835.329	12609.47
835.654	12682.46
835.98	12513.43
836.306	12617.61
836.631	12515.69
836.956	12529.92
837.282	12641.56
837.607	12512.98
837.932	12470.27
838.258	12498.74
838.583	12392.3
838.908	12384.62
839.233	12353.21
839.558	12411.06
839.883	12380.55
840.208	12387.78
840.533	12367.44
840.858	12276.82
841.182	12266.43
841.507	12203.83
841.832	12202.25
842.156	12180.56
842.481	12213.1
842.805	12195.24
843.13	12055.81
843.454	12100.11
843.778	12031.41
844.103	12020.79
844.427	11974.01
844.751	11960.45
845.075	11945.08
845.399	11856.5
845.723	11873.22
846.047	11838.19
846.371	11757.52
846.695	11769.04
847.019	11620.57
847.343	11584.64
847.666	11478.88
847.99	11511.87
848.313	11492.44
848.637	11398.2
848.96	11353.01
849.284	11310.52
849.607	11223.97
849.931	11245.21
850.254	11172.22
850.577	11118.44
850.9	11043.64
851.223	11005.67
851.546	11004.54
851.869	10947.14
852.192	10967.25
852.515	10899.23
852.838	10798.44
853.161	10803.64
853.483	10745.56
853.806	10693.36
854.129	10688.84
854.451	10675.28
854.774	10594.61
855.096	10567.72
855.419	10540.82
855.741	10517.1
856.063	10486.81
856.385	10500.83
856.708	10456.53
857.03	10403.2
857.352	10406.14
857.674	10329.08
857.996	10278.23
858.318	10249.98
858.64	10233.04
858.961	10229.65
859.283	10135.86
859.605	10185.58
859.926	10179.25
860.248	10114.17
860.57	10064.9
860.891	10083.66
861.212	10009.77
861.534	10055.19
861.855	9975.19
862.176	9961.4
862.498	10000.05
862.819	9957.11
863.14	9957.34
863.461	9944
863.782	9833.05
864.103	9928.41
864.424	9814.74
864.745	9862.88
865.065	9795.31
865.386	9798.92
865.707	9750.11
866.027	9773.61
866.348	9737
866.668	9718.7
866.989	9650.23
867.309	9666.72
867.63	9696.55
867.95	9639.38
868.27	9555.09
868.59	9550.34
868.91	9625.59
869.23	9599.83
869.55	9544.69
869.87	9551.47
870.19	9518.48
870.51	9538.37
870.83	9523.22
871.15	9431.25
871.469	9553.73
871.789	9452.94
872.109	9427.86
872.428	9458.37
872.748	9393.06
873.067	9374.75
873.386	9372.95
873.706	9398.93
874.025	9367.97
874.344	9336.56
874.663	9330.91
874.982	9315.55
875.301	9301.99
875.62	9250.69
875.939	9253.4
876.258	9274.87
876.577	9200.07
876.896	9227.41
877.214	9147.87
877.533	9190.8
877.852	9145.38
878.17	9146.96
878.489	9104.48
878.807	9146.74
879.125	9100.18
879.444	9084.59
879.762	9047.3
880.08	8996.68
880.398	9029
880.716	9040.3
881.034	8957.59
881.352	8953.3
881.67	8965.05
881.988	8883.02
882.306	8907.2
882.624	8895.9
882.941	8810.47
883.259	8831.94
883.577	8790.81
883.894	8805.95
884.212	8775.9
884.529	8791.94
884.846	8813.19
885.164	8776.8
885.481	8731.61
885.798	8674.21
886.115	8644.15
886.432	8681.44
886.75	8611.38
887.067	8631.72
887.383	8546.3
887.7	8602.12
888.017	8512.63
888.334	8583.59
888.651	8518.05
888.967	8522.8
889.284	8478.96
889.6	8414.33
889.917	8393.31
890.233	8394.67
890.55	8377.49
890.866	8334.33
891.182	8314.44
891.498	8299.3
891.815	8269.7
892.131	8237.16
892.447	8259.08
892.763	8172.75
893.079	8154.22
893.395	8144.96
893.71	8177.95
894.026	8103.6
894.342	8088.01
894.657	8029.48
894.973	8001.46
895.289	8016.82
895.604	8019.31
895.92	7914.68
896.235	7892.98
896.55	7911.97
896.865	7876.26
897.181	7900.22
897.496	7859.09
897.811	7831.52
898.126	7784.06
898.441	7762.14
898.756	7731.41
899.071	7661.35
899.386	7620.68
899.7	7569.83
900.015	7562.6
900.33	7494.35
900.644	7540.9
900.959	7585.87
901.273	7429.49
901.588	7471.75
901.902	7444.41
902.216	7414.81
902.531	7382.26
902.845	7402.83
903.159	7331.87
903.473	7323.51
903.787	7290.74
904.101	7268.59
904.415	7244.64
904.729	7175.49
905.042	7131.2
905.356	7092.1
905.67	7102.95
905.984	7047.81
906.297	7029.5
906.611	7011.65
906.924	7019.79
907.237	6984.53
907.551	6968.94
907.864	6898.21
908.177	6894.14
908.491	6941.37
908.804	6893.01
909.117	6892.78
909.43	6833.35
909.743	6753.81
910.056	6796.97
910.368	6737.99
910.681	6693.69
910.994	6719.46
911.307	6638.78
911.619	6581.15
911.932	6655.73
912.244	6526.69
912.557	6539.8
912.869	6479.24
913.181	6481.95
913.494	6461.38
913.806	6418.9
914.118	6377.09
914.43	6380.26
914.742	6405.34
915.054	6322.18
915.366	6310.88
915.678	6237.89
915.99	6218.68
916.302	6176.65
916.613	6162.18
916.925	6164.89
917.236	6126.93
917.548	6085.8
917.859	6114.05
918.171	6004.67
918.482	6044.22
918.794	5999.93
919.105	6015.29
919.416	5940.49
919.727	5918.8
920.038	5960.61
920.349	5902.08
920.66	5871.79
920.971	5847.61
921.282	5831.12
921.593	5810.1
921.903	5766.03
922.214	5703.21
922.525	5657.56
922.835	5658.69
923.146	5625.7
923.456	5644
923.767	5601.29
924.077	5655.53
924.387	5580.05
924.697	5554.06
925.008	5520.17
925.318	5506.38
925.628	5520.17
925.938	5460.96
926.248	5408.08
926.558	5475.87
926.867	5380.73
927.177	5333.73
927.487	5338.7
927.796	5297.12
928.106	5300.74
928.416	5299.61
928.725	5288.76
929.034	5249.21
929.344	5236.33
929.653	5179.38
929.962	5161.3
930.271	5169.21
930.581	5122.66
930.89	5089.22
931.199	5112.49
931.508	5085.83
931.817	5074.08
932.125	5024.59
932.434	5017.81
932.743	4964.02
933.051	4951.59
933.36	4992.04
933.669	4902.33
933.977	4855.32
934.286	4882.89
934.594	4867.3
934.902	4796.34
935.21	4833.63
935.519	4811.03
935.827	4778.72
936.135	4744.37
936.443	4700.98
936.751	4715.22
937.059	4676.35
937.367	4666.4
937.674	4669.11
937.982	4626.18
938.29	4632.51
938.597	4659.62
938.905	4555.67
939.213	4570.13
939.52	4536.24
939.827	4546.63
940.135	4514.32
940.442	4472.51
940.749	4446.52
941.056	4437.26
941.363	4436.8
941.67	4427.76
941.977	4362.46
942.284	4361.78
942.591	4317.71
942.898	4288.56
943.205	4282.68
943.511	4267.32
943.818	4287.66
944.125	4240.2
944.431	4219.18
944.738	4227.32
945.044	4225.96
945.35	4175.79
945.657	4131.95
945.963	4121.11
946.269	4120.65
946.575	4138.73
946.881	4066.64
947.187	4084.05
947.493	4072.07
947.799	4037.27
948.105	4003.6
948.41	3971.28
948.716	4021
949.022	3974.67
949.327	4016.48
949.633	3919.76
949.938	3896.93
950.244	3926.99
950.549	3882.47
950.854	3878.4
951.16	3883.6
951.465	3825.75
951.77	3825.29
952.075	3843.6
952.38	3821.45
952.685	3802.92
952.99	3744.17
953.294	3755.47
953.599	3753.43
953.904	3701.68
954.209	3677.05
954.513	3706.2
954.818	3637.96
955.122	3628.46
955.426	3635.24
955.731	3645.64
956.035	3590.95
956.339	3604.51
956.643	3586.88
956.948	3594.11
957.252	3550.95
957.556	3555.7
957.86	3543.04
958.163	3479.54
958.467	3503.04
958.771	3440.67
959.075	3478.19
959.378	3448.81
959.682	3430.5
959.985	3417.4
960.289	3385.53
960.592	3352.76
960.896	3364.74
961.199	3356.15
961.502	3347.79
961.805	3334.46
962.108	3311.18
962.411	3314.8
962.714	3292.65
963.017	3272.32
963.32	3241.13
963.623	3230.28
963.926	3247.23
964.228	3206.33
964.531	3174.69
964.833	3217.63
965.136	3158.19
965.438	3151.41
965.741	3155.26
966.043	3118.19
966.345	3119.78
966.648	3106.67
966.95	3119.1
967.252	3103.73
967.554	3031.19
967.856	3029.61
968.158	3070.29
968.46	3027.8
968.761	3010.4
969.063	3010.18
969.365	2986.9
969.666	2983.06
969.968	2922.95
970.269	2966.33
970.571	2924.08
970.872	2922.04
971.174	2927.01
971.475	2894.7
971.776	2854.47
972.077	2889.73
972.378	2834.36
972.679	2859.9
972.98	2811.76
973.281	2827.36
973.582	2825.77
973.883	2768.6
974.183	2788.71
974.484	2764.31
974.785	2761.59
975.085	2774.02
975.386	2787.58
975.686	2750.75
975.986	2714.36
976.287	2711.2
976.587	2687.02
976.887	2663.29
977.187	2659.68
977.487	2675.72
977.787	2644.99
978.087	2632.78
978.387	2628.04
978.687	2598.66
978.987	2635.72
979.286	2573.12
979.586	2571.99
979.885	2528.61
980.185	2553.92
980.484	2543.97
980.784	2529.06
981.083	2546.91
981.382	2479.34
981.682	2506.01
981.981	2497.42
982.28	2469.17
982.579	2450.64
982.878	2467.82
983.177	2451.55
983.475	2452.45
983.774	2408.61
984.073	2413.13
984.372	2389.85
984.67	2372.68
984.969	2388.04
985.267	2384.43
985.566	2361.38
985.864	2327.03
986.162	2302.4
986.461	2313.24
986.759	2327.48
987.057	2310.98
987.355	2290.19
987.653	2304.88
987.951	2301.49
988.249	2286.13
988.547	2233.02
988.844	2235.73
989.142	2263.3
989.44	2222.17
989.737	2201.16
990.035	2199.35
990.332	2216.98
990.63	2155.06
990.927	2171.55
991.224	2170.2
991.521	2173.36
991.819	2162.29
992.116	2156.41
992.413	2149.18
992.71	2125.9
993.006	2124.55
993.303	2101.72
993.6	2130.65
993.897	2053.36
994.193	2088.17
994.49	2037.55
994.787	2049.75
995.083	2010.88
995.379	2024.21
995.676	2005.23
995.972	1986.02
996.268	2034.61
996.565	1992.12
996.861	1972.69
997.157	1985.57
997.453	1980.37
997.749	1955.51
998.044	1956.87
998.34	1947.38
998.636	1926.59
998.932	1929.3
999.227	1908.51
999.523	1901.28
999.818	1902.86
1000.114	1856.99
1000.409	1878.23
1000.704	1847.27
1001	1860.83
1001.295	1862.18
1001.59	1864.44
1001.885	1821.73
1002.18	1813.6
1002.475	1791.22
1002.77	1771.34
1003.065	1789.87
1003.359	1757.1
1003.654	1778.34
1003.949	1766.82
1004.243	1726.14
1004.538	1732.69
1004.832	1728.85
1005.127	1738.34
1005.421	1708.97
1005.715	1684.11
1006.009	1702.64
1006.304	1695.18
1006.598	1655.63
1006.892	1675.52
1007.186	1674.62
1007.48	1652.24
1007.773	1629.65
1008.067	1635.3
1008.361	1635.97
1008.655	1618.8
1008.948	1601.4
1009.242	1590.78
1009.535	1579.93
1009.829	1583.55
1010.122	1558.24
1010.415	1558.91
1010.708	1574.96
1011.001	1556.65
1011.295	1523.66
1011.588	1520.95
1011.881	1517.11
1012.173	1501.06
1012.466	1487.96
1012.759	1513.49
1013.052	1511.46
1013.344	1485.7
1013.637	1455.19
1013.93	1451.57
1014.222	1438.47
1014.514	1466.26
1014.807	1453.61
1015.099	1427.84
1015.391	1384.46
1015.683	1416.09
1015.976	1409.77
1016.268	1380.16
1016.56	1379.94
1016.851	1368.41
1017.143	1340.61
1017.435	1362.53
1017.727	1356.89
1018.018	1350.33
1018.31	1326.38
1018.602	1314.4
1018.893	1348.3
1019.185	1281.41
1019.476	1288.19
1019.767	1275.08
1020.058	1283.21
1020.35	1284.34
1020.641	1263.1
1020.932	1255.87
1021.223	1264.91
1021.514	1263.55
1021.804	1240.28
1022.095	1263.33
1022.386	1221.75
1022.677	1217
1022.967	1238.92
1023.258	1174.97
1023.548	1200.73
1023.839	1193.05
1024.129	1183.1
1024.419	1168.19
1024.709	1149.43
1025	1157.12
1025.29	1152.82
1025.58	1136.55
1025.87	1148.98
1026.16	1106.95
1026.449	1128.64
1026.739	1122.54
1027.029	1117.57
1027.319	1113.5
1027.608	1113.73
1027.898	1080.73
1028.187	1110.79
1028.477	1074.18
1028.766	1058.81
1029.055	1071.47
1029.344	1039.61
1029.634	1059.27
1029.923	1035.99
1030.212	1037.57
1030.501	1023.79
1030.79	1023.79
1031.078	1016.33
1031.367	1017.69
1031.656	1016.1
1031.945	1000.51
1032.233	1004.35
1032.522	991.02
1032.81	1005.03
1033.099	969.32
1033.387	976.1
1033.675	953.05
1033.963	961.64
1034.251	978.82
1034.54	944.24
1034.828	927.74
1035.116	927.74
1035.403	917.57
1035.691	926.39
1035.979	944.24
1036.267	909.67
1036.554	923.68
1036.842	882.1
1037.129	904.02
1037.417	885.94
1037.704	872.15
1037.992	886.39
1038.279	894.52
1038.566	883
1038.853	883
1039.14	883
