Data from hue_250_FLMS001491_00077.txt Node
Date: Tue Feb 07 16:01:27 GMT 2017
User: dcchb
Spectrometer: FLMS00149
Trigger mode: 0
Integration Time (sec): 2.000000E-2
Scans to average: 10
Electric dark correction enabled: true
Nonlinearity correction enabled: false
Boxcar width: 0
XAxis mode: Wavelengths
Number of Pixels in Spectrum: 2048
>>>>>Begin Spectral Data<<<<<
341.393	-21.04
341.776	-21.04
342.16	-21.04
342.543	-48.61
342.927	-67.6
343.31	-61.04
343.693	-58.56
344.077	-69.4
344.46	-47.26
344.843	-58.33
345.226	-46.81
345.61	-21.95
345.993	-32.57
346.376	2.91
346.759	22.12
347.142	7.66
347.525	44.94
347.908	59.18
348.291	62.12
348.674	98.5
349.057	98.5
349.44	108.44
349.823	120.87
350.206	170.14
350.588	193.64
350.971	198.61
351.354	213.53
351.737	203.36
352.119	234.77
352.502	255.56
352.884	275.67
353.267	272.05
353.65	279.06
354.032	289.46
354.414	296.69
354.797	303.92
355.179	305.5
355.562	303.01
355.944	325.61
356.326	315.22
356.709	337.14
357.091	315.9
357.473	320.64
357.855	313.18
358.238	325.84
358.62	354.31
359.002	314.54
359.384	328.78
359.766	319.29
360.148	335.78
360.53	340.53
360.912	321.09
361.294	315.22
361.676	319.51
362.057	326.06
362.439	322.22
362.821	338.95
363.203	312.51
363.584	321.77
363.966	332.39
364.348	314.77
364.729	317.7
365.111	310.02
365.493	310.02
365.874	283.58
366.256	301.21
366.637	293.98
367.019	277.48
367.4	296.24
367.781	312.73
368.163	306.4
368.544	316.57
368.925	317.03
369.306	317.48
369.688	320.87
370.069	309.57
370.45	311.6
370.831	312.28
371.212	308.44
371.593	305.27
371.974	303.92
372.355	295.11
372.736	290.81
373.117	292.62
373.498	302.34
373.879	297.37
374.26	301.43
374.641	281.55
375.021	291.04
375.402	301.43
375.783	303.01
376.163	298.72
376.544	326.97
376.925	308.89
377.305	342.11
377.686	326.29
378.066	328.55
378.447	305.5
378.827	313.41
379.208	330.58
379.588	332.17
379.968	335.56
380.349	342.11
380.729	324.93
381.109	344.14
381.489	323.81
381.87	347.31
382.25	334.43
382.63	337.14
383.01	318.38
383.39	312.96
383.77	342.79
384.15	350.7
384.53	338.72
384.91	343.92
385.29	356.8
385.67	336.46
386.049	312.28
386.429	353.41
386.809	319.29
387.189	350.25
387.568	362
387.948	342.34
388.328	339.62
388.707	348.89
389.087	347.76
389.466	352.73
389.846	357.93
390.225	375.1
390.605	367.87
390.984	362
391.363	372.62
391.743	375.56
392.122	380.98
392.501	398.61
392.881	386.63
393.26	361.09
393.639	347.53
394.018	382.56
394.397	381.66
394.776	373.3
395.155	383.46
395.534	385.27
395.913	398.83
396.292	373.52
396.671	376.01
397.05	390.7
397.429	379.85
397.808	402
398.186	374.43
398.565	384.14
398.944	404.93
399.323	391.6
399.701	413.97
400.08	414.65
400.458	399.28
400.837	412.16
401.215	415.33
401.594	411.49
401.972	406.51
402.351	419.17
402.729	424.82
403.107	433.63
403.486	441.32
403.864	426.85
404.242	425.27
404.62	431.82
404.999	437.47
405.377	445.38
405.755	440.41
406.133	427.53
406.511	468.43
406.889	469.56
407.267	456.91
407.645	457.59
408.023	454.88
408.401	465.95
408.779	484.7
409.156	478.38
409.534	496.68
409.912	475.21
410.29	499.85
410.667	495.78
411.045	510.24
411.422	536.23
411.8	544.36
412.178	550.01
412.555	539.17
412.933	551.6
413.31	564.48
413.687	570.8
414.065	567.87
414.442	595.89
414.819	573.29
415.197	582.56
415.574	598.6
415.951	597.24
416.328	599.28
416.705	630.69
417.082	631.14
417.46	626.17
417.837	622.55
418.214	617.58
418.591	620.07
418.967	641.99
419.344	639.05
419.721	657.58
420.098	653.97
420.475	695.32
420.852	695.09
421.228	692.16
421.605	703.46
421.982	732.83
422.358	699.39
422.735	728.99
423.111	729.9
423.488	755.66
423.864	755.43
424.241	757.69
424.617	768.99
424.994	778.48
425.37	797.46
425.746	790.46
426.123	799.72
426.499	824.58
426.875	832.04
427.251	834.53
427.627	865.03
428.003	864.81
428.379	865.94
428.756	872.72
429.132	881.98
429.507	908.87
429.883	903.22
430.259	890.34
430.635	928.99
431.011	908.42
431.387	944.58
431.763	959.95
432.138	991.58
432.514	989.78
432.89	993.84
433.265	1017.12
433.641	1050.11
434.016	1053.5
434.392	1049.21
434.767	1082.2
435.143	1091.69
435.518	1105.25
435.894	1110.45
436.269	1113.16
436.644	1165.59
437.02	1191.58
437.395	1181.64
437.77	1219.15
438.145	1191.35
438.52	1216.66
438.895	1261.41
439.271	1237
439.646	1296.43
440.021	1266.83
440.395	1305.47
440.77	1318.13
441.145	1342.54
441.52	1330.56
441.895	1361.74
442.27	1361.07
442.645	1330.78
443.019	1434.28
443.394	1392.93
443.769	1428.41
444.143	1405.13
444.518	1410.56
444.892	1434.51
445.267	1466.6
445.641	1476.09
446.016	1468.41
446.39	1477
446.764	1514.51
447.139	1534.39
447.513	1533.26
447.887	1542.53
448.262	1551.34
448.636	1541.17
449.01	1565.81
449.384	1567.39
449.758	1605.35
450.132	1600.38
450.506	1599.7
450.88	1616.65
451.254	1620.27
451.628	1630.66
452.002	1699.59
452.376	1689.87
452.75	1684.22
453.123	1716.99
453.497	1702.75
453.871	1744.33
454.244	1766.48
454.618	1795.4
454.992	1800.83
455.365	1802.64
455.739	1850.77
456.112	1865.91
456.486	1846.7
456.859	1887.38
457.232	1910.88
457.606	1922.18
457.979	1944.1
458.352	1985.91
458.725	1990.88
459.099	2006.47
459.472	2046.7
459.845	2061.84
460.218	2069.52
460.591	2065.23
460.964	2074.04
461.337	2140.93
461.71	2169.86
462.083	2205.79
462.456	2201.95
462.829	2168.73
463.201	2237.88
463.574	2230.65
463.947	2248.05
464.32	2328.27
464.692	2293.24
465.065	2335.5
465.438	2384.99
465.81	2408.27
466.183	2469.06
466.555	2475.16
466.928	2485.1
467.3	2494.14
467.672	2544.09
468.045	2580.47
468.417	2576.63
468.789	2621.6
469.161	2650.07
469.534	2654.14
469.906	2738.88
470.278	2748.83
470.65	2768.94
471.022	2825.66
471.394	2840.8
471.766	2874.47
472.138	2901.59
472.51	2968.71
472.882	3001.47
473.253	3009.61
473.625	3071.53
473.997	3129.38
474.369	3142.49
474.74	3168.7
475.112	3248.02
475.484	3260
475.855	3347.23
476.227	3358.3
476.598	3428.58
476.97	3414.12
477.341	3500.22
477.713	3551.06
478.084	3569.14
478.455	3632.87
478.827	3650.72
479.198	3784.05
479.569	3792.41
479.94	3914.9
480.311	3914.22
480.682	3997.38
481.053	4060.66
481.424	4111.73
481.795	4140.88
482.166	4152.86
482.537	4260.42
482.908	4327.77
483.279	4345.62
483.65	4450.7
484.021	4489.12
484.391	4546.97
484.762	4528.44
485.133	4601.21
485.503	4654.99
485.874	4736.34
486.244	4783.8
486.615	4874.42
486.985	4885.72
487.356	4954.87
487.726	5030.57
488.097	5097.69
488.467	5113.74
488.837	5190.8
489.207	5216.11
489.578	5306.27
489.948	5360.28
490.318	5389.43
490.688	5465.82
491.058	5540.17
491.428	5626.49
491.798	5616.32
492.168	5689.09
492.538	5748.07
492.908	5756.88
493.278	5849.08
493.648	5857.67
494.017	5942.64
494.387	5920.95
494.757	5967.72
495.126	6014.73
495.496	6058.57
495.866	6133.14
496.235	6166.36
496.605	6177.89
496.974	6208.62
497.344	6257.21
497.713	6301.95
498.082	6310.54
498.452	6381.27
498.821	6418.56
499.19	6394.15
499.559	6537.65
499.928	6525.68
500.298	6523.64
500.667	6555.51
501.036	6574.49
501.405	6581.27
501.774	6655.16
502.143	6687.93
502.512	6707.37
502.88	6752.79
503.249	6748.27
503.618	6766.35
503.987	6784.65
504.356	6833.69
504.724	6879.11
505.093	6875.5
505.462	6919.79
505.83	6863.97
506.199	6959.34
506.567	7052.44
506.936	6971.31
507.304	7054.93
507.672	7082.5
508.041	7081.14
508.409	7151.42
508.777	7196.62
509.145	7237.52
509.514	7197.52
509.882	7216.96
510.25	7245.2
510.618	7307.12
510.986	7245.2
511.354	7294.7
511.722	7401.81
512.09	7422.15
512.458	7399.33
512.826	7416.73
513.193	7480.68
513.561	7485.88
513.929	7473.67
514.297	7560
514.664	7540.11
515.032	7579.89
515.4	7622.37
515.767	7619.21
516.135	7667.34
516.502	7602.94
516.869	7713.67
517.237	7698.53
517.604	7635.25
517.972	7735.14
518.339	7761.8
518.706	7757.06
519.073	7836.15
519.44	7773.78
519.808	7864.17
520.175	7793.21
520.542	7894
520.909	7971.97
521.276	7874.11
521.643	7970.38
522.009	7946.2
522.376	7956.82
522.743	7992.3
523.11	8064.17
523.477	8108.46
523.843	8142.36
524.21	8104.17
524.577	8164.5
524.943	8151.4
525.31	8215.57
525.676	8244.73
526.043	8274.1
526.409	8245.4
526.776	8329.24
527.142	8255.12
527.508	8281.34
527.874	8382.8
528.241	8357.94
528.607	8334.44
528.973	8392.07
529.339	8410.37
529.705	8453.76
530.071	8492.18
530.437	8482.69
530.803	8521.78
531.169	8522.01
531.535	8465.29
531.901	8483.14
532.267	8505.51
532.632	8559.07
532.998	8531.95
533.364	8568.79
533.73	8567.88
534.095	8572.85
534.461	8539.63
534.826	8627.77
535.192	8628.22
535.557	8637.48
535.923	8560.65
536.288	8582.8
536.653	8656.92
537.019	8579.63
537.384	8575.34
537.749	8569.01
538.114	8627.09
538.479	8621.44
538.845	8605.85
539.21	8580.31
539.575	8524.95
539.94	8580.09
540.305	8638.84
540.67	8555.23
541.034	8594.77
541.399	8605.17
541.764	8550.26
542.129	8643.36
542.494	8552.06
542.858	8633.87
543.223	8550.26
543.587	8568.79
543.952	8571.05
544.316	8609.46
544.681	8580.31
545.045	8565.85
545.41	8579.63
545.774	8604.04
546.138	8544.61
546.503	8566.3
546.867	8507.32
547.231	8539.86
547.595	8600.88
547.959	8621.44
548.324	8528.11
548.688	8508
549.052	8566.07
549.416	8546.19
549.779	8563.59
550.143	8544.38
550.507	8566.53
550.871	8593.87
551.235	8577.6
551.599	8598.84
551.962	8542.35
552.326	8577.6
552.689	8609.91
553.053	8560.2
553.417	8598.39
553.78	8630.25
554.143	8571.72
554.507	8584.6
554.87	8575.34
555.234	8704.38
555.597	8590.93
555.96	8679.07
556.323	8632.29
556.686	8554.32
557.05	8668.67
557.413	8638.61
557.776	8679.29
558.139	8653.98
558.502	8671.61
558.865	8682
559.228	8757.71
559.59	8722
559.953	8746.18
560.316	8841.55
560.679	8816.92
561.041	8771.27
561.404	8847.42
561.767	8867.76
562.129	8854.43
562.492	8969.68
562.854	8931.26
563.217	8919.51
563.579	8857.82
563.941	8968.32
564.304	8959.28
564.666	9011.94
565.028	8960.41
565.39	9072.95
565.753	9110.69
566.115	9089.45
566.477	9128.09
566.839	9122.67
567.201	9114.76
567.563	9238.6
567.925	9233.85
568.287	9242.67
568.648	9234.76
569.01	9268.88
569.372	9335.09
569.734	9296
570.095	9320.18
570.457	9363.34
570.819	9374.19
571.18	9437.69
571.542	9402.66
571.903	9497.8
572.265	9483.79
572.626	9456.22
572.987	9479.5
573.349	9544.13
573.71	9578.02
574.071	9592.94
574.432	9581.41
574.794	9643.56
575.155	9609.44
575.516	9644.46
575.877	9670.45
576.238	9741.86
576.599	9741.18
576.96	9728.98
577.32	9718.59
577.681	9784.57
578.042	9819.83
578.403	9778.25
578.763	9862.99
579.124	9833.16
579.485	9931.24
579.845	9919.26
580.206	9867.06
580.566	9924.68
580.927	9919.71
581.287	9970.78
581.648	9999.71
582.008	10032.48
582.368	9944.12
582.728	10050.1
583.089	10063.89
583.449	10112.25
583.809	10067.05
584.169	10134.62
584.529	10073.15
584.889	10196.31
585.249	10113.15
585.609	10063.21
585.969	10120.61
586.329	10130.1
586.688	10206.71
587.048	10149.76
587.408	10180.95
587.768	10216.2
588.127	10209.65
588.487	10211.23
588.846	10295.97
589.206	10156.99
589.565	10182.53
589.925	10342.75
590.284	10248.52
590.643	10257.78
591.003	10277.67
591.362	10282.41
591.721	10282.64
592.08	10327.38
592.44	10380.72
592.799	10319.02
593.158	10396.53
593.517	10315.86
593.876	10355.86
594.235	10335.52
594.593	10331.45
594.952	10490.09
595.311	10395.63
595.67	10427.49
596.029	10401.51
596.387	10404.9
596.746	10491.9
597.104	10396.08
597.463	10429.08
597.822	10569.64
598.18	10467.49
598.538	10463.88
598.897	10455.97
599.255	10381.39
599.613	10639.47
599.972	10495.29
600.33	10541.16
600.688	10541.16
601.046	10549.98
601.404	10557.43
601.762	10592.69
602.12	10590.65
602.478	10539.81
602.836	10610.99
603.194	10459.58
603.552	10546.14
603.91	10514.72
604.268	10534.38
604.625	10500.03
604.983	10575.29
605.341	10519.47
605.698	10624.1
606.056	10712.68
606.413	10571.22
606.771	10607.6
607.128	10648.28
607.485	10540.71
607.843	10658
608.2	10653.7
608.557	10651.9
608.914	10635.85
609.272	10702.29
609.629	10787.71
609.986	10826.13
610.343	10758.33
610.7	10738.67
611.057	10764.21
611.414	10741.16
611.771	10791.78
612.127	10824.55
612.484	10820.25
612.841	10820.25
613.198	10805.79
613.554	10836.3
613.911	10934.6
614.267	10781.16
614.624	10844.43
614.98	10875.17
615.337	10948.38
615.693	10877.88
616.05	10817.54
616.406	10980.7
616.762	10922.85
617.118	10951.1
617.475	10891.89
617.831	10963.07
618.187	10984.77
618.543	10948.38
618.899	11058.89
619.255	10935.5
619.611	10970.98
619.967	10942.51
620.323	11001.94
620.678	10994.26
621.034	10914.04
621.39	10970.08
621.746	10947.25
622.101	11042.39
622.457	11010.08
622.812	11060.47
623.168	11110.87
623.523	11005.56
623.879	11071.77
624.234	10998.55
624.589	11002.17
624.945	10996.74
625.3	11026.57
625.655	11024.09
626.01	11080.81
626.365	10979.8
626.72	10940.02
627.075	11001.04
627.43	10983.41
627.785	10925.79
628.14	10942.28
628.495	10952.9
628.85	11010.08
629.205	10897.76
629.559	10974.82
629.914	10875.39
630.269	10970.98
630.623	10932.57
630.978	10883.75
631.332	10941.83
631.687	10974.37
632.041	10955.62
632.396	10929.85
632.75	10865
633.104	10915.16
633.459	10804.66
633.813	10726.24
634.167	10731.89
634.521	10791.78
634.875	10759.01
635.229	10840.14
635.583	10801.04
635.937	10747.03
636.291	10738.67
636.645	10692.57
636.999	10674.49
637.352	10760.82
637.706	10684.21
638.06	10694.61
638.413	10670.43
638.767	10624.33
639.121	10664.1
639.474	10506.81
639.828	10650.77
640.181	10575.51
640.534	10604.21
640.888	10599.02
641.241	10592.01
641.594	10608.73
641.947	10594.95
642.301	10521.73
642.654	10558.34
643.007	10570.09
643.36	10447.15
643.713	10466.14
644.066	10525.34
644.419	10461.84
644.771	10453.93
645.124	10350.21
645.477	10312.47
645.83	10161.06
646.182	10203.32
646.535	10174.17
646.888	10174.62
647.24	10019.82
647.593	10114.51
647.945	10096.2
648.298	10097.33
648.65	10049.88
649.002	10054.4
649.355	10113.83
649.707	10066.37
650.059	10193.15
650.411	10252.81
650.763	10250.78
651.115	10359.25
651.467	10284.67
651.819	10276.54
652.171	10259.14
652.523	10258.91
652.875	10221.62
653.227	10256.88
653.578	10308.63
653.93	10293.26
654.282	10240.83
654.633	10286.48
654.985	10252.58
655.337	10306.82
655.688	10291.68
656.039	10257.78
656.391	10172.13
656.742	10213.49
657.094	10288.06
657.445	10280.83
657.796	10266.14
658.147	10188.18
658.498	10170.78
658.849	10228.4
659.2	10181.4
659.551	10192.02
659.902	10276.31
660.253	10159.03
660.604	10198.57
660.955	10182.98
661.306	10229.99
661.656	10153.83
662.007	10228.86
662.358	10166.71
662.708	10244.45
663.059	10196.09
663.409	10159.7
663.76	10222.98
664.11	10164.45
664.461	10148.63
664.811	10207.84
665.161	10202.64
665.511	10218.46
665.862	10213.71
666.212	10238.8
666.562	10242.41
666.912	10217.33
667.262	10230.44
667.612	10223.66
667.962	10243.32
668.312	10186.37
668.662	10199.48
669.011	10248.06
669.361	10213.26
669.711	10205.35
670.06	10208.29
670.41	10184.56
670.76	10147.5
671.109	10179.59
671.459	10102.3
671.808	10173.49
672.157	10119.48
672.507	10018.24
672.856	10079.71
673.205	10079.25
673.554	10115.64
673.904	10055.07
674.253	10128.29
674.602	10100.27
674.951	9893.5
675.3	9870.45
675.649	10078.8
675.998	10062.53
676.346	10060.72
676.695	10070.22
677.044	9984.79
677.393	10002.65
677.741	9990.44
678.09	9993.83
678.438	9994.06
678.787	9991.12
679.135	9947.51
679.484	9932.82
679.832	9955.64
680.181	9831.8
680.529	9922.87
680.877	9899.15
681.225	9806.27
681.573	9864.12
681.922	9824.35
682.27	9782.54
682.618	9811.69
682.966	9771.01
683.314	9724.91
683.661	9711.58
684.009	9697.57
684.357	9717.91
684.705	9691.24
685.053	9668.87
685.4	9698.7
685.748	9656.44
686.095	9621.64
686.443	9536.44
686.79	9622.77
687.138	9574.41
687.485	9597.91
687.832	9526.73
688.18	9506.39
688.527	9501.87
688.874	9493.96
689.221	9484.69
689.568	9343.91
689.915	9461.87
690.262	9387.52
690.609	9353.62
690.956	9366.51
691.303	9292.38
691.65	9277.47
691.997	9217.36
692.344	9219.84
692.69	9194.76
693.037	9246.28
693.383	9042.67
693.73	9116.12
694.077	9051.26
694.423	9045.61
694.769	9037.93
695.116	8978.94
695.462	9007.64
695.808	8950.24
696.155	8945.27
696.501	8865.28
696.847	8860.08
697.193	8778.5
697.539	8793.64
697.885	8732.62
698.231	8787.99
698.577	8771.94
698.923	8726.07
699.269	8630.25
699.614	8606.98
699.96	8561.1
700.306	8534.66
700.651	8609.69
700.997	8519.75
701.342	8472.29
701.688	8447.21
702.033	8435
702.379	8486.75
702.724	8461.44
703.069	8416.7
703.415	8333.09
703.76	8363.59
704.105	8339.87
704.45	8252.41
704.795	8269.81
705.14	8175.58
705.485	8189.36
705.83	8136.03
706.175	8111.62
706.52	8115.01
706.865	8151.4
707.209	8143.71
707.554	8098.52
707.899	8057.16
708.243	8087.22
708.588	8017.84
708.932	7950.27
709.277	7966.77
709.621	7931.06
709.966	7889.26
710.31	7974
710.654	7813.55
710.998	7855.81
711.342	7833.89
711.687	7803.38
712.031	7762.93
712.375	7811.74
712.719	7753.44
713.063	7754.34
713.407	7750.95
713.75	7753.89
714.094	7724.06
714.438	7671.41
714.782	7689.04
715.125	7678.41
715.469	7667.11
715.812	7670.5
716.156	7636.38
716.499	7578.53
716.843	7545.54
717.186	7529.49
717.53	7558.42
717.873	7600.45
718.216	7568.36
718.559	7501.47
718.902	7507.8
719.246	7448.36
719.589	7495.82
719.932	7467.12
720.275	7434.8
720.617	7447.23
720.96	7410.85
721.303	7473.9
721.646	7408.36
721.989	7438.65
722.331	7388.25
722.674	7391.64
723.016	7414.01
723.359	7367.69
723.701	7405.65
724.044	7343.73
724.386	7297.86
724.729	7333.56
725.071	7363.39
725.413	7307.8
725.755	7266.9
726.097	7262.83
726.439	7284.53
726.782	7267.58
727.124	7273.9
727.465	7236.17
727.807	7248.37
728.149	7188.94
728.491	7189.39
728.833	7207.92
729.175	7186.45
729.516	7183.51
729.858	7155.94
730.199	7215.83
730.541	7233.68
730.882	7226
731.224	7183.74
731.565	7125.66
731.906	7122.95
732.248	7197.52
732.589	7106.23
732.93	7166.56
733.271	7138.77
733.612	7151.87
733.953	7173.57
734.294	7123.85
734.635	7129.73
734.976	7145.32
735.317	7188.48
735.658	7117.3
735.999	7167.69
736.339	7132.44
736.68	7169.5
737.021	7090.18
737.361	7105.55
737.702	7121.82
738.042	7162.95
738.383	7106.45
738.723	7160.24
739.063	7123.63
739.404	7154.81
739.744	7197.52
740.084	7138.99
740.424	7151.42
740.764	7109.62
741.104	7157.52
741.444	7099.9
741.784	7137.19
742.124	7161.59
742.464	7173.12
742.804	7140.8
743.143	7192.1
743.483	7235.04
743.823	7220.8
744.162	7166.79
744.502	7239.1
744.841	7182.61
745.181	7225.54
745.52	7252.89
745.86	7290.4
746.199	7270.97
746.538	7289.05
746.877	7382.15
747.216	7404.97
747.556	7419.21
747.895	7387.35
748.234	7412.21
748.573	7420.12
748.911	7529.49
749.25	7536.27
749.589	7551.19
749.928	7618.53
750.267	7692.2
750.605	7640
750.944	7778.52
751.283	7750.5
751.621	7871.18
751.96	7880.67
752.298	7919.76
752.636	7981.91
752.975	7990.72
753.313	8080.21
753.651	8183.26
753.989	8179.42
754.327	8257.16
754.666	8296.7
755.004	8399.07
755.342	8518.17
755.679	8581.67
756.017	8559.07
756.355	8693.08
756.693	8806.97
757.031	8894.88
757.368	8992.5
757.706	9036.34
758.044	9098.49
758.381	9220.75
758.719	9318.82
759.056	9381.42
759.394	9582.77
759.731	9523.34
760.068	9656.89
760.405	9785.93
760.743	9845.81
761.08	9992.03
761.417	10072.02
761.754	10149.31
762.091	10234.5
762.428	10304.11
762.765	10426.82
763.102	10525.8
763.438	10594.27
763.775	10635.4
764.112	10787.94
764.449	10922.85
764.785	11021.6
765.122	11036.52
765.458	11078.55
765.795	11215.27
766.131	11344.98
766.467	11375.27
766.804	11394.7
767.14	11499.78
767.476	11689.61
767.812	11690.96
768.148	11820.23
768.485	11856.84
768.821	11852.54
769.157	12026.77
769.492	12092.76
769.828	12117.17
770.164	12138.64
770.5	12219.76
770.836	12342.47
771.171	12352.64
771.507	12456.37
771.842	12411.62
772.178	12446.2
772.513	12499.3
772.849	12581.79
773.184	12551.05
773.519	12608.91
773.855	12645.51
774.19	12690.94
774.525	12669.92
774.86	12818.62
775.195	12818.17
775.53	12836.92
775.865	12790.37
776.2	12828.11
776.535	12800.77
776.87	12894.32
777.205	12831.27
777.539	12799.18
777.874	12904.27
778.209	12837.6
778.543	12862.91
778.878	12901.78
779.212	12969.35
779.547	12925.06
779.881	12950.37
780.215	12965.96
780.55	12986.52
780.884	12948.78
781.218	12929.12
781.552	12963.25
781.886	12882.12
782.22	12977.48
782.554	12867.43
782.888	12900.88
783.222	12781.56
783.556	12803.02
783.889	12840.99
784.223	12772.29
784.557	12769.58
784.89	12755.34
785.224	12748.34
785.557	12722.58
785.891	12649.36
786.224	12707.43
786.558	12706.98
786.891	12555.57
787.224	12596.25
787.557	12584.5
787.891	12626.76
788.224	12588.57
788.557	12595.8
788.89	12521.68
789.223	12537.5
789.556	12497.5
789.888	12485.75
790.221	12498.17
790.554	12443.94
790.887	12411.4
791.219	12391.51
791.552	12244.62
791.884	12344.28
792.217	12341.34
792.549	12283.26
792.882	12155.36
793.214	12164.17
793.546	12232.42
793.879	12166.88
794.211	12118.07
794.543	12133.66
794.875	12043.27
795.207	12082.37
795.539	12026.1
795.871	12067.68
796.203	12015.02
796.535	11882.37
796.867	11928.25
797.198	11881.69
797.53	11813.22
797.862	11790.85
798.193	11876.72
798.525	11789.27
798.856	11798.76
799.188	11683.28
799.519	11616.62
799.85	11607.8
800.182	11645.09
800.513	11535.71
800.844	11538.65
801.175	11599.67
801.506	11597.63
801.837	11557.63
802.168	11474.47
802.499	11379.79
802.83	11356.28
803.161	11358.54
803.491	11372.1
803.822	11331.88
804.153	11358.77
804.483	11267.25
804.814	11206.68
805.145	11237.42
805.475	11230.18
805.805	11100.47
806.136	11130.07
806.466	11140.24
806.796	11145.67
807.126	11060.47
807.457	11050.53
807.787	11036.29
808.117	11051.66
808.447	10966.01
808.777	11015.05
809.107	10937.31
809.436	10866.8
809.766	10991.55
810.096	10891.89
810.426	10864.77
810.755	10848.73
811.085	10805.34
811.414	10843.98
811.744	10780.93
812.073	10691.89
812.403	10725.11
812.732	10583.87
813.061	10652.12
813.39	10646.47
813.719	10583.87
814.049	10671.1
814.378	10590.65
814.707	10591.78
815.036	10595.63
815.365	10585.91
815.693	10418
816.022	10432.92
816.351	10416.65
816.68	10334.16
817.008	10409.42
817.337	10339.13
817.665	10326.93
817.994	10358.8
818.322	10309.31
818.651	10324.45
818.979	10268.85
819.307	10276.54
819.636	10284.67
819.964	10198.35
820.292	10200.16
820.62	10159.93
820.948	10242.19
821.276	10201.96
821.604	10199.93
821.932	10165.58
822.259	10151.8
822.587	10182.3
822.915	10109.99
823.243	10222.3
823.57	10160.16
823.898	10113.6
824.225	10114.73
824.553	10100.05
824.88	10174.85
825.207	10153.6
825.535	10174.39
825.862	10257.33
826.189	10135.52
826.516	10208.52
826.843	10193.38
827.17	10243.54
827.497	10206.03
827.824	10112.02
828.151	10158.12
828.478	10205.13
828.805	10247.84
829.131	10201.74
829.458	10141.85
829.785	10173.04
830.111	10178.91
830.438	10199.7
830.764	10152.7
831.09	10201.96
831.417	10096.66
831.743	10161.74
832.069	10227.05
832.395	10065.47
832.722	10175.07
833.048	10119.48
833.374	10217.33
833.7	10114.51
834.026	10057.11
834.351	10150.44
834.677	10060.27
835.003	10101.18
835.329	10074.96
835.654	10060.95
835.98	10015.98
836.306	10021.86
836.631	10038.8
836.956	9975.75
837.282	10045.36
837.607	9980.95
837.932	9932.14
838.258	9966.04
838.583	9888.75
838.908	9889.2
839.233	9879.03
839.558	9848.53
839.883	9886.27
840.208	9849.88
840.533	9811.01
840.858	9901.86
841.182	9846.72
841.507	9827.74
841.832	9760.39
842.156	9761.07
842.481	9752.26
842.805	9726.27
843.13	9669.32
843.454	9719.04
843.778	9634.75
844.103	9596.78
844.427	9614.41
844.751	9580.96
845.075	9543.68
845.399	9609.21
845.723	9477.46
846.047	9493.73
846.371	9370.57
846.695	9410.57
847.019	9426.16
847.343	9365.15
847.666	9226.62
847.99	9331.7
848.313	9286.28
848.637	9214.87
848.96	9110.01
849.284	9155.44
849.607	9016.01
849.931	9041.99
850.254	8985.72
850.577	8993.18
850.9	8915.44
851.223	8922.22
851.546	8854.88
851.869	8786.86
852.192	8814.66
852.515	8703.92
852.838	8715
853.161	8757.26
853.483	8686.97
853.806	8678.39
854.129	8649.69
854.451	8671.16
854.774	8541.44
855.096	8528.79
855.419	8563.81
855.741	8532.4
856.063	8479.3
856.385	8443.59
856.708	8447.89
857.03	8419.19
857.352	8427.77
857.674	8372.18
857.996	8281.11
858.318	8293.54
858.64	8230.49
858.961	8293.99
859.283	8240.89
859.605	8207.44
859.926	8239.98
860.248	8210.6
860.57	8146.2
860.891	8145.97
861.212	8133.77
861.534	8102.13
861.855	8089.48
862.176	8068.91
862.498	8058.97
862.819	8032.08
863.14	8040.89
863.461	7986.88
863.782	7937.16
864.103	7968.8
864.424	7943.49
864.745	8037.73
865.065	7948.69
865.386	7895.13
865.707	7888.58
866.027	7898.07
866.348	7923.83
866.668	7894.68
866.989	7874.11
867.309	7755.93
867.63	7854.68
867.95	7800.22
868.27	7704.4
868.59	7774.23
868.91	7764.97
869.23	7788.69
869.55	7695.14
869.87	7785.76
870.19	7774
870.51	7734.91
870.83	7792.08
871.15	7692.42
871.469	7733.78
871.789	7635.03
872.109	7711.41
872.428	7637.96
872.748	7610.85
873.067	7611.75
873.386	7602.48
873.706	7676.15
874.025	7581.47
874.344	7466.89
874.663	7596.61
874.982	7586.66
875.301	7552.54
875.62	7527.68
875.939	7515.48
876.258	7487.68
876.577	7439.1
876.896	7469.83
877.214	7451.08
877.533	7468.02
877.852	7420.57
878.17	7491.3
878.489	7401.81
878.807	7385.54
879.125	7411.08
879.444	7369.95
879.762	7350.29
880.08	7396.39
880.398	7320.91
880.716	7392.32
881.034	7302.15
881.352	7325.2
881.67	7231.65
881.988	7208.37
882.306	7257.18
882.624	7225.54
882.941	7180.35
883.259	7193.45
883.577	7193.68
883.894	7202.72
884.212	7177.41
884.529	7166.11
884.846	7137.64
885.164	7106
885.481	7074.14
885.798	7067.36
886.115	7054.7
886.432	7092.21
886.75	7031.43
887.067	7027.58
887.383	7007.25
887.7	6970.86
888.017	6956.17
888.334	7000.92
888.651	6921.37
888.967	6916.4
889.284	6887.02
889.6	6878.89
889.917	6810.87
890.233	6859.68
890.55	6785.78
890.866	6798.89
891.182	6805.22
891.498	6756.63
891.815	6776.52
892.131	6729.96
892.447	6694.94
892.763	6663.3
893.079	6627.59
893.395	6589.4
893.71	6645.67
894.026	6583.98
894.342	6586.24
894.657	6541.95
894.973	6540.59
895.289	6470.54
895.604	6497.88
895.92	6473.25
896.235	6498.11
896.55	6428.96
896.865	6429.18
897.181	6402.97
897.496	6382.4
897.811	6366.81
898.126	6352.35
898.441	6294.95
898.756	6283.65
899.071	6259.69
899.386	6200.94
899.7	6239.36
900.015	6238
900.33	6153.48
900.644	6132.47
900.959	6136.76
901.273	6167.27
901.588	6061.28
901.902	6033.94
902.216	6061.51
902.531	6074.84
902.845	6043.43
903.159	5985.58
903.473	5966.37
903.787	5932.02
904.101	5839.82
904.415	5901.51
904.729	5861.74
905.042	5823.32
905.356	5830.33
905.67	5817.45
905.984	5791.23
906.297	5796.66
906.611	5799.37
906.924	5741.06
907.237	5712.14
907.551	5677.56
907.864	5647.51
908.177	5611.58
908.491	5620.61
908.804	5597.56
909.117	5571.58
909.43	5572.48
909.743	5549.43
910.056	5541.75
910.368	5518.24
910.681	5455.65
910.994	5474.18
911.307	5450.22
911.619	5400.96
911.932	5376.1
912.244	5368.87
912.557	5356.44
912.869	5314.86
913.181	5286.61
913.494	5265.14
913.806	5287.29
914.118	5228.99
914.43	5195.32
914.742	5234.86
915.054	5166.84
915.366	5174.75
915.678	5134.3
915.99	5190.34
916.302	5052.04
916.613	5089.1
916.925	5064.47
917.236	5068.99
917.548	5026.73
917.859	5056.11
918.171	4979.73
918.482	4936.11
918.794	4938.82
919.105	4912.61
919.416	4894.31
919.727	4945.83
920.038	4859.28
920.349	4859.73
920.66	4843.91
920.971	4833.29
921.282	4822.44
921.593	4791.94
921.903	4737.02
922.214	4756
922.525	4691.37
922.835	4701.09
923.146	4652.05
923.456	4630.58
923.767	4594.65
924.077	4613.18
924.387	4604.82
924.697	4554.88
925.008	4594.65
925.318	4539.97
925.628	4556.69
925.938	4506.52
926.248	4460.42
926.558	4487.99
926.867	4481.89
927.177	4473.98
927.487	4411.61
927.796	4416.58
928.106	4364.6
928.416	4348.56
928.725	4370.7
929.034	4331.38
929.344	4342
929.653	4295.9
929.962	4296.13
930.271	4267.43
930.581	4233.98
930.89	4192.18
931.199	4176.36
931.508	4221.1
931.817	4189.01
932.125	4233.53
932.434	4161.44
932.743	4106.76
933.051	4145.17
933.36	4081.9
933.669	4032.41
933.977	4061.56
934.286	4008.23
934.594	4011.62
934.902	3988.79
935.21	4012.52
935.519	3928
935.827	3943.82
936.135	3947.89
936.443	3921.22
936.751	3884.84
937.059	3876.25
937.367	3877.16
937.674	3885.75
937.982	3842.58
938.29	3824.5
938.597	3838.74
938.905	3807.78
939.213	3772.75
939.52	3758.74
939.827	3758.52
940.135	3771.85
940.442	3719.65
940.749	3708.12
941.056	3694.11
941.363	3688.24
941.67	3668.35
941.977	3621.12
942.284	3600.1
942.591	3617.96
942.898	3632.19
943.205	3611.85
943.511	3583.61
943.818	3576.37
944.125	3551.52
944.431	3502.48
944.738	3492.76
945.044	3480.11
945.35	3450.95
945.657	3442.37
945.963	3440.33
946.269	3438.3
946.575	3504.74
946.881	3418.86
947.187	3394.23
947.493	3371.18
947.799	3387.68
948.105	3353.1
948.41	3363.27
948.716	3355.36
949.022	3323.5
949.327	3310.62
949.633	3326.89
949.938	3271.07
950.244	3269.26
950.549	3264.52
950.854	3269.94
951.16	3236.95
951.465	3186.55
951.77	3203.73
952.075	3191.98
952.38	3214.8
952.685	3181.13
952.99	3130.06
953.294	3111.98
953.599	3095.94
953.904	3080.57
954.209	3107.69
954.513	3074.47
954.818	3070.85
955.122	3039.89
955.426	3057.07
955.731	2995.15
956.035	3005.99
956.339	3029.72
956.643	3000.8
956.948	2964.87
957.252	2952.44
957.556	2974.36
957.86	2950.4
958.163	2968.03
958.467	2928.71
958.771	2895.71
959.075	2909.73
959.378	2884.19
959.682	2890.07
959.985	2859.11
960.289	2820.24
960.592	2855.49
960.896	2867.24
961.199	2835.15
961.502	2791.76
961.805	2819.11
962.108	2777.3
962.411	2768.26
962.714	2761.26
963.017	2751.99
963.32	2742.05
963.623	2724.19
963.926	2757.64
964.228	2718.54
964.531	2693.01
964.833	2705.44
965.136	2677.19
965.438	2652.33
965.741	2639.22
966.043	2646.68
966.345	2624.08
966.648	2614.37
966.95	2590.64
967.252	2585.21
967.554	2559.23
967.856	2591.32
968.158	2557.87
968.46	2563.97
968.761	2560.58
969.063	2533.46
969.365	2495.5
969.666	2512.22
969.968	2484.65
970.269	2464.31
970.571	2495.27
970.872	2483.75
971.174	2452.11
971.475	2493.01
971.776	2427.93
972.077	2432.22
972.378	2422.96
972.679	2408.04
972.98	2399.91
973.281	2356.29
973.582	2365.33
973.883	2355.39
974.183	2386.12
974.484	2337.54
974.785	2361.49
975.085	2359.68
975.386	2332.34
975.686	2315.62
975.986	2285.11
976.287	2300.7
976.587	2281.72
976.887	2253.25
977.187	2261.61
977.487	2224.32
977.787	2244.66
978.087	2240.59
978.387	2212.79
978.687	2205.79
978.987	2189.97
979.286	2214.83
979.586	2209.18
979.885	2178.45
980.185	2213.25
980.484	2166.69
980.784	2120.37
981.083	2146.36
981.382	2115.62
981.682	2140.03
981.981	2112.01
982.28	2100.71
982.579	2099.58
982.878	2084.21
983.177	2066.58
983.475	2088.05
983.774	2061.84
984.073	2068.39
984.372	2044.44
984.67	2066.36
984.969	2024.78
985.267	2035.85
985.566	2009.18
985.864	1999.47
986.162	2000.82
986.461	1980.03
986.759	1962.41
987.057	1954.95
987.355	1950.2
987.653	1930.99
987.951	1921.05
988.249	1922.63
988.547	1925.57
988.844	1937.77
989.142	1906.81
989.44	1865.69
989.737	1868.85
990.035	1903.65
990.332	1856.19
990.63	1866.82
990.927	1848.96
991.224	1857.78
991.521	1831.34
991.819	1816.65
992.116	1821.84
992.413	1813.48
992.71	1775.29
993.006	1806.03
993.303	1789.08
993.6	1778.91
993.897	1813.03
994.193	1773.94
994.49	1767.38
994.787	1752.92
995.083	1751.56
995.379	1738.46
995.676	1733.49
995.972	1719.25
996.268	1684
996.565	1703.66
996.861	1678.35
997.157	1688.06
997.453	1683.32
997.749	1712.47
998.044	1669.53
998.34	1679.48
998.636	1649.19
998.932	1641.96
999.227	1650.55
999.523	1590.66
999.818	1601.96
1000.114	1619.14
1000.409	1601.29
1000.704	1579.59
1001	1558.35
1001.295	1554.51
1001.59	1576.43
1001.885	1598.35
1002.18	1566.71
1002.475	1562.42
1002.77	1533.94
1003.065	1506.6
1003.359	1533.04
1003.654	1493.49
1003.949	1499.82
1004.243	1489.2
1004.538	1502.98
1004.832	1470.67
1005.127	1456.43
1005.421	1450.56
1005.715	1452.81
1006.009	1467.5
1006.304	1453.04
1006.598	1457.56
1006.892	1430.44
1007.186	1424.57
1007.48	1411.01
1007.773	1399.26
1008.067	1407.17
1008.361	1411.01
1008.655	1389.99
1008.948	1369.65
1009.242	1377.56
1009.535	1368.3
1009.829	1369.65
1010.122	1365.36
1010.415	1344.8
1010.708	1336.21
1011.001	1358.81
1011.295	1321.07
1011.588	1337.34
1011.881	1306.38
1012.173	1296.21
1012.466	1276.32
1012.759	1292.14
1013.052	1265.93
1013.344	1271.12
1013.637	1270.22
1013.93	1253.05
1014.222	1249.88
1014.514	1255.53
1014.807	1234.06
1015.099	1244.68
1015.391	1226.38
1015.683	1178.92
1015.976	1220.05
1016.268	1190.67
1016.56	1182.54
1016.851	1206.95
1017.143	1188.42
1017.435	1173.73
1017.727	1166.95
1018.018	1154.74
1018.31	1134.18
1018.602	1150.45
1018.893	1149.55
1019.185	1140.73
1019.476	1142.31
1019.767	1160.17
1020.058	1106.84
1020.35	1125.82
1020.641	1114.29
1020.932	1100.96
1021.223	1096.67
1021.514	1085.59
1021.804	1054.86
1022.095	1078.59
1022.386	1012.83
1022.677	1052.37
1022.967	1050.57
1023.258	1032.04
1023.548	1041.53
1023.839	1030
1024.129	1030.45
1024.419	1013.73
1024.709	1014.18
1025	986.61
1025.29	1016.89
1025.58	994.3
1025.87	996.78
1026.16	970.34
1026.449	999.95
1026.739	980.28
1027.029	977.12
1027.319	958.36
1027.608	961.75
1027.898	949.55
1028.187	952.49
1028.477	942.09
1028.766	932.15
1029.055	918.37
1029.344	931.25
1029.634	911.59
1029.923	928.08
1030.212	930.12
1030.501	909.33
1030.79	909.33
1031.078	890.57
1031.367	880.63
1031.656	875.2
1031.945	881.08
1032.233	876.33
1032.522	877.01
1032.81	878.14
1033.099	851.47
1033.387	856.67
1033.675	846.28
1033.963	850.34
1034.251	844.92
1034.54	819.16
1034.828	845.6
1035.116	819.84
1035.403	837.92
1035.691	825.94
1035.979	797.24
1036.267	808.09
1036.554	767.41
1036.842	784.36
1037.129	780.06
1037.417	784.58
1037.704	778.71
1037.992	798.14
1038.279	792.95
1038.566	760.18
1038.853	760.18
1039.14	760.18
