Data from hue_150_FLMS001491_00026.txt Node
Date: Tue Feb 07 16:53:49 GMT 2017
User: dcchb
Spectrometer: FLMS00149
Trigger mode: 0
Integration Time (sec): 2.000000E-2
Scans to average: 10
Electric dark correction enabled: true
Nonlinearity correction enabled: false
Boxcar width: 0
XAxis mode: Wavelengths
Number of Pixels in Spectrum: 2048
>>>>>Begin Spectral Data<<<<<
341.393	-19.15
341.776	-19.15
342.16	-19.15
342.543	-52.6
342.927	-57.8
343.31	-62.99
343.693	-70.68
344.077	-63.44
344.46	-59.15
344.843	-59.83
345.226	-61.86
345.61	-44.46
345.993	-20.96
346.376	14.07
346.759	25.82
347.142	14.07
347.525	50.9
347.908	41.41
348.291	84.57
348.674	106.72
349.057	105.82
349.44	129.09
349.823	158.47
350.206	170.9
350.588	202.31
350.971	231.69
351.354	237.56
351.737	243.21
352.119	257
352.502	265.36
352.884	270.78
353.267	291.35
353.65	306.04
354.032	306.94
354.414	326.15
354.797	311.69
355.179	325.02
355.562	337.67
355.944	335.87
356.326	320.05
356.709	334.28
357.091	327.73
357.473	351.69
357.855	364.79
358.238	358.92
358.62	352.82
359.002	351.91
359.384	341.06
359.766	344.91
360.148	339.03
360.53	341.52
360.912	329.54
361.294	331.12
361.676	343.78
362.057	335.19
362.439	326.15
362.821	331.12
363.203	331.35
363.584	343.32
363.966	328.18
364.348	313.27
364.729	326.6
365.111	312.82
365.493	318.92
365.874	332.03
366.256	317.79
366.637	313.95
367.019	332.7
367.4	334.51
367.781	332.7
368.163	306.49
368.544	320.05
368.925	318.92
369.306	319.82
369.688	323.21
370.069	318.01
370.45	321.4
370.831	318.01
371.212	332.48
371.593	327.73
371.974	322.53
372.355	305.59
372.736	312.59
373.117	335.19
373.498	316.21
373.879	307.39
374.26	312.59
374.641	316.66
375.021	334.28
375.402	332.25
375.783	327.96
376.163	327.28
376.544	351.01
376.925	348.3
377.305	330.9
377.686	347.62
378.066	337.9
378.447	341.52
378.827	327.73
379.208	321.86
379.588	328.86
379.968	327.05
380.349	341.97
380.729	346.71
381.109	328.18
381.489	341.97
381.87	363.44
382.25	331.8
382.63	329.31
383.01	348.3
383.39	353.04
383.77	360.27
384.15	350.1
384.53	367.05
384.91	349.43
385.29	359.6
385.67	358.24
386.049	362.08
386.429	366.37
386.809	353.49
387.189	376.77
387.568	358.01
387.948	360.95
388.328	356.66
388.707	349.88
389.087	368.41
389.466	390.55
389.846	378.13
390.225	391.68
390.605	375.87
390.984	366.83
391.363	380.61
391.743	376.32
392.122	385.58
392.501	388.97
392.881	393.94
393.26	386.71
393.639	378.13
394.018	404.57
394.397	393.94
394.776	373.61
395.155	380.16
395.534	379.71
395.913	402.31
396.292	403.66
396.671	393.72
397.05	411.12
397.429	396.43
397.808	419.71
398.186	388.29
398.565	398.69
398.944	431.23
399.323	412.48
399.701	389.65
400.08	389.88
400.458	400.95
400.837	390.1
401.215	428.75
401.594	419.03
401.972	432.36
402.351	423.55
402.729	422.87
403.107	410.67
403.486	428.29
403.864	434.4
404.242	434.4
404.62	449.99
404.999	434.17
405.377	442.98
405.755	451.8
406.133	452.47
406.511	461.51
406.889	458.58
407.267	449.31
407.645	451.57
408.023	488.41
408.401	473.72
408.779	486.82
409.156	467.61
409.534	493.38
409.912	478.91
410.29	485.47
410.667	466.03
411.045	472.36
411.422	465.81
411.8	485.02
412.178	489.54
412.555	482.76
412.933	526.37
413.31	500.38
413.687	500.16
414.065	506.48
414.442	516.2
414.819	526.37
415.197	513.72
415.574	522.3
415.951	532.25
416.328	547.61
416.705	543.55
417.082	538.12
417.46	545.8
417.837	553.26
418.214	547.84
418.591	561.85
418.967	568.63
419.344	540.61
419.721	593.49
420.098	565.69
420.475	586.03
420.852	556.43
421.228	597.55
421.605	589.65
421.982	578.12
422.358	580.61
422.735	601.85
423.111	596.88
423.488	597.33
423.864	632.81
424.241	614.96
424.617	604.56
424.994	628.06
425.37	635.75
425.746	628.06
426.123	656.76
426.499	633.71
426.875	647.27
427.251	661.96
427.627	667.38
428.003	651.56
428.379	666.25
428.756	676.65
429.132	671
429.507	692.47
429.883	695.86
430.259	701.28
430.635	698.34
431.011	693.15
431.387	715.52
431.763	714.84
432.138	714.16
432.514	727.49
432.89	742.86
433.265	778.79
433.641	757.32
434.016	779.92
434.392	759.81
434.767	777.44
435.143	794.16
435.518	793.26
435.894	807.27
436.269	798.23
436.644	812.24
437.02	843.88
437.395	808.4
437.77	821.96
438.145	856.08
438.52	859.47
438.895	854.95
439.271	860.37
439.646	882.29
440.021	883.2
440.395	871.9
440.77	863.76
441.145	886.59
441.52	918.22
441.895	902.86
442.27	902.41
442.645	908.73
443.019	909.86
443.394	904.89
443.769	915.96
444.143	940.82
444.518	941.27
444.892	945.79
445.267	953.03
445.641	962.29
446.016	934.72
446.39	993.25
446.764	965.68
447.139	978.34
447.513	983.08
447.887	998
448.262	988.96
448.636	1036.41
449.01	996.41
449.384	1034.15
449.758	1029.63
450.132	1047.71
450.506	1054.27
450.88	1064.21
451.254	1059.01
451.628	1093.36
452.002	1065.57
452.376	1099.69
452.75	1102.85
453.123	1105.79
453.497	1112.12
453.871	1126.35
454.244	1135.39
454.618	1182.62
454.992	1157.99
455.365	1170.65
455.739	1223.53
456.112	1226.24
456.486	1217.65
456.859	1220.14
457.232	1251.1
457.606	1248.61
457.979	1309.63
458.352	1329.74
458.725	1297.2
459.099	1322.06
459.472	1341.72
459.845	1386.69
460.218	1390.53
460.591	1376.07
460.964	1411.32
461.337	1412.22
461.71	1481.6
462.083	1461.94
462.456	1469.85
462.829	1491.77
463.201	1530.19
463.574	1523.86
463.947	1542.61
464.32	1546
464.692	1587.59
465.065	1624.87
465.438	1635.04
465.81	1655.15
466.183	1697.41
466.555	1699.67
466.928	1737.86
467.3	1742.84
467.672	1748.71
468.045	1811.76
468.417	1838.65
468.789	1850.18
469.161	1886.56
469.534	1906.22
469.906	1991.42
470.278	1991.64
470.65	1995.48
471.022	2055.14
471.394	2083.84
471.766	2127.46
472.138	2169.49
472.51	2188.7
472.882	2249.26
473.253	2283.61
473.625	2327
473.997	2395.93
474.369	2412.2
474.74	2429.6
475.112	2538.97
475.484	2567.22
475.855	2586.66
476.227	2671.17
476.598	2754.11
476.97	2822.58
477.341	2882.69
477.713	2948.23
478.084	2980.77
478.455	3113.19
478.827	3174.66
479.198	3265.28
479.569	3299.63
479.94	3427.99
480.311	3449.68
480.682	3566.29
481.053	3740.98
481.424	3806.51
481.795	3858.26
482.166	3958.82
482.537	4051.93
482.908	4185.03
483.279	4283.79
483.65	4373.5
484.021	4489.43
484.391	4615.53
484.762	4663.89
485.133	4811.91
485.503	4924.45
485.874	5050.77
486.244	5157.21
486.615	5248.96
486.985	5426.58
487.356	5482.4
487.726	5670.87
488.097	5796.51
488.467	5928.71
488.837	6069.73
489.207	6198.76
489.578	6346.56
489.948	6476.95
490.318	6556.95
490.688	6775.25
491.058	6822.7
491.428	6982.7
491.798	7139.3
492.168	7333.2
492.538	7428.79
492.908	7555.11
493.278	7765.28
493.648	7810.02
494.017	7943.12
494.387	8160.52
494.757	8212.95
495.126	8347.86
495.496	8416.11
495.866	8547.18
496.235	8651.13
496.605	8784.01
496.974	8868.52
497.344	9060.84
497.713	9183.54
498.082	9221.73
498.452	9406.36
498.821	9484.55
499.19	9583.31
499.559	9693.13
499.928	9777.88
500.298	9883.64
500.667	10012.22
501.036	10013.58
501.405	10158.21
501.774	10282.72
502.143	10334.7
502.512	10390.29
502.88	10595.03
503.249	10524.98
503.618	10741.47
503.987	10769.04
504.356	10793.67
504.724	10951.41
505.093	11000.67
505.462	11047
505.83	11178.29
506.199	11211.97
506.567	11382.36
506.936	11364.96
507.304	11465.29
507.672	11577.15
508.041	11679.98
508.409	11670.26
508.777	11763.59
509.145	11982.11
509.514	11906.18
509.882	11996.13
510.25	11988.89
510.618	12092.39
510.986	12130.58
511.354	12248.1
511.722	12321.77
512.09	12392.72
512.458	12423.68
512.826	12468.43
513.193	12538.94
513.561	12566.05
513.929	12595.21
514.297	12709.33
514.664	12728.54
515.032	12741.19
515.4	12828.19
515.767	12856.89
516.135	12893.5
516.502	12864.35
516.869	13032.93
517.237	13081.29
517.604	13076.1
517.972	13123.78
518.339	13204
518.706	13188.64
519.073	13237.22
519.44	13302.76
519.808	13364.68
520.175	13314.28
520.542	13396.77
520.909	13460.04
521.276	13447.39
521.643	13478.8
522.009	13507.05
522.376	13597.67
522.743	13554.95
523.11	13685.8
523.477	13754.5
523.843	13825.46
524.21	13919.46
524.577	13970.99
524.943	14015.51
525.31	13996.52
525.676	14017.32
526.043	14009.86
526.409	13947.26
526.776	14190.19
527.142	14175.73
527.508	14205.33
527.874	14164.2
528.241	14271.32
528.607	14175.28
528.973	14253.47
529.339	14223.41
529.705	14312.45
530.071	14320.81
530.437	14256.86
530.803	14429.06
531.169	14401.94
531.535	14344.76
531.901	14288.04
532.267	14327.14
532.632	14384.99
532.998	14249.63
533.364	14355.84
533.73	14313.8
534.095	14406.01
534.461	14335.72
534.826	14376.18
535.192	14298.66
535.557	14418.43
535.923	14359.9
536.288	14312
536.653	14344.99
537.019	14269.96
537.384	14259.34
537.749	14262.28
538.114	14193.81
538.479	14215.5
538.845	14294.14
539.21	14104.09
539.575	14207.59
539.94	14082.62
540.305	14090.08
540.67	14125.56
541.034	13993.13
541.399	14025.9
541.764	14012.34
542.129	13959.69
542.494	13903.87
542.858	13942.51
543.223	13902.06
543.587	13926.7
543.952	13948.84
544.316	13919.24
544.681	13821.16
545.045	13828.17
545.41	13898.9
545.774	13757.66
546.138	13677.89
546.503	13673.6
546.867	13682.41
547.231	13710.43
547.595	13646.25
547.959	13631.56
548.324	13571.45
548.688	13584.33
549.052	13515.41
549.416	13564.67
549.779	13543.66
550.143	13488.74
550.507	13508.18
550.871	13503.88
551.235	13447.39
551.599	13356.54
551.962	13417.33
552.326	13356.77
552.689	13378.24
553.053	13385.24
553.417	13352.7
553.78	13401.29
554.143	13265.7
554.507	13281.97
554.87	13277.45
555.234	13390.66
555.597	13222.76
555.96	13351.12
556.323	13314.51
556.686	13220.27
557.05	13297.11
557.413	13246.04
557.776	13232.02
558.139	13296.2
558.502	13336.88
558.865	13274.51
559.228	13227.28
559.59	13302.76
559.953	13262.08
560.316	13319.48
560.679	13271.35
561.041	13326.03
561.404	13345.92
561.767	13344.11
562.129	13299.14
562.492	13390.89
562.854	13311.12
563.217	13250.78
563.579	13320.16
563.941	13459.82
564.304	13436.09
564.666	13384.11
565.028	13399.48
565.39	13481.74
565.753	13444.9
566.115	13486.48
566.477	13518.57
566.839	13519.02
567.201	13532.36
567.563	13478.12
567.925	13674.27
568.287	13658.23
568.648	13635.86
569.01	13657.55
569.372	13729.86
569.734	13613.48
570.095	13695.06
570.457	13807.6
570.819	13792.01
571.18	13740.94
571.542	13769.64
571.903	13759.02
572.265	13795.63
572.626	13808.06
572.987	13837.43
573.349	13811.44
573.71	13789.52
574.071	13812.57
574.432	13835.17
574.794	13933.02
575.155	13898
575.516	13829.75
575.877	13923.76
576.238	13850.99
576.599	13948.84
576.96	13910.43
577.32	13932.35
577.681	14008.73
578.042	13928.05
578.403	13933.02
578.763	13922.63
579.124	13914.27
579.485	14018.44
579.845	14031.1
580.206	14073.13
580.566	14057.77
580.927	14086.92
581.287	14068.16
581.648	13958.33
582.008	14054.15
582.368	13998.78
582.728	14080.14
583.089	14032.46
583.449	14012.12
583.809	14102.74
584.169	14088.5
584.529	14009.18
584.889	14077.43
585.249	14089.86
585.609	13941.84
585.969	14039.69
586.329	13977.54
586.688	13973.93
587.048	13991.1
587.408	13829.98
587.768	13870.65
588.127	13866.36
588.487	13840.82
588.846	13952.68
589.206	13760.37
589.565	13876.53
589.925	13872.69
590.284	13916.53
590.643	13924.21
591.003	13890.54
591.362	13908.39
591.721	13897.32
592.08	13792.01
592.44	13929.63
592.799	13986.36
593.158	13881.5
593.517	13775.29
593.876	13888.5
594.235	13939.13
594.593	13838.11
594.952	13846.47
595.311	13785
595.67	13862.74
596.029	13859.35
596.387	13782.07
596.746	13874.04
597.104	13756.98
597.463	13736.42
597.822	13769.86
598.18	13740.26
598.538	13797.21
598.897	13816.19
599.255	13737.77
599.613	13894.83
599.972	13876.53
600.33	13856.64
600.688	13787.94
601.046	13842.63
601.404	13837.88
601.762	13878.56
602.12	13877.21
602.478	13912.23
602.836	13945.23
603.194	13801.05
603.552	13784.1
603.91	13748.4
604.268	13878.11
604.625	13742.29
604.983	13845.57
605.341	13801.5
605.698	13765.57
606.056	13879.69
606.413	13813.48
606.771	13883.53
607.128	13871.33
607.485	13815.96
607.843	13797.21
608.2	13934.38
608.557	13941.38
608.914	13883.31
609.272	13976.64
609.629	14040.82
609.986	13968.5
610.343	13909.3
610.7	14011.44
611.057	13916.53
611.414	13914.72
611.771	13933.25
612.127	13950.42
612.484	14004.21
612.841	13996.3
613.198	14010.54
613.554	14005.11
613.911	14123.98
614.267	14158.33
614.624	14034.26
614.98	14065.68
615.337	14171.89
615.693	14112.45
616.05	14110.87
616.406	14205.78
616.762	14149.74
617.118	14156.97
617.475	14086.69
617.831	14266.35
618.187	14172.11
618.543	14149.51
618.899	14257.08
619.255	14127.82
619.611	14227.25
619.967	14268.83
620.323	14287.36
620.678	14196.29
621.034	14303.64
621.39	14196.97
621.746	14161.04
622.101	14419.79
622.457	14143.87
622.812	14289.62
623.168	14302.73
623.523	14307.7
623.879	14306.8
624.234	14273.81
624.589	14218.89
624.945	14229.06
625.3	14283.97
625.655	14246.24
626.01	14239.68
626.365	14187.03
626.72	14322.39
627.075	14257.99
627.43	14191.1
627.785	14145.9
628.14	14190.64
628.495	14252.79
628.85	14178.44
629.205	14159.46
629.559	14184.32
629.914	14133.7
630.269	14123.07
630.623	14147.48
630.978	14142.28
631.332	14130.31
631.687	14170.76
632.041	14065.45
632.396	14139.8
632.75	13987.26
633.104	14076.52
633.459	14026.35
633.813	13931.89
634.167	13919.24
634.521	13992.91
634.875	13951.33
635.229	14033.36
635.583	13871.78
635.937	13925.34
636.291	13935.96
636.645	13877.88
636.999	13938.45
637.352	13896.64
637.706	13855.74
638.06	13855.51
638.413	13756.08
638.767	13798.34
639.121	13940.71
639.474	13690.09
639.828	13794.27
640.181	13843.53
640.534	13796.53
640.888	13730.32
641.241	13693.48
641.594	13642.64
641.947	13788.85
642.301	13673.14
642.654	13738.68
643.007	13700.04
643.36	13698.91
643.713	13577.1
644.066	13614.16
644.419	13568.51
644.771	13442.64
645.124	13364
645.477	13356.32
645.83	13282.42
646.182	13218.47
646.535	13123.1
646.888	13181.18
647.24	13127.62
647.593	13247.39
647.945	13194.51
648.298	13092.59
648.65	13034.74
649.002	13042.65
649.355	13111.12
649.707	13204.23
650.059	13198.58
650.411	13366.48
650.763	13391.34
651.115	13475.63
651.467	13413.49
651.819	13425.92
652.171	13531.45
652.523	13439.7
652.875	13392.25
653.227	13388.18
653.578	13458.23
653.93	13450.32
654.282	13356.32
654.633	13332.36
654.985	13472.92
655.337	13448.06
655.688	13325.81
656.039	13477.22
656.391	13323.55
656.742	13424.56
657.094	13379.82
657.445	13477.89
657.796	13394.73
658.147	13397.9
658.498	13377.11
658.849	13381.17
659.2	13340.5
659.551	13415.75
659.902	13465.01
660.253	13423.21
660.604	13402.19
660.955	13383.89
661.306	13432.25
661.656	13427.05
662.007	13390.44
662.358	13419.82
662.708	13398.8
663.059	13433.6
663.409	13397.22
663.76	13413.94
664.11	13350.21
664.461	13519.25
664.811	13462.3
665.161	13419.82
665.511	13401.06
665.862	13383.43
666.212	13413.26
666.562	13400.16
666.912	13364.9
667.262	13418.91
667.612	13465.01
667.962	13402.42
668.312	13406.94
668.662	13469.53
669.011	13463.88
669.361	13401.96
669.711	13377.78
670.06	13383.66
670.41	13336.65
670.76	13299.59
671.109	13357.67
671.459	13384.11
671.808	13293.27
672.157	13346.37
672.507	13246.04
672.856	13303.44
673.205	13357.45
673.554	13327.16
673.904	13280.61
674.253	13358.58
674.602	13239.26
674.951	13137.34
675.3	13022.09
675.649	13222.08
675.998	13218.24
676.346	13213.04
676.695	13204.91
677.044	13144.8
677.393	13137.56
677.741	13143.67
678.09	13140.5
678.438	12983.9
678.787	13050.56
679.135	13043.56
679.484	13016.89
679.832	13072.03
680.181	12980.05
680.529	13069.09
680.877	12978.25
681.225	12916.78
681.573	12994.52
681.922	12911.81
682.27	12904.12
682.618	12920.62
682.966	12905.03
683.314	12861.41
683.661	12818.02
684.009	12852.6
684.357	12765.6
684.705	12712.94
685.053	12739.83
685.4	12690.34
685.748	12662.32
686.095	12633.62
686.443	12627.75
686.79	12613.51
687.138	12543.68
687.485	12625.71
687.832	12553.85
688.18	12554.75
688.527	12403.8
688.874	12484.93
689.221	12347.08
689.568	12365.61
689.915	12370.13
690.262	12336
690.609	12287.42
690.956	12251.49
691.303	12197.02
691.65	12187.98
691.997	12161.32
692.344	12039.51
692.69	12139.85
693.037	12077.03
693.383	11863.93
693.73	12016.69
694.077	11914.77
694.423	11831.38
694.769	11820.08
695.116	11716.81
695.462	11736.47
695.808	11710.94
696.155	11703.93
696.501	11659.41
696.847	11557.27
697.193	11525.63
697.539	11580.09
697.885	11457.83
698.231	11419.64
698.577	11470.49
698.923	11353.88
699.269	11279.08
699.614	11265.3
699.96	11198.41
700.306	11208.35
700.651	11155.92
700.997	11142.36
701.342	11067.79
701.688	11013.33
702.033	11024.63
702.379	11064.4
702.724	10993.89
703.069	11008.35
703.415	10851.75
703.76	10786.21
704.105	10826.44
704.45	10786.44
704.795	10711.64
705.14	10660.57
705.485	10700.57
705.83	10653.79
706.175	10638.87
706.52	10628.25
706.865	10545.09
707.209	10589.38
707.554	10515.71
707.899	10548.03
708.243	10436.17
708.588	10417.18
708.932	10392.33
709.277	10382.16
709.621	10397.52
709.966	10276.85
710.31	10240.47
710.654	10217.41
710.998	10250.18
711.342	10168.38
711.687	10201.82
712.031	10070.75
712.375	10107.59
712.719	10152.78
713.063	10063.29
713.407	10172.22
713.75	10066.91
714.094	10054.26
714.438	10000.7
714.782	10106.01
715.125	9959.34
715.469	9993.92
715.812	9944.88
716.156	9878.44
716.499	9828.05
716.843	9896.29
717.186	9809.52
717.53	9864.66
717.873	9889.51
718.216	9789.63
718.559	9748.73
718.902	9736.3
719.246	9714.15
719.589	9740.59
719.932	9723.19
720.275	9675.28
720.617	9725.9
720.96	9656.98
721.303	9628.5
721.646	9612.23
721.989	9638.22
722.331	9660.82
722.674	9609.97
723.016	9573.82
723.359	9588.96
723.701	9596.87
724.044	9510.09
724.386	9488.17
724.729	9571.33
725.071	9546.7
725.413	9605.45
725.755	9576.53
726.097	9489.98
726.439	9428.28
726.782	9478
727.124	9540.37
727.465	9505.12
727.807	9465.8
728.149	9478.23
728.491	9422.63
728.833	9432.12
729.175	9486.36
729.516	9464.67
729.858	9403.2
730.199	9433.71
730.541	9328.62
730.882	9418.79
731.224	9369.98
731.565	9397.1
731.906	9382.18
732.248	9397.32
732.589	9340.6
732.93	9333.14
733.271	9322.3
733.612	9348.06
733.953	9389.87
734.294	9343.77
734.635	9388.74
734.976	9332.01
735.317	9266.48
735.658	9335.86
735.999	9286.59
736.339	9373.82
736.68	9397.1
737.021	9304.44
737.361	9329.75
737.702	9336.76
738.042	9316.2
738.383	9383.31
738.723	9357.78
739.063	9361.17
739.404	9359.58
739.744	9306.93
740.084	9382.63
740.424	9378.34
740.764	9372.24
741.104	9393.26
741.444	9363.43
741.784	9402.75
742.124	9415.63
742.464	9475.74
742.804	9394.39
743.143	9397.1
743.483	9428.06
743.823	9454.72
744.162	9499.47
744.502	9559.58
744.841	9526.13
745.181	9588.5
745.52	9561.16
745.86	9624.66
746.199	9670.31
746.538	9667.6
746.877	9718.67
747.216	9817.2
747.556	9837.54
747.895	9851.55
748.234	9908.5
748.573	9846.58
748.911	9967.03
749.25	10055.84
749.589	10126.8
749.928	10206.34
750.267	10230.3
750.605	10291.99
750.944	10299.9
751.283	10356.85
751.621	10526.33
751.96	10554.13
752.298	10644.97
752.636	10758.42
752.975	10707.12
753.313	10780.56
753.651	10987.56
753.989	10967.9
754.327	11134
754.666	11252.42
755.004	11303.49
755.342	11488.79
755.679	11618.96
756.017	11613.54
756.355	11794.1
756.693	11960.65
757.031	12057.82
757.368	12179.17
757.706	12231.37
758.044	12381.2
758.381	12641.76
758.719	12661.64
759.056	12856.22
759.394	13037.45
759.731	13148.64
760.068	13293.72
760.405	13389.99
760.743	13551.56
761.08	13683.54
761.417	13783.87
761.754	14030.65
762.091	14145
762.428	14318.78
762.765	14319
763.102	14624.53
763.438	14648.48
763.775	14879.21
764.112	14989.27
764.449	15203.05
764.785	15246.89
765.122	15492.3
765.458	15586.54
765.795	15692.75
766.131	15866.53
766.467	16000.31
766.804	16156.92
767.14	16211.61
767.476	16394.88
767.812	16439.62
768.148	16623.35
768.485	16651.37
768.821	16780.63
769.157	16927.3
769.492	17022.21
769.828	17141.75
770.164	17165.03
770.5	17350.33
770.836	17471.24
771.171	17473.5
771.507	17578.58
771.842	17614.28
772.178	17747.39
772.513	17838.46
772.849	17885.24
773.184	17950.32
773.519	18090.2
773.855	18096.76
774.19	18178.34
774.525	18161.39
774.86	18346.01
775.195	18339.46
775.53	18440.48
775.865	18344.88
776.2	18356.18
776.535	18439.35
776.87	18567.25
777.205	18446.8
777.539	18565.67
777.874	18654.26
778.209	18569.74
778.543	18562.28
778.878	18541.26
779.212	18752.56
779.547	18728.83
779.881	18738.32
780.215	18610.19
780.55	18874.36
780.884	18757.76
781.218	18816.51
781.552	18746.23
781.886	18680.7
782.22	18705.1
782.554	18688.38
782.888	18670.3
783.222	18669.85
783.556	18541.72
783.889	18637.76
784.223	18614.48
784.557	18493.58
784.89	18582.62
785.224	18498.1
785.557	18530.87
785.891	18525.22
786.224	18471.66
786.558	18476.86
786.891	18403.64
787.224	18334.72
787.557	18365.45
787.891	18399.8
788.224	18335.62
788.557	18371.1
788.89	18318.22
789.223	18367.03
789.556	18169.97
789.888	18230.31
790.221	18208.17
790.554	18110.54
790.887	18181.73
791.219	18089.75
791.552	18081.84
791.884	18051.56
792.217	18045.01
792.549	17901.96
792.882	17921.39
793.214	17841.62
793.546	17915.52
793.879	17765.92
794.211	17706.48
794.543	17797.78
794.875	17746.03
795.207	17791.68
795.539	17748.06
795.871	17700.38
796.203	17539.48
796.535	17437.34
796.867	17516.21
797.198	17478.02
797.53	17455.87
797.862	17320.28
798.193	17348.75
798.525	17267.63
798.856	17257
799.188	17154.63
799.519	17096.78
799.85	16983.34
800.182	17078.7
800.513	17029.44
800.844	16906.96
801.175	17019.04
801.506	16974.75
801.837	16885.49
802.168	16889.33
802.499	16745.38
802.83	16684.14
803.161	16681.43
803.491	16671.48
803.822	16762.1
804.153	16582.22
804.483	16534.99
804.814	16406.63
805.145	16469.23
805.475	16460.41
805.805	16439.4
806.136	16291.38
806.466	16460.64
806.796	16304.94
807.126	16216.58
807.457	16219.97
807.787	16160.31
808.117	16125.96
808.447	16073.08
808.777	16102.91
809.107	16086.41
809.436	16060.43
809.766	16036.7
810.096	15882.58
810.426	15906.3
810.755	15921.9
811.085	15917.83
811.414	15782.69
811.744	15747.21
812.073	15754.22
812.403	15716.93
812.732	15641.91
813.061	15574.34
813.39	15581.57
813.719	15506.54
814.049	15661.57
814.378	15557.61
814.707	15521.91
815.036	15488.69
815.365	15376.83
815.693	15247.79
816.022	15271.29
816.351	15265.64
816.68	15207.11
817.008	15292.76
817.337	15122.14
817.665	15071.98
817.994	15091.86
818.322	15189.04
818.651	15036.5
818.979	15045.54
819.307	15024.52
819.636	15044.63
819.964	14861.81
820.292	15034.01
820.62	15040.11
820.948	14917.63
821.276	15017.74
821.604	14900.68
821.932	14956.27
822.259	14976.84
822.587	14953.11
822.915	14950.17
823.243	14978.42
823.57	14870.85
823.898	14938.19
824.225	14773
824.553	14931.64
824.88	14950.4
825.207	14943.39
825.535	14903.85
825.862	14865.65
826.189	14802.38
826.516	14955.82
826.843	14999.66
827.17	14899.55
827.497	14954.47
827.824	14981.13
828.151	14991.3
828.478	15004.63
828.805	14961.92
829.131	14901.36
829.458	14972.32
829.785	14813.45
830.111	14853
830.438	14888.25
830.764	14946.33
831.09	14898.2
831.417	14849.84
831.743	15001.7
832.069	15004.18
832.395	14823.4
832.722	14878.76
833.048	14899.55
833.374	14811.64
833.7	14808.93
834.026	14768.03
834.351	14873.56
834.677	14830.18
835.003	14800.35
835.329	14749.27
835.654	14761.93
835.98	14700.23
836.306	14714.02
836.631	14715.6
836.956	14750.86
837.282	14756.5
837.607	14714.47
837.932	14638.09
838.258	14650.29
838.583	14671.08
838.908	14592.67
839.233	14565.55
839.558	14533.91
839.883	14570.75
840.208	14411.43
840.533	14451.88
840.858	14464.31
841.182	14451.43
841.507	14497.08
841.832	14293.24
842.156	14330.53
842.481	14295.95
842.805	14210.53
843.13	14227.03
843.454	14275.61
843.778	14131.66
844.103	14149.97
844.427	14031.55
844.751	14090.53
845.075	14079.23
845.399	13950.2
845.723	13920.37
846.047	13953.59
846.371	13839.24
846.695	13780.49
847.019	13700.94
847.343	13631.56
847.666	13622.3
847.99	13517.44
848.313	13479.93
848.637	13460.27
848.96	13433.38
849.284	13436.54
849.607	13312.93
849.931	13280.84
850.254	13149.77
850.577	13102.76
850.9	12943.44
851.223	13037.91
851.546	12929.21
851.869	12836.1
852.192	12910
852.515	12824.8
852.838	12723.79
853.161	12715.88
853.483	12615.32
853.806	12652.83
854.129	12634.98
854.451	12565.6
854.774	12475.43
855.096	12481.31
855.419	12453.97
855.741	12418.71
856.063	12297.81
856.385	12298.26
856.708	12271.15
857.03	12183.24
857.352	12200.87
857.674	12168.55
857.996	12130.81
858.318	12046.29
858.64	12103.92
858.961	12039.51
859.283	11959.74
859.605	11994.09
859.926	12034.09
860.248	11879.97
860.57	11804.04
860.891	11912.29
861.212	11807.88
861.534	11785.28
861.855	11752.06
862.176	11789.35
862.498	11662.35
862.819	11731.27
863.14	11631.62
863.461	11610.6
863.782	11569.92
864.103	11660.77
864.424	11549.13
864.745	11529.92
865.065	11503.71
865.386	11434.56
865.707	11522.69
866.027	11494.22
866.348	11407.67
866.668	11421
866.989	11400.21
867.309	11267.56
867.63	11404.95
867.95	11366.09
868.27	11277.95
868.59	11322.7
868.91	11332.19
869.23	11317.5
869.55	11216.71
869.87	11228.91
870.19	11243.38
870.51	11219.65
870.83	11199.08
871.15	11141.46
871.469	11178.29
871.789	11150.05
872.109	11115.7
872.428	11098.07
872.748	11128.13
873.067	11105.08
873.386	11115.7
873.706	11095.13
874.025	10913.44
874.344	10973.1
874.663	10990.5
874.982	11014
875.301	10949.6
875.62	10936.04
875.939	10916.61
876.258	10904.63
876.577	10878.41
876.896	10782.6
877.214	10806.78
877.533	10790.28
877.852	10782.82
878.17	10799.32
878.489	10762.71
878.807	10836.83
879.125	10722.71
879.444	10762.71
879.762	10639.32
880.08	10717.97
880.398	10658.53
880.716	10733.56
881.034	10591.64
881.352	10583.73
881.67	10548.93
881.988	10588.25
882.306	10531.53
882.624	10558.87
882.941	10429.61
883.259	10434.13
883.577	10404.75
883.894	10386.22
884.212	10402.04
884.529	10389.16
884.846	10344.64
885.164	10330.63
885.481	10321.37
885.798	10292.67
886.115	10265.55
886.432	10180.35
886.75	10184.42
887.067	10256.96
887.383	10115.95
887.7	10219.9
888.017	10132.22
888.334	10068.04
888.651	10109.17
888.967	10019.68
889.284	9919.34
889.6	9990.53
889.917	9878.44
890.233	9875.96
890.55	9854.03
890.866	9866.24
891.182	9800.25
891.498	9755.28
891.815	9766.35
892.131	9699.91
892.447	9711.67
892.763	9686.36
893.079	9656.98
893.395	9617.2
893.71	9564.55
894.026	9553.93
894.342	9488.62
894.657	9440.71
894.973	9447.72
895.289	9461.28
895.604	9434.61
895.92	9414.72
896.235	9327.49
896.55	9330.88
896.865	9292.92
897.181	9220.38
897.496	9284.11
897.811	9270.55
898.126	9127.95
898.441	9175.86
898.756	9145.8
899.071	9148.97
899.386	9042.98
899.7	9001.63
900.015	8891.8
900.33	8908.97
900.644	8841.86
900.959	8864.23
901.273	8779.94
901.588	8811.8
901.902	8738.13
902.216	8769.09
902.531	8702.65
902.845	8663.11
903.159	8678.02
903.473	8570.23
903.787	8550.34
904.101	8507.63
904.415	8543.11
904.729	8492.04
905.042	8450
905.356	8321.65
905.67	8363
905.984	8395.77
906.297	8318.71
906.611	8230.57
906.924	8302.44
907.237	8250.24
907.551	8215.43
907.864	8163.23
908.177	8124.14
908.491	8102.89
908.804	8013.63
909.117	8009.56
909.43	7998.49
909.743	7901.09
910.056	7944.71
910.368	7885.27
910.681	7843.01
910.994	7848.66
911.307	7807.08
911.619	7743.36
911.932	7751.27
912.244	7664.26
912.557	7706.97
912.869	7586.07
913.181	7590.82
913.494	7565.73
913.806	7531.16
914.118	7496.81
914.43	7433.99
914.742	7455.45
915.054	7386.75
915.366	7403.93
915.678	7359.64
915.99	7350.82
916.302	7274.22
916.613	7251.17
916.925	7246.87
917.236	7199.87
917.548	7176.82
917.859	7173.65
918.171	7122.81
918.482	7069.25
918.794	7072.41
919.105	7053.66
919.416	7022.7
919.727	7049.81
920.038	6970.27
920.349	6911.06
920.66	6874.45
920.971	6896.37
921.282	6876.71
921.593	6793.55
921.903	6758.75
922.214	6721.24
922.525	6702.03
922.835	6717.17
923.146	6654.12
923.456	6713.33
923.767	6627
924.077	6572.09
924.387	6565.31
924.697	6526.21
925.008	6451.41
925.318	6443.5
925.628	6461.13
925.938	6434.46
926.248	6406.89
926.558	6376.16
926.867	6356.05
927.177	6336.84
927.487	6281.25
927.796	6255.26
928.106	6247.35
928.416	6201.25
928.725	6169.84
929.034	6129.84
929.344	6189.72
929.653	6092.33
929.962	6027.47
930.271	6079.22
930.581	6010.75
930.89	6036.06
931.199	5968.26
931.508	5974.36
931.817	5913.8
932.125	5936.17
932.434	5958.54
932.743	5828.6
933.051	5783.18
933.36	5822.5
933.669	5775.72
933.977	5753.8
934.286	5742.05
934.594	5719.91
934.902	5680.59
935.21	5655.73
935.519	5658.44
935.827	5660.25
936.135	5535.28
936.443	5597.2
936.751	5533.92
937.059	5556.52
937.367	5478.78
937.674	5497.99
937.982	5440.82
938.29	5445.79
938.597	5476.07
938.905	5377.77
939.213	5316.3
939.52	5355.4
939.827	5353.59
940.135	5265.23
940.442	5314.04
940.749	5292.8
941.056	5259.35
941.363	5182.29
941.67	5222.74
941.977	5142.75
942.284	5135.06
942.591	5083.09
942.898	5099.13
943.205	5074.73
943.511	5052.58
943.818	5023.43
944.125	4988.17
944.431	4983.43
944.738	4991.79
945.044	4913.15
945.35	4886.71
945.657	4876.31
945.963	4879.02
946.269	4839.93
946.575	4787.28
946.881	4813.26
947.187	4794.05
947.493	4762.42
947.799	4813.26
948.105	4722.64
948.41	4715.19
948.716	4756.77
949.022	4766.48
949.327	4670.89
949.633	4616.43
949.938	4673.83
950.244	4598.81
950.549	4552.25
950.854	4553.16
951.16	4534.85
951.465	4516.32
951.77	4507.73
952.075	4503.67
952.38	4482.65
952.685	4440.62
952.99	4442.43
953.294	4377.57
953.599	4375.99
953.904	4394.07
954.209	4325.59
954.513	4321.52
954.818	4306.16
955.122	4279.72
955.426	4293.95
955.731	4224.8
956.035	4255.54
956.339	4221.87
956.643	4188.65
956.948	4186.16
957.252	4174.18
957.556	4143.45
957.86	4121.08
958.163	4137.35
958.467	4118.82
958.771	4072.04
959.075	4092.6
959.378	4027.97
959.682	4026.17
959.985	3990.01
960.289	4006.96
960.592	3985.71
960.896	3935.09
961.199	3911.37
961.502	3939.84
961.805	3928.54
962.108	3874.08
962.411	3881.76
962.714	3849.45
963.017	3844.02
963.32	3860.07
963.623	3814.65
963.926	3829.11
964.228	3769.67
964.531	3759.28
964.833	3716.12
965.136	3720.18
965.438	3742.78
965.741	3694.2
966.043	3699.62
966.345	3648.32
966.648	3674.31
966.95	3659.62
967.252	3629.34
967.554	3596.8
967.856	3643.35
968.158	3536.23
968.46	3565.16
968.761	3530.81
969.063	3547.53
969.365	3525.16
969.666	3545.73
969.968	3466.86
970.269	3432.96
970.571	3455.56
970.872	3444.71
971.174	3402.9
971.475	3413.53
971.776	3396.58
972.077	3379.85
972.378	3344.6
972.679	3360.87
972.98	3362.45
973.281	3328.1
973.582	3335.11
973.883	3312.29
974.183	3273.19
974.484	3239.97
974.785	3253.98
975.085	3255.79
975.386	3267.99
975.686	3202.46
975.986	3213.53
976.287	3185.28
976.587	3155.23
976.887	3148.67
977.187	3146.19
977.487	3121.56
977.787	3111.84
978.087	3092.63
978.387	3098.73
978.687	3058.73
978.987	3054.89
979.286	3046.08
979.586	3070.71
979.885	3000.66
980.185	3021.22
980.484	3007.66
980.784	2969.47
981.083	3000.66
981.382	2919.98
981.682	2922.01
981.981	2930.37
982.28	2898.29
982.579	2871.85
982.878	2862.58
983.177	2873.2
983.475	2823.03
983.774	2834.78
984.073	2798.18
984.372	2797.27
984.67	2792.75
984.969	2790.49
985.267	2794.56
985.566	2780.1
985.864	2713.21
986.162	2710.95
986.461	2712.98
986.759	2732.87
987.057	2663.04
987.355	2676.37
987.653	2686.54
987.951	2663.72
988.249	2659.2
988.547	2675.24
988.844	2605.86
989.142	2636.6
989.44	2613.55
989.737	2594.79
990.035	2587.33
990.332	2592.53
990.63	2541.23
990.927	2538.97
991.224	2550.72
991.521	2537.62
991.819	2526.77
992.116	2475.25
992.413	2490.16
992.71	2477.05
993.006	2453.78
993.303	2454.68
993.6	2464.85
993.897	2451.29
994.193	2410.39
994.49	2399.54
994.787	2424.63
995.083	2397.96
995.379	2364.51
995.676	2374.91
995.972	2381.46
996.268	2317.74
996.565	2317.51
996.861	2308.7
997.157	2312.31
997.453	2326.55
997.749	2304.63
998.044	2306.21
998.34	2253.33
998.636	2247.91
998.932	2237.06
999.227	2243.84
999.523	2205.2
999.818	2216.04
1000.114	2173.33
1000.409	2179.89
1000.704	2158.87
1001	2151.41
1001.295	2162.03
1001.59	2095.82
1001.885	2143.28
1002.18	2105.09
1002.475	2108.02
1002.77	2132.43
1003.065	2049.95
1003.359	2051.75
1003.654	2025.54
1003.949	2009.72
1004.243	2008.82
1004.538	1995.48
1004.832	2030.96
1005.127	1991.87
1005.421	1999.78
1005.715	1979.89
1006.009	1967.46
1006.304	1960.68
1006.598	1903.96
1006.892	1909.38
1007.186	1891.98
1007.48	1918.65
1007.773	1921.81
1008.067	1885.66
1008.361	1864.64
1008.655	1875.49
1008.948	1849.73
1009.242	1853.79
1009.535	1847.01
1009.829	1817.41
1010.122	1811.53
1010.415	1799.11
1010.708	1793.23
1011.001	1785.32
1011.295	1770.63
1011.588	1775.83
1011.881	1688.15
1012.173	1735.38
1012.466	1748.94
1012.759	1709.39
1013.052	1729.05
1013.344	1701.71
1013.637	1717.3
1013.93	1698.54
1014.222	1684.53
1014.514	1672.1
1014.807	1623.97
1015.099	1622.16
1015.391	1647.02
1015.683	1626.91
1015.976	1635.95
1016.268	1598.21
1016.56	1567.92
1016.851	1604.76
1017.143	1590.52
1017.435	1571.77
1017.727	1578.09
1018.018	1531.32
1018.31	1544.65
1018.602	1503.97
1018.893	1523.18
1019.185	1530.19
1019.476	1482.73
1019.767	1505.1
1020.058	1492.9
1020.35	1467.14
1020.641	1450.64
1020.932	1423.97
1021.223	1434.37
1021.514	1393.24
1021.804	1412.45
1022.095	1442.73
1022.386	1397.53
1022.677	1404.99
1022.967	1398.44
1023.258	1374.71
1023.548	1329.06
1023.839	1379.46
1024.129	1325.9
1024.419	1318.67
1024.709	1322.28
1025	1354.37
1025.29	1309.63
1025.58	1306.91
1025.87	1316.86
1026.16	1269.4
1026.449	1288.16
1026.739	1287.71
1027.029	1268.27
1027.319	1231.66
1027.608	1236.63
1027.898	1231.89
1028.187	1218.56
1028.477	1233.47
1028.766	1207.71
1029.055	1202.74
1029.344	1192.57
1029.634	1219.01
1029.923	1181.27
1030.212	1165.45
1030.501	1185.79
1030.79	1150.99
1031.078	1162.96
1031.367	1171.33
1031.656	1156.41
1031.945	1137.43
1032.233	1121.16
1032.522	1122.51
1032.81	1122.74
1033.099	1110.54
1033.387	1092.91
1033.675	1082.74
1033.963	1073.7
1034.251	1060.82
1034.54	1058.33
1034.828	1051.1
1035.116	1047.71
1035.403	1064.66
1035.691	1031.89
1035.979	1043.87
1036.267	1026.92
1036.554	1024.89
1036.842	1014.27
1037.129	1006.81
1037.417	992.57
1037.704	1005
1037.992	974.72
1038.279	986.25
1038.566	990.99
1038.853	990.99
1039.14	990.99
