Data from hue_260_FLMS001491_00051.txt Node
Date: Tue Feb 07 15:59:11 GMT 2017
User: dcchb
Spectrometer: FLMS00149
Trigger mode: 0
Integration Time (sec): 2.000000E-2
Scans to average: 10
Electric dark correction enabled: true
Nonlinearity correction enabled: false
Boxcar width: 0
XAxis mode: Wavelengths
Number of Pixels in Spectrum: 2048
>>>>>Begin Spectral Data<<<<<
341.393	-12.63
341.776	-12.63
342.16	-12.63
342.543	-40.2
342.927	-64.38
343.31	-47.43
343.693	-54.43
344.077	-56.02
344.46	-53.98
344.843	-58.73
345.226	-58.5
345.61	-40.65
345.993	-11.27
346.376	-26.19
346.759	19.91
347.142	18.33
347.525	54.94
347.908	52.91
348.291	57.2
348.674	94.49
349.057	109.4
349.44	131.78
349.823	146.24
350.206	151.21
350.588	191.21
350.971	208.61
351.354	246.35
351.737	217.2
352.119	268.04
352.502	267.59
352.884	264.43
353.267	266.69
353.65	288.38
354.032	294.26
354.414	314.37
354.797	321.38
355.179	296.74
355.562	313.24
355.944	311.88
356.326	331.54
356.709	334.71
357.091	313.69
357.473	318.44
357.855	349.17
358.238	334.48
358.62	306.01
359.002	332.22
359.384	320.25
359.766	328.16
360.148	322.73
360.53	333.13
360.912	347.82
361.294	321.83
361.676	333.8
362.057	326.12
362.439	335.16
362.821	344.88
363.203	323.41
363.584	325.9
363.966	327.25
364.348	312.11
364.729	313.92
365.111	299.23
365.493	329.74
365.874	322.51
366.256	331.54
366.637	323.41
367.019	320.92
367.4	297.42
367.781	309.62
368.163	316.63
368.544	305.33
368.925	306.46
369.306	321.38
369.688	301.26
370.069	290.64
370.45	319.79
370.831	312.79
371.212	303.75
371.593	316.63
371.974	308.72
372.355	293.13
372.736	293.13
373.117	324.99
373.498	314.37
373.879	309.85
374.26	307.59
374.641	311.43
375.021	313.01
375.402	331.32
375.783	311.88
376.163	318.21
376.544	315.5
376.925	315.05
377.305	322.96
377.686	339.45
378.066	323.86
378.447	320.25
378.827	323.64
379.208	336.29
379.588	337.42
379.968	316.18
380.349	321.15
380.729	331.77
381.109	330.64
381.489	327.93
381.87	332.45
382.25	328.83
382.63	339
383.01	335.84
383.39	355.95
383.77	367.02
384.15	340.58
384.53	316.86
384.91	365.44
385.29	360.92
385.67	335.84
386.049	354.14
386.429	346.23
386.809	327.03
387.189	346.91
387.568	361.6
387.948	341.49
388.328	358.89
388.707	350.3
389.087	351.21
389.466	369.06
389.846	366.8
390.225	363.86
390.605	334.71
390.984	359.79
391.363	358.89
391.743	376.74
392.122	364.09
392.501	386.01
392.881	378.78
393.26	385.55
393.639	372.67
394.018	369.06
394.397	380.81
394.776	375.61
395.155	385.55
395.534	385.33
395.913	403.86
396.292	391.66
396.671	411.77
397.05	388.49
397.429	401.37
397.808	388.72
398.186	409.06
398.565	416.06
398.944	398.89
399.323	398.21
399.701	395.72
400.08	412.9
400.458	417.64
400.837	407.02
401.215	405.44
401.594	411.32
401.972	425.78
402.351	428.49
402.729	436.63
403.107	438.89
403.486	428.94
403.864	429.62
404.242	421.71
404.62	437.08
404.999	435.72
405.377	444.99
405.755	436.63
406.133	462.61
406.511	464.2
406.889	467.81
407.267	476.4
407.645	466.68
408.023	459.9
408.401	475.72
408.779	473.91
409.156	481.15
409.534	494.93
409.912	473.01
410.29	517.53
410.667	514.14
411.045	531.77
411.422	537.64
411.8	516.85
412.178	519.34
412.555	536.29
412.933	550.3
413.31	552.33
413.687	572.67
414.065	562.5
414.442	568.15
414.819	585.32
415.197	586
415.574	589.39
415.951	596.17
416.328	615.61
416.705	608.83
417.082	624.87
417.46	628.94
417.837	638.66
418.214	647.47
418.591	642.72
418.967	645.89
419.344	651.08
419.721	693.34
420.098	672.33
420.475	685.21
420.852	703.96
421.228	689.95
421.605	709.84
421.982	703.74
422.358	734.25
422.735	726.56
423.111	735.15
423.488	766.79
423.864	763.62
424.241	763.62
424.617	781.93
424.994	796.17
425.37	796.39
425.746	815.37
426.123	854.92
426.499	836.39
426.875	859.67
427.251	865.77
427.627	868.93
428.003	868.03
428.379	893.56
428.756	894.02
429.132	911.64
429.507	918.2
429.883	949.16
430.259	935.6
430.635	948.48
431.011	964.75
431.387	982.6
431.763	1012.66
432.138	997.74
432.514	1032.09
432.89	1035.03
433.265	1053.33
433.641	1047.68
434.016	1052.88
434.392	1084.97
434.767	1101.47
435.143	1121.58
435.518	1150.51
435.894	1144.63
436.269	1200.45
436.644	1186.89
437.02	1204.97
437.395	1229.83
437.77	1234.8
438.145	1260.79
438.52	1291.97
438.895	1261.69
439.271	1307.56
439.646	1345.76
440.021	1336.72
440.395	1366.55
440.77	1352.31
441.145	1353.21
441.52	1409.48
441.895	1372.2
442.27	1390.73
442.645	1429.82
443.019	1417.17
443.394	1426.21
443.769	1476.37
444.143	1448.13
444.518	1487.45
444.892	1494.68
445.267	1505.98
445.641	1518.86
446.016	1507.56
446.39	1532.64
446.764	1540.33
447.139	1564.28
447.513	1586.88
447.887	1552.76
448.262	1592.08
448.636	1591.4
449.01	1615.35
449.384	1625.75
449.758	1619.19
450.132	1605.18
450.506	1663.49
450.88	1673.43
451.254	1675.01
451.628	1703.03
452.002	1707.33
452.376	1726.99
452.75	1712.98
453.123	1736.93
453.497	1764.28
453.871	1784.39
454.244	1803.82
454.618	1833.43
454.992	1823.71
455.365	1858.06
455.739	1879.53
456.112	1908.23
456.486	1948
456.859	1939.64
457.232	1956.59
457.606	1964.72
457.979	1985.51
458.352	2032.07
458.725	2037.94
459.099	2064.83
459.472	2124.27
459.845	2108.45
460.218	2155.68
460.591	2150.25
460.964	2156.58
461.337	2197.48
461.71	2199.74
462.083	2238.84
462.456	2246.52
462.829	2269.12
463.201	2326.97
463.574	2309.35
463.947	2343.24
464.32	2373.98
464.692	2382.11
465.065	2426.86
465.438	2454.88
465.81	2464.82
466.183	2473.64
466.555	2516.35
466.928	2551.6
467.3	2528.78
467.672	2561.54
468.045	2635.21
468.417	2639.28
468.789	2653.07
469.161	2697.36
469.534	2760.63
469.906	2748.43
470.278	2801.54
470.65	2836.56
471.022	2854.64
471.394	2935.32
471.766	2967.41
472.138	2985.03
472.51	3040.17
472.882	3036.56
473.253	3078.59
473.625	3135.09
473.997	3187.52
474.369	3218.93
474.74	3255.31
475.112	3287.85
475.484	3356.1
475.855	3372.82
476.227	3385.48
476.598	3461.18
476.97	3495.53
477.341	3575.98
477.713	3631.12
478.084	3629.99
478.455	3706.15
478.827	3709.54
479.198	3829.76
479.569	3833.37
479.94	3943.88
480.311	3987.72
480.682	4031.33
481.053	4101.84
481.424	4102.75
481.795	4204.89
482.166	4224.78
482.537	4258.45
482.908	4315.62
483.279	4377.54
483.65	4443.75
484.021	4532.11
484.391	4565.11
484.762	4623.18
485.133	4658.44
485.503	4680.13
485.874	4766.68
486.244	4810.75
486.615	4866.11
486.985	4898.43
487.356	5014.81
487.726	5018.2
488.097	5124.87
488.467	5161.93
488.837	5192.43
489.207	5286.67
489.578	5298.42
489.948	5361.92
490.318	5430.62
490.688	5433.56
491.058	5511.07
491.428	5550.84
491.798	5609.6
492.168	5732.08
492.538	5723.04
492.908	5778.18
493.278	5813.66
493.648	5812.76
494.017	5922.58
494.387	5945.41
494.757	5995.8
495.126	6006.2
495.496	6034.67
495.866	6063.6
496.235	6117.61
496.605	6136.82
496.974	6239.41
497.344	6262.24
497.713	6257.72
498.082	6308.79
498.452	6338.39
498.821	6324.61
499.19	6345.4
499.559	6418.62
499.928	6451.38
500.298	6518.05
500.667	6518.05
501.036	6470.14
501.405	6548.56
501.774	6570.25
502.143	6668.78
502.512	6622.68
502.88	6657.71
503.249	6679.4
503.618	6706.29
503.987	6696.58
504.356	6760.08
504.724	6778.83
505.093	6812.73
505.462	6819.51
505.83	6784.03
506.199	6862.22
506.567	6918.26
506.936	6916.68
507.304	7012.5
507.672	6990.58
508.041	6996.45
508.409	7068.99
508.777	7058.15
509.145	7114.42
509.514	7102.21
509.882	7234.64
510.25	7088.2
510.618	7132.72
510.986	7188.09
511.354	7202.55
511.722	7228.99
512.09	7315.77
512.458	7226.96
512.826	7286.62
513.193	7263.34
513.561	7285.26
513.929	7416.78
514.297	7412.71
514.664	7432.15
515.032	7390.57
515.4	7473.73
515.767	7477.12
516.135	7485.48
516.502	7433.28
516.869	7548.3
517.237	7575.2
517.604	7506.27
517.972	7607.06
518.339	7588.3
518.706	7558.25
519.073	7584.24
519.44	7559.38
519.808	7615.87
520.175	7627.85
520.542	7699.94
520.909	7612.03
521.276	7702.65
521.643	7718.92
522.009	7680.96
522.376	7824.91
522.743	7843.21
523.11	7829.65
523.477	7882.08
523.843	7861.52
524.21	7938.58
524.577	7976.77
524.943	7958.24
525.31	7974.06
525.676	7967.73
526.043	8055.18
526.409	8032.13
526.776	8097.22
527.142	8096.09
527.508	8093.6
527.874	8122.75
528.241	8108.74
528.607	8122.98
528.973	8182.86
529.339	8136.31
529.705	8154.62
530.071	8150.77
530.437	8217.21
530.803	8258.12
531.169	8275.74
531.535	8180.6
531.901	8208.63
532.267	8239.59
532.632	8253.82
532.998	8255.4
533.364	8298.57
533.73	8211.56
534.095	8301.73
534.461	8271.9
534.826	8258.34
535.192	8277.32
535.557	8321.39
535.923	8295.4
536.288	8325.01
536.653	8282.97
537.019	8273.93
537.384	8286.14
537.749	8312.35
538.114	8225.12
538.479	8296.99
538.845	8279.81
539.21	8182.86
539.575	8277.1
539.94	8206.82
540.305	8260.38
540.67	8249.98
541.034	8149.87
541.399	8296.31
541.764	8259.25
542.129	8277.78
542.494	8248.62
542.858	8307.61
543.223	8242.3
543.587	8184.22
543.952	8201.62
544.316	8212.24
544.681	8200.26
545.045	8177.44
545.41	8229.64
545.774	8251.34
546.138	8199.81
546.503	8226.48
546.867	8227.83
547.231	8214.5
547.595	8203.88
547.959	8246.14
548.324	8192.81
548.688	8129.76
549.052	8207.04
549.416	8228.51
549.779	8203.2
550.143	8103.09
550.507	8231.22
550.871	8171.79
551.235	8165.24
551.599	8202.75
551.962	8182.41
552.326	8209.08
552.689	8167.95
553.053	8143.99
553.417	8138.12
553.78	8215.63
554.143	8194.16
554.507	8171.34
554.87	8179.93
555.234	8258.79
555.597	8128.4
555.96	8170.66
556.323	8189.87
556.686	8160.94
557.05	8207.27
557.413	8198
557.776	8142.19
558.139	8248.17
558.502	8239.59
558.865	8222.18
559.228	8292.69
559.59	8292.92
559.953	8270.09
560.316	8330.88
560.679	8295.18
561.041	8314.16
561.404	8345.8
561.767	8392.58
562.129	8343.09
562.492	8456.3
562.854	8410.88
563.217	8398.68
563.579	8386.47
563.941	8474.83
564.304	8487.94
564.666	8433.48
565.028	8514.38
565.39	8544.66
565.753	8573.36
566.115	8563.42
566.477	8572.23
566.839	8626.02
567.201	8647.48
567.563	8654.49
567.925	8642.29
568.287	8662.85
568.648	8624.66
569.01	8709.86
569.372	8745.79
569.734	8734.26
570.095	8780.59
570.457	8860.36
570.819	8815.16
571.18	8842.06
571.542	8769.97
571.903	8808.84
572.265	8939
572.626	8933.35
572.987	8915.05
573.349	8957.08
573.71	8947.59
574.071	8993.69
574.432	8996.63
574.794	9061.48
575.155	9090.18
575.516	9052.67
575.877	9175.15
576.238	9143.97
576.599	9153.91
576.96	9133.35
577.32	9141.93
577.681	9202.95
578.042	9200.24
578.403	9169.96
578.763	9248.82
579.124	9263.74
579.485	9305.32
579.845	9273.23
580.206	9270.74
580.566	9364.3
580.927	9341.03
581.287	9422.38
581.648	9323.62
582.008	9449.95
582.368	9415.37
582.728	9390.29
583.089	9459.21
583.449	9433.68
583.809	9470.97
584.169	9552.09
584.529	9536.27
584.889	9533.79
585.249	9513.9
585.609	9518.87
585.969	9574.69
586.329	9561.13
586.688	9557.29
587.048	9589.83
587.408	9588.48
587.768	9620.34
588.127	9653.56
588.487	9652.2
588.846	9666.44
589.206	9602.49
589.565	9646.1
589.925	9755.93
590.284	9718.64
590.643	9741.24
591.003	9818.53
591.362	9854.23
591.721	9830.28
592.08	9821.69
592.44	9778.08
592.799	9811.52
593.158	9786.89
593.517	9843.39
593.876	9882.71
594.235	9801.35
594.593	9896.49
594.952	9833.89
595.311	9859.2
595.67	9879.09
596.029	9932.65
596.387	9931.29
596.746	9963.38
597.104	9902.82
597.463	9925.19
597.822	9986.43
598.18	9910.95
598.538	9887.23
598.897	9990.27
599.255	9884.74
599.613	10088.58
599.972	10028.01
600.33	10037.73
600.688	10051.29
601.046	10026.66
601.404	10064.85
601.762	10026.43
602.12	10132.87
602.478	10101.46
602.836	10051.52
603.194	10066.88
603.552	10048.58
603.91	10026.88
604.268	10098.29
604.625	10029.14
604.983	10122.02
605.341	10106.88
605.698	10095.36
606.056	10171.29
606.413	10068.69
606.771	10067.11
607.128	10183.49
607.485	10051.74
607.843	10101.01
608.2	10189.14
608.557	10173.32
608.914	10188.46
609.272	10252.19
609.629	10235.92
609.986	10293.77
610.343	10221.45
610.7	10283.15
611.057	10263.04
611.414	10263.04
611.771	10351.39
612.127	10310.72
612.484	10281.11
612.841	10353.2
613.198	10287.44
613.554	10378.96
613.911	10309.14
614.267	10383.48
614.624	10275.92
614.98	10366.54
615.337	10419.19
615.693	10343.03
616.05	10402.47
616.406	10406.31
616.762	10416.93
617.118	10479.3
617.475	10380.32
617.831	10399.53
618.187	10508.45
618.543	10477.49
618.899	10506.64
619.255	10459.64
619.611	10414.44
619.967	10483.37
620.323	10496.25
620.678	10527.44
621.034	10450.37
621.39	10494.67
621.746	10422.81
622.101	10559.3
622.457	10383.71
622.812	10529.69
623.168	10479.07
623.523	10488.79
623.879	10536.25
624.234	10423.71
624.589	10563.82
624.945	10426.19
625.3	10492.86
625.655	10493.31
626.01	10506.42
626.365	10521.11
626.72	10479.53
627.075	10500.32
627.43	10505.51
627.785	10425.06
628.14	10457.83
628.495	10496.25
628.85	10476.36
629.205	10406.53
629.559	10491.96
629.914	10354.78
630.269	10426.42
630.623	10432.75
630.978	10370.38
631.332	10472.52
631.687	10386.65
632.041	10421
632.396	10409.92
632.75	10360.43
633.104	10332.64
633.459	10286.09
633.813	10280.44
634.167	10284.96
634.521	10264.17
634.875	10288.57
635.229	10307.1
635.583	10248.35
635.937	10301.9
636.291	10218.52
636.645	10196.37
636.999	10202.25
637.352	10160.21
637.706	10195.69
638.06	10268.46
638.413	10203.38
638.767	10128.12
639.121	10114.34
639.474	10126.54
639.828	10149.14
640.181	10097.84
640.534	10084.06
640.888	10033.66
641.241	10004.51
641.594	10033.89
641.947	10082.02
642.301	10143.04
642.654	10023.49
643.007	10077.28
643.36	10028.92
643.713	10000.67
644.066	9994.57
644.419	9955.7
644.771	9884.51
645.124	9790.28
645.477	9888.13
645.83	9803.16
646.182	9722.71
646.535	9747.57
646.888	9752.77
647.24	9688.14
647.593	9692.43
647.945	9684.29
648.298	9576.05
648.65	9649.04
649.002	9578.08
649.355	9641.13
649.707	9659.21
650.059	9734.46
650.411	9777.62
650.763	9796.38
651.115	9856.94
651.467	9869.15
651.819	9897.4
652.171	9872.09
652.523	9833.22
652.875	9787.12
653.227	9845.19
653.578	9896.94
653.93	9891.75
654.282	9802.48
654.633	9797.74
654.985	9854.23
655.337	9821.92
655.688	9816.72
656.039	9897.85
656.391	9767.23
656.742	9764.97
657.094	9801.13
657.445	9787.79
657.796	9779.43
658.147	9782.14
658.498	9830.28
658.849	9829.6
659.2	9847
659.551	9860.56
659.902	9794.12
660.253	9787.34
660.604	9741.92
660.955	9807.68
661.306	9767.68
661.656	9749.38
662.007	9833.44
662.358	9835.7
662.708	9843.61
663.059	9777.62
663.409	9781.69
663.76	9804.06
664.11	9830.5
664.461	9829.37
664.811	9820.11
665.161	9818.08
665.511	9773.56
665.862	9783.5
666.212	9858.07
666.562	9887.9
666.912	9768.36
667.262	9824.18
667.612	9767
667.962	9835.02
668.312	9847
668.662	9846.77
669.011	9803.61
669.361	9809.94
669.711	9768.58
670.06	9766.55
670.41	9816.27
670.76	9860.11
671.109	9775.14
671.459	9787.34
671.808	9773.56
672.157	9784.63
672.507	9700.56
672.856	9676.61
673.205	9756.16
673.554	9772.65
673.904	9747.57
674.253	9730.17
674.602	9704.63
674.951	9585.54
675.3	9585.31
675.649	9663.05
675.998	9655.82
676.346	9601.58
676.695	9672.54
677.044	9526.33
677.393	9623.96
677.741	9590.06
678.09	9602.26
678.438	9496.28
678.787	9587.8
679.135	9647.01
679.484	9611.07
679.832	9549.83
680.181	9480.68
680.529	9497.18
680.877	9517.74
681.225	9517.07
681.573	9572.43
681.922	9505.32
682.27	9435.26
682.618	9507.12
682.966	9473.23
683.314	9386.67
683.661	9395.04
684.009	9274.13
684.357	9348.71
684.705	9295.15
685.053	9370.63
685.4	9298.77
685.748	9264.19
686.095	9231.88
686.443	9157.08
686.79	9165.21
687.138	9151.65
687.485	9257.41
687.832	9143.52
688.18	9098.32
688.527	9103.29
688.874	9149.62
689.221	9075.04
689.568	9020.36
689.915	9022.39
690.262	9028.94
690.609	8978.1
690.956	8870.3
691.303	8888.16
691.65	8829.63
691.997	8852.45
692.344	8893.13
692.69	8755.96
693.037	8801.15
693.383	8682.74
693.73	8749.85
694.077	8664.21
694.423	8677.99
694.769	8668.73
695.116	8638.22
695.462	8590.76
695.808	8544.66
696.155	8532.46
696.501	8454.95
696.847	8525
697.193	8357.32
697.539	8381.73
697.885	8335.85
698.231	8308.06
698.577	8293.14
698.923	8289.98
699.269	8260.6
699.614	8214.5
699.96	8245.91
700.306	8193.49
700.651	8188.74
700.997	8118.23
701.342	8101.06
701.688	8103.54
702.033	8088.4
702.379	8095.18
702.724	8004.79
703.069	8092.7
703.415	7952.81
703.76	7939.48
704.105	7917.11
704.45	7844.79
704.795	7820.84
705.14	7840.05
705.485	7864.68
705.83	7776.77
706.175	7854.51
706.52	7786.04
706.865	7710.33
707.209	7730.22
707.554	7698.36
707.899	7640.51
708.243	7636.21
708.588	7627.85
708.932	7574.07
709.277	7569.55
709.621	7561.64
709.966	7563.9
710.31	7518.02
710.654	7427.18
710.998	7460.85
711.342	7475.09
711.687	7455.2
712.031	7426.05
712.375	7366.16
712.719	7416.33
713.063	7440.51
713.407	7402.32
713.75	7333.85
714.094	7265.15
714.438	7244.81
714.782	7331.59
715.125	7246.62
715.469	7273.51
715.812	7284.13
716.156	7208.2
716.499	7221.31
716.843	7254.07
717.186	7169.11
717.53	7204.81
717.873	7224.92
718.216	7175.88
718.559	7167.52
718.902	7092.5
719.246	7139.95
719.589	7067.64
719.932	7094.76
720.275	7068.99
720.617	7079.84
720.96	7073.97
721.303	7021.31
721.646	7084.81
721.989	7001.43
722.331	7058.15
722.674	7046.85
723.016	7040.3
723.359	7068.54
723.701	7075.32
724.044	7032.16
724.386	6928.21
724.729	6958.49
725.071	6948.55
725.413	6973.4
725.755	6877.36
726.097	6912.84
726.439	6931.15
726.782	6891.15
727.124	6979.51
727.465	6896.34
727.807	6904.93
728.149	6890.47
728.491	6900.41
728.833	6906.97
729.175	6895.44
729.516	6885.72
729.858	6855.89
730.199	6900.86
730.541	6915.33
730.882	6951.48
731.224	6775.67
731.565	6838.94
731.906	6882.11
732.248	6869
732.589	6795.56
732.93	6855.22
733.271	6783.58
733.612	6881.88
733.953	6832.84
734.294	6798.49
734.635	6846.85
734.976	6829
735.317	6807.53
735.658	6868.32
735.999	6811.83
736.339	6816.12
736.68	6839.85
737.021	6746.07
737.361	6816.8
737.702	6840.75
738.042	6863.12
738.383	6753.75
738.723	6778.83
739.063	6844.37
739.404	6899.28
739.744	6862.22
740.084	6796.46
740.424	6877.59
740.764	6837.59
741.104	6909.9
741.444	6889.34
741.784	6872.84
742.124	6876.68
742.464	6864.03
742.804	6934.76
743.143	6859.51
743.483	6946.96
743.823	6941.09
744.162	6983.12
744.502	6948.55
744.841	7015.44
745.181	7022.44
745.52	7054.53
745.86	7081.88
746.199	7078.03
746.538	7131.59
746.877	7157.13
747.216	7173.62
747.556	7198.71
747.895	7296.33
748.234	7334.07
748.573	7298.59
748.911	7350.57
749.25	7430.57
749.589	7400.51
749.928	7522.32
750.267	7600.96
750.605	7581.52
750.944	7556.44
751.283	7625.82
751.621	7780.16
751.96	7828.52
752.298	7810.9
752.636	7930.89
752.975	7992.59
753.313	8016.31
753.651	8102.64
753.989	8148.97
754.327	8275.06
754.666	8341.5
755.004	8474.83
755.342	8617.43
755.679	8634.15
756.017	8666.69
756.355	8853.81
756.693	8911.88
757.031	9046.57
757.368	9111.43
757.706	9242.5
758.044	9314.59
758.381	9512.09
758.719	9582.83
759.056	9695.59
759.394	9829.6
759.731	9793.67
760.068	9979.43
760.405	10109.82
760.743	10181
761.08	10373.31
761.417	10467.78
761.754	10610.37
762.091	10664.15
762.428	10872.74
762.765	10900.08
763.102	11155.44
763.438	11187.53
763.775	11253.29
764.112	11430.69
764.449	11597.46
764.785	11686.73
765.122	11698.7
765.458	11867.51
765.795	11903.44
766.131	12151.8
766.467	12276.09
766.804	12313.38
767.14	12320.16
767.476	12493.03
767.812	12565.35
768.148	12688.73
768.485	12726.93
768.821	12796.3
769.157	12956.3
769.492	13069.06
769.828	13128.04
770.164	13144.77
770.5	13327.36
770.836	13482.16
771.171	13397.64
771.507	13495.49
771.842	13518.99
772.178	13613.91
772.513	13643.29
772.849	13709.5
773.184	13785.88
773.519	13896.61
773.855	13943.39
774.19	13892.32
774.525	13982.94
774.86	14074.91
775.195	14131.18
775.53	14127.11
775.865	14113.1
776.2	14042.82
776.535	14162.14
776.87	14215.02
777.205	14311.29
777.539	14134.57
777.874	14231.52
778.209	14243.27
778.543	14289.82
778.878	14224.06
779.212	14339.54
779.547	14213.89
779.881	14326.21
780.215	14286.66
780.55	14330.5
780.884	14262.7
781.218	14364.4
781.552	14413.66
781.886	14314.91
782.22	14283.27
782.554	14303.38
782.888	14256.6
783.222	14269.94
783.556	14258.18
783.889	14238.3
784.223	14198.52
784.557	14202.37
784.89	14257.96
785.224	14200.33
785.557	14139.32
785.891	14165.98
786.224	14171.86
786.558	14142.26
786.891	13993.56
787.224	14015.7
787.557	14005.76
787.891	14091.18
788.224	13985.2
788.557	14055.48
788.89	14008.02
789.223	13996.95
789.556	14044.4
789.888	14026.55
790.221	13912.2
790.554	13871.75
790.887	13873.34
791.219	13895.71
791.552	13796.95
791.884	13811.19
792.217	13798.99
792.549	13775.71
792.882	13667.47
793.214	13599.67
793.546	13686.67
793.879	13615.49
794.211	13592.89
794.543	13653.91
794.875	13575.04
795.207	13623.85
795.539	13521.93
795.871	13584.08
796.203	13405.1
796.535	13357.19
796.867	13289.62
797.198	13349.51
797.53	13358.32
797.862	13264.54
798.193	13275.39
798.525	13245.33
798.856	13243.52
799.188	13075.84
799.519	13113.13
799.85	13022.28
800.182	13029.52
800.513	13015.96
800.844	12971.21
801.175	13035.39
801.506	12909.29
801.837	12900.48
802.168	12954.26
802.499	12858.9
802.83	12762.86
803.161	12709.07
803.491	12841.5
803.822	12787.04
804.153	12684.44
804.483	12684.21
804.814	12628.4
805.145	12618.91
805.475	12580.71
805.805	12487.61
806.136	12561.96
806.466	12561.51
806.796	12540.26
807.126	12406.93
807.457	12500.04
807.787	12451
808.117	12410.32
808.447	12352.02
808.777	12363.77
809.107	12288.07
809.436	12319.25
809.766	12299.82
810.096	12205.36
810.426	12211.23
810.755	12212.59
811.085	12132.59
811.414	12161.52
811.744	12058.69
812.073	12013.05
812.403	12013.5
812.732	11954.29
813.061	12001.07
813.39	11895.53
813.719	11847.85
814.049	11958.58
814.378	11794.29
814.707	11884.69
815.036	11791.36
815.365	11779.15
815.693	11735.76
816.022	11690.34
816.351	11673.85
816.68	11667.52
817.008	11694.64
817.337	11609.44
817.665	11587.29
817.994	11576.45
818.322	11557.46
818.651	11639.27
818.979	11415.77
819.307	11523.34
819.636	11512.95
819.964	11410.12
820.292	11497.58
820.62	11511.82
820.948	11455.09
821.276	11477.47
821.604	11414.19
821.932	11465.04
822.259	11460.74
822.587	11438.82
822.915	11380.07
823.243	11440.18
823.57	11368.99
823.898	11470.69
824.225	11420.74
824.553	11348.88
824.88	11377.36
825.207	11484.02
825.535	11396.11
825.862	11480.63
826.189	11306.85
826.516	11438.82
826.843	11505.26
827.17	11446.96
827.497	11482.44
827.824	11441.08
828.151	11463.68
828.478	11469.56
828.805	11517.69
829.131	11475.66
829.458	11437.24
829.785	11371.48
830.111	11448.09
830.438	11490.35
830.764	11485.83
831.09	11369.67
831.417	11393.4
831.743	11476.34
832.069	11437.47
832.395	11338.26
832.722	11404.93
833.048	11378.71
833.374	11386.62
833.7	11386.85
834.026	11318.6
834.351	11377.13
834.677	11404.93
835.003	11337.81
835.329	11271.37
835.654	11366.96
835.98	11296.91
836.306	11288.77
836.631	11347.53
836.956	11313.63
837.282	11336
837.607	11239.96
837.932	11157.47
838.258	11197.47
838.583	11163.58
838.908	11121.32
839.233	11204.93
839.558	11104.6
839.883	11096.46
840.208	11033.64
840.533	11037.25
840.858	11063.92
841.182	11081.09
841.507	11077.48
841.832	10954.99
842.156	11023.92
842.481	10936.46
842.805	10962.23
843.13	10921.32
843.454	10898.72
843.778	10803.59
844.103	10815.79
844.427	10765.39
844.751	10803.13
845.075	10773.53
845.399	10736.92
845.723	10690.59
846.047	10609.69
846.371	10621.22
846.695	10614.89
847.019	10522.01
847.343	10445.63
847.666	10413.99
847.99	10418.06
848.313	10441.56
848.637	10353.88
848.96	10308.68
849.284	10265.52
849.607	10123.38
849.931	10174
850.254	10060.55
850.577	10011.97
850.9	9934.91
851.223	9976.26
851.546	9901.01
851.869	9861.24
852.192	9944.63
852.515	9845.42
852.838	9855.81
853.161	9829.37
853.483	9760.45
853.806	9682.49
854.129	9679.55
854.451	9652.2
854.774	9628.7
855.096	9558.42
855.419	9558.42
855.741	9528.59
856.063	9479.33
856.385	9458.31
856.708	9408.82
857.03	9403.4
857.352	9437.07
857.674	9351.19
857.996	9371.76
858.318	9269.39
858.64	9315.94
858.961	9231.2
859.283	9212.67
859.605	9205.89
859.926	9236.17
860.248	9188.71
860.57	9152.1
860.891	9193.46
861.212	9100.81
861.534	9049.28
861.855	9026.91
862.176	9106.91
862.498	9028.94
862.819	9090.41
863.14	9004.31
863.461	9014.03
863.782	8974.03
864.103	8978.1
864.424	8917.99
864.745	8922.73
865.065	8970.87
865.386	8865.11
865.707	8897.65
866.027	8878.66
866.348	8835.5
866.668	8866.69
866.989	8834.82
867.309	8700.14
867.63	8815.39
867.95	8763.64
868.27	8723.41
868.59	8744.21
868.91	8744.21
869.23	8710.31
869.55	8673.47
869.87	8693.58
870.19	8696.52
870.51	8669.4
870.83	8683.64
871.15	8613.36
871.469	8603.64
871.789	8631.67
872.109	8625.56
872.428	8564.55
872.748	8525.45
873.067	8591.21
873.386	8556.19
873.706	8598.67
874.025	8500.37
874.344	8498.34
874.663	8469.86
874.982	8469.41
875.301	8438.22
875.62	8475.74
875.939	8395.51
876.258	8485.91
876.577	8385.8
876.896	8389.64
877.214	8352.35
877.533	8354.84
877.852	8351.22
878.17	8434.38
878.489	8360.49
878.807	8376.53
879.125	8301.5
879.444	8237.1
879.762	8256.76
880.08	8278.91
880.398	8170.21
880.716	8192.58
881.034	8178.57
881.352	8254.95
881.67	8173.6
881.988	8241.17
882.306	8154.62
882.624	8119.36
882.941	8050.44
883.259	8059.03
883.577	8062.87
883.894	8030.78
884.212	8017.44
884.529	7970.89
884.846	8023.09
885.164	7956.88
885.481	7911.68
885.798	7924.11
886.115	7809.77
886.432	7845.02
886.75	7875.75
887.067	7847.28
887.383	7833.72
887.7	7852.7
888.017	7761.86
888.334	7818.13
888.651	7745.59
888.967	7760.28
889.284	7754.17
889.6	7650.67
889.917	7573.39
890.233	7676.66
890.55	7597.34
890.866	7596.21
891.182	7607.29
891.498	7499.49
891.815	7515.08
892.131	7433.73
892.447	7466.72
892.763	7486.61
893.079	7410.45
893.395	7442.09
893.71	7336.56
894.026	7385.82
894.342	7388.99
894.657	7294.07
894.973	7272.38
895.289	7302.89
895.604	7251.59
895.92	7238.26
896.235	7151.93
896.55	7177.01
896.865	7168.65
897.181	7146.06
897.496	7128.2
897.811	7077.81
898.126	7112.16
898.441	7081.42
898.756	7063.8
899.071	7030.13
899.386	7012.73
899.7	6970.47
900.015	6916.46
900.33	6907.42
900.644	6846.63
900.959	6832.39
901.273	6859.06
901.588	6809.57
901.902	6767.08
902.216	6760.98
902.531	6751.72
902.845	6672.85
903.159	6667.65
903.473	6632.4
903.787	6588.1
904.101	6618.84
904.415	6599.85
904.729	6540.65
905.042	6540.65
905.356	6505.17
905.67	6455.23
905.984	6461.33
906.297	6449.35
906.611	6394.89
906.924	6393.53
907.237	6390.59
907.551	6309.69
907.864	6328.68
908.177	6311.5
908.491	6314.66
908.804	6259.75
909.117	6240.54
909.43	6193.99
909.743	6173.88
910.056	6172.07
910.368	6097.72
910.681	6085.29
910.994	6066.54
911.307	6020.89
911.619	5979.31
911.932	5983.83
912.244	5899.53
912.557	5951.28
912.869	5957.84
913.181	5937.95
913.494	5856.15
913.806	5824.28
914.118	5821.57
914.43	5787.9
914.742	5767.11
915.054	5723.49
915.366	5704.51
915.678	5743.61
915.99	5690.05
916.302	5679.65
916.613	5626.32
916.925	5574.57
917.236	5618.19
917.548	5594.23
917.859	5578.64
918.171	5530.05
918.482	5518.53
918.794	5531.86
919.105	5484.18
919.416	5460.9
919.727	5406.89
920.038	5422.94
920.349	5349.04
920.66	5320.11
920.971	5300.23
921.282	5370.06
921.593	5311.53
921.903	5313.11
922.214	5229.27
922.525	5205.99
922.835	5215.48
923.146	5148.59
923.456	5187.69
923.767	5161.93
924.077	5168.48
924.387	5115.6
924.697	5122.38
925.008	5102.94
925.318	5051.19
925.628	4960.35
925.938	5006
926.248	4967.58
926.558	4910.18
926.867	4957.64
927.177	4916.96
927.487	4931.65
927.796	4885.78
928.106	4868.6
928.416	4856.62
928.725	4858.21
929.034	4839.68
929.344	4821.6
929.653	4759.9
929.962	4795.38
930.271	4677.42
930.581	4737.53
930.89	4662.28
931.199	4628.61
931.508	4687.81
931.817	4598.55
932.125	4652.56
932.434	4597.42
932.743	4581.15
933.051	4568.72
933.36	4543.86
933.669	4496.86
933.977	4455.73
934.286	4488.95
934.594	4439.01
934.902	4449.4
935.21	4425.9
935.519	4377.09
935.827	4432.68
936.135	4346.13
936.443	4376.86
936.751	4328.73
937.059	4346.35
937.367	4301.38
937.674	4301.38
937.982	4269.52
938.29	4261.39
938.597	4244.66
938.905	4203.53
939.213	4175.51
939.52	4117.89
939.827	4164.44
940.135	4106.13
940.442	4155.85
940.749	4142.52
941.056	4114.27
941.363	4118.56
941.67	4107.26
941.977	4007.15
942.284	4039.47
942.591	3983.43
942.898	3989.08
943.205	3980.04
943.511	3954.95
943.818	3954.73
944.125	3898
944.431	3896.87
944.738	3894.84
945.044	3864.33
945.35	3825.01
945.657	3852.81
945.963	3817.55
946.269	3790.21
946.575	3802.87
946.881	3798.8
947.187	3711.8
947.493	3734.62
947.799	3715.41
948.105	3682.19
948.41	3707.73
948.716	3691
949.022	3698.24
949.327	3649.88
949.633	3635.41
949.938	3648.75
950.244	3616.43
950.549	3585.24
950.854	3587.73
951.16	3541.63
951.465	3532.14
951.77	3552.93
952.075	3512.03
952.38	3535.98
952.685	3505.02
952.99	3442.88
953.294	3497.79
953.599	3490.11
953.904	3426.38
954.209	3401.75
954.513	3388.41
954.818	3386.61
955.122	3374.85
955.426	3394.52
955.731	3353.61
956.035	3333.05
956.339	3341.64
956.643	3341.86
956.948	3346.61
957.252	3290.56
957.556	3265.71
957.86	3289.43
958.163	3220.73
958.467	3211.47
958.771	3255.99
959.075	3209.89
959.378	3168.98
959.682	3203.33
959.985	3124.92
960.289	3158.14
960.592	3143.45
960.896	3111.81
961.199	3105.71
961.502	3135.09
961.805	3076.56
962.108	3077.01
962.411	3080.4
962.714	3053.06
963.017	3004.92
963.32	3036.11
963.623	3010.8
963.926	3003.57
964.228	3024.58
964.531	2996.11
964.833	2995.2
965.136	2956.56
965.438	2966.5
965.741	2889.22
966.043	2918.14
966.345	2951.36
966.648	2899.16
966.95	2882.44
967.252	2870.46
967.554	2842.21
967.856	2840.41
968.158	2826.62
968.46	2820.07
968.761	2828.43
969.063	2788.88
969.365	2752.27
969.666	2788.66
969.968	2717.02
970.269	2762.44
970.571	2739.17
970.872	2730.8
971.174	2695.1
971.475	2691.93
971.776	2701.88
972.077	2651.71
972.378	2666.17
972.679	2640.18
972.98	2649.9
973.281	2645.61
973.582	2630.24
973.883	2595.44
974.183	2607.64
974.484	2595.89
974.785	2554.76
975.085	2578.27
975.386	2569
975.686	2542.79
975.986	2542.11
976.287	2567.87
976.587	2509.57
976.887	2487.65
977.187	2489.45
977.487	2465.5
977.787	2457.14
978.087	2453.3
978.387	2425.95
978.687	2404.71
978.987	2419.17
979.286	2432.51
979.586	2419.63
979.885	2377.37
980.185	2364.49
980.484	2366.52
980.784	2380.3
981.083	2341.89
981.382	2369.46
981.682	2345.96
981.981	2291.95
982.28	2340.31
982.579	2294.88
982.878	2300.98
983.177	2274.32
983.475	2259.86
983.774	2233.19
984.073	2251.27
984.372	2250.36
984.67	2248.33
984.969	2218.28
985.267	2215.34
985.566	2193.87
985.864	2174.43
986.162	2195.9
986.461	2164.94
986.759	2174.43
987.057	2135.11
987.355	2126.53
987.653	2125.85
987.951	2123.36
988.249	2128.11
988.547	2086.75
988.844	2104.38
989.142	2074.78
989.44	2077.49
989.737	2054.89
990.035	2062.8
990.332	2077.49
990.63	2021.9
990.927	2037.26
991.224	2049.24
991.521	2034.55
991.819	1996.36
992.116	1996.36
992.413	1999.3
992.71	1971.73
993.006	1966.76
993.303	1976.25
993.6	1971.5
993.897	1924.72
994.193	1951.16
994.49	1923.37
994.787	1915.01
995.083	1905.06
995.379	1908
995.676	1885.85
995.972	1882.46
996.268	1862.13
996.565	1874.33
996.861	1854.67
997.157	1828
997.453	1835.01
997.749	1823.26
998.044	1856.93
998.34	1834.56
998.636	1825.29
998.932	1771.51
999.227	1771.28
999.523	1764.95
999.818	1752.52
1000.114	1784.39
1000.409	1747.55
1000.704	1722.47
1001	1727.44
1001.295	1740.55
1001.59	1717.27
1001.885	1713.66
1002.18	1679.53
1002.475	1689.7
1002.77	1660.55
1003.065	1642.02
1003.359	1672.3
1003.654	1637.95
1003.949	1648.12
1004.243	1626.65
1004.538	1604.73
1004.832	1598.4
1005.127	1620.32
1005.421	1603.38
1005.715	1583.04
1006.009	1574.68
1006.304	1571.74
1006.598	1574
1006.892	1567.44
1007.186	1533.1
1007.48	1551.85
1007.773	1529.03
1008.067	1505.53
1008.361	1532.64
1008.655	1517.5
1008.948	1465.53
1009.242	1479.31
1009.535	1463.72
1009.829	1473.44
1010.122	1473.66
1010.415	1459.42
1010.708	1463.72
1011.001	1452.65
1011.295	1404.51
1011.588	1451.52
1011.881	1434.34
1012.173	1399.54
1012.466	1401.35
1012.759	1409.93
1013.052	1389.6
1013.344	1394.12
1013.637	1401.12
1013.93	1378.75
1014.222	1351.18
1014.514	1346.21
1014.807	1331.52
1015.099	1315.7
1015.391	1349.15
1015.683	1314.12
1015.976	1315.93
1016.268	1310.28
1016.56	1274.57
1016.851	1286.32
1017.143	1295.36
1017.435	1272.76
1017.727	1267.34
1018.018	1271.63
1018.31	1263.27
1018.602	1251.29
1018.893	1225.08
1019.185	1207.45
1019.476	1231.41
1019.767	1243.16
1020.058	1223.05
1020.35	1191.18
1020.641	1220.11
1020.932	1195.03
1021.223	1183.27
1021.514	1166.55
1021.804	1176.04
1022.095	1145.76
1022.386	1139.89
1022.677	1148.7
1022.967	1137.63
1023.258	1154.8
1023.548	1109.38
1023.839	1112.09
1024.129	1124.29
1024.419	1095.14
1024.709	1095.82
1025	1124.97
1025.29	1081.36
1025.58	1054.01
1025.87	1069.15
1026.16	1065.54
1026.449	1049.49
1026.739	1050.62
1027.029	1030.74
1027.319	1051.07
1027.608	1068.47
1027.898	1029.15
1028.187	1033.45
1028.477	998.65
1028.766	1024.86
1029.055	998.87
1029.344	1011.75
1029.634	979.66
1029.923	982.38
1030.212	979.44
1030.501	987.12
1030.79	952.32
1031.078	945.77
1031.367	956.39
1031.656	940.12
1031.945	922.49
1032.233	939.21
1032.522	943.05
1032.81	949.38
1033.099	917.74
1033.387	900.57
1033.675	890.85
1033.963	927.46
1034.251	920.68
1034.54	890.17
1034.828	874.58
1035.116	869.61
1035.403	877.75
1035.691	864.86
1035.979	863.06
1036.267	858.76
1036.554	867.35
1036.842	848.37
1037.129	844.3
1037.417	833.9
1037.704	831.87
1037.992	829.61
1038.279	821.7
1038.566	839.55
1038.853	839.55
1039.14	839.55
