Data from hue_260_FLMS001491_00070.txt Node
Date: Tue Feb 07 15:59:25 GMT 2017
User: dcchb
Spectrometer: FLMS00149
Trigger mode: 0
Integration Time (sec): 2.000000E-2
Scans to average: 10
Electric dark correction enabled: true
Nonlinearity correction enabled: false
Boxcar width: 0
XAxis mode: Wavelengths
Number of Pixels in Spectrum: 2048
>>>>>Begin Spectral Data<<<<<
341.393	-2.2
341.776	-2.2
342.16	-2.2
342.543	-56.67
342.927	-69.32
343.31	-62.54
343.693	-80.62
344.077	-55.31
344.46	-52.82
344.843	-58.25
345.226	-36.78
345.61	-26.38
345.993	-7.4
346.376	-17.12
346.759	16.78
347.142	20.85
347.525	37.8
347.908	50.22
348.291	71.24
348.674	74.86
349.057	125.48
349.44	135.42
349.823	140.84
350.206	144.91
350.588	176.78
350.971	199.6
351.354	210.22
351.737	230.56
352.119	228.75
352.502	241.41
352.884	267.39
353.267	269.65
353.65	286.6
354.032	303.1
354.414	296.32
354.797	305.81
355.179	319.82
355.562	317.11
355.944	319.37
356.326	320.95
356.709	320.27
357.091	301.07
357.473	337.9
357.855	318.24
358.238	316.43
358.62	327.28
359.002	341.97
359.384	326.83
359.766	325.25
360.148	325.02
360.53	329.77
360.912	318.69
361.294	327.51
361.676	330.67
362.057	316.88
362.439	332.25
362.821	329.09
363.203	315.75
363.584	316.88
363.966	302.42
364.348	313.72
364.729	282.76
365.111	317.34
365.493	307.17
365.874	290.44
366.256	301.74
366.637	304.23
367.019	294.96
367.4	301.74
367.781	287.05
368.163	296.32
368.544	299.48
368.925	298.13
369.306	304
369.688	287.28
370.069	299.71
370.45	288.41
370.831	309.88
371.212	306.72
371.593	288.18
371.974	314.17
372.355	314.17
372.736	292.25
373.117	296.77
373.498	304.23
373.879	305.36
374.26	293.38
374.641	301.74
375.021	294.51
375.402	313.72
375.783	301.07
376.163	301.07
376.544	327.73
376.925	287.51
377.305	328.41
377.686	301.97
378.066	317.34
378.447	306.72
378.827	333.38
379.208	320.5
379.588	299.03
379.968	315.75
380.349	322.53
380.729	334.74
381.109	307.85
381.489	295.87
381.87	334.51
382.25	321.4
382.63	340.61
383.01	324.34
383.39	314.62
383.77	328.64
384.15	334.74
384.53	336.09
384.91	328.18
385.29	357.56
385.67	324.79
386.049	356.21
386.429	338.13
386.809	356.66
387.189	341.97
387.568	357.11
387.948	348.07
388.328	343.1
388.707	345.13
389.087	337.67
389.466	351.01
389.846	358.92
390.225	349.2
390.605	338.58
390.984	335.87
391.363	355.08
391.743	348.52
392.122	357.79
392.501	380.61
392.881	391.68
393.26	356.21
393.639	379.03
394.018	373.38
394.397	381.52
394.776	365.24
395.155	387.16
395.534	380.84
395.913	404.57
396.292	376.09
396.671	385.36
397.05	357.34
397.429	380.16
397.808	394.85
398.186	365.92
398.565	383.1
398.944	402.53
399.323	400.95
399.701	396.88
400.08	388.75
400.458	404.79
400.837	409.76
401.215	404.79
401.594	386.71
401.972	408.41
402.351	407.96
402.729	416.32
403.107	426.94
403.486	417.9
403.864	428.29
404.242	430.78
404.62	423.77
404.999	428.97
405.377	445.92
405.755	401.4
406.133	461.06
406.511	450.67
406.889	455.86
407.267	455.19
407.645	444.11
408.023	474.39
408.401	480.27
408.779	490.21
409.156	495.18
409.534	493.83
409.912	496.31
410.29	509.87
410.667	503.55
411.045	511.91
411.422	506.26
411.8	533.38
412.178	525.47
412.555	544.45
412.933	539.25
413.31	554.84
413.687	548.06
414.065	566.6
414.442	558.69
414.819	602.3
415.197	570.66
415.574	587.16
415.951	614.05
416.328	619.25
416.705	604.11
417.082	605.24
417.46	621.06
417.837	623.32
418.214	623.54
418.591	650.66
418.967	665.12
419.344	644.79
419.721	660.83
420.098	691.56
420.475	661.73
420.852	694.5
421.228	695.18
421.605	676.65
421.982	712.81
422.358	711.68
422.735	746.48
423.111	726.82
423.488	758.91
423.864	762.07
424.241	773.37
424.617	777.21
424.994	783.99
425.37	799.36
425.746	807.72
426.123	791.22
426.499	840.03
426.875	839.58
427.251	863.99
427.627	899.92
428.003	892.46
428.379	882.52
428.756	887.04
429.132	902.86
429.507	899.02
429.883	899.92
430.259	936.3
430.635	946.25
431.011	943.99
431.387	965.91
431.763	972.46
432.138	993.7
432.514	1027.83
432.89	1019.46
433.265	1041.61
433.641	1062.85
434.016	1061.5
434.392	1068.05
434.767	1098.33
435.143	1119.8
435.518	1105.56
435.894	1136.52
436.269	1131.78
436.644	1175.62
437.02	1193.47
437.395	1222.17
437.77	1218.33
438.145	1263.53
438.52	1279.57
438.895	1270.31
439.271	1273.47
439.646	1298.78
440.021	1327.48
440.395	1324.77
440.77	1289.51
441.145	1391.66
441.52	1383.97
441.895	1389.62
442.27	1412
442.645	1414.03
443.019	1449.28
443.394	1401.15
443.769	1462.16
444.143	1432.11
444.518	1475.05
444.892	1477.98
445.267	1485.22
445.641	1507.36
446.016	1496.29
446.39	1502.39
446.764	1544.42
447.139	1547.59
447.513	1550.75
447.887	1554.59
448.262	1563.18
448.636	1564.54
449.01	1572.67
449.384	1597.75
449.758	1622.16
450.132	1644.53
450.506	1637.08
450.88	1661.71
451.254	1697.64
451.628	1696.28
452.002	1696.06
452.376	1679.56
452.75	1722.72
453.123	1767.69
453.497	1764.3
453.871	1778.77
454.244	1800.01
454.618	1826
454.992	1849.95
455.365	1823.06
455.739	1852.66
456.112	1912.1
456.486	1899.89
456.859	1942.38
457.232	1972.43
457.606	1954.58
457.979	1946.9
458.352	2002.72
458.725	2023.05
459.099	2046.33
459.472	2080.68
459.845	2117.06
460.218	2098.53
460.591	2117.97
460.964	2117.29
461.337	2189.15
461.71	2234.35
462.083	2256.72
462.456	2237.51
462.829	2247.91
463.201	2251.97
463.574	2292.88
463.947	2346.66
464.32	2377.62
464.692	2361.58
465.065	2383.95
465.438	2418.75
465.81	2449.26
466.183	2466.88
466.555	2513.44
466.928	2513.66
467.3	2520.67
467.672	2566.99
468.045	2621.91
468.417	2648.8
468.789	2614.9
469.161	2685.41
469.534	2694.9
469.906	2768.12
470.278	2794.79
470.65	2815.35
471.022	2863.71
471.394	2917.72
471.766	2957.04
472.138	2970.15
472.51	3026.42
472.882	2994.78
473.253	3081.78
473.625	3143.02
473.997	3160.2
474.369	3204.27
474.74	3238.62
475.112	3262.12
475.484	3293.08
475.855	3338.95
476.227	3373.3
476.598	3482.22
476.97	3478.84
477.341	3530.13
477.713	3601.77
478.084	3632.96
478.455	3686.74
478.827	3708.21
479.198	3819.84
479.569	3839.05
479.94	3938.71
480.311	3950.91
480.682	3966.73
481.053	4095.09
481.424	4157.69
481.795	4158.59
482.166	4215.54
482.537	4263.45
482.908	4370.34
483.279	4382.99
483.65	4451.69
484.021	4532.37
484.391	4550.45
484.762	4583.21
485.133	4656.88
485.503	4639.48
485.874	4793.38
486.244	4797.22
486.615	4923.09
486.985	4932.13
487.356	5023.88
487.726	5060.26
488.097	5123.54
488.467	5188.62
488.837	5201.95
489.207	5266.81
489.578	5308.62
489.948	5336.19
490.318	5434.26
490.688	5416.41
491.058	5505.22
491.428	5554.49
491.798	5589.29
492.168	5700.92
492.538	5736.18
492.908	5789.73
493.278	5886.23
493.648	5824.54
494.017	5892.78
494.387	5909.28
494.757	6001.93
495.126	6036.96
495.496	6052.55
495.866	6039.45
496.235	6146.56
496.605	6152.44
496.974	6174.13
497.344	6268.37
497.713	6297.97
498.082	6299.1
498.452	6377.06
498.821	6387.91
499.19	6361.47
499.559	6445.99
499.928	6437.63
500.298	6460.45
500.667	6552.65
501.036	6541.58
501.405	6586.55
501.774	6513.56
502.143	6628.58
502.512	6679.2
502.88	6676.27
503.249	6702.71
503.618	6686.43
503.987	6705.87
504.356	6834
504.724	6842.81
505.093	6827.45
505.462	6883.72
505.83	6890.27
506.199	6885.98
506.567	7019.76
506.936	6939.08
507.304	6994.22
507.672	7021.57
508.041	7117.61
508.409	7096.37
508.777	7076.48
509.145	7109.93
509.514	7143.82
509.882	7135.01
510.25	7156.7
510.618	7247.32
510.986	7218.85
511.354	7226.99
511.722	7270.83
512.09	7347.43
512.458	7329.36
512.826	7369.81
513.193	7334.55
513.561	7347.21
513.929	7446.64
514.297	7389.47
514.664	7470.59
515.032	7442.57
515.4	7492.97
515.767	7494.55
516.135	7537.03
516.502	7496.36
516.869	7564.38
517.237	7545.62
517.604	7486.87
517.972	7580.65
518.339	7607.31
518.706	7642.34
519.073	7612.74
519.44	7591.5
519.808	7656.8
520.175	7659.29
520.542	7677.82
520.909	7739.06
521.276	7734.32
521.643	7772.73
522.009	7772.06
522.376	7772.73
522.743	7813.18
523.11	7825.39
523.477	7919.4
523.843	7890.47
524.21	7956.46
524.577	7956.23
524.943	8009.11
525.31	8033.74
525.676	8043.69
526.043	8063.57
526.409	8074.65
526.776	8090.24
527.142	8038.72
527.508	8134.98
527.874	8134.08
528.241	8239.39
528.607	8120.07
528.973	8173.85
529.339	8123.68
529.705	8221.76
530.071	8233.06
530.437	8269.67
530.803	8250.46
531.169	8242.55
531.535	8179.5
531.901	8235.77
532.267	8283.68
532.632	8226.05
532.998	8298.82
533.364	8282.78
533.73	8273.06
534.095	8319.61
534.461	8259.95
534.826	8308.54
535.192	8256.56
535.557	8316
535.923	8329.33
536.288	8271.03
536.653	8317.13
537.019	8289.1
537.384	8271.03
537.749	8341.53
538.114	8290.91
538.479	8253.85
538.845	8299.73
539.21	8205.49
539.575	8231.93
539.94	8274.87
540.305	8294.98
540.67	8175.21
541.034	8260.86
541.399	8312.61
541.764	8236.22
542.129	8289.1
542.494	8258.14
542.858	8292.49
543.223	8253.17
543.587	8235.77
543.952	8238.03
544.316	8241.65
544.681	8176.34
545.045	8246.17
545.41	8216.34
545.774	8211.37
546.138	8224.92
546.503	8235.77
546.867	8119.39
547.231	8216.79
547.595	8131.59
547.959	8178.82
548.324	8157.58
548.688	8160.52
549.052	8168.88
549.416	8144.48
549.779	8143.12
550.143	8153.29
550.507	8188.09
550.871	8160.52
551.235	8073.74
551.599	8107.19
551.962	8158.26
552.326	8091.82
552.689	8128.43
553.053	8150.35
553.417	8131.82
553.78	8175.89
554.143	8092.05
554.507	8094.31
554.87	8115.78
555.234	8113.29
555.597	8094.98
555.96	8130.69
556.323	8125.49
556.686	8128.2
557.05	8125.04
557.413	8107.87
557.776	8116.23
558.139	8164.59
558.502	8115.78
558.865	8096.34
559.228	8210.91
559.59	8206.85
559.953	8170.24
560.316	8225.83
560.679	8179.73
561.041	8239.61
561.404	8231.03
561.767	8310.8
562.129	8282.32
562.492	8333.4
562.854	8285.04
563.217	8287.75
563.579	8348.09
563.941	8382.66
564.304	8413.85
564.666	8413.17
565.028	8453.85
565.39	8405.71
565.753	8430.34
566.115	8491.81
566.477	8490.91
566.839	8496.56
567.201	8552.83
567.563	8538.36
567.925	8593.05
568.287	8536.78
568.648	8604.12
569.01	8649.09
569.372	8607.06
569.734	8632.15
570.095	8680.28
570.457	8703.33
570.819	8665.14
571.18	8737.91
571.542	8768.41
571.903	8782.65
572.265	8753.27
572.626	8813.38
572.987	8822.2
573.349	8906.04
573.71	8839.6
574.071	8892.93
574.432	8905.81
574.794	8902.2
575.155	8928.18
575.516	8918.69
575.877	8989.88
576.238	8966.37
576.599	9004.34
576.96	9034.85
577.32	9065.81
577.681	9113.94
578.042	9047.95
578.403	9055.64
578.763	9121.17
579.124	9127.73
579.485	9164.11
579.845	9168.18
580.206	9220.15
580.566	9174.73
580.927	9164.34
581.287	9254.5
581.648	9194.39
582.008	9332.01
582.368	9306.25
582.728	9382.63
583.089	9315.52
583.449	9366.82
583.809	9296.08
584.169	9328.85
584.529	9377.21
584.889	9504.67
585.249	9416.76
585.609	9399.81
585.969	9453.82
586.329	9386.25
586.688	9525.68
587.048	9426.48
587.408	9437.1
587.768	9488.62
588.127	9466.7
588.487	9430.54
588.846	9565.23
589.206	9547.38
589.565	9496.08
589.925	9635.06
590.284	9505.57
590.643	9556.64
591.003	9617.66
591.362	9628.73
591.721	9597.32
592.08	9661.5
592.44	9706.47
592.799	9677.32
593.158	9669.18
593.517	9718.22
593.876	9696.3
594.235	9647.03
594.593	9738.33
594.952	9718.45
595.311	9700.82
595.67	9753.47
596.029	9795.05
596.387	9760.03
596.746	9778.1
597.104	9760.93
597.463	9772
597.822	9878.44
598.18	9783.98
598.538	9767.94
598.897	9832.79
599.255	9753.25
599.613	9820.36
599.972	9863.3
600.33	9890.87
600.688	9788.73
601.046	9871.44
601.404	9888.16
601.762	9868.27
602.12	9851.55
602.478	9916.86
602.836	9927.48
603.194	9843.41
603.552	9852.68
603.91	9861.27
604.268	9968.16
604.625	9884.32
604.983	9936.29
605.341	9921.83
605.698	9946.46
606.056	9983.07
606.413	9954.15
606.771	9932
607.128	10007.03
607.485	9880.47
607.843	9990.08
608.2	10033.92
608.557	10057.19
608.914	9997.08
609.272	10027.36
609.629	10014.71
609.986	10083.86
610.343	9979.23
610.7	10064.42
611.057	9979.91
611.414	10028.27
611.771	10123.86
612.127	10131.32
612.484	10113.69
612.841	10129.06
613.198	10083.63
613.554	10102.16
613.911	10081.83
614.267	10164.08
614.624	10126.8
614.98	10079.79
615.337	10194.59
615.693	10183.97
616.05	10202.05
616.406	10184.2
616.762	10145.55
617.118	10192.56
617.475	10194.14
617.831	10253.8
618.187	10196.62
618.543	10188.72
618.899	10261.03
619.255	10217.41
619.611	10169.51
619.967	10213.12
620.323	10282.72
620.678	10215.61
621.034	10264.42
621.39	10279.79
621.746	10255.83
622.101	10297.64
622.457	10268.04
622.812	10263.06
623.168	10309.16
623.523	10368.82
623.879	10391.87
624.234	10242.95
624.589	10277.75
624.945	10258.77
625.3	10261.03
625.655	10369.73
626.01	10306.68
626.365	10306.68
626.72	10349.16
627.075	10244.31
627.43	10313.23
627.785	10226.68
628.14	10203.86
628.495	10278.66
628.85	10226
629.205	10193.01
629.559	10223.97
629.914	10194.36
630.269	10192.78
630.623	10159.79
630.978	10150.52
631.332	10200.01
631.687	10267.81
632.041	10133.8
632.396	10210.18
632.75	10095.38
633.104	10110.07
633.459	10085.44
633.813	10142.61
634.167	10143.52
634.521	10077.76
634.875	10134.93
635.229	10067.81
635.583	9948.27
635.937	10030.75
636.291	9996.4
636.645	9978.33
636.999	9945.11
637.352	9935.61
637.706	9940.59
638.06	9998.21
638.413	9983.97
638.767	9907.59
639.121	9946.91
639.474	9867.82
639.828	9863.3
640.181	9870.76
640.534	9960.25
640.888	9906.01
641.241	9808.16
641.594	9837.76
641.947	9881.83
642.301	9802.28
642.654	9871.89
643.007	9766.81
643.36	9786.24
643.713	9827.37
644.066	9820.82
644.419	9751.89
644.771	9708.5
645.124	9655.17
645.477	9617.66
645.83	9558.45
646.182	9551.9
646.535	9502.18
646.888	9513.25
647.24	9394.61
647.593	9480.94
647.945	9468.51
648.298	9436.87
648.65	9449.53
649.002	9494.27
649.355	9419.47
649.707	9426.48
650.059	9537.43
650.411	9602.29
650.763	9582.4
651.115	9685.9
651.467	9683.19
651.819	9729.74
652.171	9659.92
652.523	9623.31
652.875	9595.96
653.227	9564.1
653.578	9716.86
653.93	9602.29
654.282	9608.62
654.633	9584.44
654.985	9669.41
655.337	9603.87
655.688	9609.75
656.039	9568.84
656.391	9575.62
656.742	9597.09
657.094	9651.1
657.445	9650.42
657.796	9546.25
658.147	9572.91
658.498	9594.38
658.849	9665.57
659.2	9565.91
659.551	9587.15
659.902	9628.05
660.253	9657.88
660.604	9585.79
660.955	9557.32
661.306	9720.93
661.656	9587.15
662.007	9609.52
662.358	9626.02
662.708	9623.08
663.059	9622.18
663.409	9573.14
663.76	9728.39
664.11	9624.89
664.461	9707.37
664.811	9711.44
665.161	9687.26
665.511	9600.93
665.862	9649.07
666.212	9668.95
666.562	9683.42
666.912	9611.33
667.262	9627.37
667.612	9648.16
667.962	9700.37
668.312	9650.88
668.662	9615.85
669.011	9636.19
669.361	9577.66
669.711	9556.19
670.06	9518
670.41	9644.77
670.76	9566.36
671.109	9633.25
671.459	9515.74
671.808	9537.43
672.157	9636.87
672.507	9510.09
672.856	9501.28
673.205	9547.15
673.554	9576.3
673.904	9519.58
674.253	9567.49
674.602	9488.39
674.951	9428.96
675.3	9354.84
675.649	9405.91
675.998	9542.86
676.346	9480.71
676.695	9461.5
677.044	9413.14
677.393	9478.68
677.741	9447.27
678.09	9448.62
678.438	9389.87
678.787	9362.52
679.135	9365.01
679.484	9303.77
679.832	9364.78
680.181	9262.86
680.529	9327.72
680.877	9255.18
681.225	9241.17
681.573	9312.58
681.922	9272.58
682.27	9199.59
682.618	9242.07
682.966	9195.07
683.314	9209.53
683.661	9201.17
684.009	9118.69
684.357	9098.57
684.705	9146.93
685.053	9137.22
685.4	9147.61
685.748	9026.49
686.095	9089.76
686.443	8988.97
686.79	9023.55
687.138	9008.41
687.485	9002.31
687.832	8901.97
688.18	9000.05
688.527	8873.27
688.874	8874.85
689.221	8867.85
689.568	8800.5
689.915	8786.27
690.262	8804.34
690.609	8748.98
690.956	8807.96
691.303	8752.59
691.65	8657.46
691.997	8733.16
692.344	8595.99
692.69	8620.39
693.037	8605.71
693.383	8499.95
693.73	8591.47
694.077	8527.29
694.423	8431.7
694.769	8493.84
695.116	8423.11
695.462	8452.26
695.808	8367.07
696.155	8386.5
696.501	8252.49
696.847	8305.15
697.193	8281.42
697.539	8243
697.885	8225.15
698.231	8270.57
698.577	8143.12
698.923	8122.55
699.269	8117.58
699.614	8089.56
699.96	8074.65
700.306	8058.15
700.651	8056.79
700.997	8013.18
701.342	7900.41
701.688	7914.2
702.033	7905.39
702.379	7859.74
702.724	7837.82
703.069	7839.17
703.415	7710.36
703.76	7799.17
704.105	7729.57
704.45	7734.99
704.795	7677.82
705.14	7666.3
705.485	7736.8
705.83	7646.86
706.175	7652.74
706.52	7590.37
706.865	7559.86
707.209	7596.47
707.554	7481.89
707.899	7544.49
708.243	7471.27
708.588	7460.2
708.932	7336.36
709.277	7406.19
709.621	7411.61
709.966	7355.34
710.31	7370.71
710.654	7299.98
710.998	7268.79
711.342	7267.44
711.687	7267.44
712.031	7238.96
712.375	7194.22
712.719	7196.7
713.063	7178.62
713.407	7156.25
713.75	7171.85
714.094	7139.76
714.438	7157.16
714.782	7201
715.125	7110.38
715.469	7136.14
715.812	7067.89
716.156	7020.89
716.499	7076.25
716.843	7071.51
717.186	6991.74
717.53	7031.28
717.873	7021.11
718.216	6988.8
718.559	6978.18
718.902	6925.75
719.246	7007.78
719.589	6949.03
719.932	6909.25
720.275	6873.32
720.617	6905.41
720.96	6871.29
721.303	6893.43
721.646	6888.01
721.989	6810.27
722.331	6791.06
722.674	6815.24
723.016	6838.52
723.359	6852.53
723.701	6821.57
724.044	6825.41
724.386	6789.03
724.729	6859.31
725.071	6830.39
725.413	6828.13
725.755	6801.46
726.097	6754.46
726.439	6736.6
726.782	6718.98
727.124	6790.16
727.465	6720.56
727.807	6753.1
728.149	6740.44
728.491	6737.51
728.833	6706.55
729.175	6744.96
729.516	6705.87
729.858	6688.02
730.199	6748.81
730.541	6721.46
730.882	6696.38
731.224	6682.37
731.565	6668.36
731.906	6758.52
732.248	6673.55
732.589	6728.92
732.93	6657.73
733.271	6659.32
733.612	6731.63
733.953	6721.46
734.294	6644.63
734.635	6646.66
734.976	6706.55
735.317	6750.84
735.658	6663.38
735.999	6673.1
736.339	6668.81
736.68	6663.84
737.021	6684.63
737.361	6625.87
737.702	6753.55
738.042	6646.89
738.383	6684.4
738.723	6723.5
739.063	6727.34
739.404	6711.52
739.744	6692.08
740.084	6742.93
740.424	6771.86
740.764	6711.52
741.104	6761.91
741.444	6718.52
741.784	6761.23
742.124	6785.41
742.464	6785.41
742.804	6713.1
743.143	6793.1
743.483	6818.41
743.823	6830.39
744.162	6815.24
744.502	6829.48
744.841	6825.19
745.181	6895.47
745.52	6865.64
745.86	6915.81
746.199	6991.29
746.538	6978.86
746.877	7036.71
747.216	6981.34
747.556	7012.08
747.895	7144.5
748.234	7086.88
748.573	7195.8
748.911	7195.35
749.25	7223.82
749.589	7256.36
749.928	7343.59
750.267	7403.03
750.605	7437.6
750.944	7499.97
751.283	7536.36
751.621	7661.78
751.96	7671.95
752.298	7753.3
752.636	7803.47
752.975	7826.74
753.313	7935.44
753.651	8055.44
753.989	8115.78
754.327	8151.93
754.666	8234.87
755.004	8283.45
755.342	8432.15
755.679	8487.74
756.017	8552.83
756.355	8689.77
756.693	8737.91
757.031	8890.22
757.368	8987.39
757.706	9092.02
758.044	9158.69
758.381	9347.61
758.719	9418.57
759.056	9570.88
759.394	9696.3
759.731	9733.13
760.068	9912.79
760.405	9922.28
760.743	10097.42
761.08	10203.4
761.417	10328.6
761.754	10425.09
762.091	10526.33
762.428	10681.36
762.765	10785.31
763.102	10904.85
763.438	11013.1
763.775	11187.11
764.112	11293.54
764.449	11433.2
764.785	11532.18
765.122	11553.88
765.458	11655.34
765.795	11810.37
766.131	11909.12
766.467	11978.05
766.804	12083.58
767.14	12271.37
767.476	12310.47
767.812	12362.67
768.148	12549.78
768.485	12544.36
768.821	12559.27
769.157	12778.93
769.492	12865.03
769.828	12928.3
770.164	12957.46
770.5	13074.29
770.836	13231.35
771.171	13223.21
771.507	13271.12
771.842	13362.19
772.178	13426.82
772.513	13474.5
772.849	13527.61
773.184	13519.02
773.519	13645.35
773.855	13709.07
774.19	13720.6
774.525	13681.73
774.86	13796.98
775.195	13813.7
775.53	13865
775.865	13916.75
776.2	13960.82
776.535	13884.44
776.87	13982.74
777.205	14034.26
777.539	13893.02
777.874	14010.54
778.209	14010.76
778.543	13998.33
778.878	14028.84
779.212	14115.62
779.547	14117.88
779.881	14170.98
780.215	14072.91
780.55	14261.83
780.884	14041.72
781.218	14079.91
781.552	14243.75
781.886	14149.51
782.22	14063.64
782.554	14089.63
782.888	13960.14
783.222	13989.29
783.556	14028.39
783.889	14029.52
784.223	13934.61
784.557	13929.86
784.89	14007.37
785.224	13880.6
785.557	13967.15
785.891	13926.02
786.224	13917.2
786.558	13933.7
786.891	13827.72
787.224	13749.98
787.557	13864.32
787.891	13818.22
788.224	13852.8
788.557	13774.38
788.89	13825.68
789.223	13848.05
789.556	13748.85
789.888	13757.43
790.221	13672.47
790.554	13608.96
790.887	13701.17
791.219	13602.18
791.552	13665.23
791.884	13578
792.217	13561.28
792.549	13493.71
792.882	13411.91
793.214	13382.3
793.546	13503.88
793.879	13358.35
794.211	13374.39
794.543	13407.16
794.875	13287.16
795.207	13334.4
795.539	13252.82
795.871	13288.75
796.203	13237
796.535	13117.23
796.867	13101.41
797.198	12978.25
797.53	13095.53
797.862	13035.42
798.193	13085.59
798.525	12926.5
798.856	13020.05
799.188	12776.9
799.519	12891.69
799.85	12790.45
800.182	12786.84
800.513	12810.12
800.844	12774.64
801.175	12733.51
801.506	12723.11
801.837	12636.56
802.168	12590.23
802.499	12617.8
802.83	12608.76
803.161	12459.16
803.491	12556.34
803.822	12594.53
804.153	12507.52
804.483	12410.35
804.814	12441.31
805.145	12392.5
805.475	12379.62
805.805	12314.31
806.136	12244.71
806.466	12279.51
806.796	12313.41
807.126	12153.41
807.457	12162
807.787	12229.11
808.117	12120.42
808.447	12085.16
808.777	12155.9
809.107	12074.54
809.436	11974.43
809.766	12079.29
810.096	12033.41
810.426	11967.65
810.755	11959.52
811.085	11981.89
811.414	11847.88
811.744	11878.16
812.073	11785.51
812.403	11786.64
812.732	11732.63
813.061	11783.25
813.39	11743.48
813.719	11625.29
814.049	11713.65
814.378	11654.44
814.707	11643.59
815.036	11657.38
815.365	11586.64
815.693	11437.04
816.022	11527.44
816.351	11497.38
816.68	11379.19
817.008	11499.64
817.337	11366.99
817.665	11341.23
817.994	11354.33
818.322	11371.96
818.651	11337.61
818.979	11318.63
819.307	11377.61
819.636	11346.88
819.964	11209.25
820.292	11212.87
820.62	11236.15
820.948	11217.61
821.276	11248.57
821.604	11183.94
821.932	11204.51
822.259	11230.27
822.587	11199.76
822.915	11148.24
823.243	11221.68
823.57	11119.54
823.898	11197.5
824.225	11145.75
824.553	11201.34
824.88	11227.78
825.207	11239.31
825.535	11184.85
825.862	11239.08
826.189	11138.29
826.516	11223.94
826.843	11201.34
827.17	11315.92
827.497	11293.09
827.824	11218.74
828.151	11270.04
828.478	11239.99
828.805	11249.7
829.131	11244.05
829.458	11171.06
829.785	11150.95
830.111	11166.54
830.438	11178.52
830.764	11217.61
831.09	11249.03
831.417	11121.12
831.743	11258.07
832.069	11177.62
832.395	11128.8
832.722	11237.95
833.048	11111.63
833.374	11209.48
833.7	11106.43
834.026	11132.19
834.351	11224.17
834.677	11142.81
835.003	11083.38
835.329	11195.02
835.654	11123.15
835.98	11072.53
836.306	11156.6
836.631	11058.52
836.956	11085.64
837.282	11103.72
837.607	11061.69
837.932	11035.02
838.258	10977.62
838.583	10980.56
838.908	10962.71
839.233	10909.15
839.558	10910.96
839.883	10898.08
840.208	10823.27
840.533	10823.05
840.858	10780.34
841.182	10865.08
841.507	10877.28
841.832	10712.32
842.156	10797.51
842.481	10726.33
842.805	10706.89
843.13	10714.8
843.454	10679.55
843.778	10588.7
844.103	10588.7
844.427	10604.98
844.751	10651.08
845.075	10539.89
845.399	10545.77
845.723	10466.45
846.047	10452.21
846.371	10377.86
846.695	10394.81
847.019	10341.48
847.343	10286.34
847.666	10235.95
847.99	10200.24
848.313	10232.78
848.637	10155.72
848.96	10118.43
849.284	10027.14
849.607	10040.02
849.931	10007.03
850.254	9977.65
850.577	9883.41
850.9	9876.18
851.223	9791.89
851.546	9801.83
851.869	9691.55
852.192	9712.8
852.515	9674.38
852.838	9627.6
853.161	9664.44
853.483	9598.22
853.806	9462.18
854.129	9524.33
854.451	9506.02
854.774	9379.47
855.096	9398.91
855.419	9424.22
855.741	9357.32
856.063	9291.11
856.385	9263.09
856.708	9284.33
857.03	9220.83
857.352	9214.05
857.674	9198.68
857.996	9148.52
858.318	9108.07
858.64	9087.05
858.961	9113.72
859.283	9030.33
859.605	9004.57
859.926	9052.25
860.248	9054.73
860.57	8992.59
860.891	8979.26
861.212	8921.86
861.534	8947.17
861.855	8894.29
862.176	8896.77
862.498	8887.51
862.819	8879.37
863.14	8908.52
863.461	8785.14
863.782	8780.16
864.103	8824.46
864.424	8753.5
864.745	8782.42
865.065	8739.26
865.386	8724.12
865.707	8712.6
866.027	8697.68
866.348	8697.68
866.668	8714.63
866.989	8586.5
867.309	8591.47
867.63	8583.11
867.95	8635.08
868.27	8555.31
868.59	8593.5
868.91	8546.27
869.23	8549.66
869.55	8524.13
869.87	8544.46
870.19	8505.14
870.51	8489.55
870.83	8486.84
871.15	8470.79
871.469	8422.43
871.789	8422.89
872.109	8436.22
872.428	8407.97
872.748	8375.66
873.067	8327.52
873.386	8414.98
873.706	8381.98
874.025	8302.21
874.344	8317.13
874.663	8318.03
874.982	8263.57
875.301	8280.06
875.62	8267.86
875.939	8255.88
876.258	8274.42
876.577	8264.02
876.896	8267.86
877.214	8199.39
877.533	8219.73
877.852	8234.64
878.17	8235.77
878.489	8227.41
878.807	8139.28
879.125	8087.75
879.444	8150.8
879.762	8082.33
880.08	8109
880.398	8088.66
880.716	8072.16
881.034	8087.08
881.352	8089.56
881.67	7983.35
881.988	8010.47
882.306	8014.76
882.624	7942.45
882.941	7940.64
883.259	7948.1
883.577	7909.68
883.894	7875.78
884.212	7859.74
884.529	7860.64
884.846	7779.51
885.164	7855.9
885.481	7802.79
885.798	7833.97
886.115	7767.31
886.432	7749.68
886.75	7723.7
887.067	7781.09
887.383	7652.96
887.7	7674.66
888.017	7618.61
888.334	7663.13
888.651	7679.18
888.967	7546.75
889.284	7532.29
889.6	7609.12
889.917	7494.32
890.233	7520.08
890.55	7454.1
890.866	7447.32
891.182	7450.48
891.498	7396.25
891.815	7377.04
892.131	7390.82
892.447	7343.14
892.763	7264.27
893.079	7325.97
893.395	7231.28
893.71	7233.31
894.026	7232.63
894.342	7197.61
894.657	7156.7
894.973	7214.1
895.289	7112.86
895.604	7137.04
895.92	7072.86
896.235	7073.09
896.55	7073.32
896.865	7080.1
897.181	6962.59
897.496	6986.99
897.811	6989.25
898.126	6995.13
898.441	6869.48
898.756	6905.41
899.071	6840.1
899.386	6834.45
899.7	6785.19
900.015	6818.63
900.33	6746.77
900.644	6694.8
900.959	6702.48
901.273	6672.2
901.588	6686.66
901.902	6711.74
902.216	6664.97
902.531	6580.45
902.845	6532.09
903.159	6574.35
903.473	6538.64
903.787	6473.11
904.101	6471.98
904.415	6457.74
904.729	6428.36
905.042	6380.91
905.356	6380.91
905.67	6409.15
905.984	6392.66
906.297	6334.58
906.611	6284.19
906.924	6272.66
907.237	6270.17
907.551	6238.54
907.864	6210.51
908.177	6244.41
908.491	6177.97
908.804	6165.09
909.117	6123.29
909.43	6112.44
909.743	6042.61
910.056	6056.62
910.368	6034.47
910.681	6010.52
910.994	5974.36
911.307	5967.36
911.619	5875.61
911.932	5896.17
912.244	5892.78
912.557	5886.23
912.869	5814.59
913.181	5817.08
913.494	5831.09
913.806	5749.28
914.118	5756.97
914.43	5717.42
914.742	5727.14
915.054	5647.82
915.366	5620.25
915.678	5625.45
915.99	5628.84
916.302	5542.06
916.613	5497.77
916.925	5481.27
917.236	5504.77
917.548	5481.04
917.859	5434.49
918.171	5403.98
918.482	5418.45
918.794	5398.33
919.105	5368.95
919.416	5365.57
919.727	5351.55
920.038	5296.87
920.349	5250.54
920.66	5252.57
920.971	5229.75
921.282	5220.94
921.593	5193.14
921.903	5217.77
922.214	5170.09
922.525	5090.54
922.835	5132.12
923.146	5086.48
923.456	5124.67
923.767	5034.73
924.077	5032.01
924.387	5046.7
924.697	4990.43
925.008	5014.16
925.318	4969.64
925.628	4918.35
925.938	4920.83
926.248	4915.18
926.558	4872.02
926.867	4812.81
927.177	4790.66
927.487	4849.65
927.796	4809.65
928.106	4792.47
928.416	4767.16
928.725	4765.81
929.034	4700.72
929.344	4721.29
929.653	4738.24
929.962	4683.32
930.271	4560.16
930.581	4610.78
930.89	4629.77
931.199	4599.48
931.508	4584.79
931.817	4580.95
932.125	4549.32
932.434	4578.24
932.743	4515.87
933.051	4496.44
933.36	4442.65
933.669	4444.23
933.977	4419.6
934.286	4425.93
934.594	4404.01
934.902	4421.18
935.21	4404.69
935.519	4391.81
935.827	4331.69
936.135	4315.2
936.443	4261.19
936.751	4263.67
937.059	4250.11
937.367	4206.95
937.674	4242.43
937.982	4170.79
938.29	4166.5
938.597	4153.17
938.905	4140.06
939.213	4149.78
939.52	4077.24
939.827	4119.27
940.135	4110.68
940.442	4039.95
940.749	4078.59
941.056	4019.39
941.363	3971.48
941.67	3979.84
941.977	3954.75
942.284	3943.46
942.591	3963.79
942.898	3912.72
943.205	3924.93
943.511	3883.12
943.818	3896.45
944.125	3815.1
944.431	3829.56
944.738	3840.63
945.044	3815.32
945.35	3752.5
945.657	3766.74
945.963	3787.08
946.269	3742.33
946.575	3759.05
946.881	3732.61
947.187	3736.23
947.493	3654.65
947.799	3668.21
948.105	3627.31
948.41	3652.62
948.716	3653.29
949.022	3604.93
949.327	3616.01
949.633	3562
949.938	3540.75
950.244	3552.28
950.549	3515.44
950.854	3552.51
951.16	3510.25
951.465	3484.03
951.77	3479.51
952.075	3484.03
952.38	3454.2
952.685	3431.15
952.99	3433.41
953.294	3399.29
953.599	3361.1
953.904	3372.4
954.209	3325.62
954.513	3372.4
954.818	3364.04
955.122	3326.75
955.426	3272.29
955.731	3336.24
956.035	3270.03
956.339	3242.46
956.643	3272.29
956.948	3212.63
957.252	3214.89
957.556	3214.89
957.86	3162.91
958.163	3202.46
958.467	3155
958.771	3148.9
959.075	3188.67
959.378	3127.66
959.682	3135.79
959.985	3141.89
960.289	3089.69
960.592	3139.86
960.896	3054.89
961.199	3052.18
961.502	3032.07
961.805	3027.55
962.108	3042.46
962.411	3000.88
962.714	2994.55
963.017	2994.33
963.32	2943.48
963.623	2956.36
963.926	2952.75
964.228	2932.41
964.531	2942.8
964.833	2894.22
965.136	2896.48
965.438	2865.97
965.741	2849.02
966.043	2885.63
966.345	2866.42
966.648	2853.54
966.95	2835.24
967.252	2815.8
967.554	2777.16
967.856	2799.08
968.158	2797.95
968.46	2727.44
968.761	2747.78
969.063	2720.89
969.365	2737.61
969.666	2679.53
969.968	2694.67
970.269	2702.58
970.571	2647.67
970.872	2698.06
971.174	2649.03
971.475	2654.68
971.776	2622.13
972.077	2589.82
972.378	2616.94
972.679	2602.93
972.98	2636.37
973.281	2568.58
973.582	2539.88
973.883	2563.6
974.183	2533.78
974.484	2558.18
974.785	2497.39
975.085	2519.76
975.386	2497.84
975.686	2526.77
975.986	2504.17
976.287	2456.94
976.587	2475.47
976.887	2508.24
977.187	2455.81
977.487	2396.6
977.787	2411.97
978.087	2388.47
978.387	2408.13
978.687	2422.59
978.987	2378.07
979.286	2375.36
979.586	2348.92
979.885	2327.68
980.185	2360.45
980.484	2351.63
980.784	2328.13
981.083	2336.94
981.382	2284.97
981.682	2313.67
981.981	2290.84
982.28	2260.79
982.579	2269.15
982.878	2253.33
983.177	2266.89
983.475	2268.92
983.774	2229.38
984.073	2231.18
984.372	2187.12
984.67	2173.56
984.969	2169.72
985.267	2198.64
985.566	2185.76
985.864	2128.14
986.162	2165.88
986.461	2136.72
986.759	2118.87
987.057	2122.03
987.355	2092.66
987.653	2081.81
987.951	2115.03
988.249	2065.09
988.547	2063.73
988.844	2056.73
989.142	2064.86
989.44	2027.57
989.737	2040
990.035	2010.63
990.332	2037.97
990.63	2000.91
990.927	1976.5
991.224	2002.04
991.521	1966.11
991.819	1981.25
992.116	1975.15
992.413	1957.07
992.71	1969.95
993.006	1928.37
993.303	1941.93
993.6	1929.95
993.897	1922.49
994.193	1928.14
994.49	1932.89
994.787	1869.39
995.083	1845.88
995.379	1851.76
995.676	1842.49
995.972	1873.45
996.268	1841.82
996.565	1816.05
996.861	1809.27
997.157	1814.92
997.453	1800.01
997.749	1782.83
998.044	1771.31
998.34	1754.81
998.636	1777.86
998.932	1801.14
999.227	1740.12
999.523	1740.8
999.818	1716.4
1000.114	1706.9
1000.409	1708.49
1000.704	1698.32
1001	1705.55
1001.295	1731.31
1001.59	1692.22
1001.885	1675.72
1002.18	1687.02
1002.475	1660.58
1002.77	1666
1003.065	1634.59
1003.359	1628.49
1003.654	1638.66
1003.949	1600.24
1004.243	1614.7
1004.538	1577.19
1004.832	1576.96
1005.127	1586.46
1005.421	1551.2
1005.715	1559.11
1006.009	1558.43
1006.304	1557.3
1006.598	1550.07
1006.892	1531.99
1007.186	1498.77
1007.48	1503.29
1007.773	1475.5
1008.067	1530.19
1008.361	1464.42
1008.655	1480.24
1008.948	1486.57
1009.242	1445.67
1009.535	1444.99
1009.829	1454.93
1010.122	1467.36
1010.415	1433.69
1010.708	1398.21
1011.001	1414.26
1011.295	1408.16
1011.588	1392.79
1011.881	1400.02
1012.173	1373.81
1012.466	1367.25
1012.759	1355.73
1013.052	1374.48
1013.344	1366.57
1013.637	1335.39
1013.93	1337.65
1014.222	1318.89
1014.514	1342.17
1014.807	1320.7
1015.099	1287.93
1015.391	1292.45
1015.683	1297.42
1015.976	1287.25
1016.268	1260.14
1016.56	1294.94
1016.851	1281.83
1017.143	1256.29
1017.435	1244.09
1017.727	1249.97
1018.018	1227.14
1018.31	1243.64
1018.602	1232.11
1018.893	1201.15
1019.185	1219.91
1019.476	1218.78
1019.767	1192.12
1020.058	1193.7
1020.35	1193.02
1020.641	1150.99
1020.932	1171.55
1021.223	1144.66
1021.514	1143.76
1021.804	1150.31
1022.095	1139.24
1022.386	1136.52
1022.677	1096.75
1022.967	1101.27
1023.258	1088.84
1023.548	1089.07
1023.839	1090.42
1024.129	1088.62
1024.419	1075.51
1024.709	1070.76
1025	1073.7
1025.29	1083.64
1025.58	1041.61
1025.87	1053.81
1026.16	1035.51
1026.449	1048.16
1026.739	1024.21
1027.029	1016.07
1027.319	1034.15
1027.608	1003.87
1027.898	1024.66
1028.187	994.38
1028.477	994.38
1028.766	974.49
1029.055	973.82
1029.344	973.14
1029.634	965.23
1029.923	992.57
1030.212	967.71
1030.501	991.89
1030.79	944.66
1031.078	937.66
1031.367	936.08
1031.656	944.66
1031.945	911.44
1032.233	916.64
1032.522	918.22
1032.81	926.36
1033.099	871.22
1033.387	918.9
1033.675	893.14
1033.963	911.22
1034.251	886.81
1034.54	885
1034.828	859.69
1035.116	875.51
1035.403	866.7
1035.691	858.79
1035.979	847.72
1036.267	872.58
1036.554	827.15
1036.842	833.48
1037.129	852.01
1037.417	840.94
1037.704	826.48
1037.992	807.72
1038.279	822.63
1038.566	842.07
1038.853	842.07
1039.14	842.07
