Data from hue_350_FLMS001491_49.txt Node
Date: Mon Feb 06 15:38:05 GMT 2017
User: dcchb
Spectrometer: FLMS00149
Trigger mode: 0
Integration Time (sec): 2.000000E-2
Scans to average: 10
Electric dark correction enabled: true
Nonlinearity correction enabled: false
Boxcar width: 0
XAxis mode: Wavelengths
Number of Pixels in Spectrum: 2048
>>>>>Begin Spectral Data<<<<<
341.393	-0.95
341.776	-0.95
342.16	-0.95
342.543	-36.65
342.927	-68.74
343.31	-74.39
343.693	-72.58
344.077	-71.9
344.46	-38.69
344.843	-50.21
345.226	-25.35
345.61	-31.45
345.993	-22.41
346.376	-16.09
346.759	1.77
347.142	13.29
347.525	42.89
347.908	51.03
348.291	82.44
348.674	96.9
349.057	114.76
349.44	124.25
349.823	149.78
350.206	168.09
350.588	213.29
350.971	225.26
351.354	218.71
351.737	237.01
352.119	250.8
352.502	270.91
352.884	263.23
353.267	287.86
353.65	306.62
354.032	299.38
354.414	301.87
354.797	320.85
355.179	332.15
355.562	327.86
355.944	324.02
356.326	331.93
356.709	326.5
357.091	371.02
357.473	353.62
357.855	339.84
358.238	332.38
358.62	359.95
359.002	338.71
359.384	345.03
359.766	332.83
360.148	347.97
360.53	338.48
360.912	327.63
361.294	328.31
361.676	327.86
362.057	348.2
362.439	336.9
362.821	320.63
363.203	328.54
363.584	323.11
363.966	325.37
364.348	342.77
364.729	313.17
365.111	313.85
365.493	303.9
365.874	306.16
366.256	313.62
366.637	329.44
367.019	319.27
367.4	331.7
367.781	308.42
368.163	309.33
368.544	321.31
368.925	328.54
369.306	310.91
369.688	311.36
370.069	303.68
370.45	307.29
370.831	301.19
371.212	308.88
371.593	298.71
371.974	310.01
372.355	324.47
372.736	305.94
373.117	312.94
373.498	326.28
373.879	304.81
374.26	315.43
374.641	307.29
375.021	325.37
375.402	316.56
375.783	320.63
376.163	325.37
376.544	340.51
376.925	344.13
377.305	315.43
377.686	328.08
378.066	325.6
378.447	335.54
378.827	333.73
379.208	314.98
379.588	323.56
379.968	330.12
380.349	349.33
380.729	319.5
381.109	326.95
381.489	337.58
381.87	329.67
382.25	328.54
382.63	316.79
383.01	315.66
383.39	344.81
383.77	351.59
384.15	319.05
384.53	346.39
384.91	359.04
385.29	344.13
385.67	347.29
386.049	350.68
386.429	356.33
386.809	355.65
387.189	321.76
387.568	359.72
387.948	360.63
388.328	358.14
388.707	354.98
389.087	358.59
389.466	347.75
389.846	357.24
390.225	377.8
390.605	364.24
390.984	363.56
391.363	369.89
391.743	341.87
392.122	367.18
392.501	348.88
392.881	368.76
393.26	377.35
393.639	366.95
394.018	370.8
394.397	372.38
394.776	380.29
395.155	382.32
395.534	359.04
395.913	357.01
396.292	382.09
396.671	382.77
397.05	357.01
397.429	373.28
397.808	361.3
398.186	382.09
398.565	384.13
398.944	411.25
399.323	386.61
399.701	374.19
400.08	385.03
400.458	405.14
400.837	378.7
401.215	398.14
401.594	388.65
401.972	406.05
402.351	408.08
402.729	407.86
403.107	400.85
403.486	390
403.864	390.46
404.242	394.07
404.62	396.33
404.999	418.03
405.377	409.66
405.755	400.4
406.133	415.31
406.511	431.58
406.889	410.57
407.267	407.63
407.645	424.13
408.023	396.56
408.401	425.03
408.779	431.81
409.156	445.82
409.534	441.3
409.912	441.53
410.29	446.5
410.667	455.31
411.045	457.8
411.422	445.6
411.8	440.85
412.178	438.36
412.555	478.82
412.933	452.6
413.31	448.08
413.687	484.46
414.065	439.95
414.442	481.98
414.819	474.52
415.197	476.33
415.574	470.23
415.951	485.82
416.328	487.85
416.705	514.29
417.082	495.54
417.46	484.69
417.837	489.66
418.214	499.38
418.591	505.26
418.967	503.67
419.344	477.91
419.721	526.72
420.098	529.44
420.475	530.34
420.852	524.69
421.228	537.57
421.605	538.7
421.982	523.79
422.358	524.92
422.735	534.41
423.111	545.25
423.488	532.82
423.864	538.47
424.241	545.25
424.617	561.75
424.994	532.37
425.37	556.33
425.746	573.73
426.123	559.49
426.499	566.72
426.875	572.6
427.251	563.78
427.627	578.02
428.003	586.16
428.379	605.37
428.756	593.61
429.132	599.26
429.507	605.37
429.883	611.02
430.259	615.31
430.635	613.95
431.011	631.81
431.387	650.79
431.763	642.65
432.138	632.03
432.514	649.66
432.89	639.71
433.265	645.36
433.641	649.88
434.016	653.95
434.392	679.49
434.767	682.65
435.143	701.41
435.518	695.08
435.894	693.95
436.269	698.02
436.644	698.02
437.02	711.35
437.395	691.69
437.77	696.66
438.145	718.58
438.52	720.39
438.895	740.05
439.271	707.96
439.646	743.44
440.021	714.97
440.395	751.12
440.77	728.98
441.145	750.67
441.52	768.3
441.895	758.81
442.27	772.37
442.645	769.2
443.019	760.16
443.394	787.96
443.769	793.61
444.143	785.7
444.518	787.28
444.892	801.29
445.267	790.45
445.641	797.45
446.016	805.59
446.39	791.58
446.764	798.13
447.139	806.94
447.513	817.56
447.887	839.03
448.262	837.45
448.636	808.07
449.01	853.04
449.384	848.97
449.758	848.52
450.132	858.92
450.506	852.59
450.88	855.3
451.254	847.62
451.628	847.39
452.002	864.79
452.376	894.4
452.75	873.61
453.123	900.95
453.497	878.13
453.871	915.19
454.244	917
454.618	898.92
454.992	928.75
455.365	931.23
455.739	930.1
456.112	949.99
456.486	932.81
456.859	938.92
457.232	980.5
457.606	977.11
457.979	974.85
458.352	999.03
458.725	1037.44
459.099	995.41
459.472	1006.71
459.845	1021.4
460.218	1075.86
460.591	1044.9
460.964	1046.48
461.337	1065.92
461.71	1078.57
462.083	1094.39
462.456	1078.8
462.829	1069.53
463.201	1086.71
463.574	1120.83
463.947	1121.51
464.32	1148.63
464.692	1148.85
465.065	1148.4
465.438	1162.41
465.81	1172.58
466.183	1193.6
466.555	1218.23
466.928	1211.68
467.3	1212.13
467.672	1233.15
468.045	1279.92
468.417	1275.63
468.789	1260.04
469.161	1291.68
469.534	1300.49
469.906	1354.5
470.278	1352.01
470.65	1353.59
471.022	1371.9
471.394	1401.28
471.766	1423.87
472.138	1413.93
472.51	1453.7
472.882	1471.78
473.253	1498.22
473.625	1496.87
473.997	1536.64
474.369	1528.28
474.74	1580.03
475.112	1574.15
475.484	1635.39
475.855	1622.29
476.227	1661.16
476.598	1697.99
476.97	1665.45
477.341	1720.82
477.713	1753.81
478.084	1728.05
478.455	1813.7
478.827	1826.35
479.198	1896.86
479.569	1893.02
479.94	1933.01
480.311	2003.75
480.682	1980.24
481.053	2024.99
481.424	2074.48
481.795	2078.1
482.166	2075.84
482.537	2145.44
482.908	2182.73
483.279	2217.98
483.65	2232.44
484.021	2266.11
484.391	2307.24
484.762	2354.7
485.133	2350.18
485.503	2404.64
485.874	2455.03
486.244	2481.25
486.615	2517.86
486.985	2549.04
487.356	2599.66
487.726	2615.93
488.097	2649.15
488.467	2643.5
488.837	2752.2
489.207	2770.96
489.578	2812.54
489.948	2869.03
490.318	2860.45
490.688	2884.63
491.058	2925.98
491.428	2985.19
491.798	3014.57
492.168	3014.12
492.538	3094.57
492.908	3105.41
493.278	3162.59
493.648	3176.37
494.017	3179.76
494.387	3213.66
494.757	3295.24
495.126	3258.85
495.496	3298.63
495.866	3305.41
496.235	3412.3
496.605	3393.09
496.974	3424.95
497.344	3452.97
497.713	3487.1
498.082	3500.88
498.452	3538.62
498.821	3535.68
499.19	3565.74
499.559	3591.05
499.928	3661.78
500.298	3582.01
500.667	3653.42
501.036	3651.61
501.405	3692.97
501.774	3742.01
502.143	3725.06
502.512	3732.97
502.88	3805.73
503.249	3760.99
503.618	3777.26
503.987	3767.09
504.356	3836.69
504.724	3875.34
505.093	3882.34
505.462	3855
505.83	3896.13
506.199	3952.62
506.567	3959.63
506.936	3940.64
507.304	4048.66
507.672	4037.59
508.041	4040.76
508.409	4034.43
508.777	4123.01
509.145	4116.01
509.514	4070.81
509.882	4132.05
510.25	4154.88
510.618	4177.02
510.986	4148.78
511.354	4189.68
511.722	4241.88
512.09	4231.71
512.458	4256.12
512.826	4248.21
513.193	4234.2
513.561	4276.46
513.929	4297.47
514.297	4360.97
514.664	4335.21
515.032	4337.47
515.4	4367.3
515.767	4371.82
516.135	4390.35
516.502	4385.83
516.869	4472.83
517.237	4450.91
517.604	4434.19
517.972	4469.67
518.339	4499.05
518.706	4478.71
519.073	4493.62
519.44	4508.09
519.808	4586.96
520.175	4536.34
520.542	4621.53
520.909	4629.21
521.276	4593.74
521.643	4705.14
522.009	4697.01
522.376	4711.25
522.743	4732.26
523.11	4767.29
523.477	4757.57
523.843	4762.09
524.21	4811.81
524.577	4835.31
524.943	4858.13
525.31	4877.8
525.676	4903.11
526.043	4924.8
526.409	4905.14
526.776	4965.7
527.142	4968.64
527.508	5075.3
527.874	5077.79
528.241	5057.9
528.607	5077.56
528.973	5113.04
529.339	5109.2
529.705	5179.71
530.071	5196.88
530.437	5201.85
530.803	5232.59
531.169	5293.83
531.535	5298.35
531.901	5340.61
532.267	5303.77
532.632	5290.44
532.998	5351.23
533.364	5369.53
533.73	5403.43
534.095	5427.16
534.461	5425.8
534.826	5509.42
535.192	5483.43
535.557	5480.04
535.923	5496.54
536.288	5564.11
536.653	5550.32
537.019	5591.9
537.384	5601.62
537.749	5630.77
538.114	5653.59
538.479	5653.82
538.845	5689.07
539.21	5652.24
539.575	5714.61
539.94	5715.29
540.305	5772.69
540.67	5786.02
541.034	5807.71
541.399	5835.74
541.764	5807.94
542.129	5894.72
542.494	5936.98
542.858	5978.56
543.223	5921.16
543.587	5994.6
543.952	5989.86
544.316	6006.58
544.681	6002.96
545.045	6052.91
545.41	6151.43
545.774	6169.06
546.138	6185.56
546.503	6167.03
546.867	6172.68
547.231	6266.69
547.595	6223.52
547.959	6264.88
548.324	6239.34
548.688	6279.79
549.052	6287.7
549.416	6366.34
549.779	6316.63
550.143	6368.6
550.507	6415.83
550.871	6445.89
551.235	6472.56
551.599	6453.12
551.962	6484.98
552.326	6526.57
552.689	6530.86
553.053	6547.58
553.417	6581.03
553.78	6607.69
554.143	6610.41
554.507	6634.36
554.87	6630.07
555.234	6701.7
555.597	6680.69
555.96	6693.79
556.323	6741.02
556.686	6737.41
557.05	6723.4
557.413	6785.09
557.776	6795.26
558.139	6837.52
558.502	6828.7
558.865	6838.87
559.228	6892.66
559.59	6926.33
559.953	6929.49
560.316	6919.1
560.679	7038.19
561.041	7007.23
561.404	7120.67
561.767	7113.67
562.129	7093.33
562.492	7155.25
562.854	7166.32
563.217	7157.96
563.579	7141.01
563.941	7253.78
564.304	7200.9
564.666	7274.79
565.028	7295.13
565.39	7266.21
565.753	7334.68
566.115	7336.26
566.477	7389.14
566.839	7371.52
567.201	7510.04
567.563	7532.19
567.925	7454.22
568.287	7507.1
568.648	7477.73
569.01	7545.75
569.372	7639.76
569.734	7576.48
570.095	7645.41
570.457	7703.26
570.819	7678.85
571.18	7714.33
571.542	7814.89
571.903	7827.55
572.265	7862.12
572.626	7914.55
572.987	7950.48
573.349	7993.42
573.71	8067.54
574.071	8068.22
574.432	8114.32
574.794	8252.85
575.155	8231.15
575.516	8326.52
575.877	8289.23
576.238	8377.59
576.599	8490.13
576.96	8529.45
577.32	8547.98
577.681	8660.97
578.042	8734.64
578.403	8799.27
578.763	8933.06
579.124	8949.78
579.485	9072.49
579.845	9189.09
580.206	9212.6
580.566	9329.43
580.927	9459.37
581.287	9563.1
581.648	9713.6
582.008	9818.91
582.368	9860.94
582.728	10065.46
583.089	10184.55
583.449	10352.23
583.809	10476.97
584.169	10661.15
584.529	10778.21
584.889	11006.22
585.249	11148.37
585.609	11165.54
585.969	11519.88
586.329	11719.2
586.688	11842.13
587.048	12125.51
587.408	12264.95
587.768	12454.77
588.127	12708.32
588.487	12935.66
588.846	13197.58
589.206	13384.46
589.565	13605.25
589.925	13894.28
590.284	14131.34
590.643	14324.1
591.003	14715.28
591.362	14984.2
591.721	15163.4
592.08	15451.3
592.44	15760
592.799	15907.11
593.158	16292.64
593.517	16518.62
593.876	16789.12
594.235	16971.49
594.593	17430.69
594.952	17714.52
595.311	17850.34
595.67	18268.4
596.029	18698.68
596.387	18921.72
596.746	19267.7
597.104	19370.52
597.463	19740.91
597.822	20088.92
598.18	20271.97
598.538	20489.36
598.897	20891.16
599.255	21144.03
599.613	21683.23
599.972	21798.25
600.33	22087.06
600.688	22289.09
601.046	22670.1
601.404	23019.01
601.762	23269.4
602.12	23640.24
602.478	23909.16
602.836	24252.43
603.194	24284.97
603.552	24642.47
603.91	24860.77
604.268	25180.76
604.625	25310.7
604.983	25694.65
605.341	25871.82
605.698	26172.15
606.056	26510.45
606.413	26699.14
606.771	27064.33
607.128	27213.71
607.485	27385.45
607.843	27571.89
608.2	27953.12
608.557	28208.48
608.914	28369.16
609.272	28655.25
609.629	28913.32
609.986	29290.49
610.343	29239.41
610.7	29698.39
611.057	29838.72
611.414	30015.44
611.771	30280.52
612.127	30511.47
612.484	30679.83
612.841	30912.37
613.198	31017.22
613.554	31159.14
613.911	31644.55
614.267	31683.19
614.624	31825.34
614.98	31981.72
615.337	32328.6
615.693	32331.08
616.05	32428.71
616.406	32699.44
616.762	32725.65
617.118	32919.77
617.475	33110.5
617.831	33425.07
618.187	33521.34
618.543	33604.72
618.899	34014.2
619.255	33879.52
619.611	34185.95
619.967	34269.34
620.323	34472.5
620.678	34363.12
621.034	34440.41
621.39	34633.62
621.746	34691.7
622.101	35179.15
622.457	35033.84
622.812	35032.03
623.168	35437.44
623.523	35437.44
623.879	35618.23
624.234	35363.55
624.589	35453.71
624.945	35681.73
625.3	35964.66
625.655	35910.43
626.01	36056.64
626.365	36140.48
626.72	36168.5
627.075	36272.45
627.43	36297.99
627.785	36345.22
628.14	36437.19
628.495	36553.8
628.85	36464.99
629.205	36464.08
629.559	36755.38
629.914	36614.14
630.269	36662.95
630.623	36593.57
630.978	36498.88
631.332	36903.62
631.687	36986.33
632.041	36709.95
632.396	36908.14
632.75	36868.59
633.104	36842.15
633.459	36818.42
633.813	36864.07
634.167	36906.78
634.521	36934.81
634.875	37102.26
635.229	36945.88
635.583	36873.34
635.937	36850.06
636.291	36850.29
636.645	36941.59
636.999	36824.75
637.352	36992.66
637.706	36764.41
638.06	37053.22
638.413	36937.07
638.767	36869.72
639.121	36916.95
639.474	36729.61
639.828	36685.32
640.181	36957.4
640.534	36883.51
640.888	36790.85
641.241	36761.02
641.594	36910.4
641.947	36824.07
642.301	36909.72
642.654	36841.25
643.007	36929.16
643.36	36748.14
643.713	36845.77
644.066	36988.82
644.419	36704.76
644.771	36542.5
645.124	36219.8
645.477	36211.66
645.83	35922.63
646.182	35845.57
646.535	35806.7
646.888	35835.85
647.24	35654.84
647.593	35854.16
647.945	35856.19
648.298	35746.36
648.65	35528.51
649.002	35449.87
649.355	35661.39
649.707	35736.87
650.059	35741.16
650.411	36167.37
650.763	36093.47
651.115	36516.51
651.467	36318.78
651.819	36350.87
652.171	36455.72
652.523	36314.26
652.875	36360.58
653.227	36142.96
653.578	36522.84
653.93	36390.19
654.282	36128.95
654.633	36061.16
654.985	36208.5
655.337	36324.65
655.688	36336.4
656.039	36449.17
656.391	36093.47
656.742	36171.89
657.094	36252.34
657.445	36239.68
657.796	36194.26
658.147	36203.3
658.498	36086.92
658.849	36239.91
659.2	36186.8
659.551	36071.33
659.902	36221.83
660.253	36166.92
660.604	36167.14
660.955	35978.45
661.306	36106.13
661.656	35900.48
662.007	35973.48
662.358	36059.57
662.708	35946.81
663.059	35887.15
663.409	35950.42
663.76	36145.9
664.11	36106.13
664.461	36206.69
664.811	36057.77
665.161	35909.07
665.511	35908.17
665.862	35969.63
666.212	36066.58
666.562	36012.8
666.912	35826.81
667.262	35933.48
667.612	35958.56
667.962	36029.97
668.312	35794.5
668.662	36147.71
669.011	35919.47
669.361	36007.37
669.711	35940.03
670.06	35952.23
670.41	35876.08
670.76	35730.32
671.109	36004.89
671.459	35860.71
671.808	35801.95
672.157	35985.68
672.507	35637.66
672.856	35621.39
673.205	35858
673.554	35816.19
673.904	35755.85
674.253	35780.71
674.602	35644.44
674.951	35235.64
675.3	35059.15
675.649	35596.76
675.998	35469.76
676.346	35668.17
676.695	35754.5
677.044	35458.69
677.393	35619.36
677.741	35675.4
678.09	35539.36
678.438	35352.47
678.787	35500.49
679.135	35469.53
679.484	35276.77
679.832	35256.43
680.181	35156.1
680.529	35279.03
680.877	35299.37
681.225	35089.43
681.573	35416.88
681.922	35088.07
682.27	35079.49
682.618	34927.63
682.966	34843.79
683.314	34924.69
683.661	34907.29
684.009	34730.8
684.357	34616.67
684.705	34643.11
685.053	34614.41
685.4	34466.17
685.748	34456.45
686.095	34532.38
686.443	34322.44
686.79	34156.8
687.138	34371.48
687.485	34355.44
687.832	34151.83
688.18	34198.15
688.527	34157.48
688.874	33958.84
689.221	33996.13
689.568	33823.25
689.915	33836.13
690.262	33816.92
690.609	33761.78
690.956	33650.15
691.303	33681.11
691.65	33503.48
691.997	33432.3
692.344	33232.53
692.69	33322.92
693.037	33206.09
693.383	33008.13
693.73	33170.16
694.077	32903.73
694.423	32835.93
694.769	32795.71
695.116	32613.11
695.462	32741.47
695.808	32586.67
696.155	32658.31
696.501	32293.57
696.847	32371.31
697.193	32153.24
697.539	32191.65
697.885	31985.11
698.231	31945.11
698.577	32003.18
698.923	31914.15
699.269	31875.73
699.614	31556.42
699.96	31607.71
700.306	31497.43
700.651	31435.97
700.997	31330.66
701.342	31353.48
701.688	31181.28
702.033	31165.47
702.379	31106.94
702.724	30981.52
703.069	31050.67
703.415	30713.27
703.76	30651.58
704.105	30833.27
704.45	30753.5
704.795	30447.07
705.14	30482.32
705.485	30425.37
705.83	30307.86
706.175	30327.97
706.52	30228.99
706.865	30174.08
707.209	29993.29
707.554	30044.59
707.899	30027.87
708.243	29878.49
708.588	29894.99
708.932	29649.35
709.277	29635.79
709.621	29633.98
709.966	29448.67
710.31	29588.11
710.654	29382.91
710.998	29461.1
711.342	29318.28
711.687	29301.11
712.031	29163.26
712.375	29008.91
712.719	29134.11
713.063	28917.84
713.407	29078.29
713.75	28946.09
714.094	28938.86
714.438	28687.79
714.782	28830.39
715.125	28520.11
715.469	28721.46
715.812	28480.79
716.156	28445.99
716.499	28415.03
716.843	28404.41
717.186	28342.26
717.53	28427.46
717.873	28459.77
718.216	28180.91
718.559	28177.3
718.902	27992.22
719.246	28131.87
719.589	28017.07
719.932	27855.04
720.275	27910.18
720.617	27843.07
720.96	27824.76
721.303	27835.84
721.646	27734.37
721.989	27532.12
722.331	27639.23
722.674	27685.56
723.016	27532.34
723.359	27481.27
723.701	27468.39
724.044	27200.37
724.386	27238.34
724.729	27372.35
725.071	27220.48
725.413	27189.3
725.755	27343.19
726.097	27083.09
726.439	27071.79
726.782	26914.96
727.124	27179.81
727.465	26935.75
727.807	26978.23
728.149	26840.61
728.491	26859.14
728.833	26854.39
729.175	26715.19
729.516	26667.28
729.858	26625.02
730.199	26726.71
730.541	26586.83
730.882	26598.58
731.224	26602.65
731.565	26382.99
731.906	26425.03
732.248	26357.68
732.589	26382.09
732.93	26120.85
733.271	26191.81
733.612	26211.02
733.953	26279.27
734.294	26085.6
734.635	26143.23
734.976	26088.54
735.317	26041.98
735.658	25916.11
735.999	25984.36
736.339	25915.43
736.68	26034.98
737.021	25934.64
737.361	25727.19
737.702	25852.39
738.042	25828.21
738.383	25694.2
738.723	25704.59
739.063	25628.89
739.404	25600.87
739.744	25638.83
740.084	25436.35
740.424	25653.29
740.764	25500.53
741.104	25545.95
741.444	25387.31
741.784	25277.26
742.124	25428.22
742.464	25303.93
742.804	25288.78
743.143	25120.65
743.483	25314.55
743.823	25093.31
744.162	25119.52
744.502	25185.51
744.841	25032.52
745.181	25094.67
745.52	24896.03
745.86	25046.76
746.199	25064.84
746.538	24911.62
746.877	24940.77
747.216	24965.63
747.556	24872.75
747.895	24825.29
748.234	24806.76
748.573	24754.56
748.911	24571.51
749.25	24631.85
749.589	24585.98
749.928	24515.92
750.267	24570.61
750.605	24433.21
750.944	24393.44
751.283	24363.61
751.621	24256.04
751.96	24279.55
752.298	24247
752.636	24355.7
752.975	24123.17
753.313	24109.15
753.651	24141.47
753.989	24042.26
754.327	23926.56
754.666	23883.62
755.004	23868.48
755.342	23968.14
755.679	23833
756.017	23596.63
756.355	23745.32
756.693	23607.7
757.031	23760.91
757.368	23438.21
757.706	23486.8
758.044	23349.63
758.381	23398.44
758.719	23336.97
759.056	23305.79
759.394	23172
759.731	23149.41
760.068	23090.42
760.405	23018.34
760.743	22977.66
761.08	22940.6
761.417	22865.12
761.754	22834.84
762.091	22808.85
762.428	22693.6
762.765	22566.82
763.102	22609.76
763.438	22459.93
763.775	22371.57
764.112	22343.32
764.449	22343.78
764.785	22263.78
765.122	22214.06
765.458	21988.31
765.795	22057.46
766.131	22004.35
766.467	21832.38
766.804	21732.95
767.14	21716.22
767.476	21719.61
767.812	21611.82
768.148	21589.22
768.485	21484.14
768.821	21279.17
769.157	21427.87
769.492	21235.11
769.828	21213.41
770.164	20981.78
770.5	20992.85
770.836	21018.84
771.171	20822.69
771.507	20860.88
771.842	20704.72
772.178	20662.01
772.513	20638.74
772.849	20606.87
773.184	20524.16
773.519	20594.9
773.855	20427.22
774.19	20358.97
774.525	20299.54
774.86	20163.95
775.195	20158.3
775.53	20011.41
775.865	19962.6
776.2	19835.14
776.535	19808.02
776.87	19716.73
777.205	19645.99
777.539	19510.18
777.874	19608.26
778.209	19429.5
778.543	19397.64
778.878	19259.79
779.212	19278.77
779.547	19096.86
779.881	19072.9
780.215	18958.56
780.55	19086.69
780.884	18862.96
781.218	18848.28
781.552	18867.26
781.886	18766.47
782.22	18620.48
782.554	18646.92
782.888	18380.94
783.222	18343.43
783.556	18389.3
783.889	18327.84
784.223	18154.73
784.557	18208.74
784.89	18134.4
785.224	17882.2
785.557	17887.62
785.891	17801.75
786.224	17833.39
786.558	17808.75
786.891	17656.44
787.224	17571.47
787.557	17564.69
787.891	17518.59
788.224	17528.99
788.557	17441.98
788.89	17303.46
789.223	17313.85
789.556	17239.05
789.888	17121.32
790.221	17070.47
790.554	16889.68
790.887	17013.07
791.219	16889.01
791.552	16882.68
791.884	16832.96
792.217	16716.13
792.549	16646.98
792.882	16561.33
793.214	16552.97
793.546	16534.44
793.879	16393.2
794.211	16294.67
794.543	16358.4
794.875	16326.08
795.207	16315.69
795.539	16214.9
795.871	16254.9
796.203	16032.76
796.535	15962.7
796.867	15955.92
797.198	15913.44
797.53	15921.35
797.862	15861.46
798.193	15837.73
798.525	15725.19
798.856	15769.94
799.188	15642.03
799.519	15543.05
799.85	15465.31
800.182	15523.39
800.513	15411.3
800.844	15341.25
801.175	15402.72
801.506	15360.01
801.837	15212.21
802.168	15179.22
802.499	15205.43
802.83	15156.62
803.161	15045.89
803.491	15028.04
803.822	15061.03
804.153	14865.56
804.483	14768.61
804.814	14820.81
805.145	14752.79
805.475	14787.82
805.805	14708.5
806.136	14563.64
806.466	14712.11
806.796	14510.54
807.126	14505.11
807.457	14538.33
807.787	14382.86
808.117	14299.69
808.447	14369.07
808.777	14376.53
809.107	14354.83
809.436	14342.18
809.766	14280.03
810.096	14219.47
810.426	14175.63
810.755	14211.11
811.085	14132.02
811.414	14039.59
811.744	13975.86
812.073	13904.68
812.403	13991.91
812.732	13842.31
813.061	13888.41
813.39	13796.21
813.719	13719.82
814.049	13857.9
814.378	13806.6
814.707	13662.88
815.036	13602.31
815.365	13586.04
815.693	13513.73
816.022	13467.4
816.351	13357.57
816.68	13445.93
817.008	13416.1
817.337	13254.3
817.665	13288.2
817.994	13285.48
818.322	13293.17
818.651	13109.44
818.979	13163.91
819.307	13191.25
819.636	13139.5
819.964	13108.77
820.292	13115.32
820.62	13119.84
820.948	13023.12
821.276	13083
821.604	13072.83
821.932	13065.6
822.259	13105.6
822.587	12977.02
822.915	12973.4
823.243	13106.05
823.57	12937.02
823.898	13003.23
824.225	12920.75
824.553	12890.92
824.88	12945.38
825.207	13005.94
825.535	12958.94
825.862	12986.28
826.189	12911.03
826.516	12967.75
826.843	13041.42
827.17	13006.4
827.497	12956.23
827.824	12974.98
828.151	12981.76
828.478	12996.23
828.805	12977.02
829.131	12912.84
829.458	12838.72
829.785	12836
830.111	12926.4
830.438	12949.9
830.764	12849.34
831.09	12939.5
831.417	12882.1
831.743	12895.66
832.069	12886.62
832.395	12862.9
832.722	12912.16
833.048	12847.53
833.374	12863.12
833.7	12770.7
834.026	12800.75
834.351	12792.62
834.677	12856.57
835.003	12770.47
835.329	12705.16
835.654	12757.14
835.98	12695.22
836.306	12719.17
836.631	12621.09
836.956	12671.49
837.282	12700.87
837.607	12647.08
837.932	12560.98
838.258	12666.97
838.583	12629.46
838.908	12568.21
839.233	12514.66
839.558	12479.63
839.883	12536.58
840.208	12426.75
840.533	12422.23
840.858	12393.08
841.182	12447.09
841.507	12395.34
841.832	12251.16
842.156	12332.51
842.481	12328.67
842.805	12243.03
843.13	12287.54
843.454	12233.99
843.778	12103.37
844.103	12115.8
844.427	12095.91
844.751	12057.95
845.075	12045.74
845.399	11977.27
845.723	11903.15
846.047	11943.82
846.371	11901.79
846.695	11874
847.019	11824.05
847.343	11677.39
847.666	11680.33
847.99	11612.76
848.313	11620.22
848.637	11532.31
848.96	11515.81
849.284	11469.49
849.607	11471.75
849.931	11390.17
850.254	11236.72
850.577	11241.24
850.9	11152.43
851.223	11188.14
851.546	11088.48
851.869	11013
852.192	11122.15
852.515	10931.2
852.838	11003.06
853.161	10959.22
853.483	10904.76
853.806	10893.68
854.129	10842.38
854.451	10863.4
854.774	10688.49
855.096	10722.84
855.419	10655.95
855.741	10612.11
856.063	10577.76
856.385	10539.34
856.708	10558.55
857.03	10542.73
857.352	10498.89
857.674	10512.45
857.996	10411.66
858.318	10377.54
858.64	10365.11
858.961	10320.14
859.283	10319.46
859.605	10251.67
859.926	10281.04
860.248	10189.52
860.57	10194.49
860.891	10204.21
861.212	10141.61
861.534	10091.9
861.855	10013.93
862.176	10139.35
862.498	10107.94
862.819	10083.08
863.14	10006.25
863.461	9993.59
863.782	9982.07
864.103	9952.69
864.424	9861.85
864.745	10013.03
865.065	9879.7
865.386	9864.11
865.707	9852.58
866.027	9810.77
866.348	9796.31
866.668	9812.81
866.989	9725.35
867.309	9774.62
867.63	9753.37
867.95	9728.74
868.27	9651
868.59	9671.34
868.91	9768.51
869.23	9621.17
869.55	9629.08
869.87	9688.52
870.19	9609.65
870.51	9647.84
870.83	9615.07
871.15	9572.59
871.469	9449.2
871.789	9614.17
872.109	9582.53
872.428	9505.02
872.748	9533.94
873.067	9555.41
873.386	9509.54
873.706	9459.37
874.025	9448.97
874.344	9449.43
874.663	9439.26
874.982	9369.2
875.301	9395.87
875.62	9312.71
875.939	9335.98
876.258	9352.71
876.577	9292.82
876.896	9306.61
877.214	9276.55
877.533	9281.97
877.852	9340.73
878.17	9224.8
878.489	9220.05
878.807	9231.58
879.125	9198.59
879.444	9146.84
879.762	9139.15
880.08	9124.92
880.398	9127.18
880.716	9119.94
881.034	9086.27
881.352	9110
881.67	9055.99
881.988	9082.2
882.306	9018.03
882.624	9028.65
882.941	8969.21
883.259	8903.68
883.577	8998.37
883.894	8944.58
884.212	8855.32
884.529	8915.66
884.846	8835.88
885.164	8835.88
885.481	8789.56
885.798	8834.53
886.115	8797.24
886.432	8747.07
886.75	8745.94
887.067	8774.19
887.383	8659.62
887.7	8646.51
888.017	8591.37
888.334	8660.75
888.651	8665.94
888.967	8591.6
889.284	8608.54
889.6	8488.77
889.917	8465.05
890.233	8485.38
890.55	8450.13
890.866	8450.36
891.182	8472.28
891.498	8386.86
891.815	8365.39
892.131	8345.27
892.447	8328.55
892.763	8186.18
893.079	8273.19
893.395	8170.36
893.71	8192.51
894.026	8188.44
894.342	8190.48
894.657	8126.98
894.973	8125.85
895.289	8054.44
895.604	8042.46
895.92	8044.49
896.235	7963.59
896.55	7990.93
896.865	8016.24
897.181	7893.08
897.496	7931.5
897.811	7858.73
898.126	7845.4
898.441	7833.2
898.756	7802.46
899.071	7743.26
899.386	7748.23
899.7	7663.03
900.015	7688.8
900.33	7632.53
900.644	7620.77
900.959	7621.45
901.273	7622.81
901.588	7529.93
901.902	7444.28
902.216	7459.87
902.531	7440.44
902.845	7409.25
903.159	7346.88
903.473	7354.11
903.787	7352.53
904.101	7283.16
904.415	7339.43
904.729	7223.27
905.042	7234.57
905.356	7242.71
905.67	7154.12
905.984	7150.28
906.297	7158.41
906.611	7108.92
906.924	7116.61
907.237	7039.55
907.551	7059.21
907.864	6984.41
908.177	7018.98
908.491	6959.1
908.804	6968.59
909.117	6920.45
909.43	6866.9
909.743	6827.35
910.056	6845.2
910.368	6814.92
910.681	6765.43
910.994	6743.51
911.307	6668.26
911.619	6683.85
911.932	6679.56
912.244	6574.93
912.557	6672.1
912.869	6562.5
913.181	6549.84
913.494	6494.48
913.806	6549.84
914.118	6496.74
914.43	6438.88
914.742	6383.97
915.054	6373.12
915.366	6346.91
915.678	6329.06
915.99	6316.4
916.302	6345.78
916.613	6245.67
916.925	6216.74
917.236	6254.48
917.548	6196.18
917.859	6169.51
918.171	6110.53
918.482	6087.48
918.794	6096.97
919.105	6060.36
919.416	5949.41
919.727	5983.76
920.038	5979.46
920.349	5944.43
920.66	5955.28
920.971	5915.28
921.282	5882.06
921.593	5865.79
921.903	5810.43
922.214	5795.96
922.525	5754.83
922.835	5758.9
923.146	5739.47
923.456	5762.07
923.767	5724.55
924.077	5661.96
924.387	5647.72
924.697	5638.23
925.008	5593.03
925.318	5589.87
925.628	5541.05
925.938	5520.94
926.248	5491.79
926.558	5511.68
926.867	5477.55
927.177	5426.93
927.487	5407.5
927.796	5350.1
928.106	5360.49
928.416	5316.2
928.725	5316.65
929.034	5314.17
929.344	5269.42
929.653	5214.06
929.962	5228.07
930.271	5196.88
930.581	5250.67
930.89	5117.56
931.199	5174.74
931.508	5166.6
931.817	5171.35
932.125	5068.07
932.434	5089.32
932.743	5120.27
933.051	5005.7
933.36	5019.71
933.669	4996.21
933.977	4926.38
934.286	4973.39
934.594	4951.01
934.902	4892.71
935.21	4880.51
935.519	4860.62
935.827	4841.86
936.135	4817.01
936.443	4725.03
936.751	4743.79
937.059	4739.27
937.367	4683.9
937.674	4719.83
937.982	4732.71
938.29	4680.74
938.597	4631.93
938.905	4616.11
939.213	4564.58
939.52	4600.29
939.827	4595.32
940.135	4553.74
940.442	4521.42
940.749	4567.07
941.056	4493.4
941.363	4426.73
941.67	4525.94
941.977	4487.52
942.284	4408.66
942.591	4426.96
942.898	4369.56
943.205	4386.96
943.511	4339.5
943.818	4311.93
944.125	4328.66
944.431	4251.82
944.738	4238.49
945.044	4229.68
945.35	4207.3
945.657	4227.42
945.963	4170.02
946.269	4198.49
946.575	4176.34
946.881	4124.37
947.187	4108.78
947.493	4115.56
947.799	4140.87
948.105	4091.6
948.41	4037.14
948.716	4034.88
949.022	4052.05
949.327	3977.93
949.633	3977.03
949.938	3989.23
950.244	3985.84
950.549	3948.33
950.854	3924.6
951.16	3898.39
951.465	3902.23
951.77	3869.91
952.075	3848.9
952.38	3862
952.685	3836.01
952.99	3787.43
953.294	3837.37
953.599	3780.42
953.904	3724.61
954.209	3745.4
954.513	3742.23
954.818	3709.01
955.122	3669.47
955.426	3663.59
955.731	3647.32
956.035	3662.46
956.339	3635.34
956.643	3597.38
956.948	3574.55
957.252	3588.11
957.556	3593.76
957.86	3544.72
958.163	3572.97
958.467	3530.94
958.771	3518.06
959.075	3473.54
959.378	3472.18
959.682	3455.01
959.985	3403.71
960.289	3436.03
960.592	3375.91
960.896	3399.19
961.199	3415.91
961.502	3399.64
961.805	3380.43
962.108	3319.42
962.411	3292.53
962.714	3312.41
963.017	3299.31
963.32	3330.49
963.623	3275.35
963.926	3275.35
964.228	3238.52
964.531	3253.88
964.833	3229.7
965.136	3175.24
965.438	3210.04
965.741	3178.41
966.043	3143.6
966.345	3140.21
966.648	3151.06
966.95	3162.13
967.252	3106.54
967.554	3075.36
967.856	3068.8
968.158	3055.7
968.46	3013.21
968.761	3085.98
969.063	3034.23
969.365	3015.47
969.666	2973.44
969.968	2977.73
970.269	2969.6
970.571	2966.89
970.872	2964.85
971.174	2944.06
971.475	2927.56
971.776	2923.04
972.077	2911.75
972.378	2930.05
972.679	2915.36
972.98	2869.03
973.281	2891.18
973.582	2829.04
973.883	2845.98
974.183	2830.62
974.484	2803.95
974.785	2833.33
975.085	2804.4
975.386	2759.89
975.686	2764.63
975.986	2786.55
976.287	2749.94
976.587	2702.94
976.887	2704.52
977.187	2674.24
977.487	2706.78
977.787	2655.26
978.087	2640.57
978.387	2625.43
978.687	2655.71
978.987	2624.07
979.286	2576.39
979.586	2596.95
979.885	2598.53
980.185	2577.74
980.484	2560.57
980.784	2527.57
981.083	2499.33
981.382	2529.83
981.682	2546.56
981.981	2531.87
982.28	2493.23
982.579	2455.49
982.878	2493.68
983.177	2455.49
983.475	2441.02
983.774	2447.8
984.073	2430.18
984.372	2429.05
984.67	2425.66
984.969	2425.88
985.267	2410.06
985.566	2379.56
985.864	2387.24
986.162	2369.84
986.461	2367.35
986.759	2342.72
987.057	2335.72
987.355	2325.09
987.653	2302.72
987.951	2308.82
988.249	2307.02
988.547	2309.73
988.844	2261.37
989.142	2253.91
989.44	2249.39
989.737	2245.32
990.035	2216.17
990.332	2210.07
990.63	2195.83
990.927	2220.01
991.224	2229.28
991.521	2160.35
991.819	2156.51
992.116	2166.91
992.413	2175.72
992.71	2142.95
993.006	2160.58
993.303	2137.3
993.6	2124.2
993.897	2105.21
994.193	2099.79
994.49	2113.8
994.787	2077.87
995.083	2073.12
995.379	2071.09
995.676	2062.28
995.972	2069.96
996.268	2030.64
996.565	1997.65
996.861	2022.73
997.157	2016.18
997.453	2002.62
997.749	1961.49
998.044	1994.03
998.34	1983.18
998.636	1965.33
998.932	1943.64
999.227	1949.51
999.523	1934.14
999.818	1925.56
1000.114	1896.4
1000.409	1907.7
1000.704	1891.21
1001	1883.52
1001.295	1873.35
1001.59	1844.65
1001.885	1888.27
1002.18	1833.13
1002.475	1846.91
1002.77	1820.02
1003.065	1786.8
1003.359	1788.39
1003.654	1780.93
1003.949	1762.85
1004.243	1801.94
1004.538	1757.88
1004.832	1765.56
1005.127	1735.96
1005.421	1747.26
1005.715	1698.44
1006.009	1728.05
1006.304	1705.45
1006.598	1729.63
1006.892	1665
1007.186	1709.52
1007.48	1692.57
1007.773	1626.36
1008.067	1650.76
1008.361	1636.52
1008.655	1629.52
1008.948	1635.85
1009.242	1621.84
1009.535	1628.39
1009.829	1599.01
1010.122	1609.86
1010.415	1573.02
1010.708	1573.48
1011.001	1562.18
1011.295	1555.4
1011.588	1532.35
1011.881	1528.51
1012.173	1535.28
1012.466	1534.83
1012.759	1502.74
1013.052	1511.1
1013.344	1519.01
1013.637	1465
1013.93	1467.26
1014.222	1480.14
1014.514	1459.13
1014.807	1475.4
1015.099	1478.11
1015.391	1446.47
1015.683	1422.75
1015.976	1415.97
1016.268	1420.49
1016.56	1401.05
1016.851	1395.18
1017.143	1388.85
1017.435	1376.19
1017.727	1379.58
1018.018	1370.54
1018.31	1333.71
1018.602	1353.59
1018.893	1326.48
1019.185	1328.06
1019.476	1330.09
1019.767	1352.46
1020.058	1317.44
1020.35	1310.43
1020.641	1280.6
1020.932	1307.72
1021.223	1299.13
1021.514	1277.66
1021.804	1262.98
1022.095	1258.23
1022.386	1252.81
1022.677	1263.65
1022.967	1224.56
1023.258	1215.97
1023.548	1229.08
1023.839	1207.84
1024.129	1215.29
1024.419	1188.63
1024.709	1175.75
1025	1200.38
1025.29	1171.9
1025.58	1177.78
1025.87	1154.05
1026.16	1147.5
1026.449	1125.8
1026.739	1153.37
1027.029	1119.25
1027.319	1114.5
1027.608	1111.57
1027.898	1111.79
1028.187	1075.41
1028.477	1097.33
1028.766	1091.68
1029.055	1074.73
1029.344	1075.64
1029.634	1087.84
1029.923	1044
1030.212	1045.13
1030.501	1053.04
1030.79	1026.82
1031.078	1034.28
1031.367	1019.82
1031.656	1006.26
1031.945	1003.77
1032.233	998.35
1032.522	983.21
1032.81	1002.19
1033.099	974.85
1033.387	979.82
1033.675	977.79
1033.963	945.02
1034.251	963.55
1034.54	949.54
1034.828	956.77
1035.116	954.51
1035.403	938.69
1035.691	945.24
1035.979	909.76
1036.267	930.33
1036.554	938.24
1036.842	907.73
1037.129	906.37
1037.417	906.83
1037.704	926.49
1037.992	879.48
1038.279	887.62
1038.566	872.7
1038.853	872.7
1039.14	872.7
