Data from hue_160_FLMS001491_00001.txt Node
Date: Tue Feb 07 16:50:39 GMT 2017
User: dcchb
Spectrometer: FLMS00149
Trigger mode: 0
Integration Time (sec): 2.000000E-2
Scans to average: 10
Electric dark correction enabled: true
Nonlinearity correction enabled: false
Boxcar width: 0
XAxis mode: Wavelengths
Number of Pixels in Spectrum: 2048
>>>>>Begin Spectral Data<<<<<
341.393	-10.45
341.776	-10.45
342.16	-10.45
342.543	-57.23
342.927	-39.38
343.31	-94.07
343.693	-77.79
344.077	-51.58
344.46	-66.5
344.843	-45.48
345.226	-31.02
345.61	-45.03
345.993	-20.39
346.376	7.17
346.759	15.99
347.142	22.54
347.525	48.76
347.908	62.09
348.291	66.16
348.674	105.93
349.057	103.22
349.44	115.65
349.823	147.28
350.206	169.43
350.588	197.23
350.971	226.38
351.354	203.78
351.737	239.26
352.119	237.23
352.502	255.53
352.884	272.25
353.267	271.57
353.65	306.38
354.032	331.23
354.414	325.81
354.797	321.29
355.179	325.13
355.562	342.76
355.944	319.71
356.326	319.26
356.709	330.33
357.091	336.66
357.473	346.83
357.855	347.5
358.238	346.6
358.62	344.34
359.002	338.92
359.384	344.12
359.766	336.43
360.148	336.43
360.53	350.89
360.912	357.45
361.294	330.56
361.676	350.44
362.057	328.07
362.439	331.69
362.821	326.49
363.203	321.97
363.584	324
363.966	327.62
364.348	355.19
364.729	318.81
365.111	326.26
365.493	319.48
365.874	319.26
366.256	308.86
366.637	324.23
367.019	306.83
367.4	322.42
367.781	335.3
368.163	319.94
368.544	311.35
368.925	302.08
369.306	323.55
369.688	326.94
370.069	317.45
370.45	322.87
370.831	326.26
371.212	328.75
371.593	310.9
371.974	331.01
372.355	312.25
372.736	322.19
373.117	315.42
373.498	311.12
373.879	320.61
374.26	335.08
374.641	296.88
375.021	319.48
375.402	328.52
375.783	307.96
376.163	314.96
376.544	338.69
376.925	327.62
377.305	323.55
377.686	302.08
378.066	321.29
378.447	320.16
378.827	321.29
379.208	347.5
379.588	327.39
379.968	326.26
380.349	320.84
380.729	343.89
381.109	322.87
381.489	339.37
381.87	336.66
382.25	327.62
382.63	339.37
383.01	332.14
383.39	351.57
383.77	338.01
384.15	342.08
384.53	354.06
384.91	358.8
385.29	332.59
385.67	358.13
386.049	345.92
386.429	338.69
386.809	354.28
387.189	367.39
387.568	371.69
387.948	360.84
388.328	352.25
388.707	352.25
389.087	347.05
389.466	370.1
389.846	368.07
390.225	348.18
390.605	360.16
390.984	346.83
391.363	368.52
391.743	362.65
392.122	373.94
392.501	373.94
392.881	357.9
393.26	388.41
393.639	361.74
394.018	359.48
394.397	352.93
394.776	373.72
395.155	373.27
395.534	409.88
395.913	378.01
396.292	375.53
396.671	398.13
397.05	383.44
397.429	374.17
397.808	406.26
398.186	389.76
398.565	410.33
398.944	402.87
399.323	389.76
399.701	402.42
400.08	373.27
400.458	410.1
400.837	394.74
401.215	401.74
401.594	388.41
401.972	401.51
402.351	396.77
402.729	413.04
403.107	406.71
403.486	423.89
403.864	422.31
404.242	421.18
404.62	416.88
404.999	407.39
405.377	431.8
405.755	415.98
406.133	432.25
406.511	422.76
406.889	436.77
407.267	426.15
407.645	439.93
408.023	450.1
408.401	457.33
408.779	437.67
409.156	418.69
409.534	425.92
409.912	427.28
410.29	461.17
410.667	484.68
411.045	456.88
411.422	471.34
411.8	488.29
412.178	463.21
412.555	460.27
412.933	488.52
413.31	481.96
413.687	490.33
414.065	484.22
414.442	470.21
414.819	513.6
415.197	496.88
415.574	497.11
415.951	501.85
416.328	501.17
416.705	517.67
417.082	480.16
417.46	516.09
417.837	523.77
418.214	504.56
418.591	532.13
418.967	518.57
419.344	508.86
419.721	531.91
420.098	545.24
420.475	561.06
420.852	529.2
421.228	541.4
421.605	538.69
421.982	530.1
422.358	564.45
422.735	588.18
423.111	569.87
423.488	571
423.864	582.08
424.241	581.4
424.617	584.79
424.994	593.83
425.37	608.06
425.746	579.14
426.123	599.7
426.499	602.19
426.875	596.09
427.251	618.68
427.627	615.07
428.003	624.11
428.379	624.79
428.756	622.75
429.132	645.12
429.507	632.7
429.883	632.24
430.259	660.04
430.635	667.27
431.011	635.86
431.387	678.57
431.763	683.32
432.138	664.33
432.514	700.94
432.89	709.08
433.265	695.74
433.641	727.83
434.016	730.32
434.392	728.29
434.767	758.12
435.143	737.55
435.518	736.42
435.894	761.51
436.269	748.62
436.644	771
437.02	787.49
437.395	748.85
437.77	775.06
438.145	790.21
438.52	816.42
438.895	820.71
439.271	808.28
439.646	824.55
440.021	822.07
440.395	830.88
440.77	829.75
441.145	840.37
441.52	847.83
441.895	848.28
442.27	860.71
442.645	868.4
443.019	888.73
443.394	877.43
443.769	887.83
444.143	899.81
444.518	908.39
444.892	898.9
445.267	916.98
445.641	930.99
446.016	923.54
446.39	925.79
446.764	913.82
447.139	923.54
447.513	935.29
447.887	951.56
448.262	938.45
448.636	968.28
449.01	937.77
449.384	975.74
449.758	993.36
450.132	964.66
450.506	991.33
450.88	1006.47
451.254	1018.67
451.628	1003.08
452.002	1019.8
452.376	1048.05
452.75	1040.82
453.123	1043.98
453.497	1047.83
453.871	1069.07
454.244	1095.51
454.618	1094.15
454.992	1095.28
455.365	1116.07
455.739	1148.61
456.112	1156.52
456.486	1157.65
456.859	1170.31
457.232	1214.37
457.606	1172.79
457.979	1219.35
458.352	1225.67
458.725	1226.58
459.099	1252.57
459.472	1279.01
459.845	1253.02
460.218	1307.03
460.591	1321.26
460.964	1299.8
461.337	1367.14
461.71	1363.98
462.083	1394.26
462.456	1372.79
462.829	1396.52
463.201	1433.8
463.574	1416.86
463.947	1478.32
464.32	1500.47
464.692	1506.57
465.065	1516.97
465.438	1544.54
465.81	1566.46
466.183	1577.3
466.555	1625.44
466.928	1640.35
467.3	1671.76
467.672	1690.52
468.045	1726
468.417	1756.28
468.789	1758.99
469.161	1802.83
469.534	1820.23
469.906	1875.15
470.278	1910.63
470.65	1909.95
471.022	1946.78
471.394	2013.45
471.766	2057.74
472.138	2060.23
472.51	2123.73
472.882	2159.89
473.253	2184.74
473.625	2241.24
473.997	2298.19
474.369	2328.02
474.74	2388.36
475.112	2409.37
475.484	2466.55
475.855	2552.87
476.227	2595.13
476.598	2686.65
476.97	2742.47
477.341	2791.06
477.713	2843.71
478.084	2898.62
478.455	2987.89
478.827	3071.95
479.198	3151.05
479.569	3210.25
479.94	3299.07
480.311	3389.01
480.682	3451.83
481.053	3576.57
481.424	3641.43
481.795	3700.41
482.166	3841.42
482.537	3920.52
482.908	4024.24
483.279	4108.54
483.65	4245.71
484.021	4358.02
484.391	4409.09
484.762	4556.43
485.133	4621.74
485.503	4739.25
485.874	4891.57
486.244	4968.85
486.615	5107.61
486.985	5189.19
487.356	5372.46
487.726	5476.18
488.097	5616.97
488.467	5726.35
488.837	5852.44
489.207	5999.56
489.578	6170.63
489.948	6224.64
490.318	6379.66
490.688	6435.48
491.058	6631.63
491.428	6742.14
491.798	6837.73
492.168	7066.88
492.538	7146.65
492.908	7287.44
493.278	7410.37
493.648	7498.05
494.017	7663.47
494.387	7815.56
494.757	7910.92
495.126	8068.43
495.496	8082.67
495.866	8184.59
496.235	8370.34
496.605	8449.66
496.974	8544.8
497.344	8648.76
497.713	8788.19
498.082	8899.6
498.452	8998.35
498.821	9125.35
499.19	9196.09
499.559	9302.52
499.928	9352.69
500.298	9493.25
500.667	9650.09
501.036	9627.94
501.405	9824.54
501.774	9820.25
502.143	9886.01
502.512	10039.45
502.88	10092.79
503.249	10111.09
503.618	10268.37
503.987	10342.72
504.356	10460.46
504.724	10440.57
505.093	10511.98
505.462	10630.4
505.83	10709.49
506.199	10799.43
506.567	10921.24
506.936	10910.62
507.304	11082.36
507.672	11136.15
508.041	11147
508.409	11209.59
508.777	11330.95
509.145	11379.76
509.514	11379.76
509.882	11538.62
510.25	11504.05
510.618	11535.91
510.986	11603.03
511.354	11724.16
511.722	11767.77
512.09	11919.86
512.458	11823.59
512.826	11979.52
513.193	11983.36
513.561	11974.09
513.929	12066.29
514.297	12122.34
514.664	12135.22
515.032	12154.43
515.4	12256.57
515.767	12268.55
516.135	12345.61
516.502	12207.98
516.869	12400.3
517.237	12376.79
517.604	12423.12
517.972	12481.42
518.339	12499.28
518.706	12550.57
519.073	12515.32
519.44	12576.11
519.808	12596.45
520.175	12597.35
520.542	12809.32
520.909	12765.26
521.276	12759.38
521.643	12802.09
522.009	12841.87
522.376	12857.01
522.743	12930.68
523.11	13063.33
523.477	12979.72
523.843	13050.67
524.21	13101.75
524.577	13184.23
524.943	13117.34
525.31	13136.1
525.676	13289.76
526.043	13216.77
526.409	13217
526.776	13262.19
527.142	13265.36
527.508	13292.93
527.874	13296.77
528.241	13346.94
528.607	13358.91
528.973	13389.87
529.339	13343.32
529.705	13386.48
530.071	13433.71
530.437	13409.99
530.803	13556.65
531.169	13367.95
531.535	13343.77
531.901	13403.43
532.267	13411.79
532.632	13405.24
532.998	13353.26
533.364	13359.82
533.73	13286.83
534.095	13396.88
534.461	13352.13
534.826	13247.73
535.192	13348.29
535.557	13414.05
535.923	13261.52
536.288	13270.56
536.653	13227.39
537.019	13111.24
537.384	13142.87
537.749	13144.23
538.114	13199.82
538.479	13044.57
538.845	13100.62
539.21	12993.05
539.575	12998.47
539.94	12957.57
540.305	12981.98
540.67	12863.56
541.034	12874.41
541.399	12898.81
541.764	12841.41
542.129	12797.35
542.494	12755.09
542.858	12767.97
543.223	12729.1
543.587	12690.46
543.952	12701.53
544.316	12606.84
544.681	12549.9
545.045	12545.6
545.41	12701.98
545.774	12558.48
546.138	12445.49
546.503	12435.32
546.867	12356.68
547.231	12363.01
547.595	12307.19
547.959	12367.08
548.324	12305.16
548.688	12220.19
549.052	12214.09
549.416	12154.43
549.779	12099.74
550.143	12107.2
550.507	12174.76
550.871	12104.48
551.235	12012.51
551.599	12058.16
551.962	11987.65
552.326	11982.91
552.689	11991.27
553.053	11896.81
553.417	11921.44
553.78	11958.73
554.143	11908.33
554.507	11928.44
554.87	11836.92
555.234	11886.18
555.597	11785.85
555.96	11757.6
556.323	11802.35
556.686	11764.15
557.05	11805.73
557.413	11725.74
557.776	11680.99
558.139	11733.87
558.502	11678.96
558.865	11713.08
559.228	11727.54
559.59	11722.35
559.953	11693.2
560.316	11784.04
560.679	11739.97
561.041	11770.71
561.404	11674.44
561.767	11799.63
562.129	11773.65
562.492	11708.56
562.854	11734.78
563.217	11668.11
563.579	11685.96
563.941	11806.19
564.304	11802.57
564.666	11725.96
565.028	11769.58
565.39	11780.42
565.753	11781.1
566.115	11711.5
566.477	11737.04
566.839	11808.22
567.201	11790.59
567.563	11873.3
567.925	11834.89
568.287	11866.52
568.648	11828.56
569.01	11981.55
569.372	11907.88
569.734	11857.48
570.095	11837.37
570.457	11931.38
570.819	12028.1
571.18	11864.04
571.542	11931.61
571.903	11934.32
572.265	11918.27
572.626	11990.59
572.987	11937.93
573.349	11964.15
573.71	11961.89
574.071	12000.08
574.432	11997.59
574.794	12145.84
575.155	12002.57
575.516	11993.75
575.877	12015.67
576.238	12092.05
576.599	12064.49
576.96	12114.88
577.32	12045.73
577.681	12007.99
578.042	12047.76
578.403	12102.45
578.763	12084.6
579.124	12046.86
579.485	12160.53
579.845	12098.16
580.206	12208.66
580.566	12084.6
580.927	12062.23
581.287	12132.51
581.648	12006.41
582.008	12163.69
582.368	12097.93
582.728	12124.6
583.089	12097.25
583.449	12086.86
583.809	12086.18
584.169	12061.32
584.529	12072.85
584.889	12103.58
585.249	11977.93
585.609	11989.91
585.969	12022.23
586.329	11981.1
586.688	11983.81
587.048	11932.51
587.408	11905.62
587.768	11931.16
588.127	11929.8
588.487	11864.72
588.846	11989.23
589.206	11897.48
589.565	11924.83
589.925	11890.7
590.284	11873.08
590.643	11994.66
591.003	11958.27
591.362	11969.8
591.721	11840.31
592.08	11930.03
592.44	11882.34
592.799	11820.65
593.158	11789.92
593.517	11859.97
593.876	11828.56
594.235	11753.98
594.593	11789.01
594.952	11793.98
595.311	11761.22
595.67	11775.91
596.029	11871.5
596.387	11850.93
596.746	11863.13
597.104	11823.36
597.463	11811.84
597.822	11832.63
598.18	11769.35
598.538	11732.06
598.897	11823.81
599.255	11641.9
599.613	11894.32
599.972	11789.01
600.33	11834.21
600.688	11768.22
601.046	11718.73
601.404	11859.52
601.762	11806.19
602.12	11840.08
602.478	11829.01
602.836	11798.5
603.194	11760.31
603.552	11744.95
603.91	11746.98
604.268	11751.95
604.625	11717.38
604.983	11800.76
605.341	11820.2
605.698	11825.17
606.056	11829.24
606.413	11718.96
606.771	11833.76
607.128	11823.14
607.485	11735.45
607.843	11729.58
608.2	11823.81
608.557	11796.47
608.914	11815.23
609.272	11859.29
609.629	11814.1
609.986	11944.49
610.343	11825.62
610.7	11939.29
611.057	11809.35
611.414	11833.53
611.771	11848.9
612.127	11887.09
612.484	11929.8
612.841	11926.64
613.198	11922.12
613.554	11854.55
613.911	11965.5
614.267	12033.75
614.624	11981.78
614.98	11967.54
615.337	12019.51
615.693	11916.47
616.05	11986.07
616.406	12030.59
616.762	11963.92
617.118	12004.6
617.475	11966.41
617.831	12087.54
618.187	12077.37
618.543	12081.66
618.899	12071.26
619.255	12085.05
619.611	12078.04
619.967	12155.78
620.323	12126.86
620.678	12077.59
621.034	12081.43
621.39	12081.89
621.746	12007.99
622.101	12201.88
622.457	12109.91
622.812	12086.86
623.168	12144.26
623.523	12056.12
623.879	12131.38
624.234	12114.88
624.589	12146.74
624.945	12072.17
625.3	12127.76
625.655	12128.44
626.01	12172.96
626.365	12087.99
626.72	12074.43
627.075	12083.47
627.43	12006.18
627.785	12127.76
628.14	12180.87
628.495	12108.33
628.85	12032.17
629.205	12019.51
629.559	12129.57
629.914	11958.5
630.269	12058.61
630.623	11916.01
630.978	11908.78
631.332	12000.31
631.687	11991.49
632.041	11937.93
632.396	11933.19
632.75	11929.35
633.104	11967.54
633.459	11882.12
633.813	11881.44
634.167	11922.57
634.521	11880.76
634.875	11889.57
635.229	11906.75
635.583	11873.3
635.937	11816.13
636.291	11803.25
636.645	11805.73
636.999	11828.11
637.352	11844.83
637.706	11751.72
638.06	11794.44
638.413	11720.77
638.767	11704.72
639.121	11704.27
639.474	11603.03
639.828	11649.35
640.181	11761.89
640.534	11699.52
640.888	11639.41
641.241	11544.72
641.594	11604.84
641.947	11682.8
642.301	11594.44
642.654	11619.75
643.007	11621.56
643.36	11577.04
643.713	11600.54
644.066	11601.67
644.419	11571.62
644.771	11450.94
645.124	11428.57
645.477	11311.74
645.83	11324.84
646.182	11293.21
646.535	11189.03
646.888	11212.76
647.24	11182.93
647.593	11281
647.945	11246.2
648.298	11133.66
648.65	11155.58
649.002	11172.08
649.355	11333.88
649.707	11146.09
650.059	11222.02
650.411	11373.43
650.763	11373.66
651.115	11494.78
651.467	11439.19
651.819	11377.05
652.171	11433.99
652.523	11386.08
652.875	11387.89
653.227	11388.8
653.578	11426.31
653.93	11459.53
654.282	11323.49
654.633	11384.28
654.985	11433.54
655.337	11373.66
655.688	11437.16
656.039	11407.78
656.391	11353.32
656.742	11437.16
657.094	11383.37
657.445	11497.72
657.796	11507.89
658.147	11423.82
658.498	11412.98
658.849	11423.37
659.2	11416.59
659.551	11426.99
659.902	11384.05
660.253	11460.89
660.604	11457.04
660.955	11428.12
661.306	11452.98
661.656	11403.03
662.007	11455.46
662.358	11438.06
662.708	11505.63
663.059	11394.22
663.409	11387.44
663.76	11421.34
664.11	11477.38
664.461	11487.78
664.811	11481.45
665.161	11504.27
665.511	11426.54
665.862	11434.67
666.212	11508.79
666.562	11505.4
666.912	11445.29
667.262	11488.23
667.612	11475.12
667.962	11511.28
668.312	11506.99
668.662	11549.02
669.011	11492.07
669.361	11459.53
669.711	11444.61
670.06	11466.53
670.41	11412.75
670.76	11369.14
671.109	11430.83
671.459	11386.76
671.808	11376.14
672.157	11408.68
672.507	11320.1
672.856	11355.13
673.205	11386.76
673.554	11336.59
673.904	11393.77
674.253	11392.19
674.602	11370.04
674.951	11263.83
675.3	11135.7
675.649	11386.54
675.998	11305.86
676.346	11258.4
676.695	11387.67
677.044	11231.06
677.393	11303.38
677.741	11218.63
678.09	11227.67
678.438	11212.08
678.787	11166.88
679.135	11186.09
679.484	11077.17
679.832	11252.3
680.181	11111.52
680.529	11134.57
680.877	11074
681.225	11119.65
681.573	11070.39
681.922	11090.05
682.27	11071.97
682.618	11001.24
682.966	11055.92
683.314	11085.3
683.661	10947.68
684.009	10909.94
684.357	10913.1
684.705	10867.45
685.053	10870.17
685.4	10932.76
685.748	10799.21
686.095	10807.12
686.443	10798.3
686.79	10753.33
687.138	10731.86
687.485	10766.89
687.832	10723.5
688.18	10684.63
688.527	10698.87
688.874	10596.95
689.221	10646.22
689.568	10537.52
689.915	10533
690.262	10505.66
690.609	10448.93
690.956	10458.43
691.303	10411.42
691.65	10427.92
691.997	10403.06
692.344	10313.8
692.69	10318.09
693.037	10221.6
693.383	10189.28
693.73	10202.16
694.077	10167.36
694.423	10148.38
694.769	10081.94
695.116	10107.7
695.462	9996.74
695.808	10029.96
696.155	9978.44
696.501	9860.7
696.847	9894.6
697.193	9806.47
697.539	9858.22
697.885	9821.38
698.231	9770.76
698.577	9759.46
698.923	9734.83
699.269	9748.84
699.614	9622.29
699.96	9632.91
700.306	9539.81
700.651	9544.55
700.997	9505.68
701.342	9532.8
701.688	9472.01
702.033	9412.13
702.379	9401.96
702.724	9340.04
703.069	9355.18
703.415	9268.17
703.76	9285.8
704.105	9201.28
704.45	9177.56
704.795	9065.47
705.14	9128.74
705.485	9080.61
705.83	9091
706.175	9058.24
706.52	9030.21
706.865	9015.75
707.209	8939.82
707.554	8947.96
707.899	8941.18
708.243	8881.29
708.588	8862.99
708.932	8810.56
709.277	8819.15
709.621	8782.31
709.966	8739.15
710.31	8741.63
710.654	8706.83
710.998	8677.46
711.342	8727.62
711.687	8711.13
712.031	8644.69
712.375	8549.78
712.719	8609.43
713.063	8604.01
713.407	8623.9
713.75	8617.8
714.094	8567.4
714.438	8498.25
714.782	8521.08
715.125	8480.4
715.469	8507.97
715.812	8477.46
716.156	8404.47
716.499	8455.99
716.843	8380.74
717.186	8443.56
717.53	8390.46
717.873	8397.46
718.216	8367.86
718.559	8368.99
718.902	8322.66
719.246	8259.16
719.589	8228.43
719.932	8270.46
720.275	8249.9
720.617	8267.52
720.96	8188.43
721.303	8238.37
721.646	8195.66
721.989	8138.71
722.331	8275.66
722.674	8166.96
723.016	8228.88
723.359	8172.38
723.701	8123.8
724.044	8138.26
724.386	8161.76
724.729	8118.15
725.071	8181.65
725.413	8097.58
725.755	8157.47
726.097	8075.21
726.439	8071.6
726.782	8045.38
727.124	8083.12
727.465	8094.65
727.807	8031.37
728.149	7983.46
728.491	8068.43
728.833	8124.48
729.175	8010.35
729.516	8038.38
729.858	8039.51
730.199	8129.9
730.541	8086.06
730.882	8006.51
731.224	8074.31
731.565	8034.08
731.906	8031.82
732.248	8001.99
732.589	8030.69
732.93	7996.34
733.271	8052.84
733.612	8038.15
733.953	8010.58
734.294	8033.4
734.635	7977.13
734.976	8004.48
735.317	7997.7
735.658	7989.34
735.999	8013.52
736.339	8016.23
736.68	8075.21
737.021	8026.85
737.361	7973.75
737.702	8054.42
738.042	8038.15
738.383	8099.39
738.723	8006.29
739.063	8035.66
739.404	8103.91
739.744	8100.75
740.084	8057.58
740.424	8081.99
740.764	8087.87
741.104	8152.95
741.444	8114.98
741.784	8089.9
742.124	8161.76
742.464	8080.63
742.804	8188.43
743.143	8189.78
743.483	8215.09
743.823	8192.95
744.162	8340.29
744.502	8335.54
744.841	8253.96
745.181	8378.71
745.52	8332.15
745.86	8430.23
746.199	8500.06
746.538	8470.23
746.877	8578.93
747.216	8606.04
747.556	8630.68
747.895	8613.95
748.234	8685.36
748.573	8750.67
748.911	8760.62
749.25	8856.66
749.589	8880.16
749.928	8952.7
750.267	9061.17
750.605	9146.6
750.944	9116.09
751.283	9236.54
751.621	9397.89
751.96	9470.43
752.298	9477.43
752.636	9613.48
752.975	9676.07
753.313	9730.54
753.651	9892.56
753.989	10009.62
754.327	10060.47
754.666	10141.6
755.004	10328.49
755.342	10542.49
755.679	10464.3
756.017	10653.22
756.355	10784.74
756.693	10926.44
757.031	11058.18
757.368	11198.52
757.706	11311.28
758.044	11442.35
758.381	11649.81
758.719	11764.38
759.056	11880.99
759.394	12087.54
759.731	12184.26
760.068	12296.8
760.405	12468.99
760.743	12649.33
761.08	12845.26
761.417	12922.32
761.754	13109.88
762.091	13324.11
762.428	13551.68
762.765	13548.97
763.102	13776.98
763.438	13821.5
763.775	13971.78
764.112	14198.44
764.449	14416.06
764.785	14554.59
765.122	14653.57
765.458	14793.45
765.795	14919.78
766.131	15126.78
766.467	15237.06
766.804	15387.11
767.14	15523.83
767.476	15667.1
767.812	15774.67
768.148	16011.5
768.485	15999.97
768.821	16181.44
769.157	16369
769.492	16437.48
769.828	16625.04
770.164	16658.04
770.5	16724.7
770.836	16905.04
771.171	16933.74
771.507	17060.29
771.842	17042.66
772.178	17315.65
772.513	17337.11
772.849	17430.67
773.184	17472.7
773.519	17686.94
773.855	17538.01
774.19	17652.13
774.525	17668.63
774.86	17790.66
775.195	17903.65
775.53	17939.58
775.865	17898.68
776.2	17859.13
776.535	17873.15
776.87	17968.06
777.205	18032.92
777.539	18008.96
777.874	18217.32
778.209	18099.35
778.543	18175.96
778.878	18065.01
779.212	18166.7
779.547	18193.14
779.881	18328.5
780.215	18226.36
780.55	18293.25
780.884	18260.03
781.218	18332.12
781.552	18321.5
781.886	18385
782.22	18266.36
782.554	18369.18
782.888	18206.02
783.222	18233.36
783.556	18193.36
783.889	18243.76
784.223	18137.32
784.557	18128.28
784.89	18196.98
785.224	18208.28
785.557	18180.03
785.891	18100.26
786.224	18212.57
786.558	18132.57
786.891	18127.6
787.224	18048.51
787.557	18044.89
787.891	18018.9
788.224	18138.22
788.557	18058.9
788.89	17945.69
789.223	18001.28
789.556	17982.3
789.888	17946.59
790.221	17926.48
790.554	17778.23
790.887	17862.75
791.219	17750.89
791.552	17698.91
791.884	17714.96
792.217	17719.7
792.549	17692.36
792.882	17605.36
793.214	17540.5
793.546	17697.11
793.879	17531.91
794.211	17520.39
794.543	17518.8
794.875	17413.5
795.207	17418.69
795.539	17415.98
795.871	17516.55
796.203	17339.83
796.535	17235.42
796.867	17179.15
797.198	17158.14
797.53	17153.39
797.862	17022.32
798.193	17160.17
798.525	17037.69
798.856	17025.94
799.188	16884.25
799.519	16867.52
799.85	16753.4
800.182	16784.13
800.513	16827.07
800.844	16612.84
801.175	16787.3
801.506	16779.62
801.837	16619.62
802.168	16647.42
802.499	16502.79
802.83	16506.63
803.161	16465.73
803.491	16499.85
803.822	16394.09
804.153	16449.68
804.483	16234.32
804.814	16257.14
805.145	16208.56
805.475	16196.58
805.805	16143.93
806.136	16038.17
806.466	16068.22
806.796	16039.75
807.126	15993.87
807.457	15862.58
807.787	15963.37
808.117	15880.43
808.447	15797.72
808.777	15870.03
809.107	15833.43
809.436	15811.51
809.766	15748.23
810.096	15698.74
810.426	15574.9
810.755	15837.72
811.085	15597.05
811.414	15603.15
811.744	15557.5
812.073	15489.93
812.403	15492.87
812.732	15366.77
813.061	15430.95
813.39	15330.84
813.719	15334.91
814.049	15452.64
814.378	15312.31
814.707	15257.17
815.036	15270.73
815.365	15150.05
815.693	15103.28
816.022	15030.51
816.351	15050.17
816.68	14974.47
817.008	15068.02
817.337	14953
817.665	14929.27
817.994	14973.79
818.322	14906.9
818.651	14777.86
818.979	14731.53
819.307	14920
819.636	14804.75
819.964	14808.82
820.292	14832.1
820.62	14820.8
820.948	14732.21
821.276	14738.77
821.604	14747.8
821.932	14840.46
822.259	14721.82
822.587	14740.57
822.915	14660.8
823.243	14727.24
823.57	14651.99
823.898	14692.21
824.225	14698.99
824.553	14638.88
824.88	14673.23
825.207	14818.99
825.535	14706.22
825.862	14661.03
826.189	14637.52
826.516	14689.95
826.843	14767.92
827.17	14623.51
827.497	14786
827.824	14746.67
828.151	14691.53
828.478	14795.03
828.805	14812.66
829.131	14692.44
829.458	14749.39
829.785	14647.92
830.111	14687.01
830.438	14751.87
830.764	14745.09
831.09	14748.93
831.417	14637.75
831.743	14742.38
832.069	14731.08
832.395	14613.8
832.722	14715.71
833.048	14612.67
833.374	14726.34
833.7	14613.57
834.026	14691.53
834.351	14626.68
834.677	14667.58
835.003	14567.02
835.329	14662.16
835.654	14548.94
835.98	14543.97
836.306	14554.36
836.631	14617.64
836.956	14546
837.282	14514.14
837.607	14533.35
837.932	14422.39
838.258	14428.72
838.583	14337.19
838.908	14285.44
839.233	14388.27
839.558	14257.87
839.883	14245.67
840.208	14295.39
840.533	14202.73
840.858	14244.77
841.182	14235.5
841.507	14235.95
841.832	14078.67
842.156	14161.38
842.481	14088.61
842.805	14044.77
843.13	13988.5
843.454	13991.44
843.778	13986.24
844.103	13914.15
844.427	13901.27
844.751	13881.16
845.075	13832.35
845.399	13788.73
845.723	13705.57
846.047	13706.02
846.371	13681.39
846.695	13672.35
847.019	13547.38
847.343	13516.42
847.666	13405.92
847.99	13349.42
848.313	13332.02
848.637	13271.46
848.96	13281.4
849.284	13235.53
849.607	13159.15
849.931	13063.33
850.254	13062.65
850.577	12956.66
850.9	12909.43
851.223	12864.24
851.546	12801.41
851.869	12741.76
852.192	12756.44
852.515	12661.53
852.838	12594.41
853.161	12585.38
853.483	12548.31
853.806	12441.2
854.129	12537.24
854.451	12404.36
854.774	12385.61
855.096	12401.65
855.419	12276.91
855.741	12263.58
856.063	12170.92
856.385	12167.31
856.708	12127.08
857.03	12129.34
857.352	12066.52
857.674	12007.54
857.996	11985.17
858.318	11937.03
858.64	11898.84
858.961	11838.5
859.283	11803.47
859.605	11786.3
859.926	11819.07
860.248	11738.39
860.57	11702.69
860.891	11715.12
861.212	11600.54
861.534	11614.1
861.855	11572.29
862.176	11636.93
862.498	11551.96
862.819	11635.57
863.14	11536.36
863.461	11465.86
863.782	11485.97
864.103	11498.17
864.424	11442.13
864.745	11522.8
865.065	11460.21
865.386	11332.07
865.707	11390.38
866.027	11328.01
866.348	11337.95
866.668	11288.91
866.989	11308.8
867.309	11205.3
867.63	11224.73
867.95	11275.81
868.27	11155.58
868.59	11184.06
868.91	11073.78
869.23	11142.7
869.55	11126.43
869.87	11128.46
870.19	11067.68
870.51	11076.26
870.83	11034.46
871.15	10993.1
871.469	11021.57
871.789	11064.06
872.109	11006.89
872.428	10944.74
872.748	10977.06
873.067	10934.8
873.386	11005.53
873.706	10910.84
874.025	10923.95
874.344	10809.6
874.663	10833.78
874.982	10776.84
875.301	10837.85
875.62	10779.1
875.939	10741.58
876.258	10759.89
876.577	10731.86
876.896	10779.1
877.214	10675.6
877.533	10672.43
877.852	10673.79
878.17	10675.6
878.489	10660.23
878.807	10684.41
879.125	10613.9
879.444	10618.65
879.762	10594.47
880.08	10511.76
880.398	10511.76
880.716	10556.95
881.034	10481.25
881.352	10504.07
881.67	10481.48
881.988	10514.92
882.306	10390.63
882.624	10342.5
882.941	10267.92
883.259	10257.75
883.577	10321.03
883.894	10289.16
884.212	10270.41
884.529	10244.65
884.846	10240.35
885.164	10220.92
885.481	10111.54
885.798	10187.25
886.115	10071.54
886.432	10028.83
886.75	10069.96
887.067	10072.67
887.383	10020.47
887.7	10022.5
888.017	9978.44
888.334	9956.07
888.651	9950.64
888.967	9907.48
889.284	9849.4
889.6	9850.98
889.917	9747.03
890.233	9702.97
890.55	9669.29
890.866	9758.56
891.182	9689.86
891.498	9644.21
891.815	9550.65
892.131	9584.32
892.447	9569.86
892.763	9483.54
893.079	9481.28
893.395	9492.8
893.71	9399.92
894.026	9483.99
894.342	9410.32
894.657	9365.8
894.973	9308.17
895.289	9302.75
895.604	9291.68
895.92	9262.75
896.235	9148.4
896.55	9200.15
896.865	9151.57
897.181	9125.35
897.496	9163.77
897.811	9027.95
898.126	9042.64
898.441	8990.44
898.756	8966.71
899.071	8910.9
899.386	8922.65
899.7	8834.97
900.015	8879.94
900.33	8735.98
900.644	8774.18
900.959	8773.27
901.273	8768.07
901.588	8661.86
901.902	8637.68
902.216	8621.41
902.531	8553.62
902.845	8547.97
903.159	8463
903.473	8501.87
903.787	8423.9
904.101	8398.14
904.415	8404.24
904.729	8387.07
905.042	8325.37
905.356	8260.52
905.67	8304.81
905.984	8271.36
906.297	8237.24
906.611	8152.5
906.924	8148.88
907.237	8149.11
907.551	8071.14
907.864	8116.57
908.177	8085.83
908.491	8032.27
908.804	7920.41
909.117	7900.3
909.43	7907.53
909.743	7848.78
910.056	7783.24
910.368	7715.9
910.681	7766.52
910.994	7778.72
911.307	7698.5
911.619	7683.36
911.932	7666.86
912.244	7552.51
912.557	7553.42
912.869	7505.28
913.181	7462.35
913.494	7503.7
913.806	7423.7
914.118	7399.75
914.43	7341.45
914.742	7347.55
915.054	7330.15
915.366	7274.55
915.678	7258.28
915.99	7211.51
916.302	7176.48
916.613	7141
916.925	7213.99
917.236	7108.23
917.548	7130.83
917.859	7092.41
918.171	7037.05
918.482	7033.66
918.794	6959.76
919.105	6932.42
919.416	6937.16
919.727	6891.06
920.038	6839.54
920.349	6826.66
920.66	6802.93
920.971	6778.52
921.282	6749.82
921.593	6684.06
921.903	6754.79
922.214	6595.7
922.525	6643.84
922.835	6562.48
923.146	6563.16
923.456	6573.33
923.767	6505.08
924.077	6503.5
924.387	6444.07
924.697	6444.75
925.008	6385.76
925.318	6325.88
925.628	6361.36
925.938	6339.66
926.248	6326.56
926.558	6251.76
926.867	6244.75
927.177	6226.67
927.487	6174.47
927.796	6149.61
928.106	6153.23
928.416	6098.54
928.725	6101.93
929.034	6063.74
929.344	6095.83
929.653	6061.71
929.962	6000.01
930.271	5992.78
930.581	6002.72
930.89	5871.65
931.199	5867.59
931.508	5853.8
931.817	5912.56
932.125	5809.96
932.434	5848.83
932.743	5805.21
933.051	5769.74
933.36	5761.15
933.669	5725.22
933.977	5676.4
934.286	5658.33
934.594	5671.66
934.902	5646.35
935.21	5586.01
935.519	5572.68
935.827	5536.3
936.135	5508.73
936.443	5455.39
936.751	5432.34
937.059	5454.49
937.367	5426.24
937.674	5443.64
937.982	5388.05
938.29	5386.47
938.597	5372.46
938.905	5268.05
939.213	5302.63
939.52	5256.3
939.827	5309.86
940.135	5226.7
940.442	5175.17
940.749	5195.74
941.056	5198
941.363	5122.52
941.67	5160.49
941.977	5091.11
942.284	5045.91
942.591	5069.19
942.898	5033.71
943.205	4988.29
943.511	4981.28
943.818	4998.46
944.125	4974.28
944.431	4937.89
944.738	4890.44
945.044	4902.19
945.35	4829.2
945.657	4861.74
945.963	4816.54
946.269	4772.02
946.575	4769.54
946.881	4787.84
947.187	4727.5
947.493	4737.9
947.799	4713.04
948.105	4690.89
948.41	4664
948.716	4693.15
949.022	4637.56
949.327	4590.33
949.633	4581.29
949.938	4522.31
950.244	4502.42
950.549	4522.08
950.854	4503.55
951.16	4478.7
951.465	4493.61
951.77	4477.57
952.075	4429.21
952.38	4390.79
952.685	4431.47
952.99	4350.11
953.294	4362.99
953.599	4337.91
953.904	4309.43
954.209	4273.5
954.513	4301.3
954.818	4254.52
955.122	4252.94
955.426	4242.77
955.731	4235.54
956.035	4166.84
956.339	4131.36
956.643	4153.73
956.948	4086.62
957.252	4083.68
957.556	4121.87
957.86	4096.11
958.163	4095.43
958.467	4067.18
958.771	4050.01
959.075	4036
959.378	3975.21
959.682	4007.3
959.985	3969.56
960.289	3937.69
960.592	3891.59
960.896	3907.86
961.199	3872.16
961.502	3868.32
961.805	3875.55
962.108	3802.78
962.411	3876.68
962.714	3760.75
963.017	3811.37
963.32	3778.15
963.623	3779.73
963.926	3747.19
964.228	3677.59
964.531	3694.08
964.833	3690.47
965.136	3659.73
965.438	3675.55
965.741	3614.31
966.043	3614.76
966.345	3617.02
966.648	3592.39
966.95	3608.66
967.252	3535.44
967.554	3543.35
967.856	3524.14
968.158	3487.76
968.46	3515.33
968.761	3470.59
969.063	3466.52
969.365	3416.58
969.666	3436.92
969.968	3420.64
970.269	3412.51
970.571	3390.81
970.872	3396.92
971.174	3419.97
971.475	3372.51
971.776	3313.3
972.077	3325.73
972.378	3308.78
972.679	3307.43
972.98	3275.34
973.281	3274.43
973.582	3258.16
973.883	3250.48
974.183	3209.8
974.484	3236.69
974.785	3214.77
975.085	3182.46
975.386	3202.12
975.686	3149.92
975.986	3151.05
976.287	3176.81
976.587	3090.94
976.887	3123.25
977.187	3099.3
977.487	3056.59
977.787	3068.79
978.087	3069.69
978.387	3018.4
978.687	3034.44
978.987	3029.69
979.286	2985.4
979.586	2997.83
979.885	2995.34
980.185	2933.43
980.484	2957.38
980.784	2910.38
981.083	2938.62
981.382	2884.61
981.682	2870.83
981.981	2891.17
982.28	2838.74
982.579	2825.63
982.878	2852.52
983.177	2827.44
983.475	2812.07
983.774	2810.72
984.073	2815.91
984.372	2798.06
984.67	2766.88
984.969	2764.16
985.267	2754
985.566	2736.59
985.864	2715.13
986.162	2716.93
986.461	2701.57
986.759	2662.25
987.057	2662.02
987.355	2640.55
987.653	2635.81
987.951	2623.83
988.249	2669.25
988.547	2604.85
988.844	2579.76
989.142	2568.24
989.44	2558.52
989.737	2550.16
990.035	2542.02
990.332	2528.24
990.63	2495.25
990.927	2528.46
991.224	2512.65
991.521	2492.08
991.819	2456.38
992.116	2460.67
992.413	2493.44
992.71	2435.36
993.006	2430.61
993.303	2432.65
993.6	2425.19
993.897	2405.08
994.193	2379.54
994.49	2356.04
994.787	2332.99
995.083	2344.29
995.379	2353.33
995.676	2326.66
995.972	2320.79
996.268	2341.12
996.565	2326.89
996.861	2302.48
997.157	2298.64
997.453	2258.64
997.749	2246.21
998.044	2245.53
998.34	2223.61
998.636	2248.7
998.932	2189.04
999.227	2185.2
999.523	2182.48
999.818	2190.17
1000.114	2158.08
1000.409	2125.54
1000.704	2149.94
1001	2103.62
1001.295	2084.86
1001.59	2109.49
1001.885	2102.71
1002.18	2062.49
1002.475	2081.92
1002.77	2059.32
1003.065	2020.23
1003.359	2018.42
1003.654	2024.07
1003.949	2024.52
1004.243	1996.28
1004.538	2020.68
1004.832	1964.64
1005.127	1982.26
1005.421	1963.06
1005.715	1940.01
1006.009	1926.22
1006.304	1887.8
1006.598	1889.84
1006.892	1917.86
1007.186	1884.41
1007.48	1867.01
1007.773	1883.06
1008.067	1860.23
1008.361	1853.68
1008.655	1837.18
1008.948	1803.06
1009.242	1822.49
1009.535	1807.81
1009.829	1792.89
1010.122	1779.11
1010.415	1775.26
1010.708	1765.55
1011.001	1764.87
1011.295	1747.24
1011.588	1725.32
1011.881	1724.19
1012.173	1703.85
1012.466	1692.33
1012.759	1720.12
1013.052	1693.68
1013.344	1688.49
1013.637	1658.66
1013.93	1648.26
1014.222	1634.93
1014.514	1629.28
1014.807	1664.08
1015.099	1589.51
1015.391	1584.53
1015.683	1646.68
1015.976	1611.43
1016.268	1598.09
1016.56	1578.89
1016.851	1537.3
1017.143	1536.63
1017.435	1558.32
1017.727	1527.36
1018.018	1529.62
1018.31	1524.65
1018.602	1507.47
1018.893	1486.68
1019.185	1483.52
1019.476	1451.2
1019.767	1471.54
1020.058	1459.11
1020.35	1445.33
1020.641	1432.67
1020.932	1441.04
1021.223	1414.37
1021.514	1417.31
1021.804	1409.4
1022.095	1401.94
1022.386	1385.22
1022.677	1379.12
1022.967	1360.59
1023.258	1377.31
1023.548	1356.07
1023.839	1339.12
1024.129	1317.2
1024.419	1365.33
1024.709	1310.19
1025	1302.28
1025.29	1302.28
1025.58	1299.12
1025.87	1292.56
1026.16	1269.97
1026.449	1277.42
1026.739	1234.94
1027.029	1282.85
1027.319	1244.43
1027.608	1215.28
1027.898	1229.06
1028.187	1215.96
1028.477	1199.91
1028.766	1201.95
1029.055	1183.42
1029.344	1165.56
1029.634	1187.71
1029.923	1176.64
1030.212	1153.81
1030.501	1119.24
1030.79	1149.29
1031.078	1168.5
1031.367	1136.41
1031.656	1108.61
1031.945	1108.16
1032.233	1094.6
1032.522	1097.77
1032.81	1105.68
1033.099	1095.51
1033.387	1074.72
1033.675	1078.56
1033.963	1085.11
1034.251	1093.93
1034.54	1043.76
1034.828	1070.88
1035.116	1028.84
1035.403	1030.65
1035.691	1043.76
1035.979	1014.15
1036.267	1005.79
1036.554	1017.09
1036.842	984.32
1037.129	1006.02
1037.417	974.83
1037.704	994.04
1037.992	981.39
1038.279	965.34
1038.566	993.36
1038.853	993.36
1039.14	993.36
