Data from hue_150_FLMS001491_00034.txt Node
Date: Tue Feb 07 16:53:57 GMT 2017
User: dcchb
Spectrometer: FLMS00149
Trigger mode: 0
Integration Time (sec): 2.000000E-2
Scans to average: 10
Electric dark correction enabled: true
Nonlinearity correction enabled: false
Boxcar width: 0
XAxis mode: Wavelengths
Number of Pixels in Spectrum: 2048
>>>>>Begin Spectral Data<<<<<
341.393	0.95
341.776	0.95
342.16	0.95
342.543	-69.11
342.927	-66.17
343.31	-63.23
343.693	-63.23
344.077	-60.75
344.46	-50.13
344.843	-46.28
345.226	-47.64
345.61	-4.7
345.993	-34.98
346.376	-3.12
346.759	-7.64
347.142	7.95
347.525	36.2
347.908	51.57
348.291	88.18
348.674	87.5
349.057	110.32
349.44	124.33
349.823	137.44
350.206	190.09
350.588	195.52
350.971	210.21
351.354	214.27
351.737	229.19
352.119	242.75
352.502	265.8
352.884	278
353.267	276.42
353.65	286.59
354.032	264.22
354.414	334.04
354.797	296.76
355.179	302.63
355.562	321.39
355.944	321.39
356.326	337.66
356.709	338.79
357.091	332.01
357.473	350.77
357.855	340.37
358.238	353.71
358.62	347.38
359.002	338.34
359.384	332.24
359.766	325.68
360.148	330.2
360.53	328.62
360.912	345.8
361.294	343.54
361.676	348.73
362.057	342.18
362.439	322.52
362.821	326.14
363.203	323.42
363.584	329.07
363.966	319.13
364.348	315.74
364.729	339.69
365.111	304.44
365.493	322.07
365.874	325.91
366.256	327.49
366.637	327.27
367.019	314.38
367.4	308.06
367.781	303.54
368.163	325.01
368.544	331.79
368.925	318.23
369.306	319.81
369.688	304.89
370.069	304.89
370.45	301.5
370.831	294.05
371.212	307.38
371.593	329.75
371.974	308.96
372.355	314.84
372.736	316.42
373.117	326.14
373.498	315.74
373.879	325.91
374.26	357.77
374.641	303.76
375.021	304.89
375.402	329.75
375.783	320.03
376.163	335.63
376.544	309.41
376.925	329.3
377.305	332.01
377.686	341.95
378.066	329.75
378.447	329.3
378.827	336.08
379.208	336.3
379.588	332.91
379.968	331.56
380.349	316.87
380.729	331.56
381.109	331.11
381.489	343.99
381.87	345.34
382.25	322.29
382.63	337.66
383.01	325.23
383.39	341.5
383.77	310.99
384.15	353.48
384.53	335.85
384.91	354.84
385.29	360.03
385.67	354.38
386.049	354.38
386.429	348.06
386.809	354.84
387.189	370.2
387.568	340.15
387.948	379.69
388.328	353.93
388.707	355.29
389.087	353.93
389.466	359.81
389.846	372.01
390.225	369.98
390.605	353.25
390.984	373.37
391.363	368.17
391.743	379.47
392.122	372.01
392.501	360.03
392.881	387.6
393.26	385.57
393.639	368.62
394.018	382.41
394.397	380.6
394.776	404.33
395.155	386.92
395.534	387.83
395.913	368.17
396.292	388.73
396.671	394.61
397.05	381.73
397.429	379.24
397.808	391.44
398.186	378.79
398.565	395.74
398.944	407.04
399.323	410.43
399.701	418.56
400.08	395.96
400.458	395.06
400.837	382.86
401.215	414.49
401.594	406.36
401.972	426.25
402.351	418.34
402.729	419.01
403.107	422.18
403.486	400.48
403.864	434.83
404.242	421.27
404.62	422.63
404.999	429.86
405.377	427.15
405.755	420.82
406.133	421.27
406.511	431.44
406.889	435.06
407.267	439.13
407.645	437.09
408.023	453.14
408.401	445.91
408.779	463.31
409.156	458.79
409.534	460.14
409.912	449.3
410.29	468.73
410.667	471.22
411.045	461.05
411.422	472.35
411.8	489.3
412.178	496.75
412.555	474.61
412.933	502.63
413.31	505.79
413.687	506.24
414.065	492.68
414.442	501.72
414.819	491.55
415.197	507.83
415.574	532.68
415.951	517.77
416.328	511.67
416.705	516.64
417.082	518.9
417.46	540.82
417.837	510.54
418.214	510.76
418.591	520.25
418.967	539.92
419.344	545.56
419.721	555.06
420.098	559.12
420.475	541.5
420.852	559.58
421.228	582.85
421.605	540.59
421.982	558.22
422.358	558.67
422.735	565
423.111	576.07
423.488	580.59
423.864	576.52
424.241	578.56
424.617	596.41
424.994	595.51
425.37	582.4
425.746	603.19
426.123	613.59
426.499	593.93
426.875	632.57
427.251	621.04
427.627	631.89
428.003	654.49
428.379	623.98
428.756	651.78
429.132	659.91
429.507	648.39
429.883	654.49
430.259	668.05
430.635	682.74
431.011	657.65
431.387	689.97
431.763	694.94
432.138	682.28
432.514	699.91
432.89	684.77
433.265	738.1
433.641	708.5
434.016	740.81
434.392	726.8
434.767	754.6
435.143	747.59
435.518	748.27
435.894	751.21
436.269	758.21
436.644	759.57
437.02	768.84
437.395	759.34
437.77	797.76
438.145	804.54
438.52	792.79
438.895	794.6
439.271	808.16
439.646	814.26
440.021	839.79
440.395	849.51
440.77	803.19
441.145	839.57
441.52	872.56
441.895	840.25
442.27	859.23
442.645	874.14
443.019	864.2
443.394	853.81
443.769	879.79
444.143	854.48
444.518	905.1
444.892	897.65
445.267	927.48
445.641	896.97
446.016	907.36
446.39	937.42
446.764	935.61
447.139	941.03
447.513	946.01
447.887	961.6
448.262	960.92
448.636	931.77
449.01	955.72
449.384	983.29
449.758	974.48
450.132	983.07
450.506	998.66
450.88	1020.81
451.254	1007.47
451.628	995.72
452.002	1033.46
452.376	1038.43
452.75	1042.5
453.123	1052.9
453.497	1068.71
453.871	1086.57
454.244	1087.7
454.618	1103.74
454.992	1097.64
455.365	1111.65
455.739	1135.83
456.112	1151.88
456.486	1118.66
456.859	1165.44
457.232	1181.48
457.606	1205.21
457.979	1186.23
458.352	1228.71
458.725	1228.94
459.099	1240.46
459.472	1256.51
459.845	1283.4
460.218	1296.28
460.591	1317.75
460.964	1323.17
461.337	1328.82
461.71	1355.49
462.083	1371.98
462.456	1374.02
462.829	1418.08
463.201	1419.44
463.574	1425.54
463.947	1430.51
464.32	1497.86
464.692	1495.82
465.065	1535.6
465.438	1504.41
465.81	1569.49
466.183	1577.4
466.555	1609.27
466.928	1638.64
467.3	1643.84
467.672	1693.33
468.045	1695.14
468.417	1706.89
468.789	1744.4
469.161	1800.67
469.534	1798.87
469.906	1865.98
470.278	1890.61
470.65	1885.64
471.022	1932.42
471.394	1989.14
471.766	1976.04
472.138	2041.8
472.51	2154.34
472.882	2146.2
473.253	2182.81
473.625	2232.07
473.997	2276.14
474.369	2304.84
474.74	2352.97
475.112	2366.99
475.484	2496.25
475.855	2522.01
476.227	2572.63
476.598	2592.29
476.97	2706.41
477.341	2730.14
477.713	2846.75
478.084	2886.29
478.455	3024.14
478.827	3034.54
479.198	3138.49
479.569	3203.12
479.94	3325.6
480.311	3361.76
480.682	3493.51
481.053	3578.93
481.424	3650.12
481.795	3726.05
482.166	3880.84
482.537	3919.49
482.908	4050.78
483.279	4108.41
483.65	4237.45
484.021	4390.89
484.391	4481.28
484.762	4570.09
485.133	4700.48
485.503	4796.53
485.874	4904.77
486.244	5055.73
486.615	5152.68
486.985	5294.59
487.356	5435.83
487.726	5505.43
488.097	5708.82
488.467	5744.07
488.837	5980.68
489.207	6097.74
489.578	6267.45
489.948	6332.76
490.318	6518.74
490.688	6563.03
491.058	6770.26
491.428	6899.07
491.798	7102
492.168	7221.77
492.538	7274.43
492.908	7418.15
493.278	7611.59
493.648	7664.7
494.017	7822.44
494.387	7952.83
494.757	8111.92
495.126	8238.24
495.496	8307.62
495.866	8512.59
496.235	8542.42
496.605	8677.33
496.974	8903.54
497.344	8930.2
497.713	9039.35
498.082	9209.74
498.452	9316.18
498.821	9446.57
499.19	9498.1
499.559	9623.97
499.928	9769.5
500.298	9861.48
500.667	10015.37
501.036	9989.16
501.405	10147.8
501.774	10202.94
502.143	10244.07
502.512	10407
502.88	10534.68
503.249	10558.41
503.618	10670.5
503.987	10650.84
504.356	10783.49
504.724	10935.35
505.093	10957.49
505.462	11037.04
505.83	11110.71
506.199	11118.17
506.567	11326.75
506.936	11348.9
507.304	11470.93
507.672	11513.41
508.041	11592.73
508.409	11619.17
508.777	11686.97
509.145	11760.64
509.514	11812.39
509.882	11959.05
510.25	11991.14
510.618	12010.8
510.986	12024.58
511.354	12229.1
511.722	12299.83
512.09	12407.85
512.458	12357.23
512.826	12402.43
513.193	12492.14
513.561	12461.64
513.929	12551.12
514.297	12666.15
514.664	12717.45
515.032	12774.85
515.4	12845.13
515.767	12805.58
516.135	12890.78
516.502	12764
516.869	13021.17
517.237	13028.63
517.604	12936.88
517.972	13111.11
518.339	13106.59
518.706	13152.69
519.073	13164.89
519.44	13167.83
519.808	13226.14
520.175	13196.98
520.542	13358.11
520.909	13441.04
521.276	13389.29
521.643	13446.92
522.009	13496.64
522.376	13534.15
522.743	13592
523.11	13544.54
523.477	13743.86
523.843	13721.26
524.21	13782.96
524.577	13796.06
524.943	13875.38
525.31	13817.98
525.676	13910.41
526.043	13938.21
526.409	13953.35
526.776	14051.88
527.142	14045.77
527.508	14061.82
527.874	14067.7
528.241	14079.67
528.607	14158.77
528.973	14140.46
529.339	14157.64
529.705	14122.83
530.071	14247.35
530.437	14224.53
530.803	14239.22
531.169	14239.67
531.535	14192.21
531.901	14249.16
532.267	14205.54
532.632	14221.82
532.998	14189.5
533.364	14215.04
533.73	14140.69
534.095	14235.6
534.461	14201.48
534.826	14236.5
535.192	14199.89
535.557	14256.39
535.923	14198.54
536.288	14213.45
536.653	14117.86
537.019	14075.6
537.384	14093.91
537.749	14060.92
538.114	14104.76
538.479	14065.66
538.845	14055.94
539.21	13898.89
539.575	13896.85
539.94	13924.65
540.305	13911.32
540.67	13834.03
541.034	13817.98
541.399	13851.43
541.764	13852.11
542.129	13857.31
542.494	13805.33
542.858	13820.24
543.223	13751.55
543.587	13711.55
543.952	13685.56
544.316	13701.38
544.681	13555.17
545.045	13662.51
545.41	13647.82
545.774	13515.17
546.138	13489.18
546.503	13537.99
546.867	13367.83
547.231	13388.39
547.595	13433.59
547.959	13429.07
548.324	13310.65
548.688	13350.2
549.052	13323.53
549.416	13245.57
549.779	13143.65
550.143	13183.42
550.507	13190.66
550.871	13193.14
551.235	13111.56
551.599	13166.93
551.962	13050.55
552.326	13042.86
552.689	13110.66
553.053	12994.5
553.417	13001.51
553.78	13084.67
554.143	12988.85
554.507	13002.19
554.87	13072.69
555.234	13026.59
555.597	12928.06
555.96	12960.83
556.323	12971.45
556.686	12889.87
557.05	12894.84
557.413	12898.69
557.776	12881.51
558.139	12931.23
558.502	12897.56
558.865	12830.67
559.228	12990.89
559.59	12923.32
559.953	12857.33
560.316	12949.31
560.679	12879.93
561.041	12888.74
561.404	13034.05
561.767	12940.95
562.129	12909.76
562.492	12987.95
562.854	12910.66
563.217	12839.25
563.579	12909.99
563.941	12953.6
564.304	12990.44
564.666	13012.36
565.028	12917.67
565.39	13026.59
565.753	12997.89
566.115	13058.91
566.477	13004.22
566.839	13093.26
567.201	13072.24
567.563	13161.28
567.925	13124.67
568.287	13146.36
568.648	13132.35
569.01	13146.59
569.372	13172.8
569.734	13181.16
570.095	13200.83
570.457	13191.56
570.819	13246.25
571.18	13197.89
571.542	13261.84
571.903	13240.37
572.265	13255.97
572.626	13302.97
572.987	13198.57
573.349	13343.87
573.71	13371.44
574.071	13349.97
574.432	13320.14
574.794	13450.08
575.155	13367.6
575.516	13337.32
575.877	13415.96
576.238	13390.42
576.599	13338.9
576.96	13408.73
577.32	13455.28
577.681	13402.63
578.042	13430.2
578.403	13459.8
578.763	13425.68
579.124	13475.17
579.485	13490.08
579.845	13493.02
580.206	13519.91
580.566	13450.08
580.927	13483.3
581.287	13429.52
581.648	13401.5
582.008	13468.16
582.368	13443.53
582.728	13488.05
583.089	13400.37
583.449	13407.6
583.809	13469.29
584.169	13392.46
584.529	13380.71
584.889	13475.39
585.249	13385.68
585.609	13312.23
585.969	13368.96
586.329	13392.68
586.688	13388.62
587.048	13339.13
587.408	13348.84
587.768	13389.97
588.127	13361.05
588.487	13281.73
588.846	13395.17
589.206	13257.09
589.565	13166.02
589.925	13333.7
590.284	13253.03
590.643	13321.05
591.003	13324.44
591.362	13309.3
591.721	13232.46
592.08	13242.41
592.44	13264.1
592.799	13272.69
593.158	13228.62
593.517	13240.6
593.876	13287.6
594.235	13218
594.593	13216.42
594.952	13267.94
595.311	13276.98
595.67	13195.18
596.029	13268.17
596.387	13222.97
596.746	13264.1
597.104	13263.87
597.463	13190.66
597.822	13243.99
598.18	13098
598.538	13153.59
598.897	13249.19
599.255	13039.02
599.613	13331.67
599.972	13214.84
600.33	13263.87
600.688	13160.37
601.046	13212.12
601.404	13215.97
601.762	13201.96
602.12	13245.12
602.478	13204.89
602.836	13175.52
603.194	13192.69
603.552	13151.79
603.91	13130.32
604.268	13144.78
604.625	13138.45
604.983	13224.33
605.341	13173.71
605.698	13273.14
606.056	13264.33
606.413	13150.88
606.771	13260.48
607.128	13235.17
607.485	13197.89
607.843	13200.15
608.2	13241.5
608.557	13300.94
608.914	13162.63
609.272	13269.75
609.629	13358.79
609.986	13339.35
610.343	13355.85
610.7	13378.9
611.057	13355.17
611.414	13305.68
611.771	13302.29
612.127	13349.75
612.484	13365.34
612.841	13392.68
613.198	13407.6
613.554	13367.37
613.911	13367.6
614.267	13436.75
614.624	13455.96
614.98	13348.62
615.337	13436.07
615.693	13465.68
616.05	13435.62
616.406	13511.55
616.762	13508.84
617.118	13446.69
617.475	13535.96
617.831	13496.64
618.187	13543.87
618.543	13542.51
618.899	13588.39
619.255	13605.56
619.611	13553.81
619.967	13561.72
620.323	13647.14
620.678	13518.78
621.034	13548.16
621.39	13567.37
621.746	13429.52
622.101	13640.59
622.457	13526.47
622.812	13558.1
623.168	13585.45
623.523	13551.1
623.879	13670.42
624.234	13500.7
624.589	13642.4
624.945	13539.35
625.3	13519.23
625.655	13564.88
626.01	13576.18
626.365	13589.06
626.72	13603.75
627.075	13616.63
627.43	13554.94
627.785	13567.6
628.14	13601.04
628.495	13614.83
628.85	13616.86
629.205	13575.96
629.559	13570.08
629.914	13502.29
630.269	13521.27
630.623	13448.05
630.978	13440.14
631.332	13514.04
631.687	13474.26
632.041	13386.58
632.396	13512
632.75	13432.01
633.104	13506.58
633.459	13414.6
633.813	13381.16
634.167	13387.49
634.521	13405.34
634.875	13448.95
635.229	13326.47
635.583	13217.32
635.937	13274.95
636.291	13168.28
636.645	13207.38
636.999	13275.4
637.352	13267.49
637.706	13229.3
638.06	13229.53
638.413	13115.63
638.767	13246.47
639.121	13150.43
639.474	13140.49
639.828	13132.58
640.181	13080.6
640.534	13119.02
640.888	13064.33
641.241	13015.52
641.594	13074.73
641.947	13070.21
642.301	13007.84
642.654	13029.76
643.007	12973.71
643.36	13019.81
643.713	13012.58
644.066	13055.07
644.419	12923.09
644.771	12909.99
645.124	12877.67
645.477	12770.1
645.83	12728.07
646.182	12601.74
646.535	12580.95
646.888	12675.42
647.24	12497.79
647.593	12627.96
647.945	12510.22
648.298	12493.95
648.65	12570.56
649.002	12548.41
649.355	12569.66
649.707	12615.76
650.059	12573.27
650.411	12811.23
650.763	12774.17
651.115	12927.84
651.467	12900.04
651.819	12878.35
652.171	12818.24
652.523	12782.08
652.875	12738.92
653.227	12817.11
653.578	12853.72
653.93	12813.94
654.282	12837.9
654.633	12728.97
654.985	12760.84
655.337	12853.04
655.688	12804.45
656.039	12829.31
656.391	12705.7
656.742	12736.66
657.094	12743.89
657.445	12909.53
657.796	12805.58
658.147	12757.9
658.498	12766.03
658.849	12765.58
659.2	12824.79
659.551	12786.82
659.902	12872.25
660.253	12798.8
660.604	12809.42
660.955	12776.88
661.306	12901.62
661.656	12837.22
662.007	12848.07
662.358	12808.29
662.708	12879.48
663.059	12794.51
663.409	12746.37
663.76	12895.3
664.11	12832.7
664.461	12848.07
664.811	12858.46
665.161	12851.23
665.511	12818.46
665.862	12860.72
666.212	12891.23
666.562	12958.57
666.912	12769.42
667.262	12768.07
667.612	12806.03
667.962	12902.98
668.312	12866.14
668.662	12821.4
669.011	12900.72
669.361	12930.55
669.711	12836.99
670.06	12837.44
670.41	12808.52
670.76	12873.15
671.109	12830.44
671.459	12746.37
671.808	12765.13
672.157	12738.69
672.507	12696.43
672.856	12756.32
673.205	12702.31
673.554	12830.89
673.904	12686.04
674.253	12797.45
674.602	12681.74
674.951	12517
675.3	12516.1
675.649	12699.14
675.998	12754.96
676.346	12707.05
676.695	12717.9
677.044	12606.04
677.393	12627.28
677.741	12717.45
678.09	12599.03
678.438	12521.3
678.787	12606.94
679.135	12585.7
679.484	12471.13
679.832	12416.44
680.181	12507.96
680.529	12524.23
680.877	12363.79
681.225	12418.02
681.573	12497.57
681.922	12411.24
682.27	12398.36
682.618	12351.81
682.966	12350.23
683.314	12367.4
683.661	12335.31
684.009	12239.49
684.357	12221.87
684.705	12212.38
685.053	12258.48
685.4	12200.4
685.748	12186.16
686.095	12124.7
686.443	12018.94
686.79	12102.55
687.138	12086.96
687.485	12137.8
687.832	12025.04
688.18	11985.49
688.527	11986.85
688.874	11933.74
689.221	11908.88
689.568	11864.14
689.915	11850.8
690.262	11746.4
690.609	11695.1
690.956	11766.74
691.303	11658.72
691.65	11569.46
691.997	11587.99
692.344	11541.43
692.69	11495.79
693.037	11536.24
693.383	11441.1
693.73	11396.8
694.077	11396.13
694.423	11410.82
694.769	11363.13
695.116	11316.35
695.462	11298.95
695.808	11169.24
696.155	11230.93
696.501	11185.28
696.847	11175.12
697.193	11052.63
697.539	11111.39
697.885	11001.56
698.231	10954.33
698.577	10951.17
698.923	10916.82
699.269	10803.83
699.614	10703.26
699.96	10696.48
700.306	10759.99
700.651	10697.39
700.997	10582.81
701.342	10668.69
701.688	10533.1
702.033	10576.04
702.379	10494
702.724	10475.47
703.069	10531.97
703.415	10387.57
703.76	10344.63
704.105	10406.32
704.45	10328.36
704.795	10300.11
705.14	10242.26
705.485	10211.75
705.83	10170.4
706.175	10108.03
706.52	10083.62
706.865	10025.99
707.209	10100.34
707.554	10021.25
707.899	9961.81
708.243	10021.47
708.588	9958.88
708.932	9871.42
709.277	9912.32
709.621	9919.33
709.966	9829.16
710.31	9845.89
710.654	9824.64
710.998	9773.12
711.342	9774.02
711.687	9712.33
712.031	9693.35
712.375	9614.03
712.719	9687.02
713.063	9664.87
713.407	9676.62
713.75	9522.5
714.094	9624.87
714.438	9546.68
714.782	9576.29
715.125	9485.89
715.469	9516.63
715.812	9477.53
716.156	9429.85
716.499	9445.67
716.843	9414.26
717.186	9354.15
717.53	9444.54
717.873	9452.45
718.216	9418.33
718.559	9336.29
718.902	9343.07
719.246	9402.51
719.589	9265.11
719.932	9317.76
720.275	9267.6
720.617	9268.5
720.96	9264.21
721.303	9179.01
721.646	9213.59
721.989	9221.27
722.331	9207.48
722.674	9198.67
723.016	9128.62
723.359	9141.72
723.701	9188.05
724.044	9131.1
724.386	9102.18
724.729	9115.51
725.071	9091.55
725.413	9155.28
725.755	9111.67
726.097	9034.61
726.439	9047.49
726.782	9039.8
727.124	9093.81
727.465	9013.14
727.807	9055.85
728.149	9058.56
728.491	9027.83
728.833	9047.94
729.175	9082.06
729.516	8990.09
729.858	8986.47
730.199	8969.3
730.541	8948.51
730.882	8973.14
731.224	9002.52
731.565	8888.62
731.906	8951.9
732.248	8909.41
732.589	8927.04
732.93	8874.61
733.271	8920.71
733.612	8936.76
733.953	8946.02
734.294	8884.33
734.635	8945.8
734.976	8984.66
735.317	8910.77
735.658	8919.58
735.999	8960.94
736.339	8858.79
736.68	8959.81
737.021	8922.97
737.361	8893.37
737.702	8894.05
738.042	8941.28
738.383	8885.01
738.723	8913.93
739.063	8914.84
739.404	8937.66
739.744	8990.09
740.084	9018.11
740.424	9088.16
740.764	8969.75
741.104	9085.68
741.444	9014.49
741.784	9004.78
742.124	9040.26
742.464	9069.41
742.804	9061.73
743.143	9087.26
743.483	9143.08
743.823	9130.65
744.162	9175.39
744.502	9216.52
744.841	9176.98
745.181	9277.76
745.52	9227.6
745.86	9325.67
746.199	9338.1
746.538	9292.23
746.877	9445.44
747.216	9469.85
747.556	9517.76
747.895	9621.48
748.234	9567.7
748.573	9621.71
748.911	9629.17
749.25	9731.54
749.589	9790.75
749.928	9879.78
750.267	9902.61
750.605	9997.52
750.944	10023.73
751.283	10171.3
751.621	10192.77
751.96	10225.99
752.298	10344.4
752.636	10418.07
752.975	10476.38
753.313	10560.22
753.651	10706.43
753.989	10750.95
754.327	10801.57
754.666	10968.57
755.004	11089.02
755.342	11258.28
755.679	11394.32
756.017	11389.57
756.355	11568.1
756.693	11743.24
757.031	11841.09
757.368	11902.33
757.706	12050.57
758.044	12232.26
758.381	12395.42
758.719	12513.39
759.056	12618.92
759.394	12892.13
759.731	12932.13
760.068	13133.93
760.405	13241.73
760.743	13307.94
761.08	13589.74
761.417	13665.9
761.754	13821.6
762.091	14019.11
762.428	14113.57
762.765	14301.36
763.102	14443.05
763.438	14594.91
763.775	14687.79
764.112	14867.45
764.449	15149.93
764.785	15258.62
765.122	15310.37
765.458	15511.72
765.795	15608.22
766.131	15775.45
766.467	15952.39
766.804	16014.99
767.14	16126.85
767.476	16369.1
767.812	16510.12
768.148	16615.42
768.485	16697.23
768.821	16765.03
769.157	17028.07
769.492	17035.07
769.828	17165.47
770.164	17249.08
770.5	17282.3
770.836	17450.43
771.171	17435.97
771.507	17582.4
771.842	17569.75
772.178	17791.21
772.513	17749.63
772.849	17931.1
773.184	17934.71
773.519	17968.38
773.855	18117.53
774.19	18136.97
774.525	18199.56
774.86	18282.95
775.195	18426.9
775.53	18470.52
775.865	18368.37
776.2	18410.41
776.535	18309.62
776.87	18377.19
777.205	18536.05
777.539	18505.32
777.874	18590.29
778.209	18546.67
778.543	18532.66
778.878	18604.3
779.212	18614.24
779.547	18561.36
779.881	18790.51
780.215	18694.47
780.55	18725.2
780.884	18666.22
781.218	18723.39
781.552	18700.34
781.886	18750.96
782.22	18720.45
782.554	18692.21
782.888	18544.87
783.222	18597.52
783.556	18519.56
783.889	18574.47
784.223	18537.18
784.557	18590.29
784.89	18655.37
785.224	18573.79
785.557	18488.37
785.891	18468.48
786.224	18546.9
786.558	18489.27
786.891	18337.87
787.224	18467.35
787.557	18412.44
787.891	18305.32
788.224	18354.36
788.557	18390.52
788.89	18313.69
789.223	18345.1
789.556	18261.48
789.888	18223.29
790.221	18240.47
790.554	18119.34
790.887	18164.08
791.219	18002.51
791.552	18064.88
791.884	18031.43
792.217	17980.13
792.549	17975.16
792.882	17883.64
793.214	17751.67
793.546	17913.02
793.879	17678.67
794.211	17666.47
794.543	17691.78
794.875	17650.2
795.207	17748.28
795.539	17577.89
795.871	17759.8
796.203	17447.49
796.535	17409.53
796.867	17463.76
797.198	17497.44
797.53	17399.58
797.862	17432.58
798.193	17487.94
798.525	17259.02
798.856	17319.14
799.188	17078.24
799.519	17103.55
799.85	17013.61
800.182	17124.11
800.513	17096.77
800.844	16906.49
801.175	17014.06
801.506	17005.47
801.837	16858.58
802.168	16826.72
802.499	16835.76
802.83	16747.17
803.161	16679.15
803.491	16688.19
803.822	16766.83
804.153	16622.88
804.483	16494.3
804.814	16437.58
805.145	16508.99
805.475	16445.71
805.805	16380.18
806.136	16392.83
806.466	16393.51
806.796	16353.96
807.126	16207.98
807.457	16159.84
807.787	16235.1
808.117	16185.38
808.447	16078.49
808.777	16089.11
809.107	16004.14
809.436	16057.7
809.766	15975.89
810.096	15883.24
810.426	15943.8
810.755	15959.17
811.085	15881.43
811.414	15847.08
811.744	15689.12
812.073	15757.59
812.403	15680.08
812.732	15669.46
813.061	15659.74
813.39	15593.76
813.719	15530.26
814.049	15589.24
814.378	15538.16
814.707	15478.51
815.036	15525.06
815.365	15415.23
815.693	15301.33
816.022	15305.85
816.351	15230.38
816.68	15201.45
817.008	15161.45
817.337	15086.88
817.665	15069.48
817.994	15097.95
818.322	15154.45
818.651	15059.08
818.979	14986.09
819.307	14960.55
819.636	14905.64
819.964	14987.9
820.292	15031.74
820.62	14926.2
820.948	14927.56
821.276	14965.07
821.604	14862.48
821.932	14988.8
822.259	14957.84
822.587	14906.77
822.915	14921.68
823.243	14968.69
823.57	14903.15
823.898	14901.35
824.225	14791.74
824.553	14872.19
824.88	14927.56
825.207	14938.18
825.535	14898.86
825.862	15021.12
826.189	14900.67
826.516	14930.27
826.843	15074.67
827.17	14950.61
827.497	14885.75
827.824	14931.4
828.151	14998.74
828.478	14933.66
828.805	14960.55
829.131	14880.33
829.458	14942.93
829.785	14838.52
830.111	14918.75
830.438	14936.15
830.764	14898.63
831.09	14872.87
831.417	14826.09
831.743	14939.54
832.069	14894.11
832.395	14810.95
832.722	14942.47
833.048	14788.35
833.374	14928.01
833.7	14738.86
834.026	14909.71
834.351	14870.84
834.677	14855.47
835.003	14776.15
835.329	14823.38
835.654	14742.71
835.98	14712.65
836.306	14769.82
836.631	14632.2
836.956	14734.57
837.282	14743.16
837.607	14606.21
837.932	14648.24
838.258	14672.42
838.583	14558.53
838.908	14514.69
839.233	14567.79
839.558	14493.9
839.883	14369.61
840.208	14391.53
840.533	14468.36
840.858	14445.09
841.182	14412.09
841.507	14364.18
841.832	14340.91
842.156	14305.88
842.481	14308.37
842.805	14211.87
843.13	14225.88
843.454	14127.81
843.778	14049.16
844.103	14148.14
844.427	14142.95
844.751	14046
845.075	13966.68
845.399	13994.93
845.723	13862.05
846.047	13866.57
846.371	13821.83
846.695	13819.79
847.019	13674.26
847.343	13634.94
847.666	13563.3
847.99	13528.73
848.313	13514.49
848.637	13503.19
848.96	13410.54
849.284	13373.7
849.607	13285.34
849.931	13234.72
850.254	13175.29
850.577	13128.06
850.9	12998.57
851.223	13048.74
851.546	12912.02
851.869	12913.6
852.192	12932.36
852.515	12764.68
852.838	12685.81
853.161	12812.59
853.483	12684.45
853.806	12569.88
854.129	12705.92
854.451	12512.03
854.774	12474.97
855.096	12453.95
855.419	12494.4
855.741	12418.25
856.063	12297.35
856.385	12361.98
856.708	12312.94
857.03	12342.32
857.352	12313.84
857.674	12175.09
857.996	12181.64
858.318	12093.28
858.64	12072.04
858.961	12045.38
859.283	11985.04
859.605	11890.35
859.926	11938.26
860.248	11914.31
860.57	11875.21
860.891	11941.2
861.212	11824.82
861.534	11791.14
861.855	11657.59
862.176	11756.34
862.498	11766.96
862.819	11754.99
863.14	11680.87
863.461	11603.81
863.782	11569
864.103	11624.37
864.424	11605.39
864.745	11609.23
865.065	11459.85
865.386	11472.28
865.707	11491.27
866.027	11467.09
866.348	11483.36
866.668	11451.94
866.989	11423.92
867.309	11418.73
867.63	11355
867.95	11384.83
868.27	11325.39
868.59	11333.08
868.91	11300.76
869.23	11282.68
869.55	11237.49
869.87	11241.55
870.19	11230.93
870.51	11193.42
870.83	11216.24
871.15	11148.22
871.469	11189.58
871.789	11221.89
872.109	11129.24
872.428	11053.99
872.748	11033.42
873.067	11057.83
873.386	11104.61
873.706	11048.34
874.025	11018.74
874.344	10919.98
874.663	11022.35
874.982	10958.62
875.301	10901.22
875.62	10894.9
875.939	10903.71
876.258	10875.46
876.577	10915.24
876.896	10866.65
877.214	10809.93
877.533	10820.77
877.852	10882.02
878.17	10723.38
878.489	10786.88
878.807	10762.47
879.125	10714.79
879.444	10727.44
879.762	10705.75
880.08	10585.98
880.398	10656.03
880.716	10668.24
881.034	10622.81
881.352	10559.09
881.67	10581.23
881.988	10586.43
882.306	10505.3
882.624	10448.13
882.941	10490.84
883.259	10411.97
883.577	10468.47
883.894	10409.71
884.212	10379.43
884.529	10393.44
884.846	10431.86
885.164	10264.86
885.481	10304.4
885.798	10293.78
886.115	10242.94
886.432	10236.84
886.75	10163.16
887.067	10206.78
887.383	10166.1
887.7	10153
888.017	10029.84
888.334	10085.43
888.651	10064.18
888.967	10031.19
889.284	9960.01
889.6	9954.81
889.917	9903.74
890.233	9871.2
890.55	9833.46
890.866	9840.46
891.182	9819.9
891.498	9757.98
891.815	9710.97
892.131	9651.99
892.447	9741.71
892.763	9664.65
893.079	9608.6
893.395	9601.37
893.71	9627.81
894.026	9549.17
894.342	9548.49
894.657	9435.95
894.973	9419.68
895.289	9369.06
895.604	9486.57
895.92	9359.8
896.235	9287.71
896.55	9261.27
896.865	9288.84
897.181	9235.28
897.496	9190.99
897.811	9118.9
898.126	9146.69
898.441	9116.19
898.756	9131.33
899.071	9008.85
899.386	9072.8
899.7	8977.66
900.015	8918.23
900.33	8896.31
900.644	8837.1
900.959	8892.24
901.273	8813.37
901.588	8765.24
901.902	8753.03
902.216	8689.98
902.531	8668.74
902.845	8655.41
903.159	8622.64
903.473	8537.9
903.787	8549.87
904.101	8495.19
904.415	8543.32
904.729	8456.32
905.042	8426.49
905.356	8393.27
905.67	8340.84
905.984	8399.37
906.297	8357.34
906.611	8265.14
906.924	8240.96
907.237	8185.82
907.551	8233.5
907.864	8108.08
908.177	8123.44
908.491	8099.72
908.804	8044.12
909.117	8014.75
909.43	7939.49
909.743	7902.21
910.056	7888.2
910.368	7852.27
910.681	7825.6
910.994	7850.68
911.307	7799.16
911.619	7723.68
911.932	7731.82
912.244	7664.47
912.557	7719.39
912.869	7579.5
913.181	7629.9
913.494	7525.95
913.806	7497.47
914.118	7435.55
914.43	7422.22
914.742	7410.92
915.054	7417.7
915.366	7383.8
915.678	7389
915.99	7296.8
916.302	7258.38
916.613	7230.13
916.925	7235.56
917.236	7215.67
917.548	7222.68
917.859	7202.11
918.171	7109.23
918.482	7106.97
918.794	7124.83
919.105	7057.03
919.416	6998.95
919.727	7029.46
920.038	6999.41
920.349	6926.87
920.66	6876.02
920.971	6884.38
921.282	6858.39
921.593	6800.09
921.903	6781.56
922.214	6778.17
922.525	6715.12
922.835	6658.62
923.146	6690.26
923.456	6637.83
923.767	6595.35
924.077	6600.77
924.387	6558.29
924.697	6532.3
925.008	6515.35
925.318	6445.52
925.628	6483.04
925.938	6487.33
926.248	6348.35
926.558	6306.77
926.867	6344.51
927.177	6366.2
927.487	6292.08
927.796	6240.56
928.106	6264.96
928.416	6249.82
928.725	6163.72
929.034	6125.31
929.344	6144.97
929.653	6128.24
929.962	6095.93
930.271	6048.7
930.581	6012.09
930.89	5969.15
931.199	5941.58
931.508	5976.61
931.817	5942.48
932.125	5912.43
932.434	5917.17
932.743	5862.04
933.051	5838.53
933.36	5813.67
933.669	5796.95
933.977	5780.46
934.286	5733.45
934.594	5767.57
934.902	5651.87
935.21	5640.35
935.519	5619.78
935.827	5595.38
936.135	5608.93
936.443	5582.49
936.751	5538.43
937.059	5554.25
937.367	5509.05
937.674	5520.58
937.982	5437.64
938.29	5427.02
938.597	5390.64
938.905	5382.27
939.213	5318.09
939.52	5302.5
939.827	5306.34
940.135	5307.93
940.442	5303.41
940.749	5293.69
941.056	5284.65
941.363	5166.91
941.67	5147.25
941.977	5219.79
942.284	5127.14
942.591	5121.72
942.898	5104.77
943.205	5126.91
943.511	5083.75
943.818	5062.06
944.125	4977.76
944.431	4956.97
944.738	4957.2
945.044	4972.79
945.35	4921.27
945.657	4916.75
945.963	4874.49
946.269	4830.65
946.575	4816.64
946.881	4787.49
947.187	4776.87
947.493	4782.74
947.799	4770.31
948.105	4723.53
948.41	4695.06
948.716	4709.75
949.022	4697.77
949.327	4669.98
949.633	4597.21
949.938	4681.73
950.244	4621.84
950.549	4586.81
950.854	4571.67
951.16	4554.27
951.465	4528.74
951.77	4522.41
952.075	4519.7
952.38	4468.4
952.685	4481.51
952.99	4428.17
953.294	4429.98
953.599	4395.18
953.904	4375.97
954.209	4338.91
954.513	4347.05
954.818	4286.03
955.122	4263.43
955.426	4256.65
955.731	4214.17
956.035	4209.42
956.339	4246.71
956.643	4197.22
956.948	4199.93
957.252	4158.58
957.556	4124.91
957.86	4123.55
958.163	4121.74
958.467	4100.73
958.771	4083.78
959.075	4076.55
959.378	4011.91
959.682	4048.52
959.985	3997.68
960.289	3993.16
960.592	3953.61
960.896	3946.38
961.199	3962.65
961.502	3956.1
961.805	3913.61
962.108	3919.94
962.411	3869.32
962.714	3868.19
963.017	3838.13
963.32	3821.18
963.623	3781.19
963.926	3761.75
964.228	3805.59
964.531	3750.9
964.833	3754.75
965.136	3730.79
965.438	3686.27
965.741	3686.27
966.043	3665.71
966.345	3651.47
966.648	3627.29
966.95	3650.34
967.252	3627.97
967.554	3603.34
967.856	3605.15
968.158	3572.6
968.46	3577.12
968.761	3521.53
969.063	3513.62
969.365	3477.24
969.666	3471.59
969.968	3483.57
970.269	3495.77
970.571	3416
970.872	3457.8
971.174	3393.4
971.475	3393.17
971.776	3356.56
972.077	3376.22
972.378	3370.12
972.679	3339.62
972.98	3326.51
973.281	3328.09
973.582	3342.33
973.883	3271.82
974.183	3256
974.484	3199.51
974.785	3273.85
975.085	3270.01
975.386	3203.57
975.686	3184.82
975.986	3191.82
976.287	3228.21
976.587	3169.45
976.887	3147.98
977.187	3123.12
977.487	3067.08
977.787	3145.95
978.087	3037.93
978.387	3109.57
978.687	3051.26
978.987	3063.46
979.286	3014.88
979.586	3009.68
979.885	2993.86
980.185	2993.86
980.484	2985.73
980.784	2987.31
981.083	2965.39
981.382	2976.46
981.682	2938.72
981.981	2920.19
982.28	2937.37
982.579	2901.21
982.878	2858.5
983.177	2892.62
983.475	2877.71
983.774	2835
984.073	2844.49
984.372	2813.75
984.67	2839.52
984.969	2796.35
985.267	2735.56
985.566	2759.07
985.864	2745.51
986.162	2745.28
986.461	2758.84
986.759	2715.68
987.057	2715.45
987.355	2679.52
987.653	2686.98
987.951	2638.39
988.249	2632.06
988.547	2620.99
988.844	2645.62
989.142	2605.17
989.44	2588.67
989.737	2579.41
990.035	2597.49
990.332	2566.3
990.63	2567.43
990.927	2524.5
991.224	2509.81
991.521	2540.77
991.819	2529.69
992.116	2492.63
992.413	2465.74
992.71	2445.4
993.006	2459.86
993.303	2444.27
993.6	2437.94
993.897	2430.03
994.193	2416.02
994.49	2408.34
994.787	2378.28
995.083	2358.85
995.379	2358.85
995.676	2355.46
995.972	2325.63
996.268	2344.61
996.565	2312.75
996.861	2326.99
997.157	2298.51
997.453	2287.67
997.749	2277.95
998.044	2276.14
998.34	2262.81
998.636	2237.27
998.932	2227.78
999.227	2212.64
999.523	2214.45
999.818	2186.88
1000.114	2205.86
1000.409	2162.25
1000.704	2143.94
1001	2143.49
1001.295	2101
1001.59	2136.71
1001.885	2144.84
1002.18	2106.88
1002.475	2086.09
1002.77	2076.15
1003.065	2091.96
1003.359	2056.94
1003.654	2067.78
1003.949	2035.02
1004.243	2015.13
1004.538	2017.39
1004.832	1998.18
1005.127	1974.68
1005.421	1966.09
1005.715	1967.9
1006.009	1945.08
1006.304	1943.72
1006.598	1920.44
1006.892	1912.08
1007.186	1936.26
1007.48	1912.31
1007.773	1896.26
1008.067	1858.07
1008.361	1879.77
1008.655	1852.65
1008.948	1860.33
1009.242	1863.04
1009.535	1822.82
1009.829	1846.55
1010.122	1775.59
1010.415	1806.1
1010.708	1771.97
1011.001	1818.53
1011.295	1770.62
1011.588	1758.41
1011.881	1746.66
1012.173	1749.6
1012.466	1720.9
1012.759	1719.09
1013.052	1689.04
1013.344	1712.99
1013.637	1701.01
1013.93	1681.81
1014.222	1684.52
1014.514	1660.56
1014.807	1637.06
1015.099	1639.1
1015.391	1654.69
1015.683	1617.17
1015.976	1627.12
1016.268	1593.45
1016.56	1599.32
1016.851	1579.66
1017.143	1595.48
1017.435	1545.31
1017.727	1571.3
1018.018	1537.63
1018.31	1539.89
1018.602	1531.08
1018.893	1493.79
1019.185	1523.17
1019.476	1485.65
1019.767	1472.32
1020.058	1482.04
1020.35	1475.26
1020.641	1444.52
1020.932	1448.37
1021.223	1433.23
1021.514	1419.44
1021.804	1415.6
1022.095	1424.19
1022.386	1416.28
1022.677	1426.22
1022.967	1384.64
1023.258	1367.69
1023.548	1362.94
1023.839	1349.84
1024.129	1371.98
1024.419	1346.45
1024.709	1322.95
1025	1286.79
1025.29	1312.55
1025.58	1315.26
1025.87	1308.26
1026.16	1280.69
1026.449	1291.31
1026.739	1253.34
1027.029	1266.22
1027.319	1257.18
1027.608	1266.9
1027.898	1242.72
1028.187	1217.86
1028.477	1228.48
1028.766	1208.6
1029.055	1215.6
1029.344	1216.06
1029.634	1181.71
1029.923	1172.89
1030.212	1161.14
1030.501	1168.15
1030.79	1162.27
1031.078	1144.65
1031.367	1120.24
1031.656	1136.74
1031.945	1118.21
1032.233	1123.4
1032.522	1111.2
1032.81	1099.67
1033.099	1129.28
1033.387	1086.12
1033.675	1099.45
1033.963	1076.62
1034.251	1068.04
1034.54	1049.05
1034.828	1086.12
1035.116	1055.61
1035.403	1041.37
1035.691	1041.14
1035.979	1056.51
1036.267	1038.89
1036.554	1023.97
1036.842	1027.36
1037.129	1005.89
1037.417	1002.73
1037.704	996.63
1037.992	1000.02
1038.279	977.87
1038.566	977.19
1038.853	977.19
1039.14	977.19
