Data from hue_270_FLMS001491_00063.txt Node
Date: Tue Feb 07 15:57:32 GMT 2017
User: dcchb
Spectrometer: FLMS00149
Trigger mode: 0
Integration Time (sec): 2.000000E-2
Scans to average: 10
Electric dark correction enabled: true
Nonlinearity correction enabled: false
Boxcar width: 0
XAxis mode: Wavelengths
Number of Pixels in Spectrum: 2048
>>>>>Begin Spectral Data<<<<<
341.393	3.38
341.776	3.38
342.16	3.38
342.543	-55.83
342.927	-57.87
343.31	-53.12
343.693	-60.8
344.077	-80.69
344.46	-51.99
344.843	-44.31
345.226	-53.57
345.61	-37.53
345.993	-16.74
346.376	-9.96
346.759	16.26
347.142	23.26
347.525	35.01
347.908	58.06
348.291	83.83
348.674	81.34
349.057	110.94
349.44	124.05
349.823	139.42
350.206	167.67
350.588	202.24
350.971	214.67
351.354	229.81
351.737	224.39
352.119	256.25
352.502	256.02
352.884	259.64
353.267	261
353.65	295.12
354.032	295.57
354.414	301.45
354.797	304.84
355.179	308.23
355.562	320.66
355.944	325.63
356.326	342.35
356.709	329.92
357.091	319.75
357.473	343.48
357.855	323.14
358.238	337.38
358.62	329.69
359.002	339.41
359.384	330.15
359.766	338.28
360.148	315.01
360.53	334.89
360.912	316.81
361.294	353.42
361.676	355
362.057	344.61
362.439	330.15
362.821	313.88
363.203	325.18
363.584	310.94
363.966	320.66
364.348	341.22
364.729	319.3
365.111	304.38
365.493	321.79
365.874	315.23
366.256	314.55
366.637	326.76
367.019	311.16
367.4	332.18
367.781	317.72
368.163	315.01
368.544	338.06
368.925	304.38
369.306	328.79
369.688	294.67
370.069	316.14
370.45	317.04
370.831	329.69
371.212	316.81
371.593	323.14
371.974	330.15
372.355	312.29
372.736	308.45
373.117	313.88
373.498	311.84
373.879	326.3
374.26	291.05
374.641	334.21
375.021	305.06
375.402	314.1
375.783	336.25
376.163	330.82
376.544	344.61
376.925	324.05
377.305	312.52
377.686	335.12
378.066	307.77
378.447	324.05
378.827	323.59
379.208	324.27
379.588	328.34
379.968	333.76
380.349	324.95
380.729	341.22
381.109	347.32
381.489	330.37
381.87	323.59
382.25	331.95
382.63	326.98
383.01	318.4
383.39	369.69
383.77	332.63
384.15	343.25
384.53	349.81
384.91	348.23
385.29	339.41
385.67	346.87
386.049	329.02
386.429	344.38
386.809	347.77
387.189	350.49
387.568	336.02
387.948	361.33
388.328	364.95
388.707	358.17
389.087	359.07
389.466	379.18
389.846	368.34
390.225	381.9
390.605	383.25
390.984	367.21
391.363	359.07
391.743	380.31
392.122	368.11
392.501	370.6
392.881	379.64
393.26	377.15
393.639	366.3
394.018	381.67
394.397	383.93
394.776	373.31
395.155	388.68
395.534	395.23
395.913	392.97
396.292	416.7
396.671	385.96
397.05	419.41
397.429	392.74
397.808	402.91
398.186	397.94
398.565	424.61
398.944	418.96
399.323	428.68
399.701	397.04
400.08	388.45
400.458	414.44
400.837	422.35
401.215	425.51
401.594	425.74
401.972	434.1
402.351	437.71
402.729	417.15
403.107	435.45
403.486	425.96
403.864	434.78
404.242	421.44
404.62	451.05
404.999	420.54
405.377	439.97
405.755	446.08
406.133	463.02
406.511	451.27
406.889	466.64
407.267	443.14
407.645	458.28
408.023	496.24
408.401	499.18
408.779	477.94
409.156	482.23
409.534	493.53
409.912	522.91
410.29	508.45
410.667	514.32
411.045	545.51
411.422	540.08
411.8	531.95
412.178	550.03
412.555	537.37
412.933	538.05
413.31	545.73
413.687	564.04
414.065	561.33
414.442	569.91
414.819	568.11
415.197	590.03
415.574	588.44
415.951	605.39
416.328	616.24
416.705	636.81
417.082	630.7
417.46	625.51
417.837	632.96
418.214	628.9
418.591	650.82
418.967	635.9
419.344	639.07
419.721	645.84
420.098	668.44
420.475	655.79
420.852	685.62
421.228	715.22
421.605	686.3
421.982	695.56
422.358	724.71
422.735	724.71
423.111	749.34
423.488	742.79
423.864	766.52
424.241	771.27
424.617	762.9
424.994	788.21
425.37	789.12
425.746	810.13
426.123	814.2
426.499	824.82
426.875	821.21
427.251	853.07
427.627	868.89
428.003	890.81
428.379	893.97
428.756	874.09
429.132	907.53
429.507	875.22
429.883	902.79
430.259	916.12
430.635	921.54
431.011	946.85
431.387	988.89
431.763	995.67
432.138	966.97
432.514	1002.67
432.89	1009.45
433.265	1008.32
433.641	1049.68
434.016	1043.35
434.392	1053.29
434.767	1066.62
435.143	1112.05
435.518	1077.47
435.894	1118.37
436.269	1139.39
436.644	1156.79
437.02	1159.05
437.395	1174.19
437.77	1208.77
438.145	1212.84
438.52	1260.52
438.895	1239.05
439.271	1264.36
439.646	1275.88
440.021	1309.33
440.395	1304.58
440.77	1288.31
441.145	1337.58
441.52	1351.14
441.895	1353.17
442.27	1388.42
442.645	1356.11
443.019	1389.55
443.394	1378.93
443.769	1428.42
444.143	1376.9
444.518	1418.03
444.892	1429.33
445.267	1434.52
445.641	1450.8
446.016	1462.55
446.39	1471.13
446.764	1490.57
447.139	1491.47
447.513	1514.07
447.887	1509.1
448.262	1520.62
448.636	1505.48
449.01	1554.52
449.384	1544.13
449.758	1567.85
450.132	1559.04
450.506	1570.79
450.88	1588.19
451.254	1631.36
451.628	1630.68
452.002	1602.2
452.376	1658.25
452.75	1649.89
453.123	1663.67
453.497	1681.07
453.871	1701.41
454.244	1739.38
454.618	1749.09
454.992	1719.71
455.365	1745.02
455.739	1789.32
456.112	1785.7
456.486	1799.03
456.859	1814.18
457.232	1861.86
457.606	1837.23
457.979	1849.43
458.352	1886.49
458.725	1928.07
459.099	1905.02
459.472	1961.06
459.845	1975.75
460.218	1987.73
460.591	1999.71
460.964	2010.1
461.337	2053.27
461.71	2054.4
462.083	2090.78
462.456	2141.62
462.829	2100.04
463.201	2098.69
463.574	2120.38
463.947	2113.38
464.32	2202.41
464.692	2206.71
465.065	2189.31
465.438	2249.64
465.81	2282.64
466.183	2286.03
466.555	2321.96
466.928	2328.06
467.3	2317.21
467.672	2375.06
468.045	2432.69
468.417	2424.78
468.789	2419.13
469.161	2450.09
469.534	2478.11
469.906	2510.65
470.278	2518.56
470.65	2546.13
471.022	2620.93
471.394	2617.09
471.766	2692.34
472.138	2699.35
472.51	2724.21
472.882	2773.25
473.253	2791.32
473.625	2822.28
473.997	2885.33
474.369	2902.06
474.74	2867.71
475.112	2947.03
475.484	2984.77
475.855	3043.75
476.227	3017.08
476.598	3129.4
476.97	3136.85
477.341	3189.28
477.713	3198.09
478.084	3215.04
478.455	3306.79
478.827	3317.19
479.198	3367.58
479.569	3403.74
479.94	3486.67
480.311	3510.18
480.682	3549.27
481.053	3636.05
481.424	3648.03
481.795	3650.96
482.166	3740.9
482.537	3726.89
482.908	3810.28
483.279	3884.86
483.65	3914.01
484.021	3994.68
484.391	3977.28
484.762	4016.6
485.133	4080.33
485.503	4065.42
485.874	4199.2
486.244	4219.08
486.615	4252.53
486.985	4287.56
487.356	4395.58
487.726	4365.29
488.097	4468.12
488.467	4483.26
488.837	4530.94
489.207	4575.01
489.578	4592.41
489.948	4669.69
490.318	4685.51
490.688	4730.48
491.058	4772.52
491.428	4794.66
491.798	4864.49
492.168	4972.51
492.538	4928.9
492.908	4989.69
493.278	5038.72
493.648	5020.87
494.017	5094.99
494.387	5140.64
494.757	5184.48
495.126	5213.18
495.496	5205.5
495.866	5211.83
496.235	5271.03
496.605	5319.62
496.974	5351.03
497.344	5342.44
497.713	5364.59
498.082	5407.75
498.452	5444.59
498.821	5426.96
499.19	5474.42
499.559	5505.6
499.928	5551.25
500.298	5556.22
500.667	5595.77
501.036	5541.54
501.405	5608.2
501.774	5670.12
502.143	5668.99
502.512	5694.98
502.88	5738.14
503.249	5714.41
503.618	5744.24
503.987	5765.03
504.356	5776.11
504.724	5815.2
505.093	5794.64
505.462	5852.04
505.83	5854.07
506.199	5899.27
506.567	5929.32
506.936	5939.26
507.304	5994.63
507.672	6000.73
508.041	5982.65
508.409	6041.41
508.777	6025.82
509.145	6098.58
509.514	6098.36
509.882	6066.94
510.25	6098.81
510.618	6117.34
510.986	6118.02
511.354	6129.32
511.722	6226.26
512.09	6218.35
512.458	6173.16
512.826	6244.79
513.193	6276.21
513.561	6309.42
513.929	6303.1
514.297	6343.55
514.664	6360.5
515.032	6348.07
515.4	6351.01
515.767	6347.84
516.135	6420.61
516.502	6352.59
516.869	6479.14
517.237	6436.65
517.604	6404.79
517.972	6495.18
518.339	6496.31
518.706	6450.89
519.073	6483.43
519.44	6524.33
519.808	6534.5
520.175	6523.2
520.542	6592.35
520.909	6605.01
521.276	6582.41
521.643	6616.54
522.009	6630.77
522.376	6660.15
522.743	6695.86
523.11	6702.86
523.477	6716.42
523.843	6729.75
524.21	6798.68
524.577	6817.21
524.943	6832.12
525.31	6891.78
525.676	6853.82
526.043	6883.19
526.409	6959.8
526.776	7001.84
527.142	6972.01
527.508	6967.03
527.874	6972.01
528.241	7008.62
528.607	6992.12
528.973	7085.9
529.339	7080.93
529.705	7160.25
530.071	7145.56
530.437	7115.28
530.803	7181.49
531.169	7209.51
531.535	7204.54
531.901	7208.84
532.267	7219.68
532.632	7286.12
532.998	7279.57
533.364	7259.91
533.73	7284.31
534.095	7316.86
534.461	7279.57
534.826	7372.22
535.192	7312.56
535.557	7374.71
535.923	7431.2
536.288	7393.24
536.653	7379.45
537.019	7398.21
537.384	7324.54
537.749	7368.83
538.114	7423.52
538.479	7370.64
538.845	7447.02
539.21	7430.98
539.575	7483.4
539.94	7479.34
540.305	7493.8
540.67	7435.95
541.034	7431.88
541.399	7536.51
541.764	7494.48
542.129	7501.48
542.494	7501.94
542.858	7579.22
543.223	7532.22
543.587	7619.9
543.952	7503.74
544.316	7578.32
544.681	7596.4
545.045	7579.9
545.41	7628.26
545.774	7570.18
546.138	7621.03
546.503	7581.71
546.867	7577.19
547.231	7582.39
547.595	7680.01
547.959	7640.69
548.324	7663.06
548.688	7679.78
549.052	7644.08
549.416	7673.68
549.779	7710.29
550.143	7621.93
550.507	7759.56
550.871	7683.17
551.235	7693.34
551.599	7749.39
551.962	7806.33
552.326	7758.43
552.689	7781.93
553.053	7746
553.417	7788.03
553.78	7853.79
554.143	7742.61
554.507	7877.29
554.87	7846.79
555.234	7907.35
555.597	7853.11
555.96	7851.76
556.323	7837.75
556.686	7934.47
557.05	7882.94
557.413	7954.35
557.776	7934.47
558.139	7999.32
558.502	8003.39
558.865	7943.73
559.228	8054.01
559.59	8009.04
559.953	8078.19
560.316	8163.39
560.679	8133.11
561.041	8166.78
561.404	8172.65
561.767	8243.38
562.129	8222.82
562.492	8260.33
562.854	8282.03
563.217	8260.79
563.579	8309.15
563.941	8349.14
564.304	8469.82
564.666	8438.63
565.028	8401.12
565.39	8470.72
565.753	8486.99
566.115	8512.53
566.477	8571.29
566.839	8526.09
567.201	8655.58
567.563	8609.25
567.925	8625.52
568.287	8624.39
568.648	8688.34
569.01	8762.24
569.372	8738.51
569.734	8832.3
570.095	8805.18
570.457	8862.13
570.819	8874.1
571.18	8860.77
571.542	8919.98
571.903	8976.7
572.265	8948.68
572.626	8956.81
572.987	9036.58
573.349	9078.17
573.71	9134.66
574.071	9081.55
574.432	9128.11
574.794	9195
575.155	9219.4
575.516	9193.87
575.877	9176.69
576.238	9244.49
576.599	9352.06
576.96	9371.26
577.32	9313.87
577.681	9363.58
578.042	9372.85
578.403	9494.2
578.763	9467.08
579.124	9493.07
579.485	9486.29
579.845	9573.97
580.206	9604.03
580.566	9589.56
580.927	9651.03
581.287	9716.11
581.648	9611.71
582.008	9647.87
582.368	9738.71
582.728	9755.89
583.089	9767.86
583.449	9823.68
583.809	9826.39
584.169	9875.66
584.529	9830.69
584.889	9886.05
585.249	9913.17
585.609	9953.85
585.969	9978.25
586.329	9967.63
586.688	10039.95
587.048	10009.21
587.408	10043.79
587.768	10122.43
588.127	10174.41
588.487	10142.77
588.846	10287.4
589.206	10205.37
589.565	10116.78
589.925	10238.36
590.284	10233.39
590.643	10319.26
591.003	10286.04
591.362	10337.34
591.721	10358.13
592.08	10339.38
592.44	10378.24
592.799	10431.35
593.158	10454.4
593.517	10429.77
593.876	10514.06
594.235	10472.25
594.593	10532.82
594.952	10573.49
595.311	10540.95
595.67	10604.23
596.029	10696.88
596.387	10713.83
596.746	10722.42
597.104	10692.81
597.463	10657.11
597.822	10725.81
598.18	10658.69
598.538	10759.03
598.897	10774.17
599.255	10715.18
599.613	10907.27
599.972	10810.55
600.33	10787.72
600.688	10853.03
601.046	10823.88
601.404	10912.69
601.762	10900.94
602.12	10920.15
602.478	10984.1
602.836	10921.51
603.194	10898.68
603.552	10960.15
603.91	10961.96
604.268	10980.71
604.625	10923.31
604.983	10985.01
605.341	10928.74
605.698	11041.28
606.056	10994.27
606.413	10993.37
606.771	11022.97
607.128	11055.51
607.485	10986.82
607.843	11055.74
608.2	11073.82
608.557	11171.67
608.914	11039.92
609.272	11246.92
609.629	11133.7
609.986	11182.52
610.343	11153.14
610.7	11250.99
611.057	11239.24
611.414	11191.1
611.771	11250.99
612.127	11272.23
612.484	11207.15
612.841	11288.73
613.198	11302.29
613.554	11200.14
613.911	11314.26
614.267	11326.24
614.624	11276.3
614.98	11313.36
615.337	11444.43
615.693	11421.38
616.05	11337.77
616.406	11419.35
616.762	11432.91
617.118	11383.64
617.475	11375.96
617.831	11468.38
618.187	11409.18
618.543	11452.57
618.899	11555.16
619.255	11467.71
619.611	11533.24
619.967	11548.61
620.323	11619.79
620.678	11477.88
621.034	11463.41
621.39	11445.79
621.746	11469.74
622.101	11610.08
622.457	11524.43
622.812	11482.62
623.168	11598.55
623.523	11515.62
623.879	11579.34
624.234	11424.54
624.589	11534.82
624.945	11573.24
625.3	11488.5
625.655	11540.25
626.01	11561.04
626.365	11489.18
626.72	11528.27
627.075	11521.26
627.43	11494.15
627.785	11493.24
628.14	11545.67
628.495	11486.01
628.85	11489.18
629.205	11465.45
629.559	11463.19
629.914	11486.92
630.269	11556.74
630.623	11409.18
630.978	11453.47
631.332	11467.48
631.687	11489.4
632.041	11337.99
632.396	11446.69
632.75	11387.03
633.104	11452.57
633.459	11355.17
633.813	11309.97
634.167	11349.07
634.521	11370.76
634.875	11338.9
635.229	11287.82
635.583	11293.47
635.937	11206.47
636.291	11271.55
636.645	11239.92
636.999	11241.5
637.352	11219.35
637.706	11229.97
638.06	11149.52
638.413	11210.76
638.767	11183.42
639.121	11246.47
639.474	11072.92
639.828	11112.69
640.181	11141.84
640.534	11105
640.888	11155.62
641.241	11104.1
641.594	11097.77
641.947	11134.16
642.301	11082.86
642.654	11105.23
643.007	11086.93
643.36	11068.17
643.713	11035.18
644.066	11127.83
644.419	11022.29
644.771	10973.03
645.124	10850.55
645.477	10849.87
645.83	10803.54
646.182	10750.44
646.535	10665.92
646.888	10741.62
647.24	10680.38
647.593	10717.22
647.945	10719.48
648.298	10643.32
648.65	10614.85
649.002	10593.83
649.355	10689.42
649.707	10620.5
650.059	10671.8
650.411	10849.19
650.763	10847.84
651.115	10928.29
651.467	10945.69
651.819	10850.1
652.171	10908.85
652.523	10880.38
652.875	10805.8
653.227	10821.17
653.578	10922.18
653.93	10857.78
654.282	10828.18
654.633	10784.79
654.985	10762.19
655.337	10840.15
655.688	10926.7
656.039	10776.65
656.391	10847.38
656.742	10805.58
657.094	10857.1
657.445	10867.27
657.796	10795.41
658.147	10797.67
658.498	10843.54
658.849	10863.66
659.2	10851.45
659.551	10812.81
659.902	10843.09
660.253	10771
660.604	10867.04
660.955	10830.44
661.306	10811.23
661.656	10833.15
662.007	10858.23
662.358	10789.76
662.708	10949.98
663.059	10813.94
663.409	10790.66
663.76	10896.42
664.11	10876.08
664.461	10916.76
664.811	10900.49
665.161	10795.63
665.511	10808.06
665.862	10838.34
666.212	10808.97
666.562	10808.29
666.912	10798.8
667.262	10848.06
667.612	10744.34
667.962	10839.93
668.312	10796.54
668.662	10877.89
669.011	10810.1
669.361	10828.63
669.711	10835.63
670.06	10739.82
670.41	10743.88
670.76	10764
671.109	10867.95
671.459	10734.39
671.808	10808.97
672.157	10829.08
672.507	10774.84
672.856	10663.21
673.205	10708.18
673.554	10746.6
673.904	10687.39
674.253	10754.73
674.602	10687.39
674.951	10605.58
675.3	10584.79
675.649	10699.37
675.998	10642.42
676.346	10709.08
676.695	10714.28
677.044	10608.07
677.393	10630.44
677.741	10640.84
678.09	10591.57
678.438	10603.32
678.787	10638.58
679.135	10602.19
679.484	10566.26
679.832	10557.9
680.181	10525.13
680.529	10483.55
680.877	10522.42
681.225	10510.67
681.573	10493.95
681.922	10458.47
682.27	10417.34
682.618	10376.21
682.966	10376.21
683.314	10407.17
683.661	10364.69
684.009	10344.12
684.357	10287.62
684.705	10260.96
685.053	10327.4
685.4	10337.57
685.748	10244.01
686.095	10151.58
686.443	10192.26
686.79	10125.6
687.138	10183.67
687.485	10148.65
687.832	10215.08
688.18	10077.46
688.527	10018.48
688.874	10056.67
689.221	9980.29
689.568	9986.84
689.915	9904.13
690.262	9858.48
690.609	9863.23
690.956	9843.12
691.303	9882.89
691.65	9786.85
691.997	9770.35
692.344	9770.35
692.69	9731.71
693.037	9707.98
693.383	9649.22
693.73	9644.48
694.077	9594.54
694.423	9564.03
694.769	9518.83
695.116	9530.36
695.462	9539.62
695.808	9487.19
696.155	9528.77
696.501	9387.54
696.847	9377.37
697.193	9316.35
697.539	9348.21
697.885	9300.76
698.231	9212.17
698.577	9211.04
698.923	9230.93
699.269	9140.54
699.614	9102.57
699.96	9076.36
700.306	9097.15
700.651	9110.71
700.997	9011.27
701.342	8986.42
701.688	9008.11
702.033	8995.68
702.379	8929.47
702.724	8838.62
703.069	8901.9
703.415	8822.8
703.76	8787.78
704.105	8799.08
704.45	8830.49
704.795	8747.78
705.14	8691.28
705.485	8694.22
705.83	8610.61
706.175	8601.57
706.52	8609.7
706.865	8568.57
707.209	8583.26
707.554	8496.94
707.899	8518.63
708.243	8454.9
708.588	8455.81
708.932	8381.69
709.277	8385.3
709.621	8420.33
709.966	8332.42
710.31	8391.63
710.654	8260.79
710.998	8327.9
711.342	8263.5
711.687	8306.43
712.031	8218.53
712.375	8223.27
712.719	8209.26
713.063	8205.19
713.407	8184.86
713.75	8139.21
714.094	8122.71
714.438	8141.24
714.782	8118.87
715.125	8082.26
715.469	8080.9
715.812	8065.76
716.156	8089.72
716.499	8001.58
716.843	8044.52
717.186	7986.44
717.53	8044.52
717.873	8031.41
718.216	8011.53
718.559	7948.25
718.902	7929.04
719.246	7915.26
719.589	7916.61
719.932	7843.85
720.275	7898.99
720.617	7876.61
720.96	7880.46
721.303	7872.77
721.646	7832.77
721.989	7870.29
722.331	7865.54
722.674	7855.82
723.016	7814.7
723.359	7823.28
723.701	7838.2
724.044	7784.87
724.386	7724.98
724.729	7797.07
725.071	7788.26
725.413	7744.42
725.755	7815.6
726.097	7764.3
726.439	7719.78
726.782	7809.05
727.124	7744.42
727.465	7781.7
727.807	7844.3
728.149	7724.75
728.491	7703.74
728.833	7710.07
729.175	7676.62
729.516	7669.16
729.858	7678.88
730.199	7700.57
730.541	7702.83
730.882	7647.92
731.224	7653.12
731.565	7613.35
731.906	7616.73
732.248	7589.84
732.589	7583.74
732.93	7580.35
733.271	7567.7
733.612	7581.71
733.953	7621.71
734.294	7645.21
734.635	7545.1
734.976	7590.75
735.317	7567.24
735.658	7565.21
735.999	7632.55
736.339	7570.86
736.68	7586.91
737.021	7620.8
737.361	7620.12
737.702	7649.95
738.042	7625.77
738.383	7605.89
738.723	7659.45
739.063	7621.48
739.404	7652.67
739.744	7612.44
740.084	7633.01
740.424	7666.9
740.764	7643.63
741.104	7750.97
741.444	7736.05
741.784	7690.86
742.124	7719.1
742.464	7727.01
742.804	7722.49
743.143	7715.72
743.483	7731.99
743.823	7716.39
744.162	7724.98
744.502	7838.42
744.841	7769.27
745.181	7792.1
745.52	7800.01
745.86	7875.71
746.199	7884.98
746.538	7909.61
746.877	7968.36
747.216	8022.83
747.556	8021.7
747.895	8048.36
748.234	8070.73
748.573	8124.52
748.911	8114.57
749.25	8159.55
749.589	8244.06
749.928	8336.94
750.267	8407
750.605	8412.19
750.944	8463.04
751.283	8568.12
751.621	8632.3
751.96	8629.59
752.298	8730.6
752.636	8892.63
752.975	8873.88
753.313	8929.69
753.651	9067.54
753.989	9111.38
754.327	9202.91
754.666	9248.1
755.004	9380.08
755.342	9569.9
755.679	9645.83
756.017	9731.93
756.355	9867.07
756.693	9993.17
757.031	10127.86
757.368	10194.97
757.706	10277.46
758.044	10479.26
758.381	10621.18
758.719	10751.12
759.056	10900.94
759.394	11017.32
759.731	11061.16
760.068	11204.66
760.405	11430.42
760.743	11524.88
761.08	11708.15
761.417	11804.65
761.754	11969.61
762.091	12153.56
762.428	12314.01
762.765	12367.57
763.102	12589.49
763.438	12737.05
763.775	12922.36
764.112	13010.04
764.449	13231.73
764.785	13329.13
765.122	13424.27
765.458	13571.38
765.795	13827.42
766.131	13875.33
766.467	14066.51
766.804	14164.36
767.14	14298.37
767.476	14420.85
767.812	14559.6
768.148	14704.23
768.485	14792.37
768.821	14827.62
769.157	15024.22
769.492	15146.48
769.828	15370.43
770.164	15385.57
770.5	15409.98
770.836	15624.43
771.171	15626.92
771.507	15756.18
771.842	15848.83
772.178	15971.09
772.513	16035.95
772.849	16123.63
773.184	16236.62
773.519	16282.95
773.855	16359.56
774.19	16431.87
774.525	16494.47
774.86	16603.39
775.195	16638.42
775.53	16707.8
775.865	16709.6
776.2	16724.97
776.535	16745.76
776.87	16805.19
777.205	16951.86
777.539	16952.53
777.874	17057.62
778.209	16931.97
778.543	17064.85
778.878	17079.76
779.212	17123.38
779.547	17142.36
779.881	17234.79
780.215	17227.56
780.55	17310.04
780.884	17301.45
781.218	17285.41
781.552	17367.66
781.886	17264.62
782.22	17226.43
782.554	17322.47
782.888	17163.83
783.222	17212.19
783.556	17234.56
783.889	17130.38
784.223	17139.65
784.557	17166.54
784.89	17341.22
785.224	17238.18
785.557	17146.65
785.891	17233.21
786.224	17199.53
786.558	17317.72
786.891	17129.25
787.224	17069.82
787.557	17078.18
787.891	17123.6
788.224	17119.31
788.557	17119.99
788.89	17130.16
789.223	17052.87
789.556	17018.52
789.888	16932.87
790.221	16982.59
790.554	16872.99
790.887	16971.97
791.219	16911.63
791.552	16866.21
791.884	16858.98
792.217	16821.01
792.549	16733.56
792.882	16729.49
793.214	16578.53
793.546	16755.93
793.879	16656.5
794.211	16522.49
794.543	16691.98
794.875	16527.91
795.207	16653.33
795.539	16542.6
795.871	16587.35
796.203	16386.22
796.535	16391.87
796.867	16406.56
797.198	16315.72
797.53	16363.17
797.862	16295.6
798.193	16272.33
798.525	16133.8
798.856	16211.99
799.188	16061.94
799.519	16055.83
799.85	15936.97
800.182	16062.16
800.513	16048.15
800.844	15938.78
801.175	16004.76
801.506	15965.67
801.837	15875.05
802.168	15877.31
802.499	15808.16
802.83	15658.11
803.161	15645
803.491	15699.01
803.822	15721.38
804.153	15576.07
804.483	15544.44
804.814	15470.99
805.145	15406.81
805.475	15483.87
805.805	15425.34
806.136	15431.9
806.466	15423.99
806.796	15349.41
807.126	15232.81
807.457	15295.18
807.787	15330.2
808.117	15182.41
808.447	15146.25
808.777	15193.03
809.107	15101.96
809.436	15006.6
809.766	15154.16
810.096	15106.48
810.426	14959.14
810.755	15044.34
811.085	14938.35
811.414	14818.35
811.744	14868.75
812.073	14880.5
812.403	14805.25
812.732	14697.45
813.061	14782.42
813.39	14705.81
813.719	14699.03
814.049	14832.59
814.378	14755.08
814.707	14632.82
815.036	14624.46
815.365	14520.51
815.693	14438.7
816.022	14481.19
816.351	14455.65
816.68	14362.55
817.008	14414.07
817.337	14267.18
817.665	14259.5
817.994	14340.85
818.322	14233.74
818.651	14266.05
818.979	14294.53
819.307	14314.64
819.636	14215.66
819.964	14152.38
820.292	14210.23
820.62	14248.65
820.948	14118.26
821.276	14106.28
821.604	14129.33
821.932	14050.01
822.259	14172.95
822.587	14153.29
822.915	14096.11
823.243	14123.46
823.57	13928.89
823.898	14050.92
824.225	13958.71
824.553	14089.11
824.88	14092.27
825.207	14203
825.535	14092.72
825.862	14158.48
826.189	14198.71
826.516	14130.69
826.843	14117.81
827.17	14164.36
827.497	14162.33
827.824	14149.22
828.151	14223.57
828.478	14145.15
828.805	14220.18
829.131	14130.24
829.458	14152.16
829.785	14028.09
830.111	14063.8
830.438	14189.22
830.764	14181.99
831.09	14152.38
831.417	14055.89
831.743	14171.59
832.069	14166.17
832.395	14112.38
832.722	14157.81
833.048	14093.85
833.374	14059.5
833.7	13959.39
834.026	14105.38
834.351	14084.14
834.677	14072.84
835.003	14035.55
835.329	14091.37
835.654	14033.97
835.98	13949
836.306	13954.65
836.631	13954.2
836.956	14022.67
837.282	13982.44
837.607	13905.16
837.932	13904.48
838.258	13899.28
838.583	13874.88
838.908	13777.7
839.233	13771.15
839.558	13831.94
839.883	13724.6
840.208	13654.32
840.533	13779.06
840.858	13664.71
841.182	13643.24
841.507	13550.14
841.832	13589.23
842.156	13592.17
842.481	13609.57
842.805	13522.79
843.13	13595.79
843.454	13513.08
843.778	13460.65
844.103	13303.59
844.427	13388.79
844.751	13386.53
845.075	13294.78
845.399	13311.27
845.723	13252.52
846.047	13235.12
846.371	13135.23
846.695	13106.08
847.019	13023.6
847.343	13018.17
847.666	12880.1
847.99	12812.98
848.313	12846.88
848.637	12809.37
848.96	12709.26
849.284	12700.67
849.607	12648.01
849.931	12582.25
850.254	12504.52
850.577	12428.81
850.9	12333.9
851.223	12372.32
851.546	12316.05
851.869	12204.41
852.192	12305.88
852.515	12135.49
852.838	12120.57
853.161	12159.67
853.483	12049.61
853.806	11965.32
854.129	11996.51
854.451	12015.04
854.774	11975.26
855.096	11850.07
855.419	11885.78
855.741	11777.53
856.063	11714.25
856.385	11720.58
856.708	11676.52
857.03	11699.11
857.352	11644.88
857.674	11609.62
857.996	11560.59
858.318	11477.88
858.64	11472.9
858.961	11429.97
859.283	11434.26
859.605	11404.21
859.926	11453.02
860.248	11337.77
860.57	11330.76
860.891	11282.63
861.212	11210.99
861.534	11197.66
861.855	11157.66
862.176	11147.26
862.498	11120.6
862.819	11183.19
863.14	11136.64
863.461	11102.74
863.782	11032.24
864.103	10984.33
864.424	10987.04
864.745	11013.48
865.065	10976.65
865.386	10937.33
865.707	10970.32
866.027	10909.98
866.348	10992.47
866.668	10899.13
866.989	10904.11
867.309	10828.4
867.63	10822.07
867.95	10830.89
868.27	10746.6
868.59	10761.51
868.91	10674.28
869.23	10689.87
869.55	10601.52
869.87	10723.09
870.19	10671.57
870.51	10615.98
870.83	10746.82
871.15	10634.28
871.469	10645.13
871.789	10612.81
872.109	10552.93
872.428	10530.33
872.748	10511.57
873.067	10543.66
873.386	10542.53
873.706	10484
874.025	10525.36
874.344	10368.98
874.663	10431.58
874.982	10428.19
875.301	10450.33
875.62	10352.71
875.939	10367.4
876.258	10310
876.577	10293.05
876.896	10286.72
877.214	10361.97
877.533	10321.07
877.852	10266.16
878.17	10288.3
878.489	10214.63
878.807	10252.6
879.125	10249.66
879.444	10209.43
879.762	10188.64
880.08	10201.98
880.398	10125.37
880.716	10170.11
881.034	10088.99
881.352	10133.96
881.67	10058.93
881.988	10057.57
882.306	10009.21
882.624	9964.7
882.941	9983.23
883.259	9973.28
883.577	9904.81
883.894	9889.67
884.212	9911.59
884.529	9814.42
884.846	9778.94
885.164	9813.06
885.481	9766.28
885.798	9745.72
886.115	9669.56
886.432	9713.4
886.75	9646.06
887.067	9685.83
887.383	9607.87
887.7	9574.42
888.017	9581.65
888.334	9533.75
888.651	9501.2
888.967	9510.47
889.284	9455.1
889.6	9468.44
889.917	9378.95
890.233	9389.34
890.55	9307.09
890.866	9360.19
891.182	9302.57
891.498	9326.29
891.815	9169.91
892.131	9217.37
892.447	9179.63
892.763	9165.17
893.079	9171.04
893.395	9155.9
893.71	9129.46
894.026	9079.97
894.342	9059.86
894.657	9012.86
894.973	8992.52
895.289	8971.05
895.604	8964.27
895.92	8870.04
896.235	8840.88
896.55	8825.74
896.865	8847.66
897.181	8767.44
897.496	8735.12
897.811	8745.29
898.126	8661
898.441	8650.38
898.756	8649.25
899.071	8615.13
899.386	8548.69
899.7	8542.81
900.015	8509.37
900.33	8411.74
900.644	8410.16
900.959	8357.96
901.273	8394.12
901.588	8328.81
901.902	8342.59
902.216	8265.31
902.531	8229.6
902.845	8200
903.159	8094.24
903.473	8139.66
903.787	8116.61
904.101	8035.25
904.415	8038.42
904.729	7995.93
905.042	7974.69
905.356	8000.91
905.67	7968.36
905.984	7959.78
906.297	7913
906.611	7847.69
906.924	7824.86
907.237	7855.15
907.551	7764.98
907.864	7695.15
908.177	7733.12
908.491	7644.98
908.804	7594.81
909.117	7644.08
909.43	7581.48
909.743	7531.31
910.056	7547.13
910.368	7475.5
910.681	7485.21
910.994	7390.75
911.307	7360.24
911.619	7303.75
911.932	7314.14
912.244	7242.28
912.557	7232.79
912.869	7270.76
913.181	7156.63
913.494	7208.38
913.806	7117.31
914.118	7105.79
914.43	7089.97
914.742	7028.95
915.054	7006.36
915.366	6941.05
915.678	6903.76
915.99	6888.39
916.302	6878.68
916.613	6850.65
916.925	6832.12
917.236	6812.69
917.548	6788.06
917.859	6795.74
918.171	6770.43
918.482	6711.45
918.794	6667.61
919.105	6667.83
919.416	6597.33
919.727	6602.3
920.038	6635.07
920.349	6581.96
920.66	6512.13
920.971	6528.85
921.282	6511.91
921.593	6474.62
921.903	6410.66
922.214	6383.32
922.525	6325.7
922.835	6363.21
923.146	6323.89
923.456	6264.91
923.767	6259.03
924.077	6265.13
924.387	6240.95
924.697	6207.05
925.008	6139.26
925.318	6127.51
925.628	6170.45
925.938	6079.83
926.248	6043.44
926.558	6098.13
926.867	6066.94
927.177	5975.42
927.487	5993.27
927.796	5916.67
928.106	5940.62
928.416	5888.64
928.725	5868.53
929.034	5859.49
929.344	5865.37
929.653	5821.3
929.962	5768.2
930.271	5703.56
930.581	5779.95
930.89	5665.37
931.199	5666.28
931.508	5659.5
931.817	5617.24
932.125	5637.8
932.434	5579.05
932.743	5568.43
933.051	5516.68
933.36	5504.02
933.669	5468.99
933.977	5467.64
934.286	5504.47
934.594	5421.99
934.902	5394.19
935.21	5380.86
935.519	5356.46
935.827	5337.47
936.135	5320.75
936.443	5316.23
936.751	5253.63
937.059	5282.56
937.367	5241.2
937.674	5234.88
937.982	5200.98
938.29	5175.67
938.597	5153.97
938.905	5136.12
939.213	5113.07
939.52	5024.94
939.827	5033.53
940.135	5043.47
940.442	5039.85
940.749	4973.64
941.056	5032.17
941.363	4899.74
941.67	4912.63
941.977	4956.01
942.284	4889.8
942.591	4840.76
942.898	4843.25
943.205	4799.86
943.511	4835.79
943.818	4813.19
944.125	4728
944.431	4770.71
944.738	4766.19
945.044	4705.4
945.35	4715.79
945.657	4696.59
945.963	4618.4
946.269	4652.74
946.575	4623.59
946.881	4584.27
947.187	4591.05
947.493	4535.23
947.799	4547.66
948.105	4522.35
948.41	4486.65
948.716	4505.86
949.022	4437.38
949.327	4473.09
949.633	4431.73
949.938	4420.66
950.244	4394.45
950.549	4352.19
950.854	4362.36
951.16	4360.1
951.465	4319.87
951.77	4227.22
952.075	4274.9
952.38	4211.85
952.685	4210.72
952.99	4189.48
953.294	4202.14
953.599	4165.98
953.904	4173.21
954.209	4141.12
954.513	4107
954.818	4115.13
955.122	4101.35
955.426	4074.23
955.731	4065.42
956.035	4002.14
956.339	3984.06
956.643	3967.79
956.948	3966.44
957.252	3989.94
957.556	3932.54
957.86	3941.13
958.163	3903.39
958.467	3941.13
958.771	3883.95
959.075	3883.27
959.378	3846.44
959.682	3864.29
959.985	3831.98
960.289	3790.17
960.592	3827.23
960.896	3758.53
961.199	3749.72
961.502	3745.2
961.805	3744.97
962.108	3695.93
962.411	3703.39
962.714	3668.82
963.017	3628.14
963.32	3650.96
963.623	3617.52
963.926	3601.25
964.228	3646.44
964.531	3561.93
964.833	3540.01
965.136	3500.46
965.438	3515.6
965.741	3463.17
966.043	3498.42
966.345	3475.37
966.648	3469.5
966.95	3446.9
967.252	3441.7
967.554	3455.49
967.856	3392.67
968.158	3396.73
968.46	3382.5
968.761	3330.97
969.063	3337.98
969.365	3300.01
969.666	3296.62
969.968	3306.11
970.269	3283.74
970.571	3262.5
970.872	3282.61
971.174	3250.97
971.475	3267.47
971.776	3188.6
972.077	3179.79
972.378	3246.91
972.679	3212.78
972.98	3156.97
973.281	3127.59
973.582	3128.04
973.883	3139.56
974.183	3115.84
974.484	3088.27
974.785	3099.34
975.085	3057.76
975.386	3071.77
975.686	3038.55
975.986	3018.89
976.287	3001.94
976.587	3020.7
976.887	2986.57
977.187	2984.09
977.487	2923.3
977.787	2960.13
978.087	2935.5
978.387	2916.52
978.687	2890.53
978.987	2866.13
979.286	2856.63
979.586	2867.03
979.885	2865.45
980.185	2845.79
980.484	2820.02
980.784	2787.71
981.083	2847.82
981.382	2770.08
981.682	2794.71
981.981	2792.45
982.28	2774.38
982.579	2747.03
982.878	2726.02
983.177	2689.41
983.475	2717.88
983.774	2702.97
984.073	2696.19
984.372	2695.73
984.67	2660.93
984.969	2633.14
985.267	2642.18
985.566	2624.32
985.864	2594.49
986.162	2568.51
986.461	2549.75
986.759	2573.93
987.057	2519.24
987.355	2519.69
987.653	2555.62
987.951	2560.14
988.249	2517.21
988.547	2513.59
988.844	2491.9
989.142	2476.08
989.44	2504.33
989.737	2464.1
990.035	2440.37
990.332	2457.32
990.63	2410.32
990.927	2420.26
991.224	2446.48
991.521	2424.1
991.819	2362.64
992.116	2358.34
992.413	2345.46
992.71	2354.27
993.006	2334.39
993.303	2315.63
993.6	2350.66
993.897	2292.13
994.193	2315.63
994.49	2301.17
994.787	2298.91
995.083	2241.73
995.379	2288.29
995.676	2265.24
995.972	2209.42
996.268	2216.2
996.565	2221.85
996.861	2184.79
997.157	2192.92
997.453	2177.78
997.749	2202.41
998.044	2127.16
998.34	2119.93
998.636	2126.94
998.932	2142.3
999.227	2102.76
999.523	2108.41
999.818	2074.51
1000.114	2087.61
1000.409	2078.35
1000.704	2081.29
1001	2043.1
1001.295	2022.08
1001.59	2028.63
1001.885	2010.1
1002.18	1979.82
1002.475	2010.55
1002.77	1969.43
1003.065	1945.25
1003.359	1951.8
1003.654	1970.33
1003.949	1941.4
1004.243	1909.54
1004.538	1914.29
1004.832	1924
1005.127	1903.66
1005.421	1893.5
1005.715	1872.48
1006.009	1846.27
1006.304	1872.03
1006.598	1859.6
1006.892	1815.76
1007.186	1790.22
1007.48	1801.75
1007.773	1779.15
1008.067	1775.53
1008.361	1770.79
1008.655	1778.24
1008.948	1715.2
1009.242	1786.15
1009.535	1764.69
1009.829	1715.2
1010.122	1712.94
1010.415	1728.08
1010.708	1676.1
1011.001	1661.86
1011.295	1688.76
1011.588	1647.4
1011.881	1650.11
1012.173	1642.43
1012.466	1641.52
1012.759	1622.77
1013.052	1632.71
1013.344	1610.11
1013.637	1593.62
1013.93	1599.94
1014.222	1561.07
1014.514	1600.17
1014.807	1544.13
1015.099	1548.42
1015.391	1520.62
1015.683	1524.47
1015.976	1533.05
1016.268	1543
1016.56	1508.65
1016.851	1503.68
1017.143	1490.34
1017.435	1467.97
1017.727	1473.85
1018.018	1437.91
1018.31	1435.88
1018.602	1441.08
1018.893	1418.25
1019.185	1423.9
1019.476	1450.57
1019.767	1416.67
1020.058	1403.56
1020.35	1375.09
1020.641	1385.03
1020.932	1362.44
1021.223	1388.65
1021.514	1352.72
1021.804	1345.94
1022.095	1334.41
1022.386	1308.43
1022.677	1328.99
1022.967	1322.89
1023.258	1322.44
1023.548	1324.47
1023.839	1284.47
1024.129	1281.31
1024.419	1259.16
1024.709	1260.07
1025	1244.02
1025.29	1235.89
1025.58	1243.57
1025.87	1213.51
1026.16	1210.12
1026.449	1235.21
1026.739	1233.4
1027.029	1192.27
1027.319	1195.89
1027.608	1192.72
1027.898	1175.77
1028.187	1180.29
1028.477	1168.32
1028.766	1179.16
1029.055	1139.62
1029.344	1146.4
1029.634	1127.19
1029.923	1132.16
1030.212	1124.93
1030.501	1122.67
1030.79	1109.34
1031.078	1111.37
1031.367	1071.37
1031.656	1078.6
1031.945	1057.36
1032.233	1062.78
1032.522	1043.57
1032.81	1044.7
1033.099	1044.03
1033.387	1043.8
1033.675	1045.83
1033.963	1037.25
1034.251	1023.01
1034.54	999.06
1034.828	1028.66
1035.116	1005.38
1035.403	1022.33
1035.691	990.92
1035.979	997.47
1036.267	999.06
1036.554	971.03
1036.842	959.96
1037.129	965.16
1037.417	968.1
1037.704	979.62
1037.992	956.34
1038.279	947.98
1038.566	932.39
1038.853	932.39
1039.14	932.39
