Data from hue_350_FLMS001491_47.txt Node
Date: Mon Feb 06 15:38:05 GMT 2017
User: dcchb
Spectrometer: FLMS00149
Trigger mode: 0
Integration Time (sec): 2.000000E-2
Scans to average: 10
Electric dark correction enabled: true
Nonlinearity correction enabled: false
Boxcar width: 0
XAxis mode: Wavelengths
Number of Pixels in Spectrum: 2048
>>>>>Begin Spectral Data<<<<<
341.393	-6.65
341.776	-6.65
342.16	-6.65
342.543	-62.24
342.927	-68.8
343.31	-69.25
343.693	-73.54
344.077	-57.27
344.46	-57.95
344.843	-69.02
345.226	-60.44
345.61	-35.13
345.993	-20.44
346.376	1.93
346.759	20.01
347.142	5.78
347.525	52.56
347.908	66.11
348.291	71.31
348.674	107.02
349.057	118.32
349.44	123.51
349.823	135.72
350.206	186.79
350.588	202.16
350.971	206
351.354	229.05
351.737	211.2
352.119	238.99
352.502	257.3
352.884	264.3
353.267	290.51
353.65	288.71
354.032	300.23
354.414	308.37
354.797	309.5
355.179	341.59
355.562	313.57
355.944	328.93
356.326	321.25
356.709	315.83
357.091	309.27
357.473	330.97
357.855	338.65
358.238	344.52
358.62	355.82
359.002	332.1
359.384	344.52
359.766	341.36
360.148	323.96
360.53	329.84
360.912	326.45
361.294	333.68
361.676	344.75
362.057	325.54
362.439	317.41
362.821	335.03
363.203	318.08
363.584	324.64
363.966	313.79
364.348	306.79
364.729	325.77
365.111	315.37
365.493	297.07
365.874	302.49
366.256	305.66
366.637	315.37
367.019	315.37
367.4	288.93
367.781	295.94
368.163	315.83
368.544	317.18
368.925	313.79
369.306	332.1
369.688	312.44
370.069	318.54
370.45	318.99
370.831	309.95
371.212	330.06
371.593	312.89
371.974	313.11
372.355	296.39
372.736	306.33
373.117	317.41
373.498	299.78
373.879	293.9
374.26	320.12
374.641	320.57
375.021	301.59
375.402	318.31
375.783	297.75
376.163	310.85
376.544	304.98
376.925	320.12
377.305	317.86
377.686	306.79
378.066	326.45
378.447	325.09
378.827	316.73
379.208	336.84
379.588	314.7
379.968	322.83
380.349	324.41
380.729	324.19
381.109	314.24
381.489	352.21
381.87	334.13
382.25	335.03
382.63	331.19
383.01	328.93
383.39	328.03
383.77	329.38
384.15	332.77
384.53	328.25
384.91	340.01
385.29	344.07
385.67	340.91
386.049	363.73
386.429	329.84
386.809	337.07
387.189	339.33
387.568	357.86
387.948	350.17
388.328	359.44
388.707	350.85
389.087	349.72
389.466	361.02
389.846	334.13
390.225	348.82
390.605	341.59
390.984	363.51
391.363	366.22
391.743	367.12
392.122	356.95
392.501	336.39
392.881	352.66
393.26	352.21
393.639	389.04
394.018	354.69
394.397	365.32
394.776	372.55
395.155	352.21
395.534	357.41
395.913	364.64
396.292	377.74
396.671	393.34
397.05	370.74
397.429	396.27
397.808	361.7
398.186	363.28
398.565	379.55
398.944	396.27
399.323	383.62
399.701	376.61
400.08	387.46
400.458	368.48
400.837	408.93
401.215	372.77
401.594	377.52
401.972	393.79
402.351	401.02
402.729	385.43
403.107	391.98
403.486	394.69
403.864	405.99
404.242	397.86
404.62	392.43
404.999	385.65
405.377	415.94
405.755	408.03
406.133	394.02
406.511	394.69
406.889	417.07
407.267	400.57
407.645	413
408.023	409.16
408.401	441.7
408.779	424.07
409.156	420.46
409.534	408.7
409.912	455.03
410.29	434.92
410.667	453.45
411.045	467.01
411.422	441.47
411.8	460.91
412.178	431.3
412.555	461.81
412.933	433.79
413.31	454.13
413.687	462.71
414.065	468.36
414.442	448.93
414.819	476.27
415.197	455.93
415.574	460.68
415.951	460.68
416.328	472.43
416.705	468.59
417.082	479.21
417.46	481.24
417.837	486.22
418.214	504.07
418.591	483.96
418.967	517.85
419.344	513.11
419.721	491.41
420.098	512.2
420.475	525.54
420.852	513.79
421.228	518.76
421.605	496.39
421.982	520.57
422.358	504.97
422.735	547.91
423.111	523.28
423.488	537.06
423.864	558.98
424.241	532.09
424.617	553.33
424.994	547.01
425.37	557.17
425.746	558.76
426.123	543.16
426.499	555.82
426.875	571.64
427.251	573.45
427.627	598.76
428.003	584.52
428.379	589.49
428.756	598.53
429.132	601.69
429.507	593.11
429.883	604.86
430.259	612.31
430.635	633.78
431.011	628.13
431.387	615.93
431.763	615.93
432.138	653.67
432.514	629.26
432.89	661.13
433.265	652.31
433.641	661.8
434.016	683.27
434.392	680.34
434.767	662.48
435.143	686.66
435.518	672.88
435.894	668.36
436.269	647.34
436.644	699.32
437.02	684.85
437.395	671.52
437.77	700.9
438.145	703.61
438.52	706.1
438.895	727.57
439.271	724.63
439.646	715.81
440.021	752.2
440.395	733.22
440.77	747.68
441.145	751.52
441.52	770.05
441.895	751.97
442.27	774.12
442.645	768.69
443.019	758.98
443.394	781.58
443.769	749.49
444.143	771.41
444.518	785.87
444.892	799.2
445.267	769.37
445.641	781.12
446.016	794.68
446.39	777.96
446.764	793.78
447.139	803.04
447.513	800.56
447.887	818.64
448.262	821.35
448.636	801.24
449.01	800.56
449.384	824.06
449.758	858.86
450.132	844.4
450.506	847.34
450.88	850.5
451.254	854.34
451.628	843.95
452.002	848.01
452.376	857.05
452.75	873.78
453.123	873.1
453.497	888.69
453.871	906.32
454.244	893.44
454.618	913.78
454.992	916.49
455.365	903.61
455.739	932.76
456.112	910.61
456.486	952.87
456.859	937.96
457.232	975.24
457.606	979.31
457.979	997.16
458.352	980.67
458.725	998.52
459.099	1001.23
459.472	1002.81
459.845	1022.93
460.218	1014.34
460.591	1044.85
460.964	1043.49
461.337	1063.15
461.71	1080.1
462.083	1089.59
462.456	1085.52
462.829	1081.23
463.201	1094.79
463.574	1105.18
463.947	1140.66
464.32	1104.96
464.692	1113.09
465.065	1142.7
465.438	1146.54
465.81	1168.91
466.183	1187.21
466.555	1217.04
466.928	1217.72
467.3	1218.4
467.672	1231.06
468.045	1264.5
468.417	1287.1
468.789	1287.55
469.161	1289.13
469.534	1300.21
469.906	1346.31
470.278	1351.28
470.65	1377.72
471.022	1392.63
471.394	1395.8
471.766	1388.57
472.138	1428.79
472.51	1425.63
472.882	1476.25
473.253	1477.6
473.625	1499.97
473.997	1514.66
474.369	1518.73
474.74	1535.23
475.112	1551.05
475.484	1572.74
475.855	1613.42
476.227	1641.67
476.598	1653.64
476.97	1690.7
477.341	1734.32
477.713	1751.72
478.084	1754.88
478.455	1809.8
478.827	1821.1
479.198	1870.36
479.569	1865.84
479.94	1937.48
480.311	1961.88
480.682	1967.76
481.053	2024.71
481.424	2076.23
481.795	2049.34
482.166	2121.43
482.537	2145.38
482.908	2172.05
483.279	2219.28
483.65	2251.37
484.021	2306.28
484.391	2355.32
484.762	2330.69
485.133	2394.41
485.503	2378.6
485.874	2459.95
486.244	2469.44
486.615	2529.1
486.985	2542.43
487.356	2561.87
487.726	2581.53
488.097	2637.8
488.467	2669.44
488.837	2763.9
489.207	2751.47
489.578	2829.66
489.948	2816.32
490.318	2861.75
490.688	2890.67
491.058	2913.95
491.428	2979.03
491.798	3004.34
492.168	3107.16
492.538	3066.49
492.908	3080.72
493.278	3132.93
493.648	3162.98
494.017	3188.97
494.387	3212.02
494.757	3246.82
495.126	3282.75
495.496	3299.48
495.866	3297.89
496.235	3381.51
496.605	3373.37
496.974	3410.66
497.344	3416.99
497.713	3452.24
498.082	3480.04
498.452	3497.21
498.821	3534.27
499.19	3508.96
499.559	3561.62
499.928	3589.64
500.298	3609.07
500.667	3661.95
501.036	3638.22
501.405	3699.24
501.774	3705.79
502.143	3758.67
502.512	3767.94
502.88	3757.32
503.249	3787.6
503.618	3788.5
503.987	3790.54
504.356	3837.31
504.724	3808.39
505.093	3857.2
505.462	3865.34
505.83	3911.89
506.199	3957.09
506.567	4009.97
506.936	3995.95
507.304	4020.13
507.672	4019.46
508.041	4018.1
508.409	4013.58
508.777	4079.34
509.145	4094.48
509.514	4028.5
509.882	4119.11
510.25	4122.05
510.618	4099.23
510.986	4142.62
511.354	4231.2
511.722	4214.71
512.09	4218.77
512.458	4216.29
512.826	4280.47
513.193	4260.35
513.561	4292.22
513.929	4288.15
514.297	4322.95
514.664	4338.32
515.032	4351.43
515.4	4383.74
515.767	4400.24
516.135	4390.29
516.502	4399.11
516.869	4418.54
517.237	4448.15
517.604	4416.96
517.972	4432.33
518.339	4496.96
518.706	4490.86
519.073	4463.06
519.44	4522.49
519.808	4544.19
520.175	4532.89
520.542	4581.02
520.909	4588.93
521.276	4581.48
521.643	4683.62
522.009	4674.58
522.376	4646.78
522.743	4706.67
523.11	4708.03
523.477	4729.49
523.843	4805.2
524.21	4802.49
524.577	4827.8
524.943	4866.44
525.31	4871.64
525.676	4910.28
526.043	4920.22
526.409	4932.2
526.776	5035.02
527.142	4979.21
527.508	4961.35
527.874	5000.9
528.241	5103.72
528.607	5114.12
528.973	5149.6
529.339	5120.44
529.705	5156.83
530.071	5168.8
530.437	5210.39
530.803	5206.09
531.169	5232.76
531.535	5213.32
531.901	5269.82
532.267	5326.31
532.632	5331.96
532.998	5321.12
533.364	5386.43
533.73	5366.77
534.095	5417.16
534.461	5459.64
534.826	5504.84
535.192	5487.89
535.557	5464.39
535.923	5497.84
536.288	5526.31
536.653	5637.72
537.019	5544.61
537.384	5630.49
537.749	5654.67
538.114	5696.25
538.479	5663.03
538.845	5658.51
539.21	5707.1
539.575	5721.11
539.94	5724.5
540.305	5771.05
540.67	5806.53
541.034	5839.52
541.399	5869.58
541.764	5893.53
542.129	5893.31
542.494	5939.63
542.858	5957.94
543.223	5908.67
543.587	6011.27
543.952	5986.86
544.316	6023.7
544.681	6064.6
545.045	6075
545.41	6097.14
545.774	6117.03
546.138	6144.6
546.503	6162.45
546.867	6102.11
547.231	6229.79
547.595	6244.03
547.959	6267.31
548.324	6301.43
548.688	6263.69
549.052	6292.84
549.416	6305.72
549.779	6315.44
550.143	6316.57
550.507	6375.33
550.871	6431.14
551.235	6395.67
551.599	6507.98
551.962	6436.79
552.326	6493.06
552.689	6540.29
553.053	6554.76
553.417	6564.93
553.78	6644.7
554.143	6560.18
554.507	6623.68
554.87	6664.58
555.234	6679.73
555.597	6640.86
555.96	6668.43
556.323	6668.88
556.686	6724.47
557.05	6759.72
557.413	6741.64
557.776	6765.6
558.139	6828.87
558.502	6820.51
558.865	6867.52
559.228	6899.15
559.59	6962.2
559.953	6915.65
560.316	6997.01
560.679	7028.19
561.041	7011.69
561.404	7039.26
561.767	7093.05
562.129	7110.22
562.492	7192.48
562.854	7110.22
563.217	7123.1
563.579	7135.53
563.941	7174.63
564.304	7234.06
564.666	7223.21
565.028	7248.52
565.39	7304.57
565.753	7334.4
566.115	7375.07
566.477	7411.01
566.839	7454.85
567.201	7426.82
567.563	7472.92
567.925	7480.61
568.287	7489.2
568.648	7524.68
569.01	7547.5
569.372	7622.53
569.734	7564.67
570.095	7651.68
570.457	7741.17
570.819	7696.42
571.18	7699.36
571.542	7789.53
571.903	7834.05
572.265	7891.45
572.626	7890.32
572.987	7926.25
573.349	7968.51
573.71	8017.32
574.071	8059.35
574.432	8079.91
574.794	8196.52
575.155	8233.13
575.516	8189.97
575.877	8354.94
576.238	8341.83
576.599	8422.05
576.96	8494.14
577.32	8517.64
577.681	8655.72
578.042	8721.25
578.403	8794.02
578.763	8874.47
579.124	9009.61
579.485	9074.46
579.845	9204.4
580.206	9206.89
580.566	9333.44
580.927	9484.4
581.287	9594.9
581.648	9682.36
582.008	9821.34
582.368	9936.14
582.728	10091.16
583.089	10195.57
583.449	10313.53
583.809	10505.61
584.169	10586.06
584.529	10734.31
584.889	11065.37
585.249	11051.81
585.609	11241.64
585.969	11499.03
586.329	11671.68
586.688	11826.03
587.048	12085.46
587.408	12258.34
587.768	12540.14
588.127	12623.52
588.487	12919.34
588.846	13177.18
589.206	13369.72
589.565	13629.83
589.925	13863.72
590.284	14150.94
590.643	14353.2
591.003	14629.12
591.362	14959.51
591.721	15211.7
592.08	15394.3
592.44	15689.43
592.799	15967.16
593.158	16266.37
593.517	16492.8
593.876	16729.63
594.235	17074.03
594.593	17271.76
594.952	17648.93
595.311	17920.33
595.67	18314.45
596.029	18567.32
596.387	18906.3
596.746	19224.93
597.104	19443.01
597.463	19699.72
597.822	20061.75
598.18	20254.96
598.538	20573.6
598.897	20938.33
599.255	21025.34
599.613	21672.78
599.972	21793.23
600.33	22085.2
600.688	22284.74
601.046	22753.88
601.404	23054.89
601.762	23226.86
602.12	23630.92
602.478	23858.03
602.836	24020.06
603.194	24284.69
603.552	24533.95
603.91	24858
604.268	25238.33
604.625	25314.72
604.983	25775.27
605.341	25803.74
605.698	26173
606.056	26533.21
606.413	26698.18
606.771	26949.48
607.128	27177.72
607.485	27271.95
607.843	27607.99
608.2	27911.48
608.557	28248.65
608.914	28402.09
609.272	28724.34
609.629	28950.78
609.986	29182.64
610.343	29152.58
610.7	29743.3
611.057	29769.74
611.414	30006.57
611.771	30167.24
612.127	30499.89
612.484	30649.72
612.841	30996.83
613.198	30975.81
613.554	31209.93
613.911	31498.73
614.267	31766.3
614.624	31773.98
614.98	31968.33
615.337	32225.27
615.693	32370.12
616.05	32426.39
616.406	32829.32
616.762	32883.1
617.118	33004.46
617.475	33103.44
617.831	33382.98
618.187	33456.87
618.543	33648.51
618.899	33937.09
619.255	34095.05
619.611	33986.35
619.967	34417.75
620.323	34426.11
620.678	34446.68
621.034	34465.44
621.39	34726.9
621.746	34703.4
622.101	35173.21
622.457	35021.81
622.812	35179.99
623.168	35293.66
623.523	35412.3
623.879	35579.3
624.234	35375.47
624.589	35648.68
624.945	35791.5
625.3	35846.42
625.655	36021.1
626.01	36052.29
626.365	36140.42
626.72	36106.52
627.075	36117.82
627.43	36218.84
627.785	36183.58
628.14	36447.98
628.495	36457.02
628.85	36442.11
629.205	36505.83
629.559	36722.1
629.914	36669.22
630.269	36767.52
630.623	36644.14
630.978	36619.28
631.332	36845.49
631.687	36844.36
632.041	36869.89
632.396	36772.72
632.75	36759.39
633.104	36978.82
633.459	36818.82
633.813	36819.27
634.167	36847.52
634.521	36843.68
634.875	36972.49
635.229	37045.48
635.583	36985.37
635.937	36867.41
636.291	36960.74
636.645	36853.62
636.999	36913.73
637.352	37036.44
637.706	36817.24
638.06	36939.04
638.413	36821.31
638.767	36741.76
639.121	36853.4
639.474	36694.98
639.828	36751.25
640.181	36944.01
640.534	36880.74
640.888	36701.31
641.241	36758.26
641.594	36797.35
641.947	36860.63
642.301	36760.52
642.654	36837.8
643.007	36937.69
643.36	36749.44
643.713	36739.05
644.066	36972.26
644.419	36675.32
644.771	36328.66
645.124	36210.25
645.477	36108.56
645.83	35973.19
646.182	35913.99
646.535	35673.99
646.888	35910.6
647.24	35532.3
647.593	35855.68
647.945	35644.84
648.298	35620.66
648.65	35613.65
649.002	35500.89
649.355	35783.14
649.707	35593.77
650.059	35591.28
650.411	36118.95
650.763	36182.68
651.115	36498.6
651.467	36405.05
651.819	36358.04
652.171	36401.2
652.523	36342
652.875	36298.61
653.227	36095.22
653.578	36392.39
653.93	36345.84
654.282	36099.52
654.633	36074.21
654.985	36297.03
655.337	36290.47
655.688	36228.55
656.039	36330.02
656.391	36066.52
656.742	36126.63
657.094	36258.61
657.445	36196.46
657.796	36225.84
658.147	36023.81
658.498	36083.47
658.849	36293.41
659.2	36069.01
659.551	36077.14
659.902	36218.84
660.253	36080.08
660.604	36108.1
660.955	35976.36
661.306	36135.67
661.656	36011.38
662.007	36147.43
662.358	36058.16
662.708	35913.53
663.059	35962.57
663.409	35697.72
663.76	36090.7
664.11	35952.18
664.461	36048.9
664.811	36044.6
665.161	36041.21
665.511	35874.44
665.862	35933.65
666.212	36213.19
666.562	36082.34
666.912	36046.41
667.262	36012.97
667.612	35932.52
667.962	36022.23
668.312	35873.53
668.662	36107.2
669.011	36088.44
669.361	35901.33
669.711	35897.94
670.06	35934.1
670.41	35787.66
670.76	35714.22
671.109	35945.85
671.459	35803.71
671.808	35736.36
672.157	35945.62
672.507	35640.55
672.856	35634.67
673.205	35793.76
673.554	35742.01
673.904	35707.21
674.253	35885.06
674.602	35686.42
674.951	35344.96
675.3	35135.47
675.649	35610.49
675.998	35581.11
676.346	35515.58
676.695	35763.25
677.044	35317.62
677.393	35505.86
677.741	35589.25
678.09	35506.54
678.438	35488.01
678.787	35516.26
679.135	35574.33
679.484	35316.49
679.832	35313.55
680.181	35167.34
680.529	35322.81
680.877	35169.6
681.225	35108.36
681.573	35297.73
681.922	35124.85
682.27	34959.89
682.618	34945.2
682.966	34942.03
683.314	34930.51
683.661	34782.04
684.009	34650.29
684.357	34650.74
684.705	34623.62
685.053	34674.47
685.4	34521.93
685.748	34430.18
686.095	34492.78
686.443	34333.69
686.79	34293.24
687.138	34298.89
687.485	34232
687.832	34179.57
688.18	34177.99
688.527	34095.05
688.874	34113.58
689.221	34061.6
689.568	33857.54
689.915	33773.25
690.262	33800.14
690.609	33648.06
690.956	33572.35
691.303	33583.2
691.65	33458.68
691.997	33527.16
692.344	33280.61
692.69	33289.65
693.037	33236.09
693.383	32897.12
693.73	32997
694.077	32910.9
694.423	32947.74
694.769	32642.66
695.116	32736.67
695.462	32740.51
695.808	32510.01
696.155	32664.35
696.501	32440.63
696.847	32401.08
697.193	32191.82
697.539	32342.1
697.885	31964.48
698.231	31953.64
698.577	31947.76
698.923	31811.95
699.269	31810.14
699.614	31541.22
699.96	31600.2
700.306	31579.18
700.651	31495.12
700.997	31415.35
701.342	31279.3
701.688	31294.22
702.033	31172.87
702.379	31035.02
702.724	31012.65
703.069	31115.24
703.415	30634.35
703.76	30740.34
704.105	30789.37
704.45	30544.18
704.795	30440.91
705.14	30402.27
705.485	30370.63
705.83	30252.66
706.175	30230.29
706.52	30165.66
706.865	30032.78
707.209	29995.27
707.554	30060.35
707.899	30035.27
708.243	29795.73
708.588	29797.08
708.932	29749.4
709.277	29622.85
709.621	29631.89
709.966	29467.83
710.31	29422.86
710.654	29333.14
710.998	29319.58
711.342	29282.07
711.687	29211.79
712.031	29085.92
712.375	29024.45
712.719	29034.39
713.063	29049.98
713.407	29100.83
713.75	28882.53
714.094	28858.58
714.438	28784.46
714.782	28796.43
715.125	28598.92
715.469	28687.73
715.812	28488.42
716.156	28287.29
716.499	28408.42
716.843	28445.48
717.186	28250.68
717.53	28319.16
717.873	28375.43
718.216	28325.03
718.559	28160.52
718.902	27885.95
719.246	28024.7
719.589	27854.99
719.932	27860.41
720.275	27881.43
720.617	27815.89
720.96	27759.17
721.303	27712.17
721.646	27798.27
721.989	27534.54
722.331	27730.92
722.674	27601.66
723.016	27624.49
723.359	27575.45
723.701	27507.65
724.044	27386.3
724.386	27229.47
724.729	27343.36
725.071	27180.43
725.413	27251.61
725.755	27200.77
726.097	27086.65
726.439	27076.7
726.782	26945.86
727.124	27200.54
727.465	26987.44
727.807	26930.27
728.149	26812.53
728.491	26851.62
728.833	26863.6
729.175	26681.69
729.516	26685.75
729.858	26731.18
730.199	26661.35
730.541	26608.47
730.882	26480.56
731.224	26677.62
731.565	26425.87
731.906	26488.92
732.248	26411.18
732.589	26290.06
732.93	26222.04
733.271	26271.53
733.612	26371.41
733.953	26264.52
734.294	26238.31
734.635	26041.25
734.976	26095.71
735.317	25969.16
735.658	25964.64
735.999	26073.57
736.339	25980.01
736.68	25982.27
737.021	25963.51
737.361	25690.07
737.702	25835.61
738.042	25820.69
738.383	25716.06
738.723	25819.34
739.063	25700.02
739.404	25586.35
739.744	25552.9
740.084	25594.48
740.424	25523.52
740.764	25431.55
741.104	25568.49
741.444	25469.97
741.784	25287.6
742.124	25346.81
742.464	25285.34
742.804	25300.7
743.143	25190.88
743.483	25219.58
743.823	25114.72
744.162	25077.66
744.502	25129.41
744.841	24973.03
745.181	25038.11
745.52	24923.99
745.86	24898
746.199	24933.48
746.538	24895.07
746.877	24940.26
747.216	24861.85
747.556	24789.08
747.895	24806.48
748.234	24637.22
748.573	24666.6
748.911	24612.36
749.25	24588.41
749.589	24605.13
749.928	24551.8
750.267	24571.91
750.605	24481.52
750.944	24439.71
751.283	24309.54
751.621	24440.16
751.96	24281.52
752.298	24234.07
752.636	24299.6
752.975	24165.82
753.313	23970.8
753.651	24138.7
753.989	24023.68
754.327	23934.87
754.666	23790.69
755.004	23895.54
755.342	23888.54
755.679	23906.17
756.017	23612.39
756.355	23773.97
756.693	23653.97
757.031	23723.12
757.368	23508.44
757.706	23434.54
758.044	23435.44
758.381	23439.74
758.719	23359.96
759.056	23288.1
759.394	23314.99
759.731	23084.49
760.068	23045.62
760.405	23084.94
760.743	22936.93
761.08	22951.16
761.417	22885.85
761.754	22777.83
762.091	22781.22
762.428	22710.94
762.765	22489.03
763.102	22609.25
763.438	22363.38
763.775	22431.63
764.112	22340.56
764.449	22230.73
764.785	22184.85
765.122	22123.84
765.458	22014.01
765.795	22005.2
766.131	21908.93
766.467	21864.18
766.804	21778.76
767.14	21654.7
767.476	21753.23
767.812	21560.01
768.148	21648.82
768.485	21428.49
768.821	21317.08
769.157	21348.94
769.492	21241.83
769.828	21235.95
770.164	21055.17
770.5	21013.36
770.836	21002.29
771.171	20893.36
771.507	20831.67
771.842	20655.4
772.178	20714.84
772.513	20678
772.849	20522.07
773.184	20600.26
773.519	20522.53
773.855	20310.1
774.19	20262.42
774.525	20167.73
774.86	20209.31
775.195	20063.1
775.53	19998.02
775.865	20010
776.2	19869.44
776.535	19701.3
776.87	19630.12
777.205	19564.36
777.539	19584.47
777.874	19566.62
778.209	19392.84
778.543	19325.95
778.878	19206.63
779.212	19264.25
779.547	19195.33
779.881	19300.18
780.215	19011.38
780.55	19033.3
780.884	18866.3
781.218	18885.73
781.552	18882.34
781.886	18809.35
782.22	18552.18
782.554	18625.4
782.888	18459.75
783.222	18267.9
783.556	18250.04
783.889	18248.69
784.223	18089.59
784.557	18043.27
784.89	18060.22
785.224	17996.94
785.557	17868.58
785.891	17954.23
786.224	17817.51
786.558	17700
786.891	17542.49
787.224	17602.6
787.557	17555.37
787.891	17483.51
788.224	17534.36
788.557	17477.86
788.89	17321.93
789.223	17344.53
789.556	17188.15
789.888	17154.48
790.221	17032
790.554	16934.6
790.887	16992.67
791.219	16887.14
791.552	16851.66
791.884	16756.75
792.217	16770.53
792.549	16710.87
792.882	16506.81
793.214	16525.79
793.546	16519.69
793.879	16444.67
794.211	16374.61
794.543	16421.84
794.875	16385.91
795.207	16241.06
795.539	16237.21
795.871	16303.88
796.203	16032.7
796.535	16015.3
796.867	15921.74
797.198	15998.35
797.53	15911.57
797.862	15737.34
798.193	15804.23
798.525	15749.77
798.856	15767.85
799.188	15633.39
799.519	15596.33
799.85	15485.37
800.182	15518.14
800.513	15446.05
800.844	15340.06
801.175	15377.35
801.506	15336.22
801.837	15301.42
802.168	15214.42
802.499	15046.51
802.83	15085.83
803.161	14994.54
803.491	14997.47
803.822	15036.79
804.153	14972.39
804.483	14827.53
804.814	14730.14
805.145	14738.04
805.475	14689.91
805.805	14648.56
806.136	14595.45
806.466	14656.69
806.796	14645.17
807.126	14460.09
807.457	14419.41
807.787	14464.38
808.117	14452.18
808.447	14281.33
808.777	14330.37
809.107	14303.93
809.436	14275.01
809.766	14274.33
810.096	14212.41
810.426	14067.1
810.755	14129.02
811.085	14100.1
811.414	14068.23
811.744	14023.49
812.073	14005.18
812.403	13937.39
812.732	13868.69
813.061	13855.13
813.39	13821.68
813.719	13683.84
814.049	13834.79
814.378	13692.42
814.707	13710.28
815.036	13634.8
815.365	13627.79
815.693	13414.46
816.022	13475.93
816.351	13352.77
816.68	13334.24
817.008	13373.56
817.337	13323.62
817.665	13201.81
817.994	13282.49
818.322	13312.32
818.651	13187.58
818.979	13175.83
819.307	13208.14
819.636	13106.68
819.964	13051.99
820.292	13122.72
820.62	13092.89
820.948	13054.93
821.276	13115.94
821.604	13044.08
821.932	13100.8
822.259	13097.64
822.587	13024.19
822.915	12970.18
823.243	13024.42
823.57	12944.42
823.898	13023.51
824.225	12914.14
824.553	12983.74
824.88	12966.34
825.207	13064.64
825.535	12937.41
825.862	12989.16
826.189	12920.69
826.516	13000.01
826.843	12969.96
827.17	13002.95
827.497	12934.25
827.824	13036.17
828.151	12990.52
828.478	13012.89
828.805	12972.22
829.131	12930.86
829.458	12935.38
829.785	12863.74
830.111	12846.57
830.438	12910.3
830.764	12929.96
831.09	12941.93
831.417	12806.8
831.743	12949.62
832.069	12852.22
832.395	12750.75
832.722	12860.35
833.048	12819.68
833.374	12881.6
833.7	12751.43
834.026	12839.11
834.351	12777.87
834.677	12776.29
835.003	12802.95
835.329	12785.33
835.654	12787.36
835.98	12710.75
836.306	12695.61
836.631	12698.1
836.956	12735.84
837.282	12699.45
837.607	12596.41
837.932	12593.69
838.258	12546.92
838.583	12604.77
838.908	12513.24
839.233	12535.84
839.558	12456.52
839.883	12518.22
840.208	12386.47
840.533	12440.48
840.858	12438.44
841.182	12461.04
841.507	12364.55
841.832	12313.7
842.156	12278.45
842.481	12284.55
842.805	12234.38
843.13	12218.34
843.454	12166.59
843.778	12131.33
844.103	12070.77
844.427	12097.89
844.751	12161.84
845.075	12042.75
845.399	11965.46
845.723	11971.79
846.047	11882.98
846.371	11843.43
846.695	11877.55
847.019	11778.57
847.343	11732.25
847.666	11638.24
847.99	11560.95
848.313	11594.17
848.637	11473.5
848.96	11438.24
849.284	11496.1
849.607	11320.28
849.931	11318.7
850.254	11234.86
850.577	11203.67
850.9	11148.08
851.223	11105.37
851.546	11098.37
851.869	11016.79
852.192	11101.98
852.515	11064.47
852.838	10906.06
853.161	10900.18
853.483	10846.17
853.806	10802.55
854.129	10864.7
854.451	10746.74
854.774	10723.01
855.096	10693.18
855.419	10700.41
855.741	10610.02
856.063	10550.81
856.385	10549.68
856.708	10538.83
857.03	10473.98
857.352	10476.01
857.674	10415.45
857.996	10428.78
858.318	10384.03
858.64	10387.42
858.961	10304.04
859.283	10267.43
859.605	10272.63
859.926	10359.4
860.248	10196.47
860.57	10153.76
860.891	10174.55
861.212	10169.35
861.534	10097.71
861.855	10065.63
862.176	10057.26
862.498	10079.41
862.819	10143.36
863.14	9931.84
863.461	9959.19
863.782	9960.09
864.103	9962.13
864.424	9849.59
864.745	9990.6
865.065	9843.26
865.386	9881.45
865.707	9850.04
866.027	9860.43
866.348	9784.05
866.668	9856.37
866.989	9735.01
867.309	9705.41
867.63	9684.17
867.95	9670.61
868.27	9685.97
868.59	9712.64
868.91	9634.45
869.23	9642.59
869.55	9659.08
869.87	9687.33
870.19	9666.77
870.51	9632.19
870.83	9630.61
871.15	9508.35
871.469	9515.36
871.789	9580.89
872.109	9521.46
872.428	9482.82
872.748	9582.02
873.067	9501.57
873.386	9514
873.706	9464.06
874.025	9430.39
874.344	9395.36
874.663	9413.89
874.982	9356.27
875.301	9356.04
875.62	9361.46
875.939	9346.1
876.258	9314.91
876.577	9305.19
876.896	9319.88
877.214	9268.13
877.533	9271.3
877.852	9227.91
878.17	9267.23
878.489	9257.28
878.807	9185.2
879.125	9209.6
879.444	9182.48
879.762	9194.01
880.08	9147.68
880.398	9127.34
880.716	9164.41
881.034	9144.75
881.352	9037.18
881.67	9047.35
881.988	9109.27
882.306	9086.22
882.624	8990.4
882.941	8966.22
883.259	8928.93
883.577	8908.82
883.894	8920.8
884.212	8916.95
884.529	8890.51
884.846	8861.36
885.164	8802.83
885.481	8798.77
885.798	8830.63
886.115	8733
886.432	8743.85
886.75	8677.41
887.067	8778.43
887.383	8636.51
887.7	8739.33
888.017	8624.08
888.334	8681.03
888.651	8604.87
888.967	8610.52
889.284	8546.8
889.6	8499.11
889.917	8515.16
890.233	8490.53
890.55	8442.84
890.866	8392.67
891.182	8396.74
891.498	8365.1
891.815	8288.27
892.131	8330.76
892.447	8251.89
892.763	8270.87
893.079	8253.02
893.395	8209.18
893.71	8178.67
894.026	8217.76
894.342	8135.51
894.657	8041.72
894.973	8110.65
895.289	8098.9
895.604	8065
895.92	8030.88
896.235	7959.92
896.55	7940.94
896.865	7940.48
897.181	7900.48
897.496	7892.35
897.811	7820.71
898.126	7861.62
898.441	7839.24
898.756	7765.12
899.071	7775.52
899.386	7751.79
899.7	7695.74
900.015	7676.99
900.33	7599.48
900.644	7692.81
900.959	7559.48
901.273	7581.62
901.588	7548.63
901.902	7560.38
902.216	7445.58
902.531	7476.54
902.845	7439.48
903.159	7382.98
903.473	7376.2
903.787	7344.34
904.101	7287.17
904.415	7320.16
904.729	7307.73
905.042	7157.68
905.356	7237.9
905.67	7187.06
905.984	7183.22
906.297	7102.31
906.611	7125.36
906.924	7083.56
907.237	7082.2
907.551	7042.65
907.864	7029.77
908.177	6961.3
908.491	7017.57
908.804	6949.32
909.117	6869.33
909.43	6919.27
909.743	6829.33
910.056	6808.99
910.368	6799.72
910.681	6701.42
910.994	6756.33
911.307	6761.31
911.619	6683.57
911.932	6691.48
912.244	6595.89
912.557	6612.61
912.869	6520.18
913.181	6558.82
913.494	6508.88
913.806	6460.97
914.118	6397.25
914.43	6440.41
914.742	6446.74
915.054	6385.5
915.366	6381.88
915.678	6353.18
915.99	6286.52
916.302	6291.94
916.613	6245.39
916.925	6234.54
917.236	6243.13
917.548	6155.67
917.859	6213.3
918.171	6161.55
918.482	6151.83
918.794	6082.23
919.105	6078.84
919.416	6023.7
919.727	5975.79
920.038	5960.87
920.349	5895.11
920.66	5951.84
920.971	5893.31
921.282	5885.62
921.593	5825.06
921.903	5866.41
922.214	5799.3
922.525	5751.16
922.835	5771.05
923.146	5776.02
923.456	5720.2
923.767	5685.18
924.077	5664.38
924.387	5665.51
924.697	5613.76
925.008	5601.79
925.318	5582.35
925.628	5568.57
925.938	5542.81
926.248	5514.56
926.558	5462.58
926.867	5511.62
927.177	5412.87
927.487	5376.48
927.796	5372.19
928.106	5309.59
928.416	5355.47
928.725	5328.35
929.034	5241.8
929.344	5282.7
929.653	5243.61
929.962	5197.28
930.271	5163.38
930.581	5156.83
930.89	5146.43
931.199	5097.17
931.508	5111.18
931.817	5121.35
932.125	5069.15
932.434	5095.81
932.743	5077.06
933.051	5022.59
933.36	4953.67
933.669	4953.44
933.977	4942.6
934.286	4962.26
934.594	4912.54
934.902	4917.06
935.21	4879.09
935.519	4859.89
935.827	4816.05
936.135	4812.88
936.443	4770.17
936.751	4720.91
937.059	4735.14
937.367	4723.84
937.674	4710.06
937.982	4747.57
938.29	4637.52
938.597	4647.69
938.905	4584.64
939.213	4623.96
939.52	4566.11
939.827	4571.08
940.135	4485.43
940.442	4526.56
940.749	4510.07
941.056	4493.34
941.363	4494.92
941.67	4445.66
941.977	4415.15
942.284	4393.68
942.591	4396.85
942.898	4347.13
943.205	4342.16
943.511	4343.06
943.818	4289.51
944.125	4282.05
944.431	4283.63
944.738	4275.72
945.044	4214.93
945.35	4221.71
945.657	4188.04
945.963	4214.48
946.269	4127.93
946.575	4160.7
946.881	4160.92
947.187	4129.74
947.493	4107.36
947.799	4076.86
948.105	4058.55
948.41	4024.88
948.716	4035.5
949.022	4029.63
949.327	4026.46
949.633	4016.29
949.938	3980.81
950.244	3908.5
950.549	3933.13
950.854	3897.65
951.16	3880.7
951.465	3872.57
951.77	3881.61
952.075	3836.18
952.38	3865.56
952.685	3837.09
952.99	3785.34
953.294	3818.33
953.599	3796.19
953.904	3739.46
954.209	3723.19
954.513	3737.2
954.818	3704.44
955.122	3699.01
955.426	3659.69
955.731	3674.83
956.035	3643.42
956.339	3590.99
956.643	3615.17
956.948	3597.09
957.252	3556.87
957.556	3621.95
957.86	3582.41
958.163	3515.29
958.467	3515.06
958.771	3492.46
959.075	3512.35
959.378	3463.09
959.682	3460.83
959.985	3442.75
960.289	3388.06
960.592	3404.33
960.896	3374.5
961.199	3350.1
961.502	3391.68
961.805	3354.16
962.108	3315.29
962.411	3310.77
962.714	3263.54
963.017	3277.56
963.32	3294.73
963.623	3269.65
963.926	3274.62
964.228	3212.47
964.531	3249.31
964.833	3214.28
965.136	3206.37
965.438	3156.43
965.741	3163.89
966.043	3171.8
966.345	3150.1
966.648	3098.58
966.95	3102.19
967.252	3099.93
967.554	3052.02
967.856	3105.81
968.158	3047.05
968.46	3038.01
968.761	3071.91
969.063	3033.49
969.365	3027.39
969.666	3009.31
969.968	2984.46
970.269	2959.15
970.571	2956.43
970.872	2908.3
971.174	2935.42
971.475	2913.95
971.776	2904.91
972.077	2846.61
972.378	2885.47
972.679	2866.04
972.98	2845.02
973.281	2840.73
973.582	2825.14
973.883	2798.47
974.183	2802.99
974.484	2805.25
974.785	2805.25
975.085	2789.88
975.386	2769.09
975.686	2746.04
975.986	2722.77
976.287	2728.64
976.587	2719.15
976.887	2704.91
977.187	2686.84
977.487	2661.3
977.787	2650
978.087	2639.83
978.387	2629.66
978.687	2619.27
978.987	2636.67
979.286	2607.74
979.586	2615.2
979.885	2581.53
980.185	2570.46
980.484	2556.22
980.784	2554.18
981.083	2570.23
981.382	2538.14
981.682	2540.4
981.981	2502.43
982.28	2510.12
982.579	2492.26
982.878	2462.44
983.177	2435.32
983.475	2453.85
983.774	2451.59
984.073	2411.14
984.372	2426.73
984.67	2393.06
984.969	2430.12
985.267	2368.65
985.566	2369.56
985.864	2351.25
986.162	2353.29
986.461	2393.06
986.759	2326.39
987.057	2341.76
987.355	2306.96
987.653	2323.23
987.951	2301.76
988.249	2282.1
988.547	2278.71
988.844	2254.76
989.142	2273.51
989.44	2255.89
989.737	2254.98
990.035	2259.28
990.332	2222.22
990.63	2198.94
990.927	2198.71
991.224	2193.06
991.521	2176.57
991.819	2146.96
992.116	2157.58
992.413	2150.13
992.71	2139.51
993.006	2149.45
993.303	2121.88
993.6	2127.98
993.897	2085.5
994.193	2116.46
994.49	2082.78
994.787	2080.75
995.083	2038.04
995.379	2043.69
995.676	2045.5
995.972	2061.09
996.268	2048.89
996.565	2009.57
996.861	2018.61
997.157	2005.27
997.453	1985.84
997.749	2013.18
998.044	1952.17
998.34	1959.85
998.636	1925.05
998.932	1945.39
999.227	1903.81
999.523	1918.95
999.818	1919.62
1000.114	1894.31
1000.409	1864.94
1000.704	1908.55
1001	1889.57
1001.295	1839.63
1001.59	1854.09
1001.885	1858.16
1002.18	1820.87
1002.475	1784.26
1002.77	1791.72
1003.065	1770.93
1003.359	1792.85
1003.654	1757.37
1003.949	1777.71
1004.243	1767.99
1004.538	1733.87
1004.832	1756.47
1005.127	1749.01
1005.421	1720.99
1005.715	1722.34
1006.009	1685.96
1006.304	1694.77
1006.598	1677.15
1006.892	1676.92
1007.186	1699.97
1007.48	1643.93
1007.773	1643.7
1008.067	1632.63
1008.361	1655.22
1008.655	1627.2
1008.948	1625.4
1009.242	1598.05
1009.535	1615.45
1009.829	1575
1010.122	1576.81
1010.415	1583.59
1010.708	1586.75
1011.001	1569.58
1011.295	1528.9
1011.588	1549.24
1011.881	1519.18
1012.173	1508.34
1012.466	1539.97
1012.759	1519.41
1013.052	1478.28
1013.344	1474.21
1013.637	1473.08
1013.93	1465.4
1014.222	1474.89
1014.514	1468.79
1014.807	1459.75
1015.099	1424.72
1015.391	1421.78
1015.683	1431.95
1015.976	1433.54
1016.268	1409.81
1016.56	1402.35
1016.851	1401.22
1017.143	1374.33
1017.435	1360.32
1017.727	1351.28
1018.018	1341.33
1018.31	1357.83
1018.602	1368.23
1018.893	1340.2
1019.185	1322.13
1019.476	1304.95
1019.767	1301.79
1020.058	1295.91
1020.35	1333.88
1020.641	1285.52
1020.932	1272.86
1021.223	1241.68
1021.514	1266.31
1021.804	1239.19
1022.095	1242.13
1022.386	1252.52
1022.677	1236.25
1022.967	1226.76
1023.258	1218.17
1023.548	1216.82
1023.839	1180.44
1024.129	1193.77
1024.419	1210.72
1024.709	1192.86
1025	1172.53
1025.29	1144.96
1025.58	1147.89
1025.87	1164.62
1026.16	1146.09
1026.449	1117.16
1026.739	1120.32
1027.029	1114.45
1027.319	1119.42
1027.608	1068.35
1027.898	1106.09
1028.187	1088.01
1028.477	1092.3
1028.766	1097.95
1029.055	1040.1
1029.344	1077.84
1029.634	1085.52
1029.923	1046.65
1030.212	1042.81
1030.501	1040.33
1030.79	1050.95
1031.078	1031.06
1031.367	1017.28
1031.656	1012.08
1031.945	1007.56
1032.233	1013.43
1032.522	989.03
1032.81	990.16
1033.099	977.95
1033.387	978.86
1033.675	953.55
1033.963	964.4
1034.251	979.54
1034.54	960.1
1034.828	941.8
1035.116	928.24
1035.403	924.17
1035.691	945.86
1035.979	930.27
1036.267	931.63
1036.554	888.24
1036.842	888.01
1037.129	873.78
1037.417	889.37
1037.704	885.3
1037.992	903.38
1038.279	854.12
1038.566	872.87
1038.853	872.87
1039.14	872.87
