Data from hue_50_FLMS001491_28.txt Node
Date: Mon Feb 06 15:09:49 GMT 2017
User: dcchb
Spectrometer: FLMS00149
Trigger mode: 0
Integration Time (sec): 2.000000E-2
Scans to average: 10
Electric dark correction enabled: true
Nonlinearity correction enabled: false
Boxcar width: 0
XAxis mode: Wavelengths
Number of Pixels in Spectrum: 2048
>>>>>Begin Spectral Data<<<<<
341.393	-11.31
341.776	-11.31
342.16	-11.31
342.543	-54.7
342.927	-73.68
343.31	-59
343.693	-81.82
344.077	-81.14
344.46	-57.64
344.843	-36.4
345.226	-35.95
345.61	-28.71
345.993	0.66
346.376	-14.93
346.759	4.96
347.142	25.97
347.525	52.19
347.908	39.31
348.291	77.95
348.674	78.18
349.057	116.37
349.44	129.7
349.823	155.01
350.206	163.6
350.588	172.18
350.971	211.73
351.354	227.1
351.737	247.21
352.119	253.31
352.502	268
352.884	306.19
353.267	289.24
353.65	303.48
354.032	297.61
354.414	325.18
354.797	290.6
355.179	325.4
355.562	331.05
355.944	335.34
356.326	337.38
356.709	349.13
357.091	348
357.473	329.47
357.855	333.99
358.238	345.06
358.62	351.62
359.002	346.87
359.384	348
359.766	359.3
360.148	338.73
360.53	351.84
360.912	319.07
361.294	330.82
361.676	333.99
362.057	346.19
362.439	321.11
362.821	336.25
363.203	324.05
363.584	319.07
363.966	332.41
364.348	350.49
364.729	321.33
365.111	325.18
365.493	327.43
365.874	313.2
366.256	322.24
366.637	308.68
367.019	309.81
367.4	314.1
367.781	306.42
368.163	322.01
368.544	336.93
368.925	291.96
369.306	321.56
369.688	315.91
370.069	310.49
370.45	312.97
370.831	335.34
371.212	304.84
371.593	324.27
371.974	311.84
372.355	299.19
372.736	323.14
373.117	317.49
373.498	323.37
373.879	326.08
374.26	316.14
374.641	324.5
375.021	327.66
375.402	331.73
375.783	335.12
376.163	319.75
376.544	324.27
376.925	328.56
377.305	345.06
377.686	325.63
378.066	329.47
378.447	344.16
378.827	327.43
379.208	341.45
379.588	343.93
379.968	308.9
380.349	322.46
380.729	348.9
381.109	338.51
381.489	326.3
381.87	350.71
382.25	341.67
382.63	337.38
383.01	344.38
383.39	334.44
383.77	335.8
384.15	351.16
384.53	345.29
384.91	346.19
385.29	350.26
385.67	324.27
386.049	366.76
386.429	337.83
386.809	347.32
387.189	351.84
387.568	358.85
387.948	346.64
388.328	353.65
388.707	355.46
389.087	357.72
389.466	369.24
389.846	347.1
390.225	354.55
390.605	347.32
390.984	365.63
391.363	349.58
391.743	377.15
392.122	370.6
392.501	388
392.881	350.03
393.26	373.99
393.639	376.7
394.018	370.6
394.397	378.73
394.776	364.27
395.155	351.39
395.534	367.21
395.913	372.86
396.292	387.77
396.671	383.03
397.05	371.05
397.429	391.84
397.808	380.99
398.186	352.07
398.565	374.89
398.944	390.03
399.323	397.94
399.701	405.17
400.08	388.9
400.458	378.51
400.837	387.09
401.215	379.41
401.594	404.5
401.972	352.74
402.351	394.55
402.729	348
403.107	387.32
403.486	402.24
403.864	393.2
404.242	403.82
404.62	392.29
404.999	417.83
405.377	427.32
405.755	425.96
406.133	404.95
406.511	395.23
406.889	404.95
407.267	430.48
407.645	395
408.023	430.48
408.401	408.56
408.779	424.61
409.156	438.62
409.534	420.09
409.912	422.57
410.29	410.6
410.667	426.64
411.045	436.81
411.422	450.14
411.8	430.48
412.178	444.04
412.555	455.12
412.933	439.52
413.31	441.56
413.687	453.99
414.065	470.03
414.442	443.82
414.819	464.83
415.197	475.91
415.574	474.55
415.951	472.29
416.328	475.91
416.705	477.26
417.082	475.91
417.46	493.31
417.837	479.07
418.214	482.69
418.591	493.76
418.967	489.92
419.344	496.7
419.721	509.8
420.098	494.44
420.475	484.27
420.852	495.11
421.228	508.22
421.605	493.53
421.982	494.89
422.358	485.85
422.735	533.53
423.111	504.15
423.488	529.01
423.864	517.26
424.241	536.47
424.617	538.5
424.994	529.46
425.37	539.41
425.746	523.36
426.123	531.27
426.499	538.05
426.875	527.2
427.251	554.32
427.627	554.77
428.003	576.24
428.379	571.95
428.756	572.63
429.132	573.98
429.507	555
429.883	585.73
430.259	585.73
430.635	582.12
431.011	563.13
431.387	587.99
431.763	602.46
432.138	605.39
432.514	605.17
432.89	616.24
433.265	613.98
433.641	608.78
434.016	630.48
434.392	632.96
434.767	653.3
435.143	620.99
435.518	650.59
435.894	654.21
436.269	657.6
436.644	663.25
437.02	645.84
437.395	645.62
437.77	635.45
438.145	667.31
438.52	679.52
438.895	663.25
439.271	666.86
439.646	686.3
440.021	690.36
440.395	696.01
440.77	699.85
441.145	694.2
441.52	723.36
441.895	705.73
442.27	715.45
442.645	733.75
443.019	726.75
443.394	731.94
443.769	740.53
444.143	722.9
444.518	726.07
444.892	726.52
445.267	738.95
445.641	731.27
446.016	758.84
446.39	755.22
446.764	733.3
447.139	774.2
447.513	772.17
447.887	769.91
448.262	788.89
448.636	759.29
449.01	765.84
449.384	771.94
449.758	781.43
450.132	798.83
450.506	787.54
450.88	800.19
451.254	800.42
451.628	814.43
452.002	786.63
452.376	819.4
452.75	834.09
453.123	844.48
453.497	849.23
453.871	843.81
454.244	848.33
454.618	878.83
454.992	870.47
455.365	872.96
455.739	897.59
456.112	891.94
456.486	917.02
456.859	929.23
457.232	924.03
457.606	934.2
457.979	946.63
458.352	959.73
458.725	967.19
459.099	979.85
459.472	975.33
459.845	995.21
460.218	975.1
460.591	997.7
460.964	986.17
461.337	1032.95
461.71	1017.13
462.083	1053.07
462.456	1060.3
462.829	1068.88
463.201	1081.31
463.574	1067.98
463.947	1122.22
464.32	1124.48
464.692	1153.4
465.065	1145.94
465.438	1131.48
465.81	1166.73
466.183	1223.46
466.555	1220.97
466.928	1237.24
467.3	1233.85
467.672	1232.04
468.045	1312.72
468.417	1299.39
468.789	1271.36
469.161	1308.2
469.534	1339.39
469.906	1368.31
470.278	1406.73
470.65	1431.36
471.022	1420.06
471.394	1479.72
471.766	1506.61
472.138	1526.5
472.51	1556.56
472.882	1602.43
473.253	1585.48
473.625	1613.95
473.997	1683.11
474.369	1717.91
474.74	1742.09
475.112	1764.23
475.484	1804.01
475.855	1866.15
476.227	1893.95
476.598	1944.12
476.97	1992.93
477.341	2051.68
477.713	2109.31
478.084	2136.43
478.455	2211.23
478.827	2260.27
479.198	2318.12
479.569	2359.7
479.94	2440.6
480.311	2511.11
480.682	2614.38
481.053	2623.42
481.424	2764.21
481.795	2792.45
482.166	2855.96
482.537	2944.77
482.908	3045.78
483.279	3120.36
483.65	3172.78
484.021	3297.53
484.391	3405.77
484.762	3446
485.133	3561.47
485.503	3666.1
485.874	3763.5
486.244	3877.4
486.615	3966.66
486.985	4081.01
487.356	4208.46
487.726	4275.13
488.097	4391.96
488.467	4474.22
488.837	4594.67
489.207	4694.55
489.578	4900.42
489.948	4950.14
490.318	5086.86
490.688	5154.65
491.058	5352.16
491.428	5487.98
491.798	5591.25
492.168	5750.12
492.538	5773.39
492.908	5984.91
493.278	6083.22
493.648	6223.78
494.017	6365.92
494.387	6483.21
494.757	6592.58
495.126	6731.56
495.496	6845.46
495.866	6970.65
496.235	7092.45
496.605	7217.65
496.974	7280.47
497.344	7466
497.713	7565.66
498.082	7688.37
498.452	7842.72
498.821	7934.69
499.19	7977.63
499.559	8168.36
499.928	8267.57
500.298	8372.2
500.667	8540.78
501.036	8535.13
501.405	8703.71
501.774	8791.62
502.143	8908
502.512	9050.37
502.88	9164.72
503.249	9298.5
503.618	9379.63
503.987	9451.04
504.356	9560.41
504.724	9634.08
505.093	9777.36
505.462	9815.77
505.83	9997.69
506.199	10128.53
506.567	10244.24
506.936	10285.37
507.304	10427.06
507.672	10574.17
508.041	10594.06
508.409	10698.24
508.777	10873.6
509.145	10938.23
509.514	10975.52
509.882	11045.8
510.25	11159.24
510.618	11320.14
510.986	11397.2
511.354	11502.73
511.722	11687.36
512.09	11789.51
512.458	11769.62
512.826	11897.3
513.193	11983.63
513.561	12087.13
513.929	12188.14
514.297	12249.38
514.664	12408.02
515.032	12471.52
515.4	12623.38
515.767	12697.73
516.135	12775.47
516.502	12822.93
516.869	13088
517.237	13086.2
517.604	13033.77
517.972	13268.11
518.339	13381.55
518.706	13359.18
519.073	13443.7
519.44	13490.03
519.808	13703.58
520.175	13731.83
520.542	13854.99
520.909	14024.93
521.276	14039.39
521.643	14235.54
522.009	14287.07
522.376	14397.12
522.743	14506.5
523.11	14595.99
523.477	14762.99
523.843	14940.38
524.21	15040.49
524.577	15049.99
524.943	15193.71
525.31	15308.06
525.676	15425.12
526.043	15489.75
526.409	15606.36
526.776	15833.92
527.142	15779.91
527.508	15969.51
527.874	16049.51
528.241	16250.41
528.607	16199.33
528.973	16295.83
529.339	16409.95
529.705	16559.32
530.071	16595.48
530.437	16727.68
530.803	16826.66
531.169	16948.69
531.535	16940.11
531.901	17079.99
532.267	17113.21
532.632	17150.5
532.998	17257.39
533.364	17432.52
533.73	17446.98
534.095	17667.09
534.461	17577.15
534.826	17756.36
535.192	17851.04
535.557	17934.88
535.923	17956.35
536.288	18014.2
536.653	18149.11
537.019	18192.28
537.384	18244.7
537.749	18298.71
538.114	18348.2
538.479	18447.18
538.845	18498.03
539.21	18566.73
539.575	18648.31
539.94	18663.9
540.305	18841.3
540.67	18789.55
541.034	18884.01
541.399	18908.87
541.764	19054.63
542.129	19191.35
542.494	19132.36
542.858	19257.33
543.223	19252.59
543.587	19404.67
543.952	19359.48
544.316	19466.82
544.681	19491.22
545.045	19527.83
545.41	19671.56
545.774	19756.08
546.138	19776.42
546.503	19867.71
546.867	19746.59
547.231	20035.62
547.595	20066.58
547.959	20149.29
548.324	20204.65
548.688	20190.19
549.052	20308.83
549.416	20354.25
549.779	20471.76
550.143	20498.2
550.507	20621.82
550.871	20729.84
551.235	20665.21
551.599	20755.15
551.962	20846.67
552.326	20869.72
552.689	21094.57
553.053	20966.67
553.417	21035.14
553.78	21371.85
554.143	21234
554.507	21454.56
554.87	21464.05
555.234	21621.56
555.597	21447.33
555.96	21615.01
556.323	21649.36
556.686	21849.35
557.05	21903.82
557.413	22036.24
557.776	22088.67
558.139	22140.65
558.502	22183.58
558.865	22262.68
559.228	22563.01
559.59	22541.54
559.953	22559.84
560.316	22773.62
560.679	22765.26
561.041	23014.97
561.404	23034.63
561.767	23125.25
562.129	23132.03
562.492	23364.57
562.854	23335.19
563.217	23311.92
563.579	23478.46
563.941	23545.36
564.304	23682.08
564.666	23773.82
565.028	24014.5
565.39	23942.63
565.753	24016.08
566.115	24154.15
566.477	24301.49
566.839	24325.45
567.201	24510.53
567.563	24434.37
567.925	24620.36
568.287	24662.61
568.648	24681.6
569.01	24783.74
569.372	25024.86
569.734	24873
570.095	25105.54
570.457	25215.82
570.819	25381.92
571.18	25317.96
571.542	25574.68
571.903	25617.17
572.265	25627.11
572.626	25673.89
572.987	25868.46
573.349	25915.69
573.71	26099.41
574.071	26243.14
574.432	26158.62
574.794	26487.88
575.155	26462.11
575.516	26357.48
575.877	26601.32
576.238	26590.93
576.599	26706.85
576.96	26787.53
577.32	26858.94
577.681	27042.89
578.042	27127.63
578.403	27098.48
578.763	27341.87
579.124	27434.07
579.485	27490.11
579.845	27644.46
580.206	27590.9
580.566	27688.3
580.927	27773.94
581.287	27968.97
581.648	27921.96
582.008	28182.97
582.368	28140.26
582.728	28307.04
583.089	28384.78
583.449	28342.52
583.809	28506.13
584.169	28753.35
584.529	28787.7
584.889	28962.16
585.249	28916.97
585.609	28936.63
585.969	29220.01
586.329	29201.25
586.688	29263.4
587.048	29399.66
587.408	29414.35
587.768	29533.67
588.127	29624.74
588.487	29651.64
588.846	29975.69
589.206	29816.15
589.565	30013.43
589.925	30260.66
590.284	30285.97
590.643	30281
591.003	30481.44
591.362	30661.78
591.721	30650.93
592.08	30578.62
592.44	31045.72
592.799	30975.22
593.158	30998.72
593.517	31045.5
593.876	31173.86
594.235	31265.38
594.593	31410.91
594.952	31547.63
595.311	31350.12
595.67	31470.12
596.029	31889.99
596.387	31902.65
596.746	32134.96
597.104	32055.64
597.463	32161.85
597.822	32390.09
598.18	32192.13
598.538	32220.83
598.897	32597.55
599.255	32433.94
599.613	32805.45
599.972	32755.06
600.33	32827.15
600.688	32851.55
601.046	32893.13
601.404	33188.27
601.762	33229.85
602.12	33436.62
602.478	33393.46
602.836	33387.36
603.194	33437.75
603.552	33621.93
603.91	33475.72
604.268	33726.56
604.625	33579.89
604.983	33836.38
605.341	33664.19
605.698	33940.34
606.056	34060.79
606.413	34082.25
606.771	34178.3
607.128	34344.17
607.485	34188.47
607.843	34402.25
608.2	34472.07
608.557	34634.78
608.914	34536.48
609.272	34848.11
609.629	34901.89
609.986	34929.69
610.343	34893.31
610.7	35121.32
611.057	35151.6
611.414	35047.2
611.771	35215.78
612.127	35486.28
612.484	35517.47
612.841	35452.39
613.198	35424.82
613.554	35552.95
613.911	35816.45
614.267	35877.23
614.624	35801.53
614.98	35911.13
615.337	36091.92
615.693	36066.38
616.05	36126.72
616.406	36264.34
616.762	36016.44
617.118	36143.89
617.475	36239.26
617.831	36328.75
618.187	36398.35
618.543	36586.14
618.899	36675.86
619.255	36549.99
619.611	36749.53
619.967	36874.04
620.323	36879.92
620.678	36921.95
621.034	36752.69
621.39	36720.38
621.746	36708.63
622.101	37427.02
622.457	36893.71
622.812	36978
623.168	37173.92
623.523	37064.1
623.879	37294.15
624.234	37019.58
624.589	37329.63
624.945	37194.71
625.3	37225.67
625.655	37266.12
626.01	37453.24
626.365	37461.6
626.72	37293.24
627.075	37338.67
627.43	37321.94
627.785	37369.4
628.14	37559.9
628.495	37506.8
628.85	37395.61
629.205	37376.86
629.559	37545.89
629.914	37365.56
630.269	37438.55
630.623	37428.83
630.978	37307.71
631.332	37480.36
631.687	37454.82
632.041	37362.62
632.396	37456.18
632.75	37313.58
633.104	37379.12
633.459	37194.49
633.813	37224.09
634.167	37293.24
634.521	37305.45
634.875	37354.03
635.229	37212.79
635.583	37075.17
635.937	37210.31
636.291	37173.47
636.645	37166.69
636.999	37124.66
637.352	37334.6
637.706	37015.51
638.06	37288.95
638.413	37035.62
638.767	36895.06
639.121	36997.43
639.474	36821.16
639.828	36957.21
640.181	36892.58
640.534	36913.37
640.888	36774.61
641.241	36710.66
641.594	36763.09
641.947	36886.47
642.301	36954.04
642.654	36718.57
643.007	36805.57
643.36	36733.03
643.713	36718.34
644.066	36875.63
644.419	36605.13
644.771	36364.23
645.124	35947.06
645.477	36064.12
645.83	35770.34
646.182	35642.44
646.535	35518.6
646.888	35682.44
647.24	35437.7
647.593	35724.24
647.945	35538.71
648.298	35380.07
648.65	35409.9
649.002	35278.61
649.355	35464.82
649.707	35323.35
650.059	35379.85
650.411	35877.91
650.763	35973.05
651.115	36246.49
651.467	36117.45
651.819	36242.42
652.171	36115.42
652.523	35986.38
652.875	36008.53
653.227	35958.59
653.578	36166.49
653.93	36087.85
654.282	35950.9
654.633	35806.5
654.985	35871.36
655.337	35838.82
655.688	35838.37
656.039	35930.79
656.391	35789.78
656.742	35760.4
657.094	35817.35
657.445	35895.54
657.796	35680.63
658.147	35715.43
658.498	35764.02
658.849	35809.21
659.2	35695.09
659.551	35677.01
659.902	35796.78
660.253	35686.96
660.604	35675.43
660.955	35564.02
661.306	35623
661.656	35650.12
662.007	35619.61
662.358	35570.12
662.708	35649.44
663.059	35688.31
663.409	35405.16
663.76	35708.88
664.11	35552.05
664.461	35695.77
664.811	35590.69
665.161	35602.44
665.511	35473.86
665.862	35638.37
666.212	35649.44
666.562	35704.36
666.912	35557.24
667.262	35490.58
667.612	35575.1
667.962	35702.78
668.312	35491.03
668.662	35623.23
669.011	35470.69
669.361	35557.69
669.711	35546.85
670.06	35504.82
670.41	35216.24
670.76	35263.92
671.109	35470.92
671.459	35377.59
671.808	35276.35
672.157	35441.09
672.507	35096.01
672.856	35238.83
673.205	35309.57
673.554	35469.34
673.904	35347.53
674.253	35465.95
674.602	35312.05
674.951	34923.36
675.3	34636.59
675.649	35253.07
675.998	35109.35
676.346	35206.74
676.695	35303.46
677.044	35086.52
677.393	35282
677.741	35199.96
678.09	35099.18
678.438	34898.73
678.787	35122.9
679.135	34983.25
679.484	34778.73
679.832	34926.75
680.181	34760.88
680.529	34835.91
680.877	34713.88
681.225	34692.63
681.573	34939.63
681.922	34631.17
682.27	34402.47
682.618	34576.7
682.966	34443.15
683.314	34526.99
683.661	34385.52
684.009	34268.92
684.357	34230.05
684.705	34129.71
685.053	34247.22
685.4	34117.73
685.748	33988.47
686.095	33916.16
686.443	33907.34
686.79	33825.09
687.138	34011.29
687.485	33898.53
687.832	33724.52
688.18	33772.21
688.527	33601.14
688.874	33608.37
689.221	33582.38
689.568	33359.33
689.915	33521.14
690.262	33471.87
690.609	33250.41
690.956	33060.81
691.303	33139.68
691.65	32940.59
691.997	33078.21
692.344	32930.42
692.69	32756.41
693.037	32857.43
693.383	32565.46
693.73	32649.97
694.077	32341.73
694.423	32462.41
694.769	32312.36
695.116	32310.1
695.462	32237.78
695.808	32166.15
696.155	32133.6
696.501	31946.94
696.847	31988.98
697.193	31764.35
697.539	31936.55
697.885	31625.37
698.231	31557.8
698.577	31407.97
698.923	31425.83
699.269	31317.13
699.614	31231.26
699.96	31147.87
700.306	31246.62
700.651	31059.96
700.997	30972.28
701.342	30782.91
701.688	30863.13
702.033	30728.44
702.379	30780.87
702.724	30610.93
703.069	30634.43
703.415	30297.04
703.76	30288.46
704.105	30269.92
704.45	30211.39
704.795	30100.21
705.14	29998.97
705.485	30024.96
705.83	29947.45
706.175	29969.82
706.52	29961.23
706.865	29709.49
707.209	29766.66
707.554	29524.41
707.899	29772.08
708.243	29471.08
708.588	29316.73
708.932	29382.94
709.277	29215.49
709.621	29280.57
709.966	29051.43
710.31	29044.87
710.654	28920.13
710.998	28854.82
711.342	28961.94
711.687	28829.96
712.031	28668.16
712.375	28614.37
712.719	28578.22
713.063	28506.35
713.407	28665.67
713.75	28537.09
714.094	28460.93
714.438	28364.44
714.782	28400.6
715.125	28294.84
715.469	28435.85
715.812	28172.13
716.156	28028.18
716.499	28029.76
716.843	28081.06
717.186	27871.12
717.53	28068.85
717.873	28010.1
718.216	27986.59
718.559	27847.62
718.902	27645.81
719.246	27639.03
719.589	27573.27
719.932	27451.24
720.275	27444.46
720.617	27443.56
720.96	27380.06
721.303	27480.17
721.646	27223.68
721.989	27269.33
722.331	27295.31
722.674	27191.59
723.016	27169.21
723.359	27020.74
723.701	27098.26
724.044	26897.81
724.386	26820.07
724.729	26909.11
725.071	26746.4
725.413	26859.17
725.755	26739.62
726.097	26642.45
726.439	26557.71
726.782	26592.06
727.124	26747.98
727.465	26603.58
727.807	26530.81
728.149	26423.92
728.491	26426.86
728.833	26388.22
729.175	26390.7
729.516	26320.42
729.858	26127.89
730.199	26236.81
730.541	26210.82
730.882	26138.51
731.224	26140.77
731.565	26044.05
731.906	26110.26
732.248	26086.53
732.589	25932.64
732.93	25914.33
733.271	25855.35
733.612	25803.83
733.953	25837.27
734.294	25765.18
734.635	25628.69
734.976	25792.75
735.317	25623.72
735.658	25552.99
735.999	25624.4
736.339	25570.39
736.68	25468.24
737.021	25424.85
737.361	25347.34
737.702	25524.29
738.042	25305.08
738.383	25471.86
738.723	25385.99
739.063	25229.83
739.404	25291.98
739.744	25207.23
740.084	25223.28
740.424	25174.92
740.764	25080.91
741.104	25144.86
741.444	25112.09
741.784	24901.03
742.124	24992.78
742.464	24948.48
742.804	24793.23
743.143	24783.52
743.483	24934.47
743.823	24792.78
744.162	24723.86
744.502	24663.74
744.841	24711.2
745.181	24781.93
745.52	24653.57
745.86	24662.39
746.199	24522.5
746.538	24491.55
746.877	24565.89
747.216	24570.19
747.556	24444.54
747.895	24415.39
748.234	24263.75
748.573	24332.91
748.911	24287.48
749.25	24242.29
749.589	24019.69
749.928	24180.37
750.267	24120.03
750.605	24171.33
750.944	24040.26
751.283	23883.88
751.621	23968.4
751.96	23851.34
752.298	23862.86
752.636	23820.38
752.975	23697.89
753.313	23687.72
753.651	23761.85
753.989	23646.82
754.327	23581.29
754.666	23442.08
755.004	23508.29
755.342	23530.89
755.679	23511.46
756.017	23235.31
756.355	23355.98
756.693	23265.81
757.031	23172.48
757.368	23048.19
757.706	23080.51
758.044	22976.1
758.381	22961.42
758.719	22820.18
759.056	22958.7
759.394	22882.77
759.731	22725.26
760.068	22685.94
760.405	22581.99
760.743	22473.52
761.08	22639.84
761.417	22398.27
761.754	22305.39
762.091	22370.92
762.428	22227.65
762.765	22111.04
763.102	22096.58
763.438	21994.21
763.775	21935
764.112	21937.94
764.449	22041.21
764.785	21896.59
765.122	21723.03
765.458	21575.92
765.795	21596.48
766.131	21553.54
766.467	21490.95
766.804	21385.41
767.14	21397.62
767.476	21293.89
767.812	21106.78
768.148	21250.73
768.485	21024.29
768.821	20869.49
769.157	20951.53
769.492	20851.19
769.828	20698.2
770.164	20703.85
770.5	20539.33
770.836	20633.57
771.171	20465.89
771.507	20499.11
771.842	20306.12
772.178	20305.67
772.513	20312.22
772.849	20243.97
773.184	20087.37
773.519	20090.53
773.855	20016.41
774.19	19778.22
774.525	19796.3
774.86	19775.51
775.195	19764.89
775.53	19693.25
775.865	19536.65
776.2	19360.61
776.535	19263.89
776.87	19358.35
777.205	19237.22
777.539	19197.45
777.874	19150.44
778.209	18966.04
778.543	18960.39
778.878	18813.73
779.212	18785.93
779.547	18722.21
779.881	18826.61
780.215	18642.66
780.55	18677.69
780.884	18492.16
781.218	18590.23
781.552	18472.95
781.886	18366.73
782.22	18304.36
782.554	18207.87
782.888	17989.8
783.222	18039.74
783.556	17867.54
783.889	17903.47
784.223	17784.38
784.557	17706.86
784.89	17771.95
785.224	17631.84
785.557	17517.94
785.891	17515.01
786.224	17464.16
786.558	17476.14
786.891	17199.76
787.224	17273.2
787.557	17215.13
787.891	17115.92
788.224	17101.68
788.557	17023.04
788.89	17060.1
789.223	16976.26
789.556	16872.76
789.888	16854.68
790.221	16810.17
790.554	16667.12
790.887	16549.38
791.219	16582.83
791.552	16640.68
791.884	16534.24
792.217	16483.85
792.549	16328.6
792.882	16305.77
793.214	16200.69
793.546	16214.02
793.879	16071.43
794.211	15966.12
794.543	16055.16
794.875	15990.98
795.207	16050.19
795.539	15820.13
795.871	15845.67
796.203	15739.23
796.535	15653.36
796.867	15531.78
797.198	15525.45
797.53	15518.67
797.862	15482.29
798.193	15490.65
798.525	15348.96
798.856	15394.38
799.188	15237.1
799.519	15177.67
799.85	15062.19
800.182	15087.05
800.513	15171.11
800.844	15017.9
801.175	14988.52
801.506	15030.33
801.837	14850.67
802.168	14867.17
802.499	14826.49
802.83	14676.89
803.161	14701.07
803.491	14646.61
803.822	14672.37
804.153	14605.25
804.483	14582.43
804.814	14440.06
805.145	14524.8
805.475	14431.47
805.805	14349.44
806.136	14295.2
806.466	14390.79
806.796	14318.93
807.126	14299.5
807.457	14159.84
807.787	14104.47
808.117	14129.11
808.447	14043.68
808.777	14119.39
809.107	14026.51
809.436	13918.72
809.766	14048.66
810.096	13920.07
810.426	13820.64
810.755	13824.93
811.085	13766.63
811.414	13771.15
811.744	13683.47
812.073	13624.26
812.403	13575.9
812.732	13530.7
813.061	13624.49
813.39	13466.07
813.719	13416.36
814.049	13542.68
814.378	13477.6
814.707	13324.16
815.036	13310.37
815.365	13231.5
815.693	13145.63
816.022	13246.42
816.351	13168.23
816.68	13113.31
817.008	13187.89
817.337	12987.22
817.665	12970.27
817.994	13079.19
818.322	12986.76
818.651	12976.37
818.979	12843.26
819.307	12980.66
819.636	12863.15
819.964	12735.7
820.292	12824.06
820.62	12756.94
820.948	12795.81
821.276	12720.78
821.604	12721.46
821.932	12765.53
822.259	12748.8
822.587	12713.78
822.915	12731.63
823.243	12786.09
823.57	12644.85
823.898	12678.07
824.225	12679.43
824.553	12624.29
824.88	12669.03
825.207	12745.41
825.535	12673.78
825.862	12768.92
826.189	12661.57
826.516	12680.78
826.843	12735.47
827.17	12733.44
827.497	12755.81
827.824	12681.46
828.151	12736.15
828.478	12739.99
828.805	12777.5
829.131	12765.07
829.458	12560.33
829.785	12564.4
830.111	12611.41
830.438	12672.2
830.764	12664.51
831.09	12663.61
831.417	12531.86
831.743	12648.69
832.069	12633.55
832.395	12607.34
832.722	12585.42
833.048	12559.88
833.374	12684.85
833.7	12541.13
834.026	12500.22
834.351	12567.57
834.677	12542.25
835.003	12470.62
835.329	12524.63
835.654	12485.31
835.98	12426.78
836.306	12483.5
836.631	12341.81
836.956	12467
837.282	12441.47
837.607	12354.92
837.932	12258.19
838.258	12356.27
838.583	12282.6
838.908	12203.28
839.233	12243.28
839.558	12300.45
839.883	12119.67
840.208	12140.01
840.533	12184.52
840.858	12237.18
841.182	12133.23
841.507	12156.05
841.832	11985.66
842.156	12035.83
842.481	12019.78
842.805	11966.9
843.13	11891.88
843.454	11909.5
843.778	11887.13
844.103	11892.33
844.427	11865.66
844.751	11839.9
845.075	11737.3
845.399	11756.96
845.723	11683.97
846.047	11726.23
846.371	11571.88
846.695	11679.23
847.019	11492.79
847.343	11450.08
847.666	11397.2
847.99	11353.59
848.313	11348.16
848.637	11249.18
848.96	11241.27
849.284	11249.41
849.607	11155.4
849.931	11161.73
850.254	11093.03
850.577	11058
850.9	10896.42
851.223	10963.09
851.546	10837.89
851.869	10817.33
852.192	10818.46
852.515	10792.47
852.838	10721.74
853.161	10687.16
853.483	10689.42
853.806	10628.41
854.129	10583.21
854.451	10559.71
854.774	10579.82
855.096	10436.55
855.419	10453.5
855.741	10453.04
856.063	10359.94
856.385	10411.01
856.708	10326.04
857.03	10310.9
857.352	10298.7
857.674	10248.76
857.996	10242.65
858.318	10104.13
858.64	10175.31
858.961	10209.21
859.283	10045.6
859.605	9963.57
859.926	10032.72
860.248	9977.12
860.57	9972.83
860.891	9987.07
861.212	9925.83
861.534	9964.24
861.855	9925.6
862.176	9897.58
862.498	9808.77
862.819	9808.09
863.14	9801.76
863.461	9781.2
863.782	9741.88
864.103	9733.52
864.424	9695.1
864.745	9778.94
865.065	9681.77
865.386	9650.81
865.707	9677.92
866.027	9674.53
866.348	9675.21
866.668	9620.52
866.989	9575.78
867.309	9485.39
867.63	9585.27
867.95	9534.88
868.27	9403.58
868.59	9547.53
868.91	9512.73
869.23	9427.08
869.55	9450.36
869.87	9468.44
870.19	9427.31
870.51	9466.63
870.83	9424.82
871.15	9341.44
871.469	9323.13
871.789	9364.94
872.109	9406.29
872.428	9312.06
872.748	9321.32
873.067	9326.52
873.386	9281.78
873.706	9203.13
874.025	9225.51
874.344	9209.01
874.663	9250.14
874.982	9216.47
875.301	9151.16
875.62	9104.38
875.939	9124.49
876.258	9184.6
876.577	9094.21
876.896	9111.38
877.214	8976.92
877.533	9039.97
877.852	9102.12
878.17	8992.52
878.489	9053.76
878.807	8993.65
879.125	9009.47
879.444	8944.38
879.762	8929.47
880.08	8911.84
880.398	8959.52
880.716	8913.65
881.034	8890.15
881.352	8835.23
881.67	8827.55
881.988	8862.35
882.306	8794.56
882.624	8755.91
882.941	8754.56
883.259	8759.76
883.577	8717.5
883.894	8701
884.212	8717.5
884.529	8714.56
884.846	8586.43
885.164	8668.23
885.481	8650.61
885.798	8645.41
886.115	8534.45
886.432	8523.38
886.75	8524.28
887.067	8528.35
887.383	8502.36
887.7	8503.49
888.017	8389.6
888.334	8457.39
888.651	8380.33
888.967	8430.5
889.284	8301.91
889.6	8345.53
889.917	8298.07
890.233	8273.89
890.55	8151.86
890.866	8228.92
891.182	8201.8
891.498	8260.11
891.815	8183.27
892.131	8119.77
892.447	8118.19
892.763	8110.06
893.079	8073.22
893.395	8037.29
893.71	7976.5
894.026	8007.01
894.342	7989.83
894.657	7935.37
894.973	7911.42
895.289	7922.49
895.604	7906.67
895.92	7814.92
896.235	7817.41
896.55	7842.72
896.865	7773.57
897.181	7769.05
897.496	7752.1
897.811	7743.74
898.126	7718.2
898.441	7694.25
898.756	7699.9
899.071	7613.8
899.386	7576.06
899.7	7562.05
900.015	7487.47
900.33	7505.1
900.644	7437.98
900.959	7456.51
901.273	7445.89
901.588	7368.61
901.902	7336.74
902.216	7372.22
902.531	7365.67
902.845	7289.29
903.159	7230.98
903.473	7216.07
903.787	7189.4
904.101	7157.99
904.415	7188.5
904.729	7153.02
905.042	7038.44
905.356	7075.73
905.67	7006.58
905.984	7014.72
906.297	7014.04
906.611	6960.03
906.924	6950.31
907.237	6942.4
907.551	6910.54
907.864	6866.25
908.177	6809.98
908.491	6825.57
908.804	6801.39
909.117	6726.36
909.43	6725.68
909.743	6674.84
910.056	6689.53
910.368	6687.04
910.681	6608.4
910.994	6656.08
911.307	6513.94
911.619	6549.87
911.932	6534.5
912.244	6463.54
912.557	6471
912.869	6425.58
913.181	6419.25
913.494	6411.34
913.806	6329.76
914.118	6329.76
914.43	6317.11
914.742	6244.57
915.054	6274.4
915.366	6249.09
915.678	6232.59
915.99	6198.01
916.302	6129.32
916.613	6111.69
916.925	6100.62
917.236	6097.9
917.548	6055.19
917.859	6025.82
918.171	6028.98
918.482	6043.67
918.794	5935.87
919.105	5957.34
919.416	5932.49
919.727	5825.14
920.038	5833.28
920.349	5820.62
920.66	5768.2
920.971	5808.87
921.282	5800.06
921.593	5732.26
921.903	5683.9
922.214	5697.92
922.525	5707.86
922.835	5652.04
923.146	5605.49
923.456	5560.52
923.767	5570.46
924.077	5511.25
924.387	5543.57
924.697	5500.41
925.008	5510.8
925.318	5426.28
925.628	5461.76
925.938	5422.67
926.248	5422.89
926.558	5298.15
926.867	5346.74
927.177	5372.95
927.487	5313.97
927.796	5275.1
928.106	5228.32
928.416	5244.14
928.725	5169.12
929.034	5189.23
929.344	5190.13
929.653	5204.82
929.962	5127.99
930.271	5099.29
930.581	5060.19
930.89	5066.52
931.199	5021.32
931.508	5063.58
931.817	5000.76
932.125	4958.5
932.434	4978.84
932.743	4916.69
933.051	4897.48
933.36	4878.28
933.669	4854.77
933.977	4822.46
934.286	4791.95
934.594	4800.76
934.902	4764.38
935.21	4779.52
935.519	4746.53
935.827	4729.35
936.135	4712.63
936.443	4643.71
936.751	4679.64
937.059	4629.69
937.367	4621.11
937.674	4627.43
937.982	4585.63
938.29	4608.23
938.597	4548.11
938.905	4537.49
939.213	4481.22
939.52	4467.89
939.827	4470.15
940.135	4456.37
940.442	4447.1
940.749	4441.23
941.056	4433.54
941.363	4366.42
941.67	4363.26
941.977	4326.65
942.284	4325.97
942.591	4306.77
942.898	4241
943.205	4316.71
943.511	4242.36
943.818	4257.05
944.125	4220.67
944.431	4194.68
944.738	4181.12
945.044	4181.12
945.35	4205.07
945.657	4079.43
945.963	4160.1
946.269	4139.99
946.575	4084.17
946.881	4084.17
947.187	4070.61
947.493	4014.12
947.799	4017.96
948.105	3980.45
948.41	3957.85
948.716	4014.8
949.022	3963.72
949.327	3911.52
949.633	3901.35
949.938	3852.09
950.244	3913.1
950.549	3880.56
950.854	3880.11
951.16	3817.29
951.465	3798.53
951.77	3734.58
952.075	3742.03
952.38	3778.19
952.685	3786.55
952.99	3701.81
953.294	3695.71
953.599	3699.1
953.904	3650.06
954.209	3629.04
954.513	3673.56
954.818	3661.36
955.122	3628.82
955.426	3620
955.731	3578.87
956.035	3596.28
956.339	3596.05
956.643	3546.33
956.948	3518.99
957.252	3498.42
957.556	3474.47
957.86	3462.72
958.163	3434.47
958.467	3458.2
958.771	3419.11
959.075	3382.27
959.378	3441.93
959.682	3412.1
959.985	3321.03
960.289	3378.88
960.592	3341.82
960.896	3323.29
961.199	3316.06
961.502	3342.04
961.805	3293.91
962.108	3255.04
962.411	3272.22
962.714	3244.87
963.017	3229.51
963.32	3269.73
963.623	3207.36
963.926	3174.37
964.228	3167.13
964.531	3151.54
964.833	3152.9
965.136	3166.23
965.438	3113.58
965.741	3120.81
966.043	3074.48
966.345	3081.94
966.648	3062.96
966.95	3037.19
967.252	3056.18
967.554	3037.87
967.856	3036.52
968.158	2973.47
968.46	2993.58
968.761	3002.62
969.063	2960.81
969.365	2940.93
969.666	2918.33
969.968	2918.33
970.269	2907.71
970.571	2909.06
970.872	2890.98
971.174	2870.42
971.475	2853.7
971.776	2839.01
972.077	2826.8
972.378	2804.21
972.679	2830.42
972.98	2801.04
973.281	2790.65
973.582	2805.34
973.883	2755.39
974.183	2743.42
974.484	2792.68
974.785	2713.36
975.085	2730.08
975.386	2713.36
975.686	2692.12
975.986	2691.44
976.287	2672.91
976.587	2638.79
976.887	2645.34
977.187	2673.81
977.487	2645.34
977.787	2644.44
978.087	2594.72
978.387	2588.62
978.687	2592.91
978.987	2568.51
979.286	2576.87
979.586	2551.11
979.885	2552.46
980.185	2532.8
980.484	2490.09
980.784	2497.55
981.083	2476.53
981.382	2505
981.682	2507.94
981.981	2432.01
982.28	2448.96
982.579	2452.8
982.878	2461.84
983.177	2425.91
983.475	2423.2
983.774	2394.73
984.073	2387.72
984.372	2386.14
984.67	2362.64
984.969	2378.68
985.267	2371.67
985.566	2376.19
985.864	2341.39
986.162	2326.7
986.461	2325.8
986.759	2286.03
987.057	2302.98
987.355	2250.77
987.653	2262.53
987.951	2274.5
988.249	2264.56
988.547	2235.41
988.844	2233.37
989.142	2237.44
989.44	2227.5
989.737	2160.61
990.035	2201.06
990.332	2184.34
990.63	2157.67
990.927	2145.24
991.224	2166.93
991.521	2129.42
991.819	2141.62
992.116	2130.33
992.413	2099.37
992.71	2111.12
993.006	2060.04
993.303	2098.46
993.6	2058.24
993.897	2028.63
994.193	2028.63
994.49	2050.33
994.787	2007.62
995.083	2012.81
995.379	2007.39
995.676	1994.74
995.972	2017.56
996.268	2010.55
996.565	2004.9
996.861	1957.9
997.157	1969.65
997.453	1961.06
997.749	1965.13
998.044	1929.88
998.34	1918.81
998.636	1906.15
998.932	1921.74
999.227	1903.21
999.523	1908.18
999.818	1856.43
1000.114	1837.45
1000.409	1852.59
1000.704	1851.69
1001	1829.54
1001.295	1845.36
1001.59	1821.18
1001.885	1810.33
1002.18	1775.31
1002.475	1800.62
1002.77	1763.33
1003.065	1758.58
1003.359	1763.33
1003.654	1775.31
1003.949	1756.1
1004.243	1734.86
1004.538	1733.05
1004.832	1733.27
1005.127	1723.78
1005.421	1704.12
1005.715	1679.04
1006.009	1680.39
1006.304	1665.03
1006.598	1687.63
1006.892	1658.02
1007.186	1662.32
1007.48	1637.46
1007.773	1630.9
1008.067	1622.09
1008.361	1607.18
1008.655	1615.08
1008.948	1592.71
1009.242	1555.43
1009.535	1579.38
1009.829	1572.37
1010.122	1524.92
1010.415	1546.61
1010.708	1553.62
1011.001	1545.71
1011.295	1556.1
1011.588	1516.33
1011.881	1520.17
1012.173	1496.22
1012.466	1489.89
1012.759	1487.4
1013.052	1482.21
1013.344	1480.62
1013.637	1466.84
1013.93	1464.13
1014.222	1446.95
1014.514	1455.09
1014.807	1438.37
1015.099	1416.67
1015.391	1427.07
1015.683	1416.45
1015.976	1405.37
1016.268	1390.46
1016.56	1375.32
1016.851	1364.92
1017.143	1393.85
1017.435	1351.59
1017.727	1363.79
1018.018	1336
1018.31	1307.07
1018.602	1317.01
1018.893	1316.11
1019.185	1288.09
1019.476	1302.78
1019.767	1286.28
1020.058	1298.48
1020.35	1261.2
1020.641	1255.09
1020.932	1230.46
1021.223	1263.46
1021.514	1259.84
1021.804	1263.46
1022.095	1224.36
1022.386	1211.48
1022.677	1212.38
1022.967	1208.32
1023.258	1215.77
1023.548	1221.2
1023.839	1208.09
1024.129	1174.19
1024.419	1186.62
1024.709	1138.49
1025	1157.47
1025.29	1164.48
1025.58	1136.45
1025.87	1135.32
1026.16	1105.27
1026.449	1094.42
1026.739	1114.31
1027.029	1089.9
1027.319	1093.74
1027.608	1101.65
1027.898	1088.32
1028.187	1093.52
1028.477	1063.01
1028.766	1070.01
1029.055	1057.81
1029.344	1030.92
1029.634	1029.56
1029.923	1018.72
1030.212	1028.21
1030.501	1049.68
1030.79	1022.78
1031.078	997.7
1031.367	1002.67
1031.656	998.15
1031.945	991.6
1032.233	1013.97
1032.522	962.45
1032.81	976.01
1033.099	1006.97
1033.387	968.32
1033.675	952.28
1033.963	953.41
1034.251	954.99
1034.54	931.49
1034.828	936.46
1035.116	931.49
1035.403	908.21
1035.691	905.5
1035.979	952.73
1036.267	913.41
1036.554	877.93
1036.842	887.19
1037.129	890.58
1037.417	880.87
1037.704	865.73
1037.992	874.09
1038.279	876.35
1038.566	855.78
1038.853	855.78
1039.14	855.78
