Data from hue_220_FLMS001491_00100.txt Node
Date: Tue Feb 07 16:40:13 GMT 2017
User: dcchb
Spectrometer: FLMS00149
Trigger mode: 0
Integration Time (sec): 2.000000E-2
Scans to average: 10
Electric dark correction enabled: true
Nonlinearity correction enabled: false
Boxcar width: 0
XAxis mode: Wavelengths
Number of Pixels in Spectrum: 2048
>>>>>Begin Spectral Data<<<<<
341.393	-11.37
341.776	-11.37
342.16	-11.37
342.543	-62.67
342.927	-92.72
343.31	-66.28
343.693	-76.9
344.077	-78.26
344.46	-74.87
344.843	-69.45
345.226	-32.84
345.61	-38.26
345.993	-29.67
346.376	-1.2
346.759	19.14
347.142	38.12
347.525	52.13
347.908	72.02
348.291	74.28
348.674	95.97
349.057	116.08
349.44	123.54
349.823	134.84
350.206	163.99
350.588	177.55
350.971	189.98
351.354	215.52
351.737	226.59
352.119	247.38
352.502	291.45
352.884	276.08
353.267	285.8
353.65	282.63
354.032	290.09
354.414	316.76
354.797	332.58
355.179	314.5
355.562	310.88
355.944	325.34
356.326	321.73
356.709	343.42
357.091	352.46
357.473	329.19
357.855	337.1
358.238	346.59
358.62	323.99
359.002	337.32
359.384	352.01
359.766	356.98
360.148	335.06
360.53	329.86
360.912	327.15
361.294	320.15
361.676	320.37
362.057	323.76
362.439	328.96
362.821	333.25
363.203	343.2
363.584	322.63
363.966	334.38
364.348	314.95
364.729	305.91
365.111	304.1
365.493	303.65
365.874	322.41
366.256	310.88
366.637	321.28
367.019	298.9
367.4	301.62
367.781	300.49
368.163	305.46
368.544	312.69
368.925	308.17
369.306	309.07
369.688	319.92
370.069	289.64
370.45	308.85
370.831	282.18
371.212	307.04
371.593	293.71
371.974	305.46
372.355	308.85
372.736	311.11
373.117	300.94
373.498	308.62
373.879	306.81
374.26	299.81
374.641	322.18
375.021	301.39
375.402	315.85
375.783	306.14
376.163	317.66
376.544	327.38
376.925	317.44
377.305	338.45
377.686	315.4
378.066	316.76
378.447	323.08
378.827	321.95
379.208	318.79
379.588	335.51
379.968	313.37
380.349	324.21
380.729	328.96
381.109	331.45
381.489	340.71
381.87	330.54
382.25	327.38
382.63	340.03
383.01	319.02
383.39	319.92
383.77	331.45
384.15	335.06
384.53	319.02
384.91	345.46
385.29	334.38
385.67	365.57
386.049	356.76
386.429	341.84
386.809	357.89
387.189	340.03
387.568	348.62
387.948	336.42
388.328	343.88
388.707	346.59
389.087	359.47
389.466	362.41
389.846	367.6
390.225	352.24
390.605	371.45
390.984	364.44
391.363	365.8
391.743	322.41
392.122	384.1
392.501	358.11
392.881	389.98
393.26	366.02
393.639	376.19
394.018	377.32
394.397	391.33
394.776	371.22
395.155	375.96
395.534	378.68
395.913	384.1
396.292	387.04
396.671	396.98
397.05	388.85
397.429	408.96
397.808	400.37
398.186	413.25
398.565	373.7
398.944	383.2
399.323	394.04
399.701	414.38
400.08	388.85
400.458	393.37
400.837	415.74
401.215	413.25
401.594	421.16
401.972	407.15
402.351	416.19
402.729	425.68
403.107	427.94
403.486	411.67
403.864	420.71
404.242	437.21
404.62	432.23
404.999	433.14
405.377	453.02
405.755	458.9
406.133	445.34
406.511	460.93
406.889	471.33
407.267	472.69
407.645	462.52
408.023	508.39
408.401	470.65
408.779	468.39
409.156	494.38
409.534	492.57
409.912	490.54
410.29	509.75
410.667	517.66
411.045	512.46
411.422	521.5
411.8	550.42
412.178	522.85
412.555	552.91
412.933	530.76
413.31	561.95
413.687	577.54
414.065	579.35
414.442	588.39
414.819	590.42
415.197	608.95
415.574	619.8
415.951	619.35
416.328	632.23
416.705	636.97
417.082	629.52
417.46	660.25
417.837	654.6
418.214	689.63
418.591	661.61
418.967	684.43
419.344	693.02
419.721	681.04
420.098	711.55
420.475	698.67
420.852	706.13
421.228	735.96
421.605	744.09
421.982	776.18
422.358	748.16
422.735	793.35
423.111	780.25
423.488	785.67
423.864	839
424.241	838.33
424.617	831.32
424.994	872.22
425.37	857.53
425.746	884.88
426.123	872.67
426.499	876.74
426.875	907.48
427.251	935.05
427.627	951.54
428.003	943.63
428.379	954.48
428.756	943.41
429.132	982.73
429.507	1020.92
429.883	1022.95
430.259	1020.92
430.635	1039.45
431.011	1040.81
431.387	1057.08
431.763	1081.93
432.138	1088.26
432.514	1102.05
432.89	1117.64
433.265	1121.93
433.641	1185.21
434.016	1173.01
434.392	1209.39
434.767	1215.49
435.143	1221.14
435.518	1240.57
435.894	1291.42
436.269	1287.13
436.644	1336.84
437.02	1330.52
437.395	1341.59
437.77	1361.7
438.145	1375.71
438.52	1423.39
438.895	1420.46
439.271	1455.94
439.646	1468.82
440.021	1501.81
440.395	1491.87
440.77	1512.88
441.145	1508.14
441.52	1569.38
441.895	1551.08
442.27	1593.33
442.645	1591.07
443.019	1635.59
443.394	1641.24
443.769	1671.3
444.143	1650.96
444.518	1707.91
444.892	1709.26
445.267	1694.57
445.641	1754.69
446.016	1744.52
446.39	1707
446.764	1750.84
447.139	1732.77
447.513	1751.07
447.887	1765.08
448.262	1774.35
448.636	1817.51
449.01	1835.59
449.384	1858.86
449.758	1855.02
450.132	1900.67
450.506	1897.51
450.88	1910.84
451.254	1925.3
451.628	1936.6
452.002	1960.78
452.376	1965.98
452.75	1958.52
453.123	2002.14
453.497	2036.71
453.871	2017.28
454.244	2111.96
454.618	2077.39
454.992	2151.96
455.365	2123.72
455.739	2173.66
456.112	2198.06
456.486	2213.2
456.859	2217.27
457.232	2257.95
457.606	2263.37
457.979	2267.89
458.352	2328.91
458.725	2335.46
459.099	2383.37
459.472	2410.49
459.845	2438.51
460.218	2414.1
460.591	2450.03
460.964	2462.92
461.337	2483.25
461.71	2515.34
462.083	2575.68
462.456	2581.56
462.829	2604.15
463.201	2676.47
463.574	2652.52
463.947	2666.07
464.32	2734.77
464.692	2746.98
465.065	2758.5
465.438	2811.38
465.81	2821.55
466.183	2835.56
466.555	2905.16
466.928	2918.04
467.3	2942.9
467.672	2980.87
468.045	3071.94
468.417	3054.31
468.789	3096.57
469.161	3113.07
469.534	3141.99
469.906	3200.52
470.278	3244.36
470.65	3279.62
471.022	3300.41
471.394	3365.72
471.766	3358.03
472.138	3435.32
472.51	3457.47
472.882	3561.87
473.253	3542.21
473.625	3599.16
473.997	3646.39
474.369	3659.72
474.74	3694.07
475.112	3759.6
475.484	3813.39
475.855	3873.05
476.227	3899.26
476.598	4027.17
476.97	4017
477.341	4115.53
477.713	4138.58
478.084	4132.25
478.455	4216.99
478.827	4284.79
479.198	4412.92
479.569	4445.24
479.94	4488.17
480.311	4551.45
480.682	4596.42
481.053	4699.01
481.424	4717.77
481.795	4776.53
482.166	4879.35
482.537	4906.02
482.908	4946.24
483.279	5035.05
483.65	5104.88
484.021	5161.38
484.391	5228.72
484.762	5221.49
485.133	5300.35
485.503	5343.74
485.874	5484.3
486.244	5532.89
486.615	5575.6
486.985	5654.7
487.356	5716.39
487.726	5755.26
488.097	5863.73
488.467	5904.18
488.837	5965.65
489.207	6019.88
489.578	6110.5
489.948	6147.79
490.318	6182.82
490.688	6294.23
491.058	6315.02
491.428	6382.36
491.798	6384.39
492.168	6535.35
492.538	6547.33
492.908	6571.96
493.278	6704.61
493.648	6662.13
494.017	6810.82
494.387	6760.66
494.757	6769.02
495.126	6863.03
495.496	6919.97
495.866	6929.24
496.235	6980.31
496.605	7055.34
496.974	7094.21
497.344	7031.38
497.713	7146.63
498.082	7188.44
498.452	7199.97
498.821	7285.39
499.19	7251.72
499.559	7317.48
499.928	7298.95
500.298	7345.5
500.667	7427.98
501.036	7409.9
501.405	7462.56
501.774	7416.23
502.143	7514.53
502.512	7504.36
502.88	7569.67
503.249	7545.27
503.618	7558.37
503.987	7574.19
504.356	7594.98
504.724	7660.07
505.093	7663
505.462	7693.29
505.83	7748.43
506.199	7786.17
506.567	7831.59
506.936	7828.88
507.304	7862.32
507.672	7875.88
508.041	7858.71
508.409	7904.13
508.777	7980.06
509.145	8073.62
509.514	8003.33
509.882	8024.58
510.25	8026.61
510.618	8065.93
510.986	8052.37
511.354	8095.54
511.722	8074.07
512.09	8165.14
512.458	8128.53
512.826	8127.17
513.193	8202.88
513.561	8098.93
513.929	8197.91
514.297	8238.58
514.664	8231.13
515.032	8326.49
515.4	8312.25
515.767	8283.1
516.135	8343.21
516.502	8299.6
516.869	8348.86
517.237	8343.44
517.604	8310.9
517.972	8370.56
518.339	8366.26
518.706	8324.46
519.073	8378.69
519.44	8358.35
519.808	8375.75
520.175	8388.64
520.542	8448.97
520.909	8429.76
521.276	8439.71
521.643	8458.69
522.009	8522.87
522.376	8482.87
522.743	8500.72
523.11	8472.25
523.477	8581.4
523.843	8519.03
524.21	8592.7
524.577	8646.93
524.943	8610.55
525.31	8602.42
525.676	8643.77
526.043	8705.69
526.409	8644
526.776	8680.38
527.142	8696.65
527.508	8720.38
527.874	8692.36
528.241	8730.55
528.607	8722.64
528.973	8718.57
529.339	8713.37
529.705	8751.56
530.071	8733.71
530.437	8736.2
530.803	8711.11
531.169	8751.34
531.535	8706.59
531.901	8713.6
532.267	8733.03
532.632	8730.55
532.998	8654.39
533.364	8660.72
533.73	8745.91
534.095	8739.36
534.461	8779.81
534.826	8665.92
535.192	8721.06
535.557	8712.47
535.923	8642.64
536.288	8707.5
536.653	8658.68
537.019	8615.75
537.384	8570.55
537.749	8589.08
538.114	8536.88
538.479	8547.73
538.845	8546.82
539.21	8558.8
539.575	8499.37
539.94	8524.23
540.305	8549.99
540.67	8471.57
541.034	8488.29
541.399	8451.68
541.764	8459.82
542.129	8490.1
542.494	8471.35
542.858	8410.1
543.223	8405.36
543.587	8412.36
543.952	8339.37
544.316	8375.75
544.681	8318.81
545.045	8322.2
545.41	8329.65
545.774	8328.75
546.138	8310.9
546.503	8297.34
546.867	8235.87
547.231	8290.56
547.595	8213.05
547.959	8267.28
548.324	8095.76
548.688	8215.98
549.052	8159.04
549.416	8131.47
549.779	8116.33
550.143	8079.72
550.507	8130.11
550.871	8117.23
551.235	8023.45
551.599	8055.54
551.962	8093.95
552.326	8025.71
552.689	8120.85
553.053	8012.37
553.417	7947.29
553.78	8041.75
554.143	7954.52
554.507	7992.26
554.87	7995.88
555.234	7975.76
555.597	7952.04
555.96	7976.44
556.323	7948.19
556.686	7882.89
557.05	7977.8
557.413	7929.21
557.776	7955.65
558.139	7927.63
558.502	7953.62
558.865	7938.7
559.228	7966.95
559.59	7891.25
559.953	7949.78
560.316	7974.41
560.679	7928.53
561.041	7941.64
561.404	7939.83
561.767	7996.56
562.129	7894.86
562.492	7975.99
562.854	7999.95
563.217	8001.53
563.579	8032.26
563.941	8003.79
564.304	8090.56
564.666	8064.35
565.028	8029.1
565.39	8031.81
565.753	8103.22
566.115	8043.56
566.477	8109.55
566.839	8100.28
567.201	8105.93
567.563	8087.85
567.925	8117.46
568.287	8130.11
568.648	8145.03
569.01	8160.62
569.372	8203.78
569.734	8180.73
570.095	8201.52
570.457	8235.19
570.819	8230
571.18	8187.74
571.542	8213.72
571.903	8255.31
572.265	8330.56
572.626	8224.8
572.987	8352.7
573.349	8348.64
573.71	8351.8
574.071	8387.05
574.432	8415.98
574.794	8387.28
575.155	8416.88
575.516	8382.53
575.877	8431.8
576.238	8445.58
576.599	8476.77
576.96	8502.08
577.32	8472.93
577.681	8549.31
578.042	8564
578.403	8549.99
578.763	8554.73
579.124	8584.79
579.485	8556.77
579.845	8626.14
580.206	8629.31
580.566	8602.42
580.927	8575.3
581.287	8663.66
581.648	8636.54
582.008	8726.48
582.368	8694.84
582.728	8679.7
583.089	8725.12
583.449	8754.95
583.809	8747.5
584.169	8807.16
584.529	8742.98
584.889	8761.51
585.249	8773.26
585.609	8745.24
585.969	8769.42
586.329	8829.3
586.688	8833.14
587.048	8844.44
587.408	8843.99
587.768	8832.24
588.127	8894.84
588.487	8837.66
588.846	8885.8
589.206	8881.5
589.565	8858.68
589.925	8879.47
590.284	8937.1
590.643	8959.92
591.003	8870.2
591.362	8974.16
591.721	8906.81
592.08	9034.49
592.44	9065.23
592.799	9028.84
593.158	9027.04
593.517	9073.59
593.876	8997.43
594.235	8992.69
594.593	9050.76
594.952	9040.14
595.311	9086.02
595.67	9140.93
596.029	9172.8
596.387	9108.84
596.746	9114.94
597.104	9119.92
597.463	9086.47
597.822	9137.32
598.18	9099.8
598.538	9065.91
598.897	9076.07
599.255	9106.13
599.613	9236.97
599.972	9205.79
600.33	9144.32
600.688	9136.86
601.046	9168.28
601.404	9275.39
601.762	9185.9
602.12	9215.05
602.478	9228.84
602.836	9233.81
603.194	9232
603.552	9179.58
603.91	9220.25
604.268	9256.41
604.625	9147.94
604.983	9226.35
605.341	9167.37
605.698	9280.36
606.056	9254.15
606.413	9221.16
606.771	9269.52
607.128	9249.86
607.485	9263.19
607.843	9261.61
608.2	9289.85
608.557	9321.94
608.914	9376.41
609.272	9358.33
609.629	9336.41
609.986	9356.29
610.343	9394.48
610.7	9391.32
611.057	9397.87
611.414	9337.09
611.771	9401.72
612.127	9388.16
612.484	9387.71
612.841	9408.27
613.198	9375.95
613.554	9458.21
613.911	9446.23
614.267	9509.28
614.624	9431.09
614.98	9517.65
615.337	9519.68
615.693	9496.85
616.05	9464.77
616.406	9577.08
616.762	9487.14
617.118	9488.72
617.475	9460.47
617.831	9521.26
618.187	9460.02
618.543	9539.34
618.899	9568.94
619.255	9574.82
619.611	9557.19
619.967	9622.95
620.323	9612.33
620.678	9556.51
621.034	9645.33
621.39	9526.91
621.746	9577.98
622.101	9649.39
622.457	9578.89
622.812	9605.1
623.168	9624.99
623.523	9578.66
623.879	9611.88
624.234	9582.95
624.589	9545.67
624.945	9558.55
625.3	9615.95
625.655	9566.01
626.01	9597.64
626.365	9632.9
626.72	9550.19
627.075	9581.15
627.43	9584.08
627.785	9512.22
628.14	9532.33
628.495	9475.61
628.85	9556.97
629.205	9553.12
629.559	9499.57
629.914	9510.19
630.269	9522.39
630.623	9498.89
630.978	9459.57
631.332	9498.21
631.687	9572.11
632.041	9486.23
632.396	9459.57
632.75	9408.04
633.104	9433.81
633.459	9403.52
633.813	9405.11
634.167	9431.32
634.521	9393.13
634.875	9443.07
635.229	9441.49
635.583	9365.56
635.937	9357.88
636.291	9400.81
636.645	9375.95
636.999	9300.02
637.352	9369.63
637.706	9328.72
638.06	9367.37
638.413	9247.82
638.767	9259.35
639.121	9270.42
639.474	9243.98
639.828	9227.71
640.181	9266.35
640.534	9219.57
640.888	9139.12
641.241	9179.35
641.594	9227.94
641.947	9192.68
642.301	9177.99
642.654	9202.85
643.007	9155.17
643.36	9147.71
643.713	9117.2
644.066	9198.78
644.419	9140.03
644.771	9133.7
645.124	8990.88
645.477	8981.16
645.83	8976.42
646.182	8826.14
646.535	8851.9
646.888	8888.96
647.24	8816.19
647.593	8884.67
647.945	8826.82
648.298	8791.56
648.65	8859.36
649.002	8788.17
649.355	8870.43
649.707	8902.97
650.059	8906.81
650.411	8979.81
650.763	9009.41
651.115	9068.62
651.467	9008.28
651.819	9038.56
652.171	9077.2
652.523	9029.52
652.875	9010.77
653.227	9007.38
653.578	9013.03
653.93	9016.42
654.282	8991.33
654.633	8990.2
654.985	9015.29
655.337	9032.69
655.688	8998.34
656.039	9078.33
656.391	8994.95
656.742	8996.98
657.094	9025
657.445	9048.51
657.796	9053.02
658.147	9012.57
658.498	9014.16
658.849	9057.32
659.2	9033.82
659.551	9035.4
659.902	9022.97
660.253	9053.25
660.604	9045.34
660.955	9002.86
661.306	9055.28
661.656	9019.13
662.007	9008.28
662.358	8997.88
662.708	9031.78
663.059	9040.37
663.409	8979.13
663.76	9070.2
664.11	9054.38
664.461	9039.24
664.811	9102.97
665.161	9092.8
665.511	9070.43
665.862	9121.72
666.212	9119.69
666.562	9175.06
666.912	9112.01
667.262	9044.66
667.612	9076.3
667.962	9111.1
668.312	9074.04
668.662	9054.38
669.011	9071.56
669.361	9005.79
669.711	9003.08
670.06	8985
670.41	9054.15
670.76	8980.94
671.109	9075.62
671.459	8992.69
671.808	9027.04
672.157	9042.4
672.507	9000.6
672.856	8966.93
673.205	8975.06
673.554	8964.44
673.904	9010.54
674.253	9008.28
674.602	9001.5
674.951	8866.59
675.3	8830.66
675.649	8989.98
675.998	8914.5
676.346	8968.06
676.695	8961.73
677.044	8937.55
677.393	8912.46
677.741	8884.44
678.09	8895.97
678.438	8865.23
678.787	8884.44
679.135	8896.42
679.484	8753.6
679.832	8902.52
680.181	8799.02
680.529	8811.45
680.877	8758.57
681.225	8784.78
681.573	8824.33
681.922	8730.32
682.27	8688.51
682.618	8683.32
682.966	8721.06
683.314	8633.6
683.661	8636.99
684.009	8639.7
684.357	8619.59
684.705	8586.82
685.053	8596.77
685.4	8595.86
685.748	8472.47
686.095	8488.07
686.443	8457.11
686.79	8508.18
687.138	8466.15
687.485	8483.77
687.832	8413.49
688.18	8459.37
688.527	8394.06
688.874	8335.76
689.221	8425.24
689.568	8280.62
689.915	8318.35
690.262	8241.07
690.609	8269.32
690.956	8289.65
691.303	8189.32
691.65	8214.4
691.997	8131.24
692.344	8112.71
692.69	8112.71
693.037	8086.27
693.383	8022.32
693.73	7994.07
694.077	7997.01
694.423	7967.63
694.769	7970.12
695.116	7939.16
695.462	7905.03
695.808	7863.68
696.155	7911.36
696.501	7857.35
696.847	7822.77
697.193	7750.69
697.539	7736.9
697.885	7691.25
698.231	7656.23
698.577	7596.79
698.923	7692.16
699.269	7571.48
699.614	7599.05
699.96	7546.17
700.306	7522.44
700.651	7457.59
700.997	7443.8
701.342	7447.64
701.688	7425.04
702.033	7390.92
702.379	7406.74
702.724	7302.34
703.069	7346.4
703.415	7296.69
703.76	7301.66
704.105	7272.73
704.45	7231.15
704.795	7227.54
705.14	7081.1
705.485	7185.73
705.83	7142.79
706.175	7079.52
706.52	7122.91
706.865	7103.7
707.209	7021.21
707.554	7037.48
707.899	7020.54
708.243	6997.26
708.588	6981.67
708.932	6942.35
709.277	6911.39
709.621	6959.75
709.966	6887.66
710.31	6872.74
710.654	6821.22
710.998	6848.34
711.342	6794.55
711.687	6793.88
712.031	6807.43
712.375	6757.72
712.719	6784.84
713.063	6788.68
713.407	6740.77
713.75	6749.81
714.094	6698.51
714.438	6708.23
714.782	6708.91
715.125	6652.41
715.469	6618.06
715.812	6656.03
716.156	6583.03
716.499	6627.1
716.843	6603.15
717.186	6615.12
717.53	6656.48
717.873	6597.04
718.216	6585.74
718.559	6568.8
718.902	6541.68
719.246	6510.72
719.589	6499.87
719.932	6497.16
720.275	6473.43
720.617	6447.44
720.96	6476.37
721.303	6487.67
721.646	6453.77
721.989	6468.46
722.331	6460.1
722.674	6446.31
723.016	6486.76
723.359	6462.13
723.701	6405.41
724.044	6416.03
724.386	6432.3
724.729	6430.04
725.071	6418.74
725.413	6457.39
725.755	6369.03
726.097	6338.75
726.439	6302.81
726.782	6346.88
727.124	6416.71
727.465	6381.46
727.807	6383.72
728.149	6298.97
728.491	6314.34
728.833	6351.17
729.175	6318.41
729.516	6312.31
729.858	6308.46
730.199	6345.75
730.541	6302.36
730.882	6325.41
731.224	6303.72
731.565	6339.88
731.906	6312.53
732.248	6346.2
732.589	6322.48
732.93	6254
733.271	6294.91
733.612	6297.62
733.953	6368.58
734.294	6310.27
734.635	6274.34
734.976	6356.37
735.317	6254.91
735.658	6315.47
735.999	6245.41
736.339	6337.39
736.68	6322.02
737.021	6377.39
737.361	6287.45
737.702	6308.69
738.042	6343.72
738.383	6306.43
738.723	6364.06
739.063	6312.53
739.404	6375.58
739.744	6381.23
740.084	6368.8
740.424	6384.62
740.764	6407.22
741.104	6417.84
741.444	6399.08
741.784	6416.03
742.124	6465.97
742.464	6457.61
742.804	6470.04
743.143	6473.88
743.483	6519.31
743.823	6517.05
744.162	6526.99
744.502	6541.68
744.841	6542.81
745.181	6563.15
745.52	6611.05
745.86	6671.84
746.199	6707.78
746.538	6716.14
746.877	6786.64
747.216	6821.9
747.556	6865.96
747.895	6849.92
748.234	6902.57
748.573	6927.88
748.911	7048.33
749.25	7063.47
749.589	7075.22
749.928	7104.15
750.267	7249.68
750.605	7282.22
750.944	7399.73
751.283	7364.71
751.621	7514.08
751.96	7463.91
752.298	7568.54
752.636	7728.09
752.975	7747.3
753.313	7843.56
753.651	7982.54
753.989	8022.09
754.327	8133.5
754.666	8177.57
755.004	8340.28
755.342	8505.92
755.679	8606.03
756.017	8721.06
756.355	8781.17
756.693	8898.23
757.031	9102.97
757.368	9181.83
757.706	9343.86
758.044	9407.14
758.381	9576.17
758.719	9716.06
759.056	9871.31
759.394	10057.07
759.731	10151.53
760.068	10285.99
760.405	10471.07
760.743	10620.44
761.08	10714.68
761.417	10969.13
761.754	11077.83
762.091	11255
762.428	11411.15
762.765	11481.21
763.102	11737.02
763.438	11863.35
763.775	12074.64
764.112	12227.18
764.449	12412.26
764.785	12557.11
765.122	12667.62
765.458	12786.03
765.795	12951.68
766.131	13216.98
766.467	13378.56
766.804	13366.36
767.14	13616.07
767.476	13742.62
767.812	13813.35
768.148	14052.67
768.485	14148.48
768.821	14233.23
769.157	14310.51
769.492	14404.75
769.828	14600.68
770.164	14656.95
770.5	14794.34
770.836	15000.44
771.171	14991.17
771.507	15129.7
771.842	15200.66
772.178	15376.93
772.513	15416.25
772.849	15507.77
773.184	15595.45
773.519	15663.47
773.855	15749.12
774.19	15831.6
774.525	15905.5
774.86	16004.25
775.195	16087.19
775.53	16236.34
775.865	16190.24
776.2	16156.79
776.535	16141.65
776.87	16319.5
777.205	16295.09
777.539	16334.19
777.874	16499.38
778.209	16459.38
778.543	16520.4
778.878	16523.79
779.212	16611.02
779.547	16525.37
779.881	16775.53
780.215	16639.27
780.55	16739.6
780.884	16717.23
781.218	16732.14
781.552	16801.52
781.886	16753.61
782.22	16753.16
782.554	16768.08
782.888	16729.43
783.222	16679.04
783.556	16750.22
783.889	16747.74
784.223	16673.39
784.557	16696.44
784.89	16722.2
785.224	16695.08
785.557	16672.71
785.891	16705.03
786.224	16654.86
786.558	16660.51
786.891	16549.1
787.224	16657.12
787.557	16603.11
787.891	16758.81
788.224	16654.41
788.557	16672.26
788.89	16654.86
789.223	16709.32
789.556	16559.27
789.888	16570.79
790.221	16488.76
790.554	16381.42
790.887	16402.44
791.219	16386.17
791.552	16467.52
791.884	16341.65
792.217	16459.38
792.549	16414.41
792.882	16303.46
793.214	16271.59
793.546	16265.72
793.879	16197.92
794.211	16051.48
794.543	16242.67
794.875	16168.54
795.207	16138.26
795.539	16212.84
795.871	16187.07
796.203	16013.97
796.535	15929.23
796.867	15904.14
797.198	15980.98
797.53	15983.24
797.862	15828.89
798.193	15829.34
798.525	15790.7
798.856	15758.39
799.188	15691.95
799.519	15562.46
799.85	15587.99
800.182	15681.1
800.513	15650.82
800.844	15435
801.175	15498.96
801.506	15539.41
801.837	15477.04
802.168	15410.6
802.499	15306.19
802.83	15332.86
803.161	15287.21
803.491	15282.69
803.822	15351.62
804.153	15245.18
804.483	15166.08
804.814	15060.55
805.145	15163.6
805.475	15164.05
805.805	15132.64
806.136	15164.28
806.466	15035.01
806.796	15064.39
807.126	14931.51
807.457	15008.35
807.787	14865.3
808.117	14904.62
808.447	14746.21
808.777	14836.38
809.107	14753.44
809.436	14692.65
809.766	14672.54
810.096	14679.32
810.426	14661.24
810.755	14663.5
811.085	14536.72
811.414	14629.15
811.744	14511.64
812.073	14451.98
812.403	14477.51
812.732	14440.45
813.061	14358.2
813.39	14368.14
813.719	14358.2
814.049	14419.44
814.378	14329.04
814.707	14274.36
815.036	14134.92
815.365	14261.02
815.693	14114.36
816.022	14114.81
816.351	14055.38
816.68	14011.54
817.008	14030.07
817.337	13952.1
817.665	13917.98
817.994	13980.13
818.322	14006.11
818.651	13835.95
818.979	13851.77
819.307	13948.72
819.636	13955.95
819.964	13722.73
820.292	13857.42
820.62	13903.74
820.948	13761.83
821.276	13898.55
821.604	13741.26
821.932	13871.43
822.259	13796.4
822.587	13813.13
822.915	13821.49
823.243	13818.1
823.57	13758.66
823.898	13774.71
824.225	13753.92
824.553	13687.93
824.88	13738.78
825.207	13785.56
825.535	13775.16
825.862	13819.45
826.189	13688.61
826.516	13814.71
826.843	13930.18
827.17	13902.16
827.497	13874.37
827.824	13819.45
828.151	13888.6
828.478	13756.4
828.805	13843.41
829.131	13814.03
829.458	13797.98
829.785	13677.76
830.111	13838.44
830.438	13825.1
830.764	13864.2
831.09	13832.56
831.417	13751.88
831.743	13806.8
832.069	13823.52
832.395	13737.87
832.722	13824.2
833.048	13788.72
833.374	13793.69
833.7	13711.89
834.026	13695.39
834.351	13798.21
834.677	13660.59
835.003	13730.19
835.329	13700.36
835.654	13629.4
835.98	13581.95
836.306	13696.74
836.631	13548.05
836.956	13648.16
837.282	13642.06
837.607	13594.15
837.932	13579.46
838.258	13529.97
838.583	13508.27
838.908	13432.8
839.233	13517.31
839.558	13455.85
839.883	13474.15
840.208	13410.65
840.533	13403.64
840.858	13390.99
841.182	13400.93
841.507	13390.31
841.832	13299.24
842.156	13284.1
842.481	13264.89
842.805	13177.89
843.13	13199.58
843.454	13207.27
843.778	13084.78
844.103	13046.14
844.427	13111.9
844.751	13092.47
845.075	13067.16
845.399	12988.06
845.723	12919.82
846.047	12883.88
846.371	12884.11
846.695	12838.46
847.019	12740.61
847.343	12664.46
847.666	12660.61
847.99	12589.43
848.313	12583.33
848.637	12512.37
848.96	12427.17
849.284	12418.36
849.607	12330.68
849.931	12364.58
850.254	12260.85
850.577	12140.85
850.9	12121.64
851.223	12109.67
851.546	12027.64
851.869	11939.5
852.192	12039.16
852.515	11967.52
852.838	11811.6
853.161	11798.72
853.483	11842.33
853.806	11796.68
854.129	11746.51
854.451	11690.47
854.774	11575.9
855.096	11568.66
855.419	11582.22
855.741	11485.73
856.063	11467.2
856.385	11507.88
856.708	11365.05
857.03	11353.98
857.352	11292.51
857.674	11292.29
857.996	11316.02
858.318	11233.31
858.64	11156.02
858.961	11166.64
859.283	11118.73
859.605	11079.41
859.926	11130.48
860.248	11096.13
860.57	11042.35
860.891	11038.74
861.212	10988.34
861.534	10909.02
861.855	10910.15
862.176	10855.46
862.498	10892.98
862.819	10881.23
863.14	10907.44
863.461	10872.19
863.782	10833.09
864.103	10727.56
864.424	10757.39
864.745	10820.89
865.065	10680.78
865.386	10698.86
865.707	10622.7
866.027	10727.56
866.348	10652.08
866.668	10594.68
866.989	10619.31
867.309	10557.39
867.63	10547.45
867.95	10491.4
868.27	10488.02
868.59	10504.06
868.91	10516.94
869.23	10480.56
869.55	10450.5
869.87	10425.87
870.19	10514
870.51	10447.56
870.83	10361.46
871.15	10336.38
871.469	10369.37
871.789	10410.05
872.109	10339.32
872.428	10339.77
872.748	10398.53
873.067	10356.95
873.386	10295.03
873.706	10250.96
874.025	10235.37
874.344	10207.34
874.663	10297.74
874.982	10191.3
875.301	10165.31
875.62	10132.54
875.939	10072.66
876.258	10081.7
876.577	10065.88
876.896	10191.53
877.214	10078.76
877.533	9990.4
877.852	10056.39
878.17	10043.96
878.489	10060.23
878.807	10014.36
879.125	9985.88
879.444	9962.38
879.762	9917.18
880.08	9976.62
880.398	9893
880.716	9890.97
881.034	9863.17
881.352	9874.02
881.67	9882.38
881.988	9842.61
882.306	9721.26
882.624	9748.15
882.941	9805.1
883.259	9692.33
883.577	9732.78
883.894	9724.42
884.212	9682.16
884.529	9651.2
884.846	9645.78
885.164	9615.95
885.481	9567.81
885.798	9562.16
886.115	9543.41
886.432	9509.96
886.75	9431.55
887.067	9458.89
887.383	9476.06
887.7	9357.42
888.017	9387.71
888.334	9404.43
888.651	9359.23
888.967	9379.8
889.284	9320.36
889.6	9316.75
889.917	9223.64
890.233	9244.88
890.55	9189.29
890.866	9204.43
891.182	9129.41
891.498	9107.71
891.815	9039.24
892.131	8978
892.447	9095.51
892.763	9024.32
893.079	8947.72
893.395	8948.85
893.71	8919.47
894.026	8897.77
894.342	8854.84
894.657	8843.09
894.973	8805.35
895.289	8793.14
895.604	8754.05
895.92	8738.91
896.235	8688.06
896.55	8652.36
896.865	8678.35
897.181	8621.62
897.496	8586.82
897.811	8615.07
898.126	8580.27
898.441	8516.54
898.756	8428.86
899.071	8382.99
899.386	8420.95
899.7	8288.07
900.015	8330.11
900.33	8267.51
900.644	8282.65
900.959	8302.31
901.273	8240.62
901.588	8176.89
901.902	8142.31
902.216	8125.14
902.531	8132.14
902.845	8063.45
903.159	8000.4
903.473	7954.07
903.787	7918.82
904.101	7881.76
904.415	7849.67
904.729	7861.87
905.042	7857.12
905.356	7836.79
905.67	7808.09
905.984	7784.36
906.297	7732.38
906.611	7622.1
906.924	7719.05
907.237	7627.53
907.551	7594.76
907.864	7562.44
908.177	7520.86
908.491	7470.47
908.804	7527.42
909.117	7444.93
909.43	7331.26
909.743	7364.48
910.056	7420.3
910.368	7367.42
910.681	7312.28
910.994	7259.17
911.307	7248.55
911.619	7150.02
911.932	7160.65
912.244	7100.99
912.557	7152.74
912.869	7080.87
913.181	7006.75
913.494	7067.09
913.806	6994.77
914.118	7000.88
914.43	6960.88
914.742	6920.2
915.054	6907.77
915.366	6865.29
915.678	6844.72
915.99	6825.06
916.302	6746.42
916.613	6804.5
916.925	6735.35
917.236	6776.25
917.548	6658.51
917.859	6682.01
918.171	6625.74
918.482	6635.69
918.794	6599.53
919.105	6598.4
919.416	6505.07
919.727	6555.01
920.038	6474.11
920.349	6417.61
920.66	6408.12
920.971	6412.42
921.282	6371.74
921.593	6347.33
921.903	6294.45
922.214	6235.02
922.525	6225.3
922.835	6273.66
923.146	6217.17
923.456	6204.06
923.767	6169.03
924.077	6172.42
924.387	6073.89
924.697	6081.13
925.008	6088.81
925.318	6070.96
925.628	6086.77
925.938	6008.58
926.248	5977.17
926.558	5954.8
926.867	5914.35
927.177	5872.54
927.487	5880.9
927.796	5826.89
928.106	5860.34
928.416	5782.6
928.725	5753.45
929.034	5677.75
929.344	5722.72
929.653	5746.67
929.962	5692.66
930.271	5621.02
930.581	5617.18
930.89	5564.53
931.199	5588.48
931.508	5542.61
931.817	5563.17
932.125	5491.54
932.434	5498.32
932.743	5406.57
933.051	5425.55
933.36	5460.12
933.669	5400.69
933.977	5386.68
934.286	5352.33
934.594	5362.73
934.902	5272.56
935.21	5277.76
935.519	5277.76
935.827	5205.67
936.135	5197.76
936.443	5212
936.751	5197.08
937.059	5161.38
937.367	5106.46
937.674	5152.11
937.982	5069.17
938.29	5037.09
938.597	4995.5
938.905	5036.41
939.213	4962.06
939.52	5007.48
939.827	5031.66
940.135	4948.27
940.442	4926.81
940.749	4926.35
941.056	4872.34
941.363	4871.67
941.67	4879.12
941.977	4863.53
942.284	4809.75
942.591	4752.35
942.898	4783.53
943.205	4767.04
943.511	4759.13
943.818	4734.04
944.125	4649.98
944.431	4682.97
944.738	4635.29
945.044	4566.36
945.35	4640.94
945.657	4554.16
945.963	4574.72
946.269	4516.65
946.575	4520.71
946.881	4501.28
947.187	4489.53
947.493	4421.96
947.799	4469.42
948.105	4437.33
948.41	4400.94
948.716	4372.47
949.022	4357.33
949.327	4373.83
949.633	4335.63
949.938	4325.92
950.244	4303.55
950.549	4265.81
950.854	4292.7
951.16	4242.3
951.465	4259.03
951.77	4182.42
952.075	4197.33
952.38	4163.21
952.685	4158.24
952.99	4141.74
953.294	4132.7
953.599	4081.4
953.904	4105.13
954.209	4084.57
954.513	4054.29
954.818	3986.94
955.122	4004.12
955.426	4001.86
955.731	3988.07
956.035	3947.85
956.339	3909.66
956.643	3904.69
956.948	3893.84
957.252	3892.48
957.556	3902.88
957.86	3879.83
958.163	3836.66
958.467	3853.84
958.771	3848.64
959.075	3807.29
959.378	3777.68
959.682	3803.22
959.985	3767.29
960.289	3726.84
960.592	3749.44
960.896	3727.06
961.199	3690.68
961.502	3689.1
961.805	3701.53
962.108	3607.52
962.411	3610.46
962.714	3577.01
963.017	3609.78
963.32	3595.99
963.623	3589.21
963.926	3557.35
964.228	3542.44
964.531	3514.41
964.833	3506.96
965.136	3479.39
965.438	3508.99
965.741	3428.99
966.043	3453.17
966.345	3412.04
966.648	3437.35
966.95	3421.53
967.252	3399.61
967.554	3393.29
967.856	3349.9
968.158	3327.98
968.46	3316.68
968.761	3327.75
969.063	3329.11
969.365	3254.31
969.666	3256.34
969.968	3232.84
970.269	3248.21
970.571	3217.02
970.872	3205.95
971.174	3205.04
971.475	3175.67
971.776	3175.67
972.077	3145.61
972.378	3162.56
972.679	3137.02
972.98	3117.81
973.281	3098.38
973.582	3072.39
973.883	3064.48
974.183	3069
974.484	3059.51
974.785	3045.95
975.085	3047.31
975.386	3030.81
975.686	3007.99
975.986	2960.3
976.287	2993.3
976.587	2986.07
976.887	2964.6
977.187	2924.15
977.487	2950.13
977.787	2920.76
978.087	2883.24
978.387	2883.47
978.687	2850.7
978.987	2880.31
979.286	2830.82
979.586	2818.61
979.885	2842.34
980.185	2838.72
980.484	2810.7
980.784	2794.43
981.083	2770.25
981.382	2777.71
981.682	2752.4
981.981	2732.29
982.28	2723.02
982.579	2728.22
982.878	2709.46
983.177	2712.85
983.475	2687.09
983.774	2626.3
984.073	2673.53
984.372	2652.52
984.67	2643.7
984.969	2599.86
985.267	2588.79
985.566	2585.85
985.864	2597.15
986.162	2583.82
986.461	2526.87
986.759	2551.5
987.057	2535.68
987.355	2526.87
987.653	2512.63
987.951	2523.7
988.249	2486.64
988.547	2461.33
988.844	2473.99
989.142	2464.72
989.44	2470.6
989.737	2419.07
990.035	2427.44
990.332	2440.54
990.63	2425.63
990.927	2380.66
991.224	2352.64
991.521	2373.65
991.819	2333.43
992.116	2314.44
992.413	2315.8
992.71	2299.53
993.006	2329.13
993.303	2317.16
993.6	2310.15
993.897	2283.71
994.193	2262.92
994.49	2262.69
994.787	2262.92
995.083	2225.18
995.379	2205.52
995.676	2244.62
995.972	2208.01
996.268	2189.93
996.565	2190.38
996.861	2160.55
997.157	2171.4
997.453	2165.52
997.749	2140.21
998.044	2113.77
998.34	2142.92
998.636	2122.59
998.932	2139.08
999.227	2090.72
999.523	2094.56
999.818	2062.25
1000.114	2064.28
1000.409	2039.42
1000.704	2009.37
1001	2062.25
1001.295	2027.45
1001.59	1986.54
1001.885	1973.44
1002.18	1980.22
1002.475	1958.75
1002.77	1944.51
1003.065	1941.57
1003.359	1936.15
1003.654	1927.11
1003.949	1906.77
1004.243	1896.38
1004.538	1893.89
1004.832	1882.37
1005.127	1881.91
1005.421	1865.64
1005.715	1860.45
1006.009	1868.81
1006.304	1803.72
1006.598	1807.57
1006.892	1810.05
1007.186	1784.29
1007.48	1836.04
1007.773	1767.34
1008.067	1775.48
1008.361	1769.15
1008.655	1756.04
1008.948	1712.65
1009.242	1730.05
1009.535	1728.92
1009.829	1718.3
1010.122	1687.34
1010.415	1699.32
1010.708	1660.9
1011.001	1674.69
1011.295	1632.88
1011.588	1656.83
1011.881	1624.07
1012.173	1662.48
1012.466	1640.11
1012.759	1655.48
1013.052	1617.51
1013.344	1614.8
1013.637	1587.23
1013.93	1574.58
1014.222	1564.41
1014.514	1602.37
1014.807	1530.74
1015.099	1539.78
1015.391	1559.66
1015.683	1531.87
1015.976	1497.74
1016.268	1524.18
1016.56	1494.81
1016.851	1493.9
1017.143	1488.25
1017.435	1500.91
1017.727	1447.57
1018.018	1447.57
1018.31	1464.3
1018.602	1433.34
1018.893	1427.69
1019.185	1423.39
1019.476	1364.64
1019.767	1416.39
1020.058	1397.41
1020.35	1395.15
1020.641	1365.09
1020.932	1362.83
1021.223	1355.83
1021.514	1314.02
1021.804	1337.52
1022.095	1328.93
1022.386	1347.69
1022.677	1348.82
1022.967	1318.76
1023.258	1306.79
1023.548	1271.99
1023.839	1290.97
1024.129	1267.47
1024.419	1262.72
1024.709	1253.23
1025	1243.06
1025.29	1254.59
1025.58	1234.47
1025.87	1198.09
1026.16	1217.07
1026.449	1200.58
1026.739	1206
1027.029	1177.98
1027.319	1197.86
1027.608	1180.01
1027.898	1173.68
1028.187	1144.31
1028.477	1153.12
1028.766	1149.96
1029.055	1127.58
1029.344	1142.72
1029.634	1111.99
1029.923	1116.74
1030.212	1088.94
1030.501	1079.68
1030.79	1092.1
1031.078	1064.08
1031.367	1080.58
1031.656	1067.47
1031.945	1083.97
1032.233	1063.63
1032.522	1076.51
1032.81	1060.24
1033.099	1035.16
1033.387	1031.99
1033.675	1044.42
1033.963	1024.31
1034.251	1015.72
1034.54	1030.64
1034.828	1014.82
1035.116	989.96
1035.403	996.51
1035.691	1002.39
1035.979	978.43
1036.267	964.88
1036.554	993.35
1036.842	942.96
1037.129	970.07
1037.417	978.89
1037.704	924.65
1037.992	960.13
1038.279	951.32
1038.566	914.93
1038.853	914.93
1039.14	914.93
