Data from hue_210_FLMS001491_00100.txt Node
Date: Tue Feb 07 16:42:02 GMT 2017
User: dcchb
Spectrometer: FLMS00149
Trigger mode: 0
Integration Time (sec): 2.000000E-2
Scans to average: 10
Electric dark correction enabled: true
Nonlinearity correction enabled: false
Boxcar width: 0
XAxis mode: Wavelengths
Number of Pixels in Spectrum: 2048
>>>>>Begin Spectral Data<<<<<
341.393	-19.27
341.776	-19.27
342.16	-19.27
342.543	-48.64
342.927	-58.59
343.31	-88.64
343.693	-78.25
344.077	-62.43
344.46	-59.49
344.843	-38.25
345.226	-30.56
345.61	-38.02
345.993	-26.27
346.376	1.53
346.759	18.02
347.142	33.39
347.525	36.78
347.908	73.39
348.291	76.55
348.674	85.59
349.057	96.66
349.44	128.08
349.823	149.32
350.206	168.53
350.588	176.89
350.971	216.21
351.354	234.51
351.737	250.11
352.119	259.37
352.502	271.12
352.884	269.77
353.267	295.53
353.65	286.94
354.032	300.05
354.414	300.95
354.797	301.18
355.179	308.86
355.562	303.89
355.944	335.08
356.326	330.78
356.709	325.81
357.091	346.38
357.473	332.14
357.855	342.31
358.238	326.49
358.62	313.83
359.002	348.63
359.384	347.73
359.766	344.12
360.148	323.78
360.53	351.12
360.912	336.88
361.294	343.89
361.676	324.23
362.057	339.14
362.439	339.14
362.821	342.76
363.203	311.8
363.584	310.9
363.966	324.45
364.348	311.57
364.729	317.22
365.111	303.21
365.493	319.71
365.874	298.92
366.256	303.66
366.637	310.67
367.019	308.64
367.4	310.67
367.781	301.63
368.163	308.41
368.544	324.68
368.925	319.94
369.306	311.12
369.688	312.25
370.069	312.25
370.45	317
370.831	310.9
371.212	303.89
371.593	298.69
371.974	299.14
372.355	305.92
372.736	308.64
373.117	321.97
373.498	315.64
373.879	311.12
374.26	329.88
374.641	321.07
375.021	324.23
375.402	314.96
375.783	319.03
376.163	335.53
376.544	336.21
376.925	313.38
377.305	328.52
377.686	326.49
378.066	331.69
378.447	302.99
378.827	317.45
379.208	338.24
379.588	325.81
379.968	314.51
380.349	320.16
380.729	322.19
381.109	338.69
381.489	338.01
381.87	336.21
382.25	339.37
382.63	319.94
383.01	337.79
383.39	315.19
383.77	337.79
384.15	345.25
384.53	351.8
384.91	370.78
385.29	334.85
385.67	342.53
386.049	347.05
386.429	344.34
386.809	361.97
387.189	351.35
387.568	313.61
387.948	341.63
388.328	341.18
388.707	354.06
389.087	373.04
389.466	371.01
389.846	358.8
390.225	355.87
390.605	347.5
390.984	359.93
391.363	374.17
391.743	380.95
392.122	353.38
392.501	379.14
392.881	371.23
393.26	394.74
393.639	360.39
394.018	380.05
394.397	381.4
394.776	393.83
395.155	397.9
395.534	387.28
395.913	391.12
396.292	396.09
396.671	385.47
397.05	404.45
397.429	389.09
397.808	389.31
398.186	395.87
398.565	398.8
398.944	389.31
399.323	386.83
399.701	379.14
400.08	418.69
400.458	402.64
400.837	410.55
401.215	412.14
401.594	407.62
401.972	415.3
402.351	408.52
402.729	445.13
403.107	417.33
403.486	437.45
403.864	429.54
404.242	457.56
404.62	453.04
404.999	434.06
405.377	451.01
405.755	448.75
406.133	463.21
406.511	448.97
406.889	460.95
407.267	459.37
407.645	465.69
408.023	502.08
408.401	498.69
408.779	472.02
409.156	498.91
409.534	498.91
409.912	511.79
410.29	529.2
410.667	541.62
411.045	538.46
411.422	530.1
411.8	539.82
412.178	557.22
412.555	561.51
412.933	586.59
413.31	579.59
413.687	589.76
414.065	613.26
414.442	587.05
414.819	607.84
415.197	625.24
415.574	639.47
415.951	617.55
416.328	665.46
416.705	664.56
417.082	666.37
417.46	702.07
417.837	688.29
418.214	678.57
418.591	707.5
418.967	708.63
419.344	706.14
419.721	755.4
420.098	727.38
420.475	756.99
420.852	779.58
421.228	776.42
421.605	786.82
421.982	794.5
422.358	830.88
422.735	813.93
423.111	835.85
423.488	837.44
423.864	853.48
424.241	855.06
424.617	881.05
424.994	904.78
425.37	929.86
425.746	919.47
426.123	943.2
426.499	942.97
426.875	960.14
427.251	1020.71
427.627	1007.15
428.003	1013.93
428.379	1055.73
428.756	1044.44
429.132	1046.7
429.507	1056.19
429.883	1057.32
430.259	1074.04
430.635	1105.9
431.011	1118.78
431.387	1112.23
431.763	1143.87
432.138	1168.73
432.514	1171.89
432.89	1188.16
433.265	1223.87
433.641	1240.59
434.016	1256.63
434.392	1269.29
434.767	1329.85
435.143	1319.91
435.518	1335.95
435.894	1366.46
436.269	1394.94
436.644	1401.94
437.02	1408.27
437.395	1440.81
437.77	1481.26
438.145	1489.62
438.52	1542.5
438.895	1558.55
439.271	1559.45
439.646	1605.78
440.021	1617.3
440.395	1641.03
440.77	1627.25
441.145	1654.36
441.52	1689.62
441.895	1718.99
442.27	1712.89
442.645	1727.36
443.019	1765.77
443.394	1781.37
443.769	1802.83
444.143	1803.51
444.518	1822.95
444.892	1817.97
445.267	1877.41
445.641	1870.18
446.016	1904.98
446.39	1913.79
446.764	1916.96
447.139	1916.05
447.513	1931.64
447.887	1924.64
448.262	1962.15
448.636	1995.37
449.01	1995.82
449.384	2047.57
449.758	2039.21
450.132	2079.21
450.506	2025.65
450.88	2101.13
451.254	2090.74
451.628	2107.01
452.002	2141.13
452.376	2124.63
452.75	2170.06
453.123	2206.89
453.497	2261.58
453.871	2240.34
454.244	2273.78
454.618	2262.03
454.992	2332.54
455.365	2368.24
455.739	2432.42
456.112	2438.07
456.486	2412.31
456.859	2450.27
457.232	2510.16
457.606	2489.6
457.979	2526.2
458.352	2587.9
458.725	2602.36
459.099	2614.79
459.472	2654.79
459.845	2654.56
460.218	2730.27
460.591	2707.89
460.964	2731.62
461.337	2827.89
461.71	2820.89
462.083	2869.47
462.456	2864.27
462.829	2872.86
463.201	2961.45
463.574	2966.87
463.947	2970.49
464.32	3054.78
464.692	3060.65
465.065	3094.1
465.438	3165.06
465.81	3172.06
466.183	3238.5
466.555	3286.86
466.928	3295.22
467.3	3296.81
467.672	3331.16
468.045	3416.8
468.417	3450.7
468.789	3479.17
469.161	3486.41
469.534	3572.5
469.906	3614.09
470.278	3647.53
470.65	3663.58
471.022	3741.54
471.394	3804.14
471.766	3830.58
472.138	3866.28
472.51	3917.58
472.882	3988.54
473.253	3960.97
473.625	4057.01
473.997	4147.63
474.369	4184.24
474.74	4246.61
475.112	4293.16
475.484	4372.03
475.855	4438.47
476.227	4454.74
476.598	4579.71
476.97	4589.65
477.341	4706.94
477.713	4749.65
478.084	4779.93
478.455	4909.64
478.827	4914.16
479.198	5073.48
479.569	5020.38
479.94	5231.44
480.311	5224.44
480.682	5301.27
481.053	5468.73
481.424	5485.45
481.795	5583.53
482.166	5682.28
482.537	5740.13
482.908	5793.69
483.279	5786.68
483.65	5886.34
484.021	6037.75
484.391	6087.02
484.762	6118.2
485.133	6181.48
485.503	6290.17
485.874	6314.58
486.244	6403.16
486.615	6521.81
486.985	6577.17
487.356	6604.97
487.726	6793.66
488.097	6898.97
488.467	6868.69
488.837	6986.43
489.207	7052.19
489.578	7116.14
489.948	7183.94
490.318	7275.23
490.688	7298.73
491.058	7446.75
491.428	7488.79
491.798	7483.14
492.168	7659.63
492.538	7673.41
492.908	7816.01
493.278	7831.38
493.648	7901.2
494.017	7970.81
494.387	8005.61
494.757	8096.45
495.126	8098.94
495.496	8162.44
495.866	8157.92
496.235	8300.97
496.605	8293.06
496.974	8384.36
497.344	8343
497.713	8453.96
498.082	8503
498.452	8544.35
498.821	8580.28
499.19	8599.04
499.559	8690.79
499.928	8661.18
500.298	8719.49
500.667	8795.64
501.036	8704.35
501.405	8872.25
501.774	8827.51
502.143	8945.25
502.512	8913.61
502.88	8991.57
503.249	9017.11
503.618	8995.64
503.987	9041.29
504.356	9054.39
504.724	9071.57
505.093	9100.5
505.462	9114.96
505.83	9183.2
506.199	9266.14
506.567	9309.98
506.936	9199.7
507.304	9327.16
507.672	9404.67
508.041	9351.79
508.409	9360.6
508.777	9493.25
509.145	9494.84
509.514	9479.69
509.882	9512.01
510.25	9441.73
510.618	9535.96
510.986	9514.04
511.354	9579.13
511.722	9667.49
512.09	9626.58
512.458	9707.26
512.826	9749.52
513.193	9728.28
513.561	9765.34
513.929	9762.17
514.297	9864.54
514.664	9841.49
515.032	9883.98
515.4	9940.25
515.767	9899.34
516.135	9886.69
516.502	9773.92
516.869	9994.93
517.237	9982.51
517.604	9888.95
517.972	9912
518.339	9924.65
518.706	9979.34
519.073	9947.7
519.44	9992.22
519.808	10013.92
520.175	10006.69
520.542	10069.74
520.909	10089.17
521.276	10055.05
521.643	10047.14
522.009	10133.69
522.376	10144.76
522.743	10084.2
523.11	10225.66
523.477	10274.02
523.843	10237.64
524.21	10326.68
524.577	10290.97
524.943	10329.16
525.31	10296.4
525.676	10344.08
526.043	10420.01
526.409	10406.22
526.776	10426.11
527.142	10395.38
527.508	10417.75
527.874	10387.02
528.241	10416.84
528.607	10412.78
528.973	10406.9
529.339	10296.85
529.705	10431.08
530.071	10439.89
530.437	10466.56
530.803	10411.65
531.169	10495.49
531.535	10478.99
531.901	10393.34
532.267	10326.9
532.632	10364.87
532.998	10358.99
533.364	10375.94
533.73	10368.94
534.095	10391.31
534.461	10329.84
534.826	10347.24
535.192	10309.73
535.557	10337.3
535.923	10313.8
536.288	10292.1
536.653	10255.72
537.019	10216.4
537.384	10234.7
537.749	10232.89
538.114	10160.81
538.479	10210.3
538.845	10147.25
539.21	10100.24
539.575	10058.89
539.94	10068.38
540.305	10026.12
540.67	10016.86
541.034	10012.56
541.399	9991.55
541.764	9939.8
542.129	9892.11
542.494	9853.02
542.858	9830.42
543.223	9892.11
543.587	9833.36
543.952	9739.57
544.316	9759.91
544.681	9726.24
545.045	9745.22
545.41	9698.9
545.774	9637.66
546.138	9683.53
546.503	9630.2
546.867	9589.3
547.231	9595.85
547.595	9515.85
547.959	9583.87
548.324	9574.61
548.688	9530.31
549.052	9462.29
549.416	9403.09
549.779	9445.12
550.143	9404.44
550.507	9396.31
550.871	9364.44
551.235	9331.9
551.599	9339.36
551.962	9269.98
552.326	9276.54
552.689	9260.94
553.053	9168.52
553.417	9170.1
553.78	9233.83
554.143	9196.09
554.507	9107.27
554.87	9086.94
555.234	9104.56
555.597	9095.52
555.96	9057.11
556.323	9058.46
556.686	9016.43
557.05	8997.45
557.413	8986.37
557.776	9074.96
558.139	9062.08
558.502	8966.26
558.865	8938.47
559.228	8973.27
559.59	8948.18
559.953	8964.45
560.316	9056.43
560.679	8941.18
561.041	9019.37
561.404	9029.31
561.767	8981.63
562.129	8997.45
562.492	8977.11
562.854	9003.32
563.217	8952.48
563.579	8982.08
563.941	8954.51
564.304	8959.93
564.666	8966.71
565.028	8903.89
565.39	9026.15
565.753	8999.03
566.115	9029.99
566.477	9019.37
566.839	9006.94
567.201	9022.98
567.563	9048.97
567.925	9099.82
568.287	9045.81
568.648	9043.77
569.01	9070.44
569.372	9118.12
569.734	9074.06
570.095	9114.28
570.457	9138.69
570.819	9147.5
571.18	9130.55
571.542	9133.04
571.903	9151.57
572.265	9184.79
572.626	9126.71
572.987	9102.76
573.349	9156.31
573.71	9187.95
574.071	9182.3
574.432	9206.26
574.794	9244.45
575.155	9241.73
575.516	9213.71
575.877	9224.11
576.238	9223.2
576.599	9295.97
576.96	9235.18
577.32	9279.47
577.681	9238.34
578.042	9293.48
578.403	9293.26
578.763	9323.09
579.124	9349.98
579.485	9305.91
579.845	9378
580.206	9306.14
580.566	9359.02
580.927	9383.88
581.287	9396.53
581.648	9359.7
582.008	9482.86
582.368	9435.63
582.728	9367.61
583.089	9441.5
583.449	9381.39
583.809	9417.77
584.169	9427.72
584.529	9460.26
584.889	9488.06
585.249	9427.94
585.609	9410.77
585.969	9457.55
586.329	9525.12
586.688	9516.08
587.048	9492.35
587.408	9409.19
587.768	9435.63
588.127	9491.45
588.487	9458.68
588.846	9545.23
589.206	9486.02
589.565	9469.07
589.925	9518.56
590.284	9480.37
590.643	9535.06
591.003	9535.51
591.362	9564.66
591.721	9509.52
592.08	9493.03
592.44	9576.64
592.799	9472.69
593.158	9605.57
593.517	9516.08
593.876	9545
594.235	9491.9
594.593	9518.11
594.952	9551.1
595.311	9506.13
595.67	9549.75
596.029	9583.19
596.387	9547.26
596.746	9596.98
597.104	9520.82
597.463	9533.48
597.822	9523.99
598.18	9526.47
598.538	9555.17
598.897	9578
599.255	9515.17
599.613	9617.32
599.972	9518.11
600.33	9523.76
600.688	9582.97
601.046	9613.48
601.404	9658.67
601.762	9634.27
602.12	9583.42
602.478	9618.67
602.836	9628.16
603.194	9553.59
603.552	9546.13
603.91	9596.3
604.268	9661.84
604.625	9602.85
604.983	9608.5
605.341	9586.13
605.698	9617.77
606.056	9621.84
606.413	9568.73
606.771	9646.24
607.128	9652.8
607.485	9620.48
607.843	9680.59
608.2	9575.51
608.557	9665.9
608.914	9620.71
609.272	9650.31
609.629	9737.99
609.986	9712.23
610.343	9648.05
610.7	9740.25
611.057	9690.76
611.414	9668.84
611.771	9662.97
612.127	9711.78
612.484	9743.87
612.841	9768.95
613.198	9704.55
613.554	9688.95
613.911	9771.44
614.267	9818.89
614.624	9751.33
614.98	9852.79
615.337	9761.49
615.693	9793.36
616.05	9775.28
616.406	9816.63
616.762	9824.32
617.118	9818.44
617.475	9795.39
617.831	9800.36
618.187	9881.04
618.543	9901.38
618.899	9972.11
619.255	9853.92
619.611	9888.27
619.967	9875.84
620.323	9933.92
620.678	9832.45
621.034	9860.7
621.39	9841.49
621.746	9830.65
622.101	9919
622.457	9879.68
622.812	9920.36
623.168	9862.51
623.523	9923.98
623.879	9883.98
624.234	9815.05
624.589	9918.78
624.945	9882.17
625.3	9845.33
625.655	9870.19
626.01	9930.53
626.365	9855.96
626.72	9834.94
627.075	9806.01
627.43	9813.24
627.785	9847.14
628.14	9854.83
628.495	9813.47
628.85	9766.92
629.205	9785
629.559	9870.64
629.914	9802.4
630.269	9831.55
630.623	9721.27
630.978	9755.39
631.332	9718.33
631.687	9818.89
632.041	9689.41
632.396	9780.03
632.75	9698.45
633.104	9777.99
633.459	9648.5
633.813	9656.86
634.167	9711.78
634.521	9685.34
634.875	9672.01
635.229	9615.96
635.583	9617.54
635.937	9643.76
636.291	9547.26
636.645	9629.07
636.999	9571.22
637.352	9556.75
637.706	9476.76
638.06	9552.91
638.413	9494.38
638.767	9562.86
639.121	9488.06
639.474	9523.99
639.828	9475.17
640.181	9559.01
640.534	9479.47
640.888	9453.03
641.241	9447.6
641.594	9457.55
641.947	9451.45
642.301	9353.37
642.654	9427.04
643.007	9405.57
643.36	9414.61
643.713	9434.72
644.066	9448.96
644.419	9326.25
644.771	9367.38
645.124	9279.93
645.477	9241.51
645.83	9123.32
646.182	9135.3
646.535	9129.65
646.888	9123.32
647.24	9072.25
647.593	9151.57
647.945	9123.55
648.298	9058.24
648.65	9074.28
649.002	9060.5
649.355	9051.46
649.707	9036.54
650.059	9127.39
650.411	9243.09
650.763	9259.36
651.115	9363.77
651.467	9249.19
651.819	9272.69
652.171	9252.58
652.523	9287.61
652.875	9287.61
653.227	9256.2
653.578	9302.07
653.93	9329.19
654.282	9240.83
654.633	9185.01
654.985	9320.38
655.337	9265.24
655.688	9206.03
656.039	9300.26
656.391	9238.34
656.742	9306.82
657.094	9240.6
657.445	9361.05
657.796	9257.78
658.147	9242.41
658.498	9252.81
658.849	9288.06
659.2	9289.64
659.551	9289.64
659.902	9268.17
660.253	9278.12
660.604	9347.72
660.955	9253.26
661.306	9280.38
661.656	9333.26
662.007	9336.42
662.358	9359.02
662.708	9307.72
663.059	9329.19
663.409	9284.67
663.76	9401.28
664.11	9347.04
664.461	9353.6
664.811	9400.6
665.161	9385.01
665.511	9295.07
665.862	9380.71
666.212	9376.42
666.562	9407.83
666.912	9371
667.262	9369.19
667.612	9353.6
667.962	9385.01
668.312	9418.9
668.662	9366.7
669.011	9346.36
669.361	9335.52
669.711	9317.44
670.06	9304.78
670.41	9368.28
670.76	9311.56
671.109	9354.27
671.459	9280.83
671.808	9241.73
672.157	9374.61
672.507	9293.71
672.856	9260.04
673.205	9266.14
673.554	9316.53
673.904	9231.57
674.253	9248.51
674.602	9259.36
674.951	9143.43
675.3	9069.76
675.649	9250.1
675.998	9181.85
676.346	9236.54
676.695	9239.02
677.044	9182.98
677.393	9282.64
677.741	9221.62
678.09	9176.65
678.438	9111.34
678.787	9126.94
679.135	9147.73
679.484	9032.93
679.832	9127.16
680.181	9061.85
680.529	9082.19
680.877	9053.94
681.225	9076.32
681.573	9102.3
681.922	8983.89
682.27	8960.61
682.618	9015.98
682.966	8967.84
683.314	8975.98
683.661	8900.27
684.009	8912.48
684.357	8884.23
684.705	8831.35
685.053	8860.05
685.4	8832.71
685.748	8859.6
686.095	8798.13
686.443	8695.31
686.79	8734.86
687.138	8716.1
687.485	8731.01
687.832	8695.53
688.18	8695.53
688.527	8661.64
688.874	8584.8
689.221	8606.27
689.568	8583.45
689.915	8526.5
690.262	8539.61
690.609	8531.24
690.956	8445.15
691.303	8456.9
691.65	8444.02
691.997	8406.73
692.344	8393.4
692.69	8335.32
693.037	8314.98
693.383	8227.98
693.73	8293.28
694.077	8213.29
694.423	8272.49
694.769	8199.05
695.116	8158.15
695.462	8174.87
695.808	8145.27
696.155	8081.54
696.501	8099.84
696.847	8015.1
697.193	8001.77
697.539	8027.98
697.885	8012.39
698.231	7924.71
698.577	7888.78
698.923	7836.8
699.269	7794.31
699.614	7811.49
699.96	7747.99
700.306	7774.65
700.651	7707.09
700.997	7588.67
701.342	7627.99
701.688	7614.88
702.033	7611.04
702.379	7587.09
702.724	7486.98
703.069	7543.02
703.415	7419.64
703.76	7471.84
704.105	7453.53
704.45	7417.38
704.795	7375.12
705.14	7342.35
705.485	7324.72
705.83	7299.64
706.175	7292.18
706.52	7296.02
706.865	7232.75
707.209	7282.69
707.554	7169.92
707.899	7194.33
708.243	7144.39
708.588	7156.82
708.932	7018.97
709.277	7049.48
709.621	7079.98
709.966	7041.11
710.31	7022.36
710.654	7018.97
710.998	6985.97
711.342	7019.87
711.687	6950.5
712.031	6924.28
712.375	6852.87
712.719	6912.08
713.063	6884.96
713.407	6959.99
713.75	6851.97
714.094	6825.07
714.438	6832.53
714.782	6861.01
715.125	6855.13
715.469	6806.77
715.812	6783.72
716.156	6728.58
716.499	6781.01
716.843	6823.04
717.186	6733.55
717.53	6750.73
717.873	6731.29
718.216	6671.63
718.559	6698.3
718.902	6645.19
719.246	6671.41
719.589	6680.45
719.932	6670.95
720.275	6639.09
720.617	6639.54
720.96	6539.66
721.303	6600.67
721.646	6628.47
721.989	6573.1
722.331	6578.08
722.674	6653.33
723.016	6610.17
723.359	6579.88
723.701	6580.79
724.044	6505.31
724.386	6487.68
724.729	6554.57
725.071	6506.21
725.413	6559.55
725.755	6565.87
726.097	6557.74
726.439	6499.21
726.782	6455.37
727.124	6515.03
727.465	6500.79
727.807	6493.78
728.149	6458.08
728.491	6451.3
728.833	6459.66
729.175	6464.41
729.516	6479.1
729.858	6445.65
730.199	6451.98
730.541	6491.3
730.882	6478.64
731.224	6498.76
731.565	6418.98
731.906	6460.56
732.248	6451.53
732.589	6460.11
732.93	6404.97
733.271	6480.9
733.612	6442.03
733.953	6417.85
734.294	6430.51
734.635	6424.63
734.976	6432.32
735.317	6409.94
735.658	6424.86
735.999	6439.55
736.339	6445.42
736.68	6418.53
737.021	6502.37
737.361	6502.6
737.702	6490.62
738.042	6452.88
738.383	6473.22
738.723	6546.66
739.063	6447.01
739.404	6527.91
739.744	6576.49
740.084	6540.11
740.424	6518.42
740.764	6532.88
741.104	6570.39
741.444	6531.75
741.784	6555.7
742.124	6609.49
742.464	6646.77
742.804	6588.24
743.143	6596.38
743.483	6616.49
743.823	6660.11
744.162	6645.87
744.502	6798.63
744.841	6741.91
745.181	6796.6
745.52	6813.78
745.86	6806.77
746.199	6880.44
746.538	6917.05
746.877	7022.81
747.216	7011.06
747.556	6983.94
747.895	7115.46
748.234	7056.93
748.573	7217.15
748.911	7187.55
749.25	7259.87
749.589	7271.16
749.928	7420.77
750.267	7468.45
750.605	7563.81
750.944	7583.25
751.283	7586.86
751.621	7740.3
751.96	7781.21
752.298	7892.39
752.636	8001.99
752.975	8034.99
753.313	8128.54
753.651	8323.79
753.989	8359.95
754.327	8455.09
754.666	8596.1
755.004	8695.53
755.342	8811.24
755.679	8911.8
756.017	9051.68
756.355	9207.84
756.693	9268.63
757.031	9446.47
757.368	9560.14
757.706	9744.77
758.044	9848.72
758.381	10008.72
758.719	10107.93
759.056	10320.12
759.394	10441.02
759.731	10569.84
760.068	10651.64
760.405	10881.92
760.743	11033.78
761.08	11181.34
761.417	11306.09
761.754	11528.23
762.091	11625.85
762.428	11835.56
762.765	12007.09
763.102	12157.36
763.438	12378.15
763.775	12471.48
764.112	12562.33
764.449	12830.79
764.785	12999.38
765.122	13098.36
765.458	13205.25
765.795	13389.87
766.131	13555.75
766.467	13694.27
766.804	13872.12
767.14	13900.82
767.476	14231.43
767.812	14260.36
768.148	14452.9
768.485	14528.15
768.821	14631.88
769.157	14789.84
769.492	14842.94
769.828	15056.72
770.164	15129.04
770.5	15207.45
770.836	15388.92
771.171	15456.71
771.507	15560.89
771.842	15499.2
772.178	15666.2
772.513	15841.56
772.849	15869.36
773.184	15928.34
773.519	16078.84
773.855	16110.48
774.19	16118.62
774.525	16300.08
774.86	16386.41
775.195	16397.48
775.53	16407.65
775.865	16482.67
776.2	16526.29
776.535	16538.72
776.87	16679.73
777.205	16632.05
777.539	16730.35
777.874	16843.79
778.209	16820.52
778.543	16768.99
778.878	16741.88
779.212	16850.8
779.547	16940.52
779.881	17009.89
780.215	17030.23
780.55	17080.85
780.884	17032.04
781.218	17125.37
781.552	17089.89
781.886	17054.41
782.22	16954.07
782.554	17087.18
782.888	16969.67
783.222	17100.28
783.556	16927.18
783.889	17082.21
784.223	16895.09
784.557	17011.7
784.89	17055.09
785.224	16952.04
785.557	16944.81
785.891	16974.41
786.224	16970.34
786.558	16960.18
786.891	16873.17
787.224	16865.26
787.557	16937.58
787.891	16920.18
788.224	16877.92
788.557	17049.89
788.89	16931.7
789.223	16914.75
789.556	16922.66
789.888	16806.51
790.221	16789.56
790.554	16704.14
790.887	16661.43
791.219	16655.1
791.552	16659.62
791.884	16612.61
792.217	16623.46
792.549	16534.42
792.882	16475.67
793.214	16508.44
793.546	16457.36
793.879	16461.66
794.211	16395.22
794.543	16379.17
794.875	16394.77
795.207	16470.24
795.539	16397.03
795.871	16392.28
796.203	16255.34
796.535	16147.77
796.867	16210.59
797.198	16219.86
797.53	16166.52
797.862	16015.79
798.193	16116.81
798.525	16028
798.856	16031.16
799.188	15802.69
799.519	15871.39
799.85	15751.17
800.182	15832.07
800.513	15860.77
800.844	15694.9
801.175	15757.5
801.506	15749.59
801.837	15644.96
802.168	15697.38
802.499	15533.77
802.83	15529.48
803.161	15472.08
803.491	15588.23
803.822	15508.69
804.153	15487.22
804.483	15375.36
804.814	15269.15
805.145	15193.89
805.475	15279.77
805.805	15216.72
806.136	15217.4
806.466	15202.93
806.796	15164.29
807.126	15063.95
807.457	15052.43
807.787	15042.26
808.117	15018.76
808.447	15014.92
808.777	14960.68
809.107	14960
809.436	14889.72
809.766	14894.92
810.096	14785.54
810.426	14804.98
810.755	14834.81
811.085	14706.22
811.414	14737.64
811.744	14689.05
812.073	14651.54
812.403	14592.33
812.732	14605.21
813.061	14571.54
813.39	14568.83
813.719	14520.92
814.049	14520.92
814.378	14464.2
814.707	14457.64
815.036	14383.97
815.365	14393.46
815.693	14278.66
816.022	14265.78
816.351	14301.71
816.68	14155.73
817.008	14230.98
817.337	14124.09
817.665	14151.89
817.994	14076.18
818.322	14156.86
818.651	14011.1
818.979	13937.66
819.307	14044.55
819.636	14060.59
819.964	14037.99
820.292	14021.04
820.62	14049.52
820.948	13936.75
821.276	13961.38
821.604	13905.57
821.932	13933.36
822.259	13962.74
822.587	14005.9
822.915	13982.63
823.243	13971.55
823.57	13867.83
823.898	13926.58
824.225	13943.31
824.553	13891.33
824.88	13955.73
825.207	13935.85
825.535	13887.49
825.862	13914.61
826.189	13954.38
826.516	14026.24
826.843	14031.21
827.17	13987.15
827.497	13940.14
827.824	14002.29
828.151	13997.09
828.478	13932.46
828.805	14099.91
829.131	13877.09
829.458	13966.36
829.785	13943.76
830.111	13982.63
830.438	13999.58
830.764	14063.75
831.09	13947.37
831.417	13912.35
831.743	13896.75
832.069	13935.85
832.395	13910.09
832.722	13935.85
833.048	13934.27
833.374	13853.36
833.7	13870.09
834.026	13825.79
834.351	13899.24
834.677	13862.63
835.003	13865.57
835.329	13939.24
835.654	13900.82
835.98	13818.56
836.306	13816.08
836.631	13796.87
836.956	13831.44
837.282	13806.13
837.607	13722.97
837.932	13585.12
838.258	13685.69
838.583	13715.06
838.908	13609.53
839.233	13593.26
839.558	13620.15
839.883	13528.18
840.208	13412.92
840.533	13488.4
840.858	13529.08
841.182	13529.31
841.507	13499.7
841.832	13431.45
842.156	13369.76
842.481	13437.33
842.805	13386.26
843.13	13330.44
843.454	13299.93
843.778	13275.75
844.103	13221.29
844.427	13179.03
844.751	13191.46
845.075	13186.26
845.399	13038.7
845.723	13028.3
846.047	13082.76
846.371	12967.29
846.695	12957.57
847.019	12845.03
847.343	12806.61
847.666	12763.45
847.99	12712.15
848.313	12743.11
848.637	12651.59
848.96	12662.89
849.284	12558.48
849.607	12498.37
849.931	12424.25
850.254	12353.74
850.577	12345.61
850.9	12173.18
851.223	12261.77
851.546	12146.97
851.869	12104.94
852.192	12085.5
852.515	12076.01
852.838	11970.02
853.161	11979.52
853.483	11904.49
853.806	11823.36
854.129	11831.72
854.451	11794.44
854.774	11695.46
855.096	11716.92
855.419	11680.54
855.741	11689.58
856.063	11569.13
856.385	11490.71
856.708	11532.07
857.03	11470.15
857.352	11447.1
857.674	11405.52
857.996	11418.4
858.318	11358.74
858.64	11374.11
858.961	11316.93
859.283	11289.82
859.605	11204.39
859.926	11213.21
860.248	11160.33
860.57	11061.35
860.891	11186.54
861.212	11085.98
861.534	11027.9
861.855	11043.49
862.176	11049.82
862.498	10996.04
862.819	11024.51
863.14	10924.63
863.461	10968.02
863.782	10968.24
864.103	10869.04
864.424	10881.47
864.745	10897.96
865.065	10766.67
865.386	10701.58
865.707	10768.02
866.027	10780.68
866.348	10740.45
866.668	10680.34
866.989	10643.73
867.309	10563.28
867.63	10721.02
867.95	10682.83
868.27	10534.81
868.59	10634.01
868.91	10570.96
869.23	10557.18
869.55	10564.64
869.87	10585.65
870.19	10524.64
870.51	10543.62
870.83	10573.22
871.15	10431.53
871.469	10526.22
871.789	10506.79
872.109	10467.01
872.428	10362.38
872.748	10413.68
873.067	10456.84
873.386	10401.25
873.706	10379.11
874.025	10389.05
874.344	10328.94
874.663	10316.73
874.982	10334.14
875.301	10291.42
875.62	10307.02
875.939	10306.57
876.258	10329.62
876.577	10211.65
876.896	10245.1
877.214	10214.59
877.533	10163.29
877.852	10178.21
878.17	10223.18
878.489	10151.99
878.807	10120.13
879.125	10144.76
879.444	10151.99
879.762	10027.02
880.08	10088.72
880.398	10015.27
880.716	10050.75
881.034	9984.99
881.352	10003.97
881.67	9922.17
881.988	9988.83
882.306	9813.7
882.624	9871.77
882.941	9792.91
883.259	9811.21
883.577	9833.13
883.894	9764.88
884.212	9729.86
884.529	9770.76
884.846	9716.98
885.164	9627.49
885.481	9589.52
885.798	9666.13
886.115	9605.57
886.432	9589.52
886.75	9519.02
887.067	9539.35
887.383	9539.13
887.7	9569.86
888.017	9459.58
888.334	9462.97
888.651	9450.99
888.967	9457.32
889.284	9388.4
889.6	9360.15
889.917	9274.28
890.233	9315.4
890.55	9297.33
890.866	9300.26
891.182	9205.8
891.498	9181.85
891.815	9185.46
892.131	9088.52
892.447	9105.92
892.763	9097.56
893.079	8990.44
893.395	9041.29
893.71	8964.68
894.026	8908.64
894.342	8960.61
894.657	8886.49
894.973	8904.57
895.289	8849.88
895.604	8796.32
895.92	8772.82
896.235	8754.29
896.55	8677.91
896.865	8776.89
897.181	8653.73
897.496	8709.55
897.811	8673.61
898.126	8571.47
898.441	8590.45
898.756	8504.35
899.071	8467.52
899.386	8403.56
899.7	8388.42
900.015	8419.84
900.33	8341.65
900.644	8299.16
900.959	8262.55
901.273	8293.96
901.588	8240.86
901.902	8222.78
902.216	8205.6
902.531	8173.29
902.845	8100.52
903.159	8128.54
903.473	8019.85
903.787	7996.8
904.101	7997.93
904.415	7994.54
904.729	7997.02
905.042	7836.35
905.356	7934.65
905.67	7861.88
905.984	7886.52
906.297	7793.64
906.611	7815.33
906.924	7786.41
907.237	7694.43
907.551	7740.3
907.864	7650.14
908.177	7656.69
908.491	7601.78
908.804	7564.26
909.117	7475.91
909.43	7492.18
909.743	7482.23
910.056	7417.15
910.368	7407.21
910.681	7316.81
910.994	7335.12
911.307	7276.81
911.619	7305.51
911.932	7232.75
912.244	7167.66
912.557	7202.24
912.869	7163.37
913.181	7125.41
913.494	7110.94
913.806	7018.52
914.118	7041.11
914.43	6987.1
914.742	7061
915.054	6910.95
915.366	6944.39
915.678	6927.44
915.99	6802.25
916.302	6837.73
916.613	6790.27
916.925	6781.01
917.236	6709.6
917.548	6654.91
917.859	6728.81
918.171	6677.73
918.482	6632.76
918.794	6594.57
919.105	6643.38
919.416	6577.85
919.727	6568.36
920.038	6543.95
920.349	6487.68
920.66	6510.51
920.971	6480.23
921.282	6392.77
921.593	6395.03
921.903	6337.63
922.214	6279.55
922.525	6332.88
922.835	6265.09
923.146	6264.86
923.456	6191.87
923.767	6220.12
924.077	6196.84
924.387	6150.29
924.697	6109.61
925.008	6140.35
925.318	6103.96
925.628	6082.72
925.938	6000.46
926.248	5986.68
926.558	5942.16
926.867	5988.71
927.177	5955.49
927.487	5911.43
927.796	5873.46
928.106	5867.59
928.416	5833.46
928.725	5848.38
929.034	5781.03
929.344	5770.64
929.653	5748.94
929.962	5732.67
930.271	5687.7
930.581	5657.65
930.89	5572.23
931.199	5576.97
931.508	5582.62
931.817	5597.76
932.125	5588.5
932.434	5566.35
932.743	5524.32
933.051	5436.64
933.36	5482.51
933.669	5405.68
933.977	5423.3
934.286	5402.06
934.594	5395.28
934.902	5377.43
935.21	5363.87
935.519	5328.62
935.827	5350.76
936.135	5270.99
936.443	5195.97
936.751	5245.23
937.059	5254.95
937.367	5202.74
937.674	5130.43
937.982	5127.27
938.29	5130.88
938.597	5091.79
938.905	5097.21
939.213	5029.19
939.52	5014.05
939.827	5016.53
940.135	4968.4
940.442	4973.82
940.749	4921.4
941.056	4949.64
941.363	4879.14
941.67	4908.74
941.977	4829.2
942.284	4873.94
942.591	4788.74
942.898	4774.51
943.205	4804.34
943.511	4765.47
943.818	4734.73
944.125	4762.98
944.431	4720.5
944.738	4725.24
945.044	4646.83
945.35	4633.49
945.657	4636.66
945.963	4602.53
946.269	4538.81
946.575	4624.91
946.881	4511.46
947.187	4496.77
947.493	4512.37
947.799	4467.17
948.105	4453.61
948.41	4446.15
948.716	4423.33
949.022	4433.73
949.327	4448.19
949.633	4338.13
949.938	4365.25
950.244	4318.93
950.549	4278.93
950.854	4308.53
951.16	4267.85
951.465	4236.44
951.77	4295.65
952.075	4249.78
952.38	4144.69
952.685	4142.89
952.99	4193.73
953.294	4129.33
953.599	4154.41
953.904	4051.59
954.209	4081.42
954.513	4118.48
954.818	4063.57
955.122	4066.28
955.426	4025.83
955.731	4018.59
956.035	3987.18
956.339	3966.84
956.643	3961.87
956.948	3944.47
957.252	3927.75
957.556	3955.55
957.86	3884.81
958.163	3874.42
958.467	3936.56
958.771	3849.56
959.075	3818.83
959.378	3834.64
959.682	3816.11
959.985	3762.78
960.289	3766.62
960.592	3728.21
960.896	3694.54
961.199	3753.52
961.502	3723.24
961.805	3709.22
962.108	3643.46
962.411	3626.51
962.714	3665.16
963.017	3647.31
963.32	3610.7
963.623	3587.65
963.926	3567.31
964.228	3615.44
964.531	3558.95
964.833	3544.03
965.136	3514.2
965.438	3470.81
965.741	3513.75
966.043	3443.02
966.345	3428.78
966.648	3446.41
966.95	3435.33
967.252	3391.94
967.554	3368.22
967.856	3375
968.158	3370.48
968.46	3380.65
968.761	3342.23
969.063	3342
969.365	3352.17
969.666	3306.07
969.968	3285.96
970.269	3296.58
970.571	3268.33
970.872	3248.67
971.174	3195.79
971.475	3229.69
971.776	3214.1
972.077	3149.92
972.378	3178.84
972.679	3142.91
972.98	3127.77
973.281	3156.24
973.582	3133.65
973.883	3095
974.183	3120.09
974.484	3098.62
974.785	3092.74
975.085	3057.94
975.386	3075.12
975.686	3029.69
975.986	3035.12
976.287	3014.78
976.587	2959.19
976.887	2982.24
977.187	2932.3
977.487	2971.16
977.787	2904.5
978.087	2893.43
978.387	2932.3
978.687	2899.3
978.987	2873.54
979.286	2866.31
979.586	2854.33
979.885	2818.63
980.185	2813.43
980.484	2826.54
980.784	2801
981.083	2815.24
981.382	2778.85
981.682	2737.5
981.981	2754.45
982.28	2737.5
982.579	2723.94
982.878	2715.35
983.177	2713.32
983.475	2700.21
983.774	2691.85
984.073	2674.22
984.372	2663.15
984.67	2652.3
984.969	2618.86
985.267	2628.12
985.566	2632.87
985.864	2622.93
986.162	2559.88
986.461	2572.53
986.759	2554.23
987.057	2544.96
987.355	2547
987.653	2530.72
987.951	2519.2
988.249	2514.68
988.547	2499.76
988.844	2461.35
989.142	2483.27
989.44	2446.43
989.737	2422.93
990.035	2450.95
990.332	2455.25
990.63	2446.43
990.927	2378.41
991.224	2406.66
991.521	2388.13
991.819	2396.72
992.116	2359.43
992.413	2382.93
992.71	2354.46
993.006	2323.05
993.303	2322.82
993.6	2299.32
993.897	2276.49
994.193	2269.49
994.49	2281.24
994.787	2280.11
995.083	2234.46
995.379	2218.87
995.676	2215.03
995.972	2264.06
996.268	2213.9
996.565	2176.61
996.861	2168.93
997.157	2167.34
997.453	2178.87
997.749	2159.89
998.044	2142.03
998.34	2144.07
998.636	2138.19
998.932	2100.23
999.227	2070.85
999.523	2069.95
999.818	2074.69
1000.114	2073.79
1000.409	2059.32
1000.704	2084.63
1001	2039.89
1001.295	2009.61
1001.59	2020.23
1001.885	2012.77
1002.18	1987.01
1002.475	1983.17
1002.77	1962.6
1003.065	1933.68
1003.359	1960.57
1003.654	1926.9
1003.949	1961.25
1004.243	1934.13
1004.538	1927.8
1004.832	1889.84
1005.127	1898.42
1005.421	1891.42
1005.715	1853.68
1006.009	1852.32
1006.304	1838.54
1006.598	1844.87
1006.892	1808.71
1007.186	1807.13
1007.48	1806.22
1007.773	1796.73
1008.067	1773
1008.361	1755.6
1008.655	1771.42
1008.948	1735.72
1009.242	1744.3
1009.535	1768.26
1009.829	1716.28
1010.122	1711.76
1010.415	1699.11
1010.708	1678.54
1011.001	1667.92
1011.295	1682.39
1011.588	1691.42
1011.881	1674.48
1012.173	1640.35
1012.466	1652.1
1012.759	1645.32
1013.052	1621.6
1013.344	1614.82
1013.637	1585.44
1013.93	1560.13
1014.222	1578.66
1014.514	1569.62
1014.807	1570.3
1015.099	1563.97
1015.391	1545.67
1015.683	1550.41
1015.976	1533.24
1016.268	1511.99
1016.56	1521.49
1016.851	1493.46
1017.143	1468.83
1017.435	1481.26
1017.727	1462.28
1018.018	1460.7
1018.31	1453.92
1018.602	1448.72
1018.893	1451.43
1019.185	1408.27
1019.476	1390.64
1019.767	1404.2
1020.058	1391.09
1020.35	1414.82
1020.641	1372.79
1020.932	1361.94
1021.223	1347.25
1021.514	1346.35
1021.804	1326.24
1022.095	1311.77
1022.386	1337.54
1022.677	1329.17
1022.967	1292.79
1023.258	1282.85
1023.548	1255.05
1023.839	1282.85
1024.129	1292.79
1024.419	1269.29
1024.709	1254.6
1025	1249.4
1025.29	1260.48
1025.58	1205.56
1025.87	1232.91
1026.16	1218.44
1026.449	1205.11
1026.739	1223.87
1027.029	1216.18
1027.319	1206.24
1027.608	1169.63
1027.898	1168.27
1028.187	1167.14
1028.477	1138.9
1028.766	1185.9
1029.055	1153.36
1029.344	1145.9
1029.634	1141.38
1029.923	1146.35
1030.212	1128.28
1030.501	1086.24
1030.79	1116.3
1031.078	1086.47
1031.367	1083.08
1031.656	1090.54
1031.945	1079.69
1032.233	1072.46
1032.522	1057.77
1032.81	1055.96
1033.099	1040.59
1033.387	1079.01
1033.675	1039.92
1033.963	1051.89
1034.251	1041.05
1034.54	1004.21
1034.828	1027.04
1035.116	1016.19
1035.403	1013.7
1035.691	1011.44
1035.979	1005.11
1036.267	990.2
1036.554	980.03
1036.842	952.91
1037.129	953.14
1037.417	934.16
1037.704	957.43
1037.992	935.74
1038.279	935.29
1038.566	900.26
1038.853	900.26
1039.14	900.26
