Data from hue_180_FLMS001491_00045.txt Node
Date: Tue Feb 07 16:47:02 GMT 2017
User: dcchb
Spectrometer: FLMS00149
Trigger mode: 0
Integration Time (sec): 2.000000E-2
Scans to average: 10
Electric dark correction enabled: true
Nonlinearity correction enabled: false
Boxcar width: 0
XAxis mode: Wavelengths
Number of Pixels in Spectrum: 2048
>>>>>Begin Spectral Data<<<<<
341.393	-9.29
341.776	-9.29
342.16	-9.29
342.543	-61.5
342.927	-85.45
343.31	-73.7
343.693	-82.06
344.077	-67.6
344.46	-40.48
344.843	-58.56
345.226	-45.68
345.61	-27.15
345.993	-21.72
346.376	15.11
346.759	6.3
347.142	31.38
347.525	45.17
347.908	58.95
348.291	69.12
348.674	75.45
349.057	115.45
349.44	115.9
349.823	154.77
350.206	148.89
350.588	194.54
350.971	200.42
351.354	222.11
351.737	209.23
352.119	258.72
352.502	237.93
352.884	276.8
353.267	265.73
353.65	275.9
354.032	281.77
354.414	321.09
354.797	293.52
355.179	297.82
355.562	333.75
355.944	337.82
356.326	326.97
356.709	326.97
357.091	333.52
357.473	323.13
357.855	329.68
358.238	326.97
358.62	342.11
359.002	336.69
359.384	348.44
359.766	345.73
360.148	335.1
360.53	336.69
360.912	334.43
361.294	324.71
361.676	338.72
362.057	320.87
362.439	314.99
362.821	319.74
363.203	289.68
363.584	311.6
363.966	307.76
364.348	317.25
364.729	313.86
365.111	322.22
365.493	298.49
365.874	286.29
366.256	300.08
366.637	293.52
367.019	310.92
367.4	312.96
367.781	319.74
368.163	300.53
368.544	313.86
368.925	294.65
369.306	290.59
369.688	300.53
370.069	304.37
370.45	293.75
370.831	300.75
371.212	317.25
371.593	308.66
371.974	312.96
372.355	321.55
372.736	315.9
373.117	315.9
373.498	329.91
373.879	315.67
374.26	299.62
374.641	296.01
375.021	300.53
375.402	312.51
375.783	301.21
376.163	309.57
376.544	338.04
376.925	316.35
377.305	325.16
377.686	317.7
378.066	297.59
378.447	331.04
378.827	321.32
379.208	322.45
379.588	324.71
379.968	310.92
380.349	316.8
380.729	323.81
381.109	334.88
381.489	305.27
381.87	307.99
382.25	321.09
382.63	339.4
383.01	345.73
383.39	336.91
383.77	328.32
384.15	325.16
384.53	353.41
384.91	339.17
385.29	336.46
385.67	339.62
386.049	353.86
386.429	331.49
386.809	333.97
387.189	356.12
387.568	343.92
387.948	347.08
388.328	352.5
388.707	347.76
389.087	339.85
389.466	363.35
389.846	350.92
390.225	373.75
390.605	356.8
390.984	357.25
391.363	367.19
391.743	348.44
392.122	381.66
392.501	372.62
392.881	386.18
393.26	372.84
393.639	356.12
394.018	367.65
394.397	396.57
394.776	372.84
395.155	379.4
395.534	393.63
395.913	360.41
396.292	393.18
396.671	397.7
397.05	388.44
397.429	378.72
397.808	388.66
398.186	385.95
398.565	376.91
398.944	388.44
399.323	375.1
399.701	381.66
400.08	400.19
400.458	397.7
400.837	386.85
401.215	404.71
401.594	388.89
401.972	381.66
402.351	417.14
402.729	409.68
403.107	424.82
403.486	432.05
403.864	408.32
404.242	427.76
404.62	426.4
404.999	446.97
405.377	431.6
405.755	442.9
406.133	439.28
406.511	424.14
406.889	468.21
407.267	465.27
407.645	466.85
408.023	473.86
408.401	449.23
408.779	464.59
409.156	474.76
409.534	485.38
409.912	494.65
410.29	496
410.667	508.66
411.045	500.3
411.422	521.31
411.8	521.09
412.178	518.38
412.555	547.98
412.933	539.84
413.31	563.8
413.687	557.92
414.065	570.58
414.442	586.17
414.819	599.5
415.197	597.92
415.574	587.75
415.951	610.35
416.328	594.53
416.705	626.62
417.082	593.4
417.46	603.35
417.837	635.44
418.214	626.62
418.591	657.13
418.967	646.96
419.344	674.98
419.721	655.32
420.098	652.84
420.475	688.32
420.852	673.85
421.228	696.68
421.605	681.76
421.982	692.83
422.358	720.4
422.735	731.93
423.111	759.27
423.488	756.79
423.864	774.41
424.241	780.97
424.617	798.82
424.994	797.24
425.37	817.35
425.746	816
426.123	824.58
426.499	847.18
426.875	832.49
427.251	863.9
427.627	847.86
428.003	874.98
428.379	909.78
428.756	880.17
429.132	897.58
429.507	920.63
429.883	939.83
430.259	947.74
430.635	974.64
431.011	942.32
431.387	982.54
431.763	979.16
432.138	1020.51
432.514	984.35
432.89	1026.84
433.265	1027.52
433.641	1055.99
434.016	1071.58
434.392	1077.68
434.767	1133.95
435.143	1140.05
435.518	1131.69
435.894	1129.21
436.269	1152.48
436.644	1215.08
437.02	1196.55
437.395	1229.77
437.77	1255.53
438.145	1262.76
438.52	1282.2
438.895	1321.29
439.271	1318.58
439.646	1358.58
440.021	1327.85
440.395	1344.12
440.77	1357.22
441.145	1388.18
441.52	1407.17
441.895	1421.63
442.27	1436.32
442.645	1444.91
443.019	1479.93
443.394	1464.11
443.769	1500.72
444.143	1497.11
444.518	1530.1
444.892	1521.06
445.267	1564.68
445.641	1555.64
446.016	1560.38
446.39	1546.82
446.764	1565.13
447.139	1597.9
447.513	1628.18
447.887	1646.03
448.262	1672.92
448.636	1630.89
449.01	1668.18
449.384	1693.26
449.758	1714.95
450.132	1730.77
450.506	1718.12
450.88	1742.07
451.254	1734.16
451.628	1749.76
452.002	1797.21
452.376	1803.77
452.75	1839.02
453.123	1841.28
453.497	1860.94
453.871	1859.58
454.244	1913.59
454.618	1944.1
454.992	1927.15
455.365	1975.06
455.739	1990.43
456.112	2044.66
456.486	2069.52
456.859	2067.26
457.232	2097.09
457.606	2108.84
457.979	2130.99
458.352	2213.92
458.725	2219.12
459.099	2203.76
459.472	2239.69
459.845	2298.67
460.218	2313.13
460.591	2317.65
460.964	2313.81
461.337	2419.57
461.71	2431.32
462.083	2517.19
462.456	2474.03
462.829	2488.95
463.201	2507.7
463.574	2568.49
463.947	2617.98
464.32	2674.7
464.692	2702.73
465.065	2697.3
465.438	2734.82
465.81	2789.5
466.183	2823.4
466.555	2858.88
466.928	2891.2
467.3	2874.47
467.672	2976.62
468.045	3063.39
468.417	3003.73
468.789	3101.13
469.161	3123.73
469.534	3130.96
469.906	3234.46
470.278	3229.72
470.65	3282.82
471.022	3389.94
471.394	3438.07
471.766	3504.51
472.138	3519.2
472.51	3610.5
472.882	3706.99
473.253	3703.6
473.625	3758.97
473.997	3904.95
474.369	3879.64
474.74	3963.48
475.112	4016.14
475.484	4129.13
475.855	4140.65
476.227	4195.57
476.598	4298.16
476.97	4356.69
477.341	4509.01
477.713	4589.46
478.084	4606.86
478.455	4746.74
478.827	4787.64
479.198	4956.23
479.569	4964.81
479.94	5083.91
480.311	5174.52
480.682	5266.95
481.053	5387.85
481.424	5446.16
481.795	5549.88
482.166	5637.79
482.537	5780.38
482.908	5916.43
483.279	5934.73
483.65	6099.7
484.021	6189.19
484.391	6332.91
484.762	6371.33
485.133	6413.36
485.503	6545.11
485.874	6700.59
486.244	6787.36
486.615	6907.36
486.985	7005.66
487.356	7115.72
487.726	7193.68
488.097	7373.56
488.467	7330.4
488.837	7569.26
489.207	7725.64
489.578	7801.35
489.948	7871.4
490.318	8032.3
490.688	8015.81
491.058	8143.03
491.428	8346.42
491.798	8388.68
492.168	8563.59
492.538	8549.35
492.908	8670.48
493.278	8762.23
493.648	8777.37
494.017	8970.36
494.387	9006.06
494.757	9102.78
495.126	9222.33
495.496	9192.27
495.866	9261.42
496.235	9335.32
496.605	9409.89
496.974	9444.7
497.344	9602.88
497.713	9619.61
498.082	9693.95
498.452	9839.49
498.821	9843.1
499.19	9852.37
499.559	9972.59
499.928	10010.56
500.298	10109.76
500.667	10065.24
501.036	10091.68
501.405	10196.09
501.774	10160.38
502.143	10340.72
502.512	10290.55
502.88	10419.13
503.249	10441.05
503.618	10404.67
503.987	10502.29
504.356	10543.42
504.724	10603.31
505.093	10681.05
505.462	10605.79
505.83	10682.63
506.199	10791.78
506.567	10955.39
506.936	10855.96
507.304	10879.01
507.672	10953.58
508.041	10992
508.409	11080.13
508.777	11063.18
509.145	11120.36
509.514	11124.2
509.882	11138.44
510.25	11267.47
510.618	11233.57
510.986	11206.68
511.354	11304.08
511.722	11305.66
512.09	11438.77
512.458	11352.22
512.826	11451.65
513.193	11518.54
513.561	11417.07
513.929	11463.4
514.297	11538.2
514.664	11601.25
515.032	11606.22
515.4	11598.76
515.767	11675.6
516.135	11644.86
516.502	11567.58
516.869	11714.69
517.237	11721.25
517.604	11700.23
517.972	11804.63
518.339	11793.79
518.706	11732.54
519.073	11759.66
519.44	11803.5
519.808	11835.37
520.175	11735.03
520.542	11860.68
520.909	11913.33
521.276	11926.21
521.643	11920.34
522.009	11971.18
522.376	12013.89
522.743	12031.97
523.11	12113.55
523.477	12113.1
523.843	12130.05
524.21	12148.58
524.577	12142.93
524.943	12096.15
525.31	12141.12
525.676	12170.27
526.043	12179.09
526.409	12224.96
526.776	12312.19
527.142	12265.19
527.508	12256.15
527.874	12324.39
528.241	12134.57
528.607	12276.49
528.973	12320.33
529.339	12147
529.705	12246.88
530.071	12309.7
530.437	12230.61
530.803	12222.93
531.169	12278.07
531.535	12247.11
531.901	12120.33
532.267	12074
532.632	12161.01
532.998	12153.78
533.364	12085.3
533.73	12086.66
534.095	12108.81
534.461	12022.93
534.826	12068.81
535.192	12085.3
535.557	12045.76
535.923	11925.08
536.288	11858.64
536.653	11990.16
537.019	11863.61
537.384	11774.35
537.749	11763.5
538.114	11776.61
538.479	11624.52
538.845	11682.83
539.21	11660.23
539.575	11583.62
539.94	11566.67
540.305	11579.1
540.67	11473.34
541.034	11453.23
541.399	11393.12
541.764	11391.08
542.129	11363.51
542.494	11311.76
542.858	11247.36
543.223	11245.78
543.587	11264.53
543.952	11065.9
544.316	11125.33
544.681	11014.82
545.045	11013.02
545.41	10991.55
545.774	10965.79
546.138	10957.2
546.503	10847.37
546.867	10788.61
547.231	10869.06
547.595	10741.16
547.959	10725.11
548.324	10677.43
548.688	10486.02
549.052	10593.59
549.416	10547.27
549.779	10509.07
550.143	10442.41
550.507	10440.83
550.871	10458
551.235	10348.4
551.599	10323.99
551.962	10331.23
552.326	10198.8
552.689	10249.87
553.053	10097.79
553.417	10133.49
553.78	10169.87
554.143	10140.95
554.507	10097.33
554.87	10063.44
555.234	10121.29
555.597	9967.17
555.96	9955.64
556.323	10017.34
556.686	9966.04
557.05	9909.32
557.413	9850.56
557.776	9806.72
558.139	9828.64
558.502	9802.43
558.865	9841.52
559.228	9849.66
559.59	9838.13
559.953	9725.59
560.316	9771.92
560.679	9735.76
561.041	9701.64
561.404	9752.71
561.767	9785.03
562.129	9740.96
562.492	9725.82
562.854	9667.74
563.217	9673.62
563.579	9664.35
563.941	9643.33
564.304	9687.85
564.666	9643.79
565.028	9712.03
565.39	9628.19
565.753	9701.19
566.115	9702.54
566.477	9616.67
566.839	9634.97
567.201	9649.21
567.563	9637.68
567.925	9631.13
568.287	9652.6
568.648	9651.02
569.01	9691.92
569.372	9641.07
569.734	9625.93
570.095	9643.11
570.457	9648.76
570.819	9615.31
571.18	9609.66
571.542	9713.61
571.903	9659.38
572.265	9668.64
572.626	9631.13
572.987	9688.76
573.349	9691.92
573.71	9634.97
574.071	9711.81
574.432	9669.55
574.794	9715.65
575.155	9669.77
575.516	9719.26
575.877	9606.72
576.238	9651.47
576.599	9719.72
576.96	9718.36
577.32	9676.78
577.681	9652.83
578.042	9609.66
578.403	9727.17
578.763	9754.07
579.124	9644.01
579.485	9734.63
579.845	9716.1
580.206	9639.72
580.566	9691.24
580.927	9635.42
581.287	9652.83
581.648	9573.28
582.008	9635.88
582.368	9623.9
582.728	9650.57
583.089	9640.4
583.449	9616.89
583.809	9573.51
584.169	9593.62
584.529	9460.51
584.889	9629.1
585.249	9517.91
585.609	9556.33
585.969	9546.16
586.329	9473.85
586.688	9554.97
587.048	9490.8
587.408	9472.49
587.768	9448.76
588.127	9445.37
588.487	9387.3
588.846	9506.84
589.206	9475.88
589.565	9460.06
589.925	9436.11
590.284	9405.83
590.643	9442.89
591.003	9432.94
591.362	9416.45
591.721	9401.08
592.08	9431.36
592.44	9386.39
592.799	9356.56
593.158	9387.97
593.517	9335.32
593.876	9300.29
594.235	9307.52
594.593	9382.78
594.952	9381.65
595.311	9270.69
595.67	9357.92
596.029	9376.22
596.387	9400.18
596.746	9388.43
597.104	9323.34
597.463	9283.34
597.822	9336.9
598.18	9332.61
598.538	9259.84
598.897	9340.74
599.255	9227.98
599.613	9317.47
599.972	9258.26
600.33	9250.58
600.688	9259.16
601.046	9309.56
601.404	9326.73
601.762	9302.1
602.12	9294.19
602.478	9277.47
602.836	9241.76
603.194	9218.94
603.552	9226.85
603.91	9205.15
604.268	9299.39
604.625	9213.06
604.983	9259.84
605.341	9223.91
605.698	9211.93
606.056	9261.42
606.413	9247.19
606.771	9262.33
607.128	9252.38
607.485	9196.34
607.843	9218.49
608.2	9224.59
608.557	9273.85
608.914	9244.25
609.272	9291.7
609.629	9203.8
609.986	9331.25
610.343	9292.83
610.7	9292.61
611.057	9299.39
611.414	9213.29
611.771	9333.06
612.127	9319.5
612.484	9318.82
612.841	9335.32
613.198	9275.66
613.554	9307.98
613.911	9372.61
614.267	9387.97
614.624	9354.08
614.98	9331.7
615.337	9378.48
615.693	9394.98
616.05	9379.84
616.406	9412.83
616.762	9337.13
617.118	9312.04
617.475	9343.45
617.831	9340.97
618.187	9460.74
618.543	9421.87
618.899	9396.56
619.255	9402.21
619.611	9382.55
619.967	9458.03
620.323	9536.22
620.678	9506.61
621.034	9427.97
621.39	9415.32
621.746	9401.53
622.101	9477.46
622.457	9402.66
622.812	9458.48
623.168	9409.44
623.523	9420.97
623.879	9457.12
624.234	9390.46
624.589	9404.92
624.945	9401.76
625.3	9424.58
625.655	9437.24
626.01	9447.41
626.365	9509.55
626.72	9381.42
627.075	9373.96
627.43	9473.62
627.785	9380.52
628.14	9387.52
628.495	9383.45
628.85	9427.29
629.205	9401.08
629.559	9426.39
629.914	9382.55
630.269	9428.88
630.623	9322.66
630.978	9339.61
631.332	9381.19
631.687	9361.08
632.041	9281.08
632.396	9352.72
632.75	9284.93
633.104	9302.1
633.459	9195.89
633.813	9292.38
634.167	9218.71
634.521	9255.55
634.875	9265.94
635.229	9214.87
635.583	9179.84
635.937	9201.09
636.291	9238.37
636.645	9208.09
636.999	9099.85
637.352	9149.11
637.706	9053.29
638.06	9114.99
638.413	9066.17
638.767	9100.3
639.121	9110.47
639.474	9017.14
639.828	9077.47
640.181	9057.81
640.534	9081.09
640.888	9103.24
641.241	8984.14
641.594	9055.78
641.947	9085.16
642.301	9082.67
642.654	8990.24
643.007	9059.85
643.36	9068.89
643.713	8966.29
644.066	9026.63
644.419	8977.59
644.771	8892.39
645.124	8846.07
645.477	8884.48
645.83	8832.51
646.182	8746.63
646.535	8676.81
646.888	8728.78
647.24	8686.97
647.593	8741.21
647.945	8654.89
648.298	8653.08
648.65	8660.99
649.002	8631.16
649.355	8675
649.707	8652.85
650.059	8749.12
650.411	8813.3
650.763	8842.68
651.115	8906.63
651.467	8888.33
651.819	8903.47
652.171	8959.74
652.523	8845.61
652.875	8855.56
653.227	8844.94
653.578	8945.5
653.93	8913.64
654.282	8848.78
654.633	8893.98
654.985	8856.24
655.337	8848.78
655.688	8943.69
656.039	8893.3
656.391	8864.6
656.742	8856.01
657.094	8898.04
657.445	8962.45
657.796	8886.52
658.147	8901.43
658.498	8841.32
658.849	8876.35
659.2	8922.67
659.551	8901.66
659.902	8947.76
660.253	8915.67
660.604	8901.88
660.955	8867.99
661.306	8889.68
661.656	8919.74
662.007	8987.08
662.358	8929.45
662.708	8976.01
663.059	8912.28
663.409	8916.35
663.76	8930.81
664.11	8939.85
664.461	8954.76
664.811	8986.63
665.161	9007.42
665.511	8991.15
665.862	8967.19
666.212	9016.68
666.562	8993.41
666.912	9052.84
667.262	8976.68
667.612	8917.25
667.962	9005.16
668.312	8925.61
668.662	8978.49
669.011	9010.58
669.361	8991.6
669.711	8979.85
670.06	8964.71
670.41	8889.46
670.76	8953.18
671.109	8922.67
671.459	8857.14
671.808	8905.95
672.157	8987.31
672.507	8839.29
672.856	8885.39
673.205	8872.73
673.554	8931.26
673.904	8850.13
674.253	8960.19
674.602	8880.42
674.951	8683.81
675.3	8757.48
675.649	8870.92
675.998	8833.19
676.346	8888.55
676.695	8899.17
677.044	8767.65
677.393	8797.48
677.741	8823.92
678.09	8811.94
678.438	8750.48
678.787	8759.52
679.135	8753.87
679.484	8716.8
679.832	8792.51
680.181	8687.43
680.529	8743.02
680.877	8679.29
681.225	8602.46
681.573	8709.35
681.922	8662.12
682.27	8606.98
682.618	8555.68
682.966	8598.39
683.314	8557.49
683.661	8586.64
684.009	8535.79
684.357	8565.4
684.705	8519.52
685.053	8484.49
685.4	8431.16
685.748	8450.37
686.095	8399.75
686.443	8417.6
686.79	8370.6
687.138	8410.37
687.485	8342.35
687.832	8407.89
688.18	8349.58
688.527	8355.68
688.874	8279.98
689.221	8301
689.568	8220.77
689.915	8204.5
690.262	8138.97
690.609	8157.95
690.956	8148.23
691.303	8089.48
691.65	8085.41
691.997	8089.02
692.344	8019.42
692.69	8005.41
693.037	8001.12
693.383	7905.75
693.73	7906.88
694.077	7875.92
694.423	7863.95
694.769	7819.2
695.116	7779.88
695.462	7745.08
695.808	7751.41
696.155	7779.88
696.501	7677.96
696.847	7671.86
697.193	7615.82
697.539	7610.17
697.885	7578.76
698.231	7497.63
698.577	7485.2
698.923	7540.34
699.269	7501.02
699.614	7436.16
699.96	7346.67
700.306	7428.03
700.651	7421.02
700.997	7329.72
701.342	7343.06
701.688	7273.45
702.033	7253.79
702.379	7290.63
702.724	7238.43
703.069	7248.14
703.415	7135.6
703.76	7159.11
704.105	7106.45
704.45	7135.15
704.795	7034.82
705.14	7042.95
705.485	7042.5
705.83	7001.14
706.175	6946
706.52	6934.93
706.865	6932.44
707.209	6931.99
707.554	6930.19
707.899	6878.21
708.243	6802.28
708.588	6839.79
708.932	6769.96
709.277	6799.57
709.621	6754.14
709.966	6731.55
710.31	6745.33
710.654	6705.11
710.998	6718.89
711.342	6677.99
711.687	6679.34
712.031	6674.6
712.375	6608.16
712.719	6596.18
713.063	6593.24
713.407	6656.29
713.75	6564.54
714.094	6581.95
714.438	6538.56
714.782	6577.43
715.125	6483.19
715.469	6574.26
715.812	6475.28
716.156	6459.01
716.499	6420.37
716.843	6507.82
717.186	6456.98
717.53	6482.06
717.873	6457.2
718.216	6439.35
718.559	6394.83
718.902	6393.48
719.246	6402.06
719.589	6411.1
719.932	6405
720.275	6364.55
720.617	6299.02
720.96	6330.88
721.303	6384.89
721.646	6358.67
721.989	6278.45
722.331	6347.15
722.674	6333.14
723.016	6279.13
723.359	6312.57
723.701	6320.94
724.044	6313.25
724.386	6262.41
724.729	6283.87
725.071	6301.05
725.413	6251.56
725.755	6264.67
726.097	6224.44
726.439	6209.98
726.782	6196.64
727.124	6267.83
727.465	6189.87
727.807	6238.9
728.149	6225.8
728.491	6225.34
728.833	6167.04
729.175	6234.84
729.516	6213.14
729.858	6184.44
730.199	6268.96
730.541	6198.9
730.882	6182.18
731.224	6266.02
731.565	6234.16
731.906	6197.77
732.248	6254.27
732.589	6185.12
732.93	6203.2
733.271	6188.51
733.612	6193.48
733.953	6199.58
734.294	6209.75
734.635	6215.85
734.976	6252.24
735.317	6234.61
735.658	6255.17
735.999	6247.72
736.339	6197.32
736.68	6262.86
737.021	6191
737.361	6281.61
737.702	6275.74
738.042	6198.9
738.383	6245.23
738.723	6246.81
739.063	6239.36
739.404	6305.12
739.744	6312.57
740.084	6277.09
740.424	6318.9
740.764	6347.15
741.104	6322.74
741.444	6349.18
741.784	6375.4
742.124	6362.52
742.464	6369.3
742.804	6435.51
743.143	6440.93
743.483	6437.77
743.823	6461.04
744.162	6449.07
744.502	6574.94
744.841	6523.87
745.181	6579.46
745.52	6556.41
745.86	6638.22
746.199	6639.35
746.538	6680.25
746.877	6720.47
747.216	6826.68
747.556	6852.45
747.895	6885.89
748.234	6936.96
748.573	7020.35
748.911	7034.36
749.25	7053.57
749.589	7130.63
749.928	7174.7
750.267	7296.05
750.605	7331.53
750.944	7398.42
751.283	7446.33
751.621	7582.6
751.96	7617.17
752.298	7708.24
752.636	7839.99
752.975	7849.26
753.313	7993.43
753.651	8173.99
753.989	8201.79
754.327	8331.05
754.666	8410.82
755.004	8544.38
755.342	8653.3
755.679	8731.95
756.017	8912.96
756.355	9032.28
756.693	9122.9
757.031	9319.5
757.368	9368.09
757.706	9565.14
758.044	9750.9
758.381	9944.57
758.719	9991.8
759.056	10193.38
759.394	10226.14
759.731	10372.81
760.068	10557.66
760.405	10752.46
760.743	10872.45
761.08	11068.61
761.417	11183.86
761.754	11368.26
762.091	11587.46
762.428	11758.76
762.765	11836.95
763.102	12038.3
763.438	12222.7
763.775	12310.38
764.112	12589.02
764.449	12842.35
764.785	12874.21
765.122	13028.56
765.458	13163.69
765.795	13272.17
766.131	13488.43
766.467	13658.82
766.804	13772.72
767.14	13961.19
767.476	14093.16
767.812	14178.81
768.148	14423.32
768.485	14441.85
768.821	14512.81
769.157	14674.39
769.492	14734.95
769.828	14944.66
770.164	15054.49
770.5	15165.9
770.836	15145.56
771.171	15326.35
771.507	15521.6
771.842	15478.43
772.178	15692.89
772.513	15677.98
772.849	15778.09
773.184	15920.23
773.519	16089.72
773.855	16063.5
774.19	16120.9
774.525	16171.75
774.86	16324.97
775.195	16410.61
775.53	16396.6
775.865	16326.1
776.2	16424.85
776.535	16366.77
776.87	16564.73
777.205	16599.54
777.539	16612.87
777.874	16788.91
778.209	16740.1
778.543	16659.65
778.878	16710.04
779.212	16874.78
779.547	16845.63
779.881	16903.93
780.215	16887.66
780.55	17003.82
780.884	16841.56
781.218	16985.97
781.552	16947.77
781.886	17032.97
782.22	16915.01
782.554	16982.58
782.888	16873.43
783.222	16903.26
783.556	16916.36
783.889	16958.62
784.223	16927.44
784.557	16895.57
784.89	16964.27
785.224	16858.29
785.557	16820.32
785.891	16883.82
786.224	16811.06
786.558	16803.6
786.891	16736.03
787.224	16754.33
787.557	16754.11
787.891	16806.31
788.224	16733.54
788.557	16806.08
788.89	16757.5
789.223	16840.43
789.556	16736.25
789.888	16670.72
790.221	16660.78
790.554	16625.52
790.887	16585.98
791.219	16620.33
791.552	16529.48
791.884	16453.78
792.217	16643.38
792.549	16523.38
792.882	16428.24
793.214	16402.25
793.546	16470.73
793.879	16375.59
794.211	16314.12
794.543	16308.02
794.875	16289.03
795.207	16364.51
795.539	16228.7
795.871	16256.72
796.203	16145.99
796.535	16125.88
796.867	16089.72
797.198	16012.21
797.53	16061.7
797.862	15987.8
798.193	15970.85
798.525	15957.74
798.856	15892.21
799.188	15680.69
799.519	15725.66
799.85	15701.48
800.182	15682.05
800.513	15748.48
800.844	15663.97
801.175	15636.85
801.506	15639.33
801.837	15517.3
802.168	15512.56
802.499	15456.06
802.83	15401.37
803.161	15477.3
803.491	15401.83
803.822	15414.48
804.153	15326.35
804.483	15275.95
804.814	15176.97
805.145	15178.56
805.475	15195.28
805.805	15119.57
806.136	15181.72
806.466	15087.94
806.796	15159.57
807.126	15068.05
807.457	15027.37
807.787	14998.22
808.117	14920.26
808.447	14869.19
808.777	14944.89
809.107	14854.04
809.436	14787.83
809.766	14847.72
810.096	14683.65
810.426	14687.5
810.755	14730.88
811.085	14726.82
811.414	14716.42
811.744	14535.41
812.073	14539.02
812.403	14538.35
812.732	14497.9
813.061	14495.41
813.39	14419.03
813.719	14493.83
814.049	14508.74
814.378	14440.5
814.707	14237.34
815.036	14342.19
815.365	14226.49
815.693	14168.19
816.022	14196.66
816.351	14132.26
816.68	14075.08
817.008	14111.69
817.337	13988.3
817.665	14004.12
817.994	14030.56
818.322	14018.36
818.651	13970.23
818.979	13923
819.307	14004.35
819.636	13915.99
819.964	13860.85
820.292	14002.09
820.62	13907.85
820.948	13901.08
821.276	13896.33
821.604	13799.61
821.932	13913.96
822.259	13903.11
822.587	13908.53
822.915	13803
823.243	13979.27
823.57	13804.58
823.898	13887.97
824.225	13831.02
824.553	13799.61
824.88	13877.57
825.207	13904.46
825.535	13870.12
825.862	13946.27
826.189	13868.53
826.516	13834.18
826.843	13962.09
827.17	13890.45
827.497	13911.02
827.824	13908.31
828.151	13920.51
828.478	13898.82
828.805	13961.41
829.131	13887.29
829.458	13880.74
829.785	13889.78
830.111	13844.35
830.438	13970.45
830.764	13826.5
831.09	13857.69
831.417	13814.75
831.743	13930.9
832.069	13906.05
832.395	13783.79
832.722	13862.21
833.048	13810.23
833.374	13828.53
833.7	13800.06
834.026	13805.26
834.351	13807.29
834.677	13777.24
835.003	13791.25
835.329	13701.53
835.654	13728.88
835.98	13710.57
836.306	13787.86
836.631	13600.07
836.956	13753.06
837.282	13625.38
837.607	13659.95
837.932	13686.39
838.258	13670.8
838.583	13668.09
838.908	13572.5
839.233	13628.54
839.558	13518.49
839.883	13568.88
840.208	13483.01
840.533	13462.22
840.858	13414.08
841.182	13483.91
841.507	13412.95
841.832	13359.85
842.156	13298.61
842.481	13394.87
842.805	13290.02
843.13	13286.63
843.454	13208.21
843.778	13226.29
844.103	13235.78
844.427	13120.3
844.751	13143.35
845.075	13086.41
845.399	13131.6
845.723	12963.25
846.047	12962.34
846.371	12887.54
846.695	12946.52
847.019	12827.66
847.343	12766.19
847.666	12712.63
847.99	12620.88
848.313	12633.31
848.637	12493.2
848.96	12542.92
849.284	12505.41
849.607	12411.4
849.931	12342.92
850.254	12210.05
850.577	12223.38
850.9	12166.88
851.223	12161.69
851.546	12155.81
851.869	12003.5
852.192	12099.77
852.515	11937.74
852.838	11914.91
853.161	11899.55
853.483	11798.08
853.806	11825.2
854.129	11800.34
854.451	11776.61
854.774	11672.21
855.096	11648.25
855.419	11566.22
855.741	11598.54
856.063	11574.13
856.385	11544.07
856.708	11404.42
857.03	11396.06
857.352	11406
857.674	11342.5
857.996	11455.72
858.318	11239.9
858.64	11301.14
858.961	11290.3
859.283	11204.2
859.605	11095.5
859.926	11251.65
860.248	11173.92
860.57	11055.05
860.891	11175.95
861.212	11044.88
861.534	10999.23
861.855	10978.44
862.176	10996.52
862.498	11011.89
862.819	10970.53
863.14	10870.65
863.461	10941.15
863.782	10876.75
864.103	10834.49
864.424	10858.22
864.745	10904.54
865.065	10801.5
865.386	10740.71
865.707	10749.29
866.027	10782.97
866.348	10744.1
866.668	10692.57
866.989	10694.15
867.309	10654.61
867.63	10656.64
867.95	10652.12
868.27	10572.12
868.59	10615.06
868.91	10549.3
869.23	10506.81
869.55	10488.74
869.87	10578
870.19	10516.53
870.51	10518.79
870.83	10521.05
871.15	10439.92
871.469	10472.69
871.789	10500.26
872.109	10448.96
872.428	10359.47
872.748	10359.7
873.067	10376.2
873.386	10328.06
873.706	10278.8
874.025	10257.56
874.344	10289.87
874.663	10313.6
874.982	10279.02
875.301	10270.66
875.62	10178.69
875.939	10225.01
876.258	10187.5
876.577	10179.37
876.896	10203.77
877.214	10155.41
877.533	10138.69
877.852	10071.12
878.17	10105.24
878.489	10112.25
878.807	10012.82
879.125	10026.83
879.444	10034.28
879.762	10114.96
880.08	9978.47
880.398	10004
880.716	9986.6
881.034	9904.57
881.352	9927.62
881.67	9896.66
881.988	9898.24
882.306	9844.46
882.624	9864.8
882.941	9727.85
883.259	9713.61
883.577	9740.05
883.894	9644.46
884.212	9732.6
884.529	9686.5
884.846	9651.02
885.164	9612.37
885.481	9588.65
885.798	9623.22
886.115	9629.78
886.432	9554.3
886.75	9512.49
887.067	9565.82
887.383	9518.82
887.7	9516.56
888.017	9422.32
888.334	9448.31
888.651	9423.9
888.967	9325.83
889.284	9365.6
889.6	9388.43
889.917	9213.74
890.233	9306.62
890.55	9253.06
890.866	9273.63
891.182	9178.94
891.498	9183.69
891.815	9118.6
892.131	9117.47
892.447	9152.05
892.763	9059.85
893.079	9032.28
893.395	8931.26
893.71	8962
894.026	8884.48
894.342	8904.82
894.657	8847.65
894.973	8815.79
895.289	8924.48
895.604	8877.03
895.92	8733.53
896.235	8688.56
896.55	8724.49
896.865	8660.99
897.181	8713.64
897.496	8661.66
897.811	8623.25
898.126	8569.92
898.441	8587.54
898.756	8564.72
899.071	8503.25
899.386	8462.57
899.7	8374.89
900.015	8341.67
900.33	8333.99
900.644	8276.59
900.959	8285.4
901.273	8303.71
901.588	8274.1
901.902	8135.8
902.216	8110.27
902.531	8162.47
902.845	8119.98
903.159	8083.38
903.473	8043.83
903.787	8023.94
904.101	7948.01
904.415	7991.63
904.729	7933.55
905.042	7877.28
905.356	7837.96
905.67	7815.59
905.984	7855.36
906.297	7755.02
906.611	7777.85
906.924	7702.59
907.237	7669.15
907.551	7689.49
907.864	7586.89
908.177	7593.9
908.491	7531.75
908.804	7553.22
909.117	7508.93
909.43	7460.57
909.743	7416.73
910.056	7425.09
910.368	7392.09
910.681	7309.38
910.994	7315.71
911.307	7317.97
911.619	7270.74
911.932	7251.08
912.244	7202.04
912.557	7199.78
912.869	7159.33
913.181	7057.64
913.494	7071.65
913.806	7065.1
914.118	7015.38
914.43	6960.92
914.742	6951.65
915.054	6932.44
915.366	6870.75
915.678	6928.83
915.99	6845.89
916.302	6756.18
916.613	6771.77
916.925	6711.43
917.236	6725.9
917.548	6668.05
917.859	6736.97
918.171	6670.53
918.482	6652.23
918.794	6618.55
919.105	6569.97
919.416	6533.59
919.727	6543.98
920.038	6427.6
920.349	6482.74
920.66	6443.42
920.971	6461.5
921.282	6384.44
921.593	6351.9
921.903	6268.06
922.214	6292.01
922.525	6283.42
922.835	6211.56
923.146	6204.33
923.456	6210.2
923.767	6204.78
924.077	6196.42
924.387	6140.6
924.697	6083.65
925.008	6113.03
925.318	6031.45
925.628	6059.02
925.938	6009.08
926.248	5962.07
926.558	5951
926.867	5976.31
927.177	5939.02
927.487	5884.34
927.796	5828.97
928.106	5814.28
928.416	5770.89
928.725	5814.96
929.034	5717.11
929.344	5756.43
929.653	5715.98
929.962	5717.34
930.271	5623.33
930.581	5626.49
930.89	5606.83
931.199	5579.94
931.508	5645.47
931.817	5566.61
932.125	5540.39
932.434	5605.47
932.743	5465.59
933.051	5407.06
933.36	5479.6
933.669	5383.11
933.977	5349.44
934.286	5419.72
934.594	5400.06
934.902	5324.58
935.21	5319.15
935.519	5296.1
935.827	5294.75
936.135	5232.83
936.443	5242.32
936.751	5229.89
937.059	5211.36
937.367	5121.64
937.674	5163.45
937.982	5142.44
938.29	5106.28
938.597	5132.04
938.905	4999.84
939.213	5082.55
939.52	5046.84
939.827	5033.51
940.135	4994.42
940.442	4931.59
940.749	4941.54
941.056	4925.27
941.363	4852.05
941.67	4869.9
941.977	4814.53
942.284	4840.97
942.591	4847.3
942.898	4760.52
943.205	4786.74
943.511	4749
943.818	4760.3
944.125	4729.34
944.431	4697.7
944.738	4693.41
945.044	4697.7
945.35	4631.04
945.657	4601.66
945.963	4558.72
946.269	4570.02
946.575	4578.16
946.881	4546.74
947.187	4543.13
947.493	4453.87
947.799	4489.35
948.105	4493.41
948.41	4408.22
948.716	4413.42
949.022	4446.18
949.327	4396.24
949.633	4352.63
949.938	4368.67
950.244	4313.3
950.549	4271.72
950.854	4283.25
951.16	4322.8
951.465	4235.34
951.77	4237.15
952.075	4190.82
952.38	4201.9
952.685	4182.69
952.99	4171.61
953.294	4161.67
953.599	4151.05
953.904	4072.41
954.209	4029.24
954.513	4081.67
954.818	4027.44
955.122	4037.83
955.426	4019.75
955.731	3958.96
956.035	4031.28
956.339	3976.14
956.643	3982.01
956.948	3980.66
957.252	3900.43
957.556	3927.55
957.86	3897.27
958.163	3897.04
958.467	3888.68
958.771	3871.51
959.075	3848.01
959.378	3831.96
959.682	3835.58
959.985	3797.84
960.289	3776.6
960.592	3737.05
960.896	3704.73
961.199	3717.16
961.502	3744.28
961.805	3694.79
962.108	3681.68
962.411	3682.81
962.714	3605.53
963.017	3624.96
963.32	3645.07
963.623	3571.4
963.926	3608.24
964.228	3518.3
964.531	3505.19
964.833	3535.47
965.136	3485.53
965.438	3485.08
965.741	3487.11
966.043	3503.83
966.345	3416.61
966.648	3440.79
966.95	3418.86
967.252	3419.09
967.554	3387.45
967.856	3381.35
968.158	3360.34
968.46	3374.8
968.761	3335.25
969.063	3331.86
969.365	3302.26
969.666	3312.2
969.968	3222.71
970.269	3253.9
970.571	3267.68
970.872	3257.51
971.174	3199.66
971.475	3204.86
971.776	3210.06
972.077	3163.5
972.378	3153.34
972.679	3171.64
972.98	3151.75
973.281	3121.47
973.582	3097.74
973.883	3054.13
974.183	3018.65
974.484	3063.39
974.785	3061.59
975.085	3044.86
975.386	3029.95
975.686	3050.29
975.986	2993.11
976.287	3003.73
976.587	3002.6
976.887	2937.75
977.187	2939.33
977.487	2949.95
977.787	2916.96
978.087	2892.1
978.387	2944.08
978.687	2862.27
978.987	2911.53
979.286	2855.49
979.586	2835.15
979.885	2811.88
980.185	2814.14
980.484	2790.41
980.784	2768.03
981.083	2820.69
981.382	2796.96
981.682	2745.21
981.981	2787.7
982.28	2736.62
982.579	2681.71
982.878	2736.17
983.177	2660.47
983.475	2694.36
983.774	2696.62
984.073	2674.48
984.372	2648.94
984.67	2630.64
984.969	2667.02
985.267	2620.92
985.566	2609.62
985.864	2606
986.162	2565.33
986.461	2568.72
986.759	2542.05
987.057	2530.07
987.355	2517.87
987.653	2512.67
987.951	2517.65
988.249	2504.09
988.547	2491.66
988.844	2476.52
989.142	2465.67
989.44	2465.9
989.737	2399.23
990.035	2419.34
990.332	2452.11
990.63	2402.17
990.927	2408.27
991.224	2393.58
991.521	2369.85
991.819	2361.49
992.116	2357.2
992.413	2349.74
992.71	2342.06
993.006	2330.08
993.303	2319.23
993.6	2321.27
993.897	2299.8
994.193	2285.56
994.49	2301.61
994.787	2280.82
995.083	2232.91
995.379	2221.83
995.676	2202.4
995.972	2220.93
996.268	2204.66
996.565	2164.21
996.861	2213.02
997.157	2181.84
997.453	2147.49
997.749	2133.02
998.044	2118.11
998.34	2122.63
998.636	2110.42
998.932	2101.39
999.227	2102.52
999.523	2088.96
999.818	2056.64
1000.114	2064.55
1000.409	2044.66
1000.704	2010.54
1001	2064.78
1001.295	2001.28
1001.59	1982.07
1001.885	2039.47
1002.18	1965.8
1002.475	1970.32
1002.77	1982.74
1003.065	1954.04
1003.359	1941.39
1003.654	1956.76
1003.949	1921.28
1004.243	1913.14
1004.538	1930.77
1004.832	1897.77
1005.127	1891.45
1005.421	1885.57
1005.715	1866.82
1006.009	1853.26
1006.304	1832.69
1006.598	1842.18
1006.892	1823.65
1007.186	1787.95
1007.48	1795.4
1007.773	1761.73
1008.067	1763.54
1008.361	1775.29
1008.655	1755.18
1008.948	1731.9
1009.242	1714.05
1009.535	1749.98
1009.829	1709.76
1010.122	1704.56
1010.415	1707.27
1010.708	1670.21
1011.001	1684.22
1011.295	1667.72
1011.588	1672.24
1011.881	1670.89
1012.173	1647.16
1012.466	1654.39
1012.759	1627.05
1013.052	1650.32
1013.344	1609.19
1013.637	1594.51
1013.93	1594.28
1014.222	1590.89
1014.514	1567.39
1014.807	1565.35
1015.099	1549.99
1015.391	1525.36
1015.683	1531
1015.976	1532.81
1016.268	1508.63
1016.56	1508.63
1016.851	1500.27
1017.143	1511.12
1017.435	1483.32
1017.727	1488.52
1018.018	1470.89
1018.31	1478.58
1018.602	1451.46
1018.893	1450.56
1019.185	1397
1019.476	1408.75
1019.767	1400.16
1020.058	1392.03
1020.35	1417.79
1020.641	1368.3
1020.932	1373.49
1021.223	1359.03
1021.514	1347.05
1021.804	1330.56
1022.095	1356.77
1022.386	1359.48
1022.677	1339.15
1022.967	1299.15
1023.258	1311.12
1023.548	1315.42
1023.839	1290.79
1024.129	1284.46
1024.419	1260.96
1024.709	1241.75
1025	1244.23
1025.29	1271.35
1025.58	1234.52
1025.87	1220.05
1026.16	1219.6
1026.449	1228.87
1026.739	1200.84
1027.029	1206.04
1027.319	1198.13
1027.608	1168.75
1027.898	1181.86
1028.187	1170.11
1028.477	1163.33
1028.766	1187.06
1029.055	1152.94
1029.344	1145.03
1029.634	1117.23
1029.923	1128.3
1030.212	1090.79
1030.501	1109.1
1030.79	1103.9
1031.078	1094.86
1031.367	1091.47
1031.656	1093.28
1031.945	1066.61
1032.233	1087.17
1032.522	1055.09
1032.81	1057.8
1033.099	1049.66
1033.387	1049.89
1033.675	1042.66
1033.963	1022.77
1034.251	1033.39
1034.54	1019.61
1034.828	1009.66
1035.116	995.43
1035.403	1020.06
1035.691	965.14
1035.979	989.1
1036.267	990.45
1036.554	978.48
1036.842	963.11
1037.129	973.51
1037.417	928.31
1037.704	954.97
1037.992	958.82
1038.279	939.83
1038.566	914.07
1038.853	914.07
1039.14	914.07
