Data from hue_70_FLMS001491_16.txt Node
Date: Mon Feb 06 15:20:11 GMT 2017
User: dcchb
Spectrometer: FLMS00149
Trigger mode: 0
Integration Time (sec): 2.000000E-2
Scans to average: 10
Electric dark correction enabled: true
Nonlinearity correction enabled: false
Boxcar width: 0
XAxis mode: Wavelengths
Number of Pixels in Spectrum: 2048
>>>>>Begin Spectral Data<<<<<
341.393	-6.09
341.776	-6.09
342.16	-6.09
342.543	-52.64
342.927	-60.55
343.31	-65.75
343.693	-62.58
344.077	-68.68
344.46	-68.23
344.843	-47.89
345.226	-21.23
345.61	-17.61
345.993	-23.94
346.376	-21.45
346.759	2.73
347.142	26.45
347.525	46.11
347.908	48.15
348.291	87.92
348.674	93.8
349.057	92.22
349.44	120.69
349.823	138.99
350.206	163.63
350.588	205.88
350.971	208.37
351.354	237.97
351.737	247.24
352.119	258.99
352.502	259.89
352.884	280.01
353.267	277.75
353.65	288.37
354.032	311.42
354.414	310.51
354.797	280.46
355.179	305.54
355.562	304.86
355.944	337.86
356.326	350.06
356.709	344.41
357.091	332.43
357.473	349.61
357.855	349.61
358.238	357.07
358.62	362.94
359.002	348.71
359.384	348.25
359.766	332.43
360.148	329.27
360.53	348.48
360.912	341.93
361.294	345.54
361.676	323.85
362.057	330.85
362.439	313
362.821	338.76
363.203	339.67
363.584	323.62
363.966	314.36
364.348	316.84
364.729	305.77
365.111	330.17
365.493	323.62
365.874	308.25
366.256	313
366.637	323.85
367.019	316.62
367.4	331.76
367.781	333.34
368.163	320.68
368.544	296.05
368.925	311.64
369.306	330.85
369.688	305.99
370.069	321.14
370.45	295.37
370.831	309.61
371.212	322.72
371.593	315.26
371.974	314.36
372.355	300.57
372.736	335.6
373.117	322.94
373.498	323.17
373.879	329.5
374.26	323.85
374.641	306.45
375.021	313
375.402	318.42
375.783	325.66
376.163	332.66
376.544	340.8
376.925	335.37
377.305	313.68
377.686	330.63
378.066	307.8
378.447	324.07
378.827	333.79
379.208	322.72
379.588	303.96
379.968	341.25
380.349	338.76
380.729	328.59
381.109	338.08
381.489	325.43
381.87	329.95
382.25	340.12
382.63	336.28
383.01	350.74
383.39	315.71
383.77	346.67
384.15	327.92
384.53	352.77
384.91	319.33
385.29	351.42
385.67	338.08
386.049	327.01
386.429	353.45
386.809	347.58
387.189	334.47
387.568	334.92
387.948	344.64
388.328	369.5
388.707	360
389.087	335.6
389.466	353
389.846	375.37
390.225	353.9
390.605	370.4
390.984	344.86
391.363	357.97
391.743	374.24
392.122	349.38
392.501	355.49
392.881	343.96
393.26	379.44
393.639	370.63
394.018	361.81
394.397	354.81
394.776	364.07
395.155	371.53
395.534	350.51
395.913	371.98
396.292	395.26
396.671	360.46
397.05	371.76
397.429	367.01
397.808	380.8
398.186	361.13
398.565	385.31
398.944	386.22
399.323	388.03
399.701	395.94
400.08	374.47
400.458	376.5
400.837	369.95
401.215	382.83
401.594	396.61
401.972	363.17
402.351	393.45
402.729	395.26
403.107	381.7
403.486	405.65
403.864	383.96
404.242	383.05
404.62	393.45
404.999	401.36
405.377	399.33
405.755	397.52
406.133	396.84
406.511	400.68
406.889	413.34
407.267	420.34
407.645	413.79
408.023	410.17
408.401	416.27
408.779	409.27
409.156	406.11
409.534	422.83
409.912	410.17
410.29	441.58
410.667	441.81
411.045	428.48
411.422	413.11
411.8	438.42
412.178	433.9
412.555	428.48
412.933	437.06
413.31	444.07
413.687	428.93
414.065	434.8
414.442	451.98
414.819	450.17
415.197	453.79
415.574	450.62
415.951	460.57
416.328	463.28
416.705	475.48
417.082	468.25
417.46	467.35
417.837	453.56
418.214	467.8
418.591	460.34
418.967	472.32
419.344	488.36
419.721	492.66
420.098	477.06
420.475	485.43
420.852	484.97
421.228	497.18
421.605	479.78
421.982	489.04
422.358	489.04
422.735	492.43
423.111	503.5
423.488	501.7
423.864	525.65
424.241	498.08
424.617	516.61
424.994	537.85
425.37	520.68
425.746	527.91
426.123	502.83
426.499	534.24
426.875	523.62
427.251	551.19
427.627	546.21
428.003	537.63
428.379	529.94
428.756	543.5
429.132	545.08
429.507	557.97
429.883	561.58
430.259	559.1
430.635	577.63
431.011	555.93
431.387	552.32
431.763	584.41
432.138	579.21
432.514	581.24
432.89	559.55
433.265	587.57
433.641	591.19
434.016	592.99
434.392	609.04
434.767	625.99
435.143	620.34
435.518	604.29
435.894	630.73
436.269	621.47
436.644	633.67
437.02	602.94
437.395	625.76
437.77	630.51
438.145	637.29
438.52	620.56
438.895	644.74
439.271	654.69
439.646	656.72
440.021	655.36
440.395	656.49
440.77	663.5
441.145	683.39
441.52	667.79
441.895	665.31
442.27	677.96
442.645	694.91
443.019	708.24
443.394	695.82
443.769	686.32
444.143	675.93
444.518	713.89
444.892	725.42
445.267	731.52
445.641	746.89
446.016	705.08
446.39	706.44
446.764	727.9
447.139	723.84
447.513	720.67
447.887	727.68
448.262	717.51
448.636	735.36
449.01	743.95
449.384	738.07
449.758	755.7
450.132	752.99
450.506	751.18
450.88	785.08
451.254	808.13
451.628	791.63
452.002	794.57
452.376	776.26
452.75	787.79
453.123	802.48
453.497	804.06
453.871	804.51
454.244	840.67
454.618	841.8
454.992	842.48
455.365	848.13
455.739	849.94
456.112	860.78
456.486	858.3
456.859	862.14
457.232	862.36
457.606	877.96
457.979	902.14
458.352	909.82
458.725	916.6
459.099	912.53
459.472	964.96
459.845	935.36
460.218	925.64
460.591	977.39
460.964	982.81
461.337	985.07
461.71	994.56
462.083	991.63
462.456	1030.27
462.829	1025.3
463.201	1043.15
463.574	1045.64
463.947	1081.12
464.32	1081.79
464.692	1087.22
465.065	1074.79
465.438	1133.77
465.81	1154.11
466.183	1136.48
466.555	1187.78
466.928	1171.73
467.3	1190.94
467.672	1192.75
468.045	1241.34
468.417	1223.48
468.789	1257.61
469.161	1275.46
469.534	1292.41
469.906	1324.73
470.278	1316.82
470.65	1358.17
471.022	1396.14
471.394	1420.54
471.766	1448.56
472.138	1475.91
472.51	1515.23
472.882	1515.91
473.253	1538.5
473.625	1595.9
473.997	1647.43
474.369	1662.12
474.74	1679.74
475.112	1764.04
475.484	1789.57
475.855	1819.18
476.227	1854.88
476.598	1903.24
476.97	1966.29
477.341	2012.84
477.713	2060.75
478.084	2107.76
478.455	2148.43
478.827	2184.14
479.198	2284.25
479.569	2315.66
479.94	2419.84
480.311	2467.97
480.682	2530.34
481.053	2648.98
481.424	2663.67
481.795	2754.97
482.166	2846.94
482.537	2884.23
482.908	2938.02
483.279	3098.69
483.65	3188.18
484.021	3248.97
484.391	3350.43
484.762	3426.59
485.133	3499.81
485.503	3605.57
485.874	3767.82
486.244	3792.91
486.615	3966.46
486.985	4060.47
487.356	4178.21
487.726	4284.65
488.097	4422.72
488.467	4512.21
488.837	4657.07
489.207	4818.87
489.578	4928.25
489.948	5018.19
490.318	5157.84
490.688	5247.33
491.058	5401.45
491.428	5545.63
491.798	5662.01
492.168	5866.98
492.538	5937.03
492.908	6095.45
493.278	6168.89
493.648	6306.51
494.017	6465.83
494.387	6622.89
494.757	6717.35
495.126	6894.07
495.496	6946.5
495.866	7076.44
496.235	7221.75
496.605	7318.24
496.974	7533.83
497.344	7670.55
497.713	7787.15
498.082	7887.72
498.452	8082.97
498.821	8162.06
499.19	8241.61
499.559	8419.23
499.928	8528.38
500.298	8631.2
500.667	8807.01
501.036	8863.06
501.405	9062.83
501.774	9088.81
502.143	9223.05
502.512	9366.32
502.88	9553.66
503.249	9576.49
503.618	9727.67
503.987	9814.67
504.356	9910.71
504.724	10034.33
505.093	10143.02
505.462	10185.51
505.83	10314.09
506.199	10495.56
506.567	10623.69
506.936	10625.5
507.304	10786.62
507.672	10954.3
508.041	11043.11
508.409	11098.48
508.777	11225.48
509.145	11424.57
509.514	11455.08
509.882	11540.28
510.25	11560.16
510.618	11764.9
510.986	11793.38
511.354	11955.41
511.722	12069.98
512.09	12203.76
512.458	12136.87
512.826	12418.44
513.193	12463.19
513.561	12423.64
513.929	12627.03
514.297	12768.04
514.664	12831.09
515.032	12835.83
515.4	13013.91
515.767	13158.31
516.135	13180.68
516.502	13165.32
516.869	13421.58
517.237	13467.68
517.604	13392.2
517.972	13640.11
518.339	13594.68
518.706	13732.31
519.073	13777.73
519.44	13857.5
519.808	14034
520.175	14042.58
520.542	14198.74
520.909	14319.64
521.276	14286.64
521.643	14412.06
522.009	14598.73
522.376	14647.99
522.743	14789
523.11	14824.94
523.477	15041.43
523.843	15010.24
524.21	15239.39
524.577	15316.67
524.943	15282.55
525.31	15386.73
525.676	15516.89
526.043	15613.39
526.409	15644.35
526.776	15837.56
527.142	15785.14
527.508	15940.61
527.874	15991.68
528.241	16028.07
528.607	16110.32
528.973	16193.03
529.339	16193.03
529.705	16356.65
530.071	16456.76
530.437	16423.31
530.803	16587.6
531.169	16658.33
531.535	16729.29
531.901	16621.72
532.267	16758.9
532.632	16738.56
532.998	16863.07
533.364	16985.78
533.73	16981.26
534.095	17047.25
534.461	17059
534.826	17103.52
535.192	17062.16
535.557	17280.69
535.923	17266
536.288	17253.57
536.653	17329.05
537.019	17284.31
537.384	17349.61
537.749	17419.22
538.114	17415.38
538.479	17428.03
538.845	17483.85
539.21	17482.04
539.575	17504.64
539.94	17537.41
540.305	17552.77
540.67	17466.45
541.034	17539.44
541.399	17651.08
541.764	17606.78
542.129	17643.17
542.494	17697.63
542.858	17655.37
543.223	17639.78
543.587	17746.21
543.952	17725.42
544.316	17873.67
544.681	17711.64
545.045	17802.71
545.41	17821.69
545.774	17945.08
546.138	17948.92
546.503	17946.89
546.867	17908.7
547.231	18033.21
547.595	17877.74
547.959	17998.86
548.324	18039.09
548.688	17985.3
549.052	18066.66
549.416	18059.43
549.779	18116.37
550.143	18107.79
550.507	18217.84
550.871	18195.02
551.235	18161.12
551.599	18321.11
551.962	18275.24
552.326	18228.01
552.689	18355.92
553.053	18289.25
553.417	18329.48
553.78	18502.35
554.143	18363.15
554.507	18439.76
554.87	18427.33
555.234	18583.71
555.597	18557.72
555.96	18583.25
556.323	18636.81
556.686	18573.99
557.05	18713.65
557.413	18695.12
557.776	18705.51
558.139	18784.15
558.502	18872.51
558.865	18844.26
559.228	18950.93
559.59	18982.34
559.953	18988.22
560.316	19091.94
560.679	19100.08
561.041	19179.62
561.404	19159.06
561.767	19351.37
562.129	19238.15
562.492	19420.07
562.854	19353.18
563.217	19439.05
563.579	19600.85
563.941	19621.19
564.304	19636.33
564.666	19732.38
565.028	19738.03
565.39	19762.66
565.753	19833.62
566.115	19877.46
566.477	19969.88
566.839	19988.64
567.201	20055.98
567.563	20084.46
567.925	20186.83
568.287	20159.03
568.648	20236.09
569.01	20221.18
569.372	20348.63
569.734	20381.85
570.095	20510.89
570.457	20462.53
570.819	20595.63
571.18	20554.73
571.542	20731.67
571.903	20678.79
572.265	20624.33
572.626	20792.24
572.987	20809.18
573.349	20870.65
573.71	20986.58
574.071	21045.11
574.432	21040.59
574.794	21202.62
575.155	21136.18
575.516	20959.24
575.877	21201.94
576.238	21192.68
576.599	21181.15
576.96	21228.38
577.32	21210.98
577.681	21281.49
578.042	21296.18
578.403	21294.82
578.763	21285.33
579.124	21382.95
579.485	21454.59
579.845	21421.37
580.206	21465.21
580.566	21407.81
580.927	21503.4
581.287	21515.38
581.648	21524.42
582.008	21663.17
582.368	21551.09
582.728	21474.25
583.089	21438.32
583.449	21523.06
583.809	21522.39
584.169	21616.17
584.529	21622.5
584.889	21653.91
585.249	21538.2
585.609	21469.28
585.969	21670.4
586.329	21605.1
586.688	21632.21
587.048	21640.58
587.408	21597.41
587.768	21575.04
588.127	21556.51
588.487	21506.57
588.846	21749.72
589.206	21544.76
589.565	21514.93
589.925	21637.19
590.284	21568.71
590.643	21556.96
591.003	21582.95
591.362	21755.37
591.721	21474.48
592.08	21580.24
592.44	21637.41
592.799	21637.86
593.158	21691.42
593.517	21641.03
593.876	21637.64
594.235	21533.46
594.593	21722.15
594.952	21683.06
595.311	21718.31
595.67	21644.87
596.029	21797.86
596.387	21749.5
596.746	21755.15
597.104	21605.77
597.463	21649.39
597.822	21735.04
598.18	21581.37
598.538	21707.92
598.897	21785.66
599.255	21546.57
599.613	21907.01
599.972	21783.4
600.33	21713.79
600.688	21783.62
601.046	21814.13
601.404	21856.61
601.762	21817.07
602.12	21951.75
602.478	21928.7
602.836	21873.11
603.194	21888.7
603.552	21828.59
603.91	21802.83
604.268	22050.96
604.625	21961.47
604.983	21956.05
605.341	21921.47
605.698	21971.19
606.056	22085.76
606.413	22035.82
606.771	21993.11
607.128	22113.33
607.485	21937.74
607.843	22084.86
608.2	22167.11
608.557	22189.71
608.914	22095.7
609.272	22274.68
609.629	22297.28
609.986	22335.92
610.343	22244.63
610.7	22455.02
611.057	22342.7
611.414	22367.11
611.771	22397.39
612.127	22505.64
612.484	22456.82
612.841	22591.51
613.198	22545.64
613.554	22419.99
613.911	22585.63
614.267	22532.75
614.624	22638.29
614.98	22722.58
615.337	22839.19
615.693	22764.61
616.05	22690.49
616.406	22866.53
616.762	22740.21
617.118	22750.15
617.475	22903.82
617.831	22852.52
618.187	22886.87
618.543	22942.24
618.899	23079.18
619.255	23102.68
619.611	23074.44
619.967	23147.65
620.323	23055.45
620.678	23027.43
621.034	23130.03
621.39	23062.23
621.746	23033.08
622.101	23299.97
622.457	23091.38
622.812	23174.55
623.168	23233.3
623.523	23317.14
623.879	23294.32
624.234	23128.67
624.589	23180.87
624.945	23242.34
625.3	23275.56
625.655	23243.92
626.01	23309.46
626.365	23288.89
626.72	23264.26
627.075	23207.77
627.43	23120.54
627.785	23220.87
628.14	23268.78
628.495	23243.7
628.85	23180.42
629.205	23113.98
629.559	23319.4
629.914	23269.91
630.269	23169.8
630.623	23196.24
630.978	23106.53
631.332	23219.06
631.687	23282.11
632.041	23229.01
632.396	23247.09
632.75	23084.15
633.104	23206.18
633.459	23010.26
633.813	23075.79
634.167	23074.44
634.521	23009.58
634.875	23083.7
635.229	22964.61
635.583	22734.78
635.937	22934.55
636.291	22878.73
636.645	22949.69
636.999	22887.77
637.352	23020.2
637.706	22769.58
638.06	22868.34
638.413	22755.35
638.767	22765.29
639.121	22772.3
639.474	22759.19
639.828	22666.99
640.181	22749.7
640.534	22723.94
640.888	22683.49
641.241	22558.52
641.594	22686.65
641.947	22705.18
642.301	22617.5
642.654	22586.76
643.007	22583.83
643.36	22649.36
643.713	22577.95
644.066	22659.31
644.419	22516.71
644.771	22297.96
645.124	22101.13
645.477	22195.81
645.83	22039.21
646.182	21872.89
646.535	21794.92
646.888	21881.25
647.24	21805.77
647.593	21974.8
647.945	21949.72
648.298	21812.32
648.65	21809.84
649.002	21655.49
649.355	21845.54
649.707	21720.12
650.059	21958.53
650.411	22145.42
650.763	22087.34
651.115	22399.2
651.467	22340.9
651.819	22297.28
652.171	22317.85
652.523	22284.4
652.875	22172.54
653.227	22051.41
653.578	22191.75
653.93	22268.81
654.282	22186.55
654.633	22226.55
654.985	22108.59
655.337	22264.74
655.688	22180
656.039	22243.72
656.391	22094.8
656.742	22080.79
657.094	22163.73
657.445	22224.74
657.796	22106.78
658.147	22203.5
658.498	22110.39
658.849	22253.89
659.2	22240.56
659.551	22153.33
659.902	22291.86
660.253	22207.34
660.604	22128.25
660.955	22128.92
661.306	22198.75
661.656	22109.26
662.007	22192.42
662.358	22033.79
662.708	22145.19
663.059	22105.2
663.409	22149.94
663.76	22405.3
664.11	22074.91
664.461	22240.11
664.811	22227.68
665.161	22143.39
665.511	22176.38
665.862	22181.58
666.212	22235.81
666.562	22233.33
666.912	22142.26
667.262	22117.4
667.612	22125.99
667.962	22179.09
668.312	22160.11
668.662	22254.57
669.011	22064.07
669.361	22061.35
669.711	22152.43
670.06	22002.15
670.41	22028.14
670.76	22044.63
671.109	22110.17
671.459	22054.8
671.808	22035.59
672.157	22062.48
672.507	21941.58
672.856	22014.58
673.205	22002.6
673.554	22114.69
673.904	22029.04
674.253	22051.86
674.602	21942.94
674.951	21683.06
675.3	21640.8
675.649	21919.66
675.998	21823.85
676.346	21954.47
676.695	21876.28
677.044	21781.36
677.393	21844.41
677.741	21882.38
678.09	21762.83
678.438	21864.52
678.787	21763.96
679.135	21829.95
679.484	21602.16
679.832	21655.26
680.181	21625.89
680.529	21609.62
680.877	21561.26
681.225	21571.88
681.573	21662.72
681.922	21423.18
682.27	21431.77
682.618	21482.16
682.966	21358.77
683.314	21408.94
683.661	21321.71
684.009	21204.43
684.357	21241.94
684.705	21156.52
685.053	21215.95
685.4	21010.76
685.748	21142.06
686.095	20999.01
686.443	20906.13
686.79	21034.26
687.138	20984.55
687.485	20974.15
687.832	20834.95
688.18	20856.19
688.527	20738
688.874	20683.09
689.221	20586.37
689.568	20629.3
689.915	20611.9
690.262	20575.07
690.609	20507.72
690.956	20423.66
691.303	20451.91
691.65	20310.67
691.997	20343.66
692.344	20128.52
692.69	20157.9
693.037	20213.95
693.383	19986.83
693.73	19997.68
694.077	20023.67
694.423	19866.84
694.769	19806.05
695.116	19743
695.462	19638.37
695.808	19625.71
696.155	19738.48
696.501	19544.81
696.847	19485.6
697.193	19341.2
697.539	19439.73
697.885	19329.22
698.231	19209.9
698.577	19304.59
698.923	19176.23
699.269	19041.32
699.614	19025.5
699.96	19002.23
700.306	19046.74
700.651	18904.83
700.997	18821.89
701.342	18694.89
701.688	18552.29
702.033	18577.38
702.379	18588.45
702.724	18545.97
703.069	18575.57
703.415	18326.31
703.76	18370.6
704.105	18333.09
704.45	18277.05
704.795	18200.67
705.14	18069.37
705.485	18123.83
705.83	17969.03
706.175	17995.93
706.52	18070.73
706.865	17771.3
707.209	17853.78
707.554	17711.19
707.899	17818.75
708.243	17662.37
708.588	17734.24
708.932	17497.63
709.277	17680.91
709.621	17505.99
709.966	17500.34
710.31	17524.98
710.654	17403.85
710.998	17409.27
711.342	17454.92
711.687	17296.06
712.031	17259.67
712.375	17142.16
712.719	17287.47
713.063	17110.98
713.407	17164.99
713.75	17146.91
714.094	17074.59
714.438	17058.32
714.782	17064.65
715.125	16905.11
715.469	16924.31
715.812	16826.01
716.156	16751.21
716.499	16805.22
716.843	16808.61
717.186	16608.39
717.53	16825.33
717.873	16749.4
718.216	16694.26
718.559	16663.3
718.902	16500.37
719.246	16569.3
719.589	16430.77
719.932	16453.82
720.275	16421.73
720.617	16440.26
720.96	16394.39
721.303	16432.12
721.646	16395.29
721.989	16270.32
722.331	16344.9
722.674	16315.07
723.016	16308.51
723.359	16313.26
723.701	16293.6
724.044	16237.1
724.386	16084.79
724.729	16277.1
725.071	16158.01
725.413	16093.6
725.755	16192.13
726.097	16111
726.439	15894.74
726.782	15959.14
727.124	16150.32
727.465	16030.78
727.807	15985.36
728.149	15901.52
728.491	15841.18
728.833	15945.81
729.175	15869.65
729.516	15847.06
729.858	15862.2
730.199	15872.82
730.541	15871.91
730.882	15898.35
731.224	15876.88
731.565	15720.73
731.906	15734.97
732.248	15807.28
732.589	15786.72
732.93	15640.05
733.271	15744.23
733.612	15774.06
733.953	15683.67
734.294	15602.54
734.635	15728.41
734.976	15702.2
735.317	15623.56
735.658	15694.74
735.999	15664.91
736.339	15601.64
736.68	15655.87
737.021	15630.79
737.361	15577.46
737.702	15690.45
738.042	15630.34
738.383	15633.05
738.723	15695.42
739.063	15565.03
739.404	15703.78
739.744	15644.8
740.084	15512.83
740.424	15606.84
740.764	15621.52
741.104	15683.67
741.444	15553.28
741.784	15584.46
742.124	15582.43
742.464	15554.86
742.804	15560.96
743.143	15647.29
743.483	15611.58
743.823	15535.2
744.162	15515.54
744.502	15658.13
744.841	15624.69
745.181	15727.28
745.52	15731.58
745.86	15671.92
746.199	15694.52
746.538	15701.52
746.877	15794.18
747.216	15856.77
747.556	15837.11
747.895	15873.27
748.234	15804.12
748.573	15884.34
748.911	15890.44
749.25	15967.05
749.589	15799.82
749.928	16050.44
750.267	16129.76
750.605	16056.32
750.944	16149.87
751.283	16072.36
751.621	16254.73
751.96	16159.59
752.298	16275.29
752.636	16357.78
752.975	16355.06
753.313	16402.07
753.651	16587.37
753.989	16497.89
754.327	16572.91
754.666	16480.03
755.004	16786.01
755.342	16825.33
755.679	16798.44
756.017	16871.66
756.355	17045.44
756.693	16945.33
757.031	17106.01
757.368	17120.02
757.706	17197.75
758.044	17207.47
758.381	17275.94
758.719	17375.83
759.056	17425.09
759.394	17367.92
759.731	17531.3
760.068	17602.72
760.405	17591.64
760.743	17742.6
761.08	17713.9
761.417	17737.85
761.754	17789.38
762.091	17911.18
762.428	17858.3
762.765	17889.04
763.102	18002.93
763.438	18045.87
763.775	18099.88
764.112	18077.73
764.449	18196.37
764.785	18175.36
765.122	18121.8
765.458	18214.9
765.795	18249.93
766.131	18249.03
766.467	18257.84
766.804	18204.96
767.14	18261.23
767.476	18340.77
767.812	18273.88
768.148	18355.01
768.485	18336.71
768.821	18211.74
769.157	18284.05
769.492	18336.93
769.828	18398.85
770.164	18224.39
770.5	18334
770.836	18234.56
771.171	18272.75
771.507	18185.07
771.842	18157.28
772.178	18262.13
772.513	18166.99
772.849	18186.2
773.184	18122.93
773.519	18166.09
773.855	18206.09
774.19	18112.31
774.525	18062.82
774.86	18067.56
775.195	18042.7
775.53	17991.63
775.865	17962.48
776.2	17841.58
776.535	17722.49
776.87	17833.44
777.205	17719.32
777.539	17744.63
777.874	17771.98
778.209	17617.4
778.543	17621.25
778.878	17615.14
779.212	17526.78
779.547	17518.42
779.881	17491.98
780.215	17368.15
780.55	17422.38
780.884	17268.26
781.218	17220.8
781.552	17393.68
781.886	17174.48
782.22	17099.9
782.554	17069.4
782.888	16914.6
783.222	16931.77
783.556	16949.17
783.889	16884.77
784.223	16764.55
784.557	16815.17
784.89	16691.1
785.224	16647.71
785.557	16569.75
785.891	16510.31
786.224	16651.78
786.558	16529.97
786.891	16463.99
787.224	16374.5
787.557	16332.69
787.891	16443.65
788.224	16249.53
788.557	16249.53
788.89	16152.13
789.223	16211.34
789.556	15945.58
789.888	15999.37
790.221	15963.89
790.554	15899.71
790.887	15853.61
791.219	15783.1
791.552	15747.4
791.884	15747.17
792.217	15768.41
792.549	15564.12
792.882	15525.48
793.214	15443.68
793.546	15478.03
793.879	15478.03
794.211	15285.71
794.543	15405.94
794.875	15317.35
795.207	15363.23
795.539	15218.82
795.871	15142.67
796.203	15063.57
796.535	15056.57
796.867	14983.8
797.198	14925.27
797.53	14939.96
797.862	14811.6
798.193	14883.01
798.525	14836.69
798.856	14815.44
799.188	14670.14
799.519	14664.26
799.85	14536.36
800.182	14574.32
800.513	14527.77
800.844	14502.91
801.175	14534.77
801.506	14452.74
801.837	14450.93
802.168	14364.16
802.499	14301.33
802.83	14248.68
803.161	14205.06
803.491	14212.52
803.822	14180.43
804.153	14196.93
804.483	14044.84
804.814	13955.35
805.145	13952.64
805.475	13967.78
805.805	13963.26
806.136	13845.75
806.466	13941.34
806.796	13806.88
807.126	13791.06
807.457	13685.53
807.787	13703.61
808.117	13600.56
808.447	13594.01
808.777	13579.77
809.107	13511.98
809.436	13486.44
809.766	13463.61
810.096	13443.05
810.426	13381.81
810.755	13367.57
811.085	13328.93
811.414	13262.94
811.744	13195.6
812.073	13115.15
812.403	13146.11
812.732	13109.05
813.061	13184.98
813.39	13023.63
813.719	13002.38
814.049	13050.52
814.378	12964.19
814.707	12922.16
815.036	12923.29
815.365	12824.31
815.693	12794.03
816.022	12759
816.351	12732.33
816.68	12663.64
817.008	12766.68
817.337	12603.75
817.665	12641.26
817.994	12676.97
818.322	12597.87
818.651	12566.92
818.979	12473.58
819.307	12485.56
819.636	12478.1
819.964	12417.54
820.292	12495.73
820.62	12462.96
820.948	12372.12
821.276	12436.52
821.604	12381.38
821.932	12407.15
822.259	12333.02
822.587	12423.42
822.915	12369.63
823.243	12383.19
823.57	12411.21
823.898	12399.91
824.225	12367.15
824.553	12286.02
824.88	12311.78
825.207	12365.11
825.535	12344.55
825.862	12378.22
826.189	12297.54
826.516	12430.65
826.843	12390.42
827.17	12377.99
827.497	12397.2
827.824	12421.61
828.151	12350.2
828.478	12396.98
828.805	12399.91
829.131	12278.34
829.458	12310.2
829.785	12264.55
830.111	12324.66
830.438	12331.44
830.764	12320.59
831.09	12291.67
831.417	12325.34
831.743	12290.76
832.069	12315.17
832.395	12249.41
832.722	12217.77
833.048	12164.67
833.374	12228.62
833.7	12182.07
834.026	12250.99
834.351	12174.61
834.677	12296.64
835.003	12208.51
835.329	12202.41
835.654	12134.61
835.98	12124.44
836.306	12095.06
836.631	12098.68
836.956	12143.65
837.282	12056.87
837.607	12047.61
837.932	12027.72
838.258	12023.2
838.583	12082.18
838.908	11975.29
839.233	12033.6
839.558	11931.45
839.883	11897.33
840.208	11862.75
840.533	11855.97
840.858	11889.42
841.182	11865.46
841.507	11804.68
841.832	11764.45
842.156	11785.47
842.481	11676.77
842.805	11707.95
843.13	11734.39
843.454	11641.06
843.778	11612.14
844.103	11581.86
844.427	11541.18
844.751	11558.13
845.075	11619.37
845.399	11501.41
845.723	11388.42
846.047	11341.18
846.371	11386.38
846.695	11365.37
847.019	11232.49
847.343	11228.19
847.666	11168.53
847.99	11061.19
848.313	11135.99
848.637	11072.04
848.96	10966.28
849.284	10980.06
849.607	10958.82
849.931	10808.32
850.254	10761.77
850.577	10699.85
850.9	10764.93
851.223	10648.55
851.546	10613.97
851.869	10576.69
852.192	10611.26
852.515	10424.6
852.838	10482.22
853.161	10439.29
853.483	10409.01
853.806	10362.23
854.129	10367.88
854.451	10317.03
854.774	10291.95
855.096	10172.4
855.419	10158.39
855.741	10236.36
856.063	10174.21
856.385	10048.11
856.708	10079.07
857.03	10060.09
857.352	10039.07
857.674	10013.76
857.996	9937.83
858.318	9941.22
858.64	9920.21
858.961	9876.59
859.283	9896.48
859.605	9795.91
859.926	9789.14
860.248	9782.58
860.57	9722.02
860.891	9770.38
861.212	9736.26
861.534	9766.31
861.855	9624.85
862.176	9701.23
862.498	9633.66
862.819	9644.51
863.14	9649.93
863.461	9588.01
863.782	9489.93
864.103	9541.68
864.424	9498.97
864.745	9585.07
865.065	9518.18
865.386	9443.16
865.707	9465.98
866.027	9461.23
866.348	9425.3
866.668	9364.29
866.989	9375.36
867.309	9289.71
867.63	9308.47
867.95	9388.02
868.27	9256.49
868.59	9259.88
868.91	9320
869.23	9288.58
869.55	9185.99
869.87	9269.6
870.19	9145.76
870.51	9239.09
870.83	9194.8
871.15	9171.52
871.469	9181.24
871.789	9142.15
872.109	9139.66
872.428	9128.59
872.748	9163.39
873.067	9128.36
873.386	9092.43
873.706	9111.64
874.025	9060.11
874.344	9024.86
874.663	9012.88
874.982	8952.55
875.301	8964.52
875.62	8911.64
875.939	8948.71
876.258	9006.33
876.577	8874.13
876.896	8964.52
877.214	8901.47
877.533	8911.64
877.852	8886.79
878.17	8837.75
878.489	8879.33
878.807	8882.72
879.125	8829.39
879.444	8783.29
879.762	8748.26
880.08	8773.12
880.398	8711.2
880.716	8693.8
881.034	8689.05
881.352	8681.59
881.67	8659.45
881.988	8702.16
882.306	8621.93
882.624	8618.09
882.941	8602.5
883.259	8613.35
883.577	8492.9
883.894	8484.31
884.212	8529.51
884.529	8502.84
884.846	8493.35
885.164	8421.04
885.481	8455.16
885.798	8418.32
886.115	8350.76
886.432	8392.34
886.75	8327.25
887.067	8395.5
887.383	8265.79
887.7	8307.82
888.017	8315.28
888.334	8270.76
888.651	8252
888.967	8240.25
889.284	8201.83
889.6	8137.88
889.917	8058.79
890.233	8147.14
890.55	8080.71
890.866	8085.45
891.182	8043.42
891.498	8066.69
891.815	7943.31
892.131	7951.44
892.447	7910.09
892.763	7918.9
893.079	7965.23
893.395	7860.6
893.71	7855.85
894.026	7857.43
894.342	7826.25
894.657	7831.22
894.973	7745.12
895.289	7694.28
895.604	7769.53
895.92	7617.44
896.235	7655.63
896.55	7659.7
896.865	7598.23
897.181	7551.45
897.496	7605.46
897.811	7559.14
898.126	7459.03
898.441	7444.79
898.756	7456.77
899.071	7412.47
899.386	7402.98
899.7	7399.14
900.015	7292.25
900.33	7311.23
900.644	7285.02
900.959	7312.14
901.273	7259.94
901.588	7232.14
901.902	7164.8
902.216	7158.24
902.531	7113.73
902.845	7070.79
903.159	7068.08
903.473	7033.05
903.787	7019.72
904.101	6960.96
904.415	7042.54
904.729	6998.02
905.042	6843.45
905.356	6894.07
905.67	6852.49
905.984	6840.06
906.297	6888.19
906.611	6788.76
906.924	6811.13
907.237	6742.44
907.551	6755.32
907.864	6688.2
908.177	6742.21
908.491	6688.2
908.804	6661.08
909.117	6617.24
909.43	6555.77
909.743	6572.5
910.056	6520.75
910.368	6523.46
910.681	6449.56
910.994	6457.7
911.307	6424.7
911.619	6376.34
911.932	6408.89
912.244	6356.23
912.557	6305.39
912.869	6332.28
913.181	6245.73
913.494	6259.74
913.806	6208.21
914.118	6199.4
914.43	6140.87
914.742	6163.47
915.054	6104.03
915.366	6112.17
915.678	6048.22
915.99	6067.88
916.302	6011.16
916.613	6017.03
916.925	5976.58
917.236	5952.17
917.548	5927.54
917.859	5874.89
918.171	5879.41
918.482	5854.32
918.794	5809.58
919.105	5859.97
919.416	5830.82
919.727	5795.79
920.038	5760.54
920.349	5680.77
920.66	5682.35
920.971	5647.55
921.282	5639.19
921.593	5588.57
921.903	5603.03
922.214	5546.31
922.525	5533.43
922.835	5479.19
923.146	5545.41
923.456	5518.06
923.767	5404.62
924.077	5455.92
924.387	5446.2
924.697	5361.68
925.008	5365.3
925.318	5317.84
925.628	5299.54
925.938	5298.41
926.248	5335.47
926.558	5252.53
926.867	5249.14
927.177	5204.4
927.487	5178.64
927.796	5133.89
928.106	5134.34
928.416	5120.56
928.725	5083.95
929.034	5070.84
929.344	5095.93
929.653	5071.52
929.962	5002.82
930.271	4985.19
930.581	4949.94
930.89	4938.19
931.199	4867.23
931.508	4913.78
931.817	4965.99
932.125	4856.38
932.434	4854.8
932.743	4816.61
933.051	4794.46
933.36	4788.14
933.669	4738.42
933.977	4772.77
934.286	4773.9
934.594	4731.19
934.902	4678.31
935.21	4660.91
935.519	4679.44
935.827	4617.97
936.135	4602.15
936.443	4548.82
936.751	4561.93
937.059	4552.21
937.367	4520.12
937.674	4565.32
937.982	4486.22
938.29	4472.66
938.597	4476.05
938.905	4411.2
939.213	4429.05
939.52	4399.67
939.827	4410.75
940.135	4378.88
940.442	4347.02
940.749	4323.06
941.056	4331.43
941.363	4290.97
941.67	4298.66
941.977	4273.8
942.284	4231.54
942.591	4248.26
942.898	4245.33
943.205	4204.2
943.511	4172.11
943.818	4161.94
944.125	4133.46
944.431	4113.58
944.738	4108.83
945.044	4135.5
945.35	4083.3
945.657	4070.87
945.963	4019.12
946.269	4016.63
946.575	3982.28
946.881	3964.2
947.187	3930.08
947.493	3948.84
947.799	3963.75
948.105	3924.43
948.41	3869.29
948.716	3890.76
949.022	3894.83
949.327	3869.97
949.633	3825
949.938	3823.42
950.244	3812.57
950.549	3745.68
950.854	3773.25
951.16	3700.03
951.465	3732.12
951.77	3701.84
952.075	3673.59
952.38	3698
952.685	3690.09
952.99	3651.67
953.294	3641.95
953.599	3668.39
953.904	3597.43
954.209	3554.27
954.513	3610.77
954.818	3567.15
955.122	3543.42
955.426	3528.28
955.731	3494.84
956.035	3486.7
956.339	3460.49
956.643	3481.96
956.948	3456.19
957.252	3450.54
957.556	3430.88
957.86	3390.21
958.163	3457.55
958.467	3385.69
958.771	3427.04
959.075	3389.98
959.378	3362.19
959.682	3309.08
959.985	3318.8
960.289	3332.81
960.592	3302.53
960.896	3290.78
961.199	3264.79
961.502	3251.91
961.805	3251.45
962.108	3253.49
962.411	3222.53
962.714	3235.86
963.017	3151.57
963.32	3163.09
963.623	3149.99
963.926	3134.39
964.228	3125.36
964.531	3119.03
964.833	3114.28
965.136	3057.56
965.438	3075.41
965.741	3035.19
966.043	3053.95
966.345	3011.46
966.648	3014.4
966.95	3026.38
967.252	2985.47
967.554	2971.24
967.856	2961.97
968.158	2950.9
968.46	2911.58
968.761	2936.89
969.063	2902.54
969.365	2901.86
969.666	2903.21
969.968	2814.63
970.269	2841.97
970.571	2846.04
970.872	2830.9
971.174	2839.04
971.475	2805.59
971.776	2784.12
972.077	2752.26
972.378	2816.21
972.679	2769.66
972.98	2771.24
973.281	2718.59
973.582	2690.11
973.883	2706.61
974.183	2668.64
974.484	2722.43
974.785	2720.62
975.085	2691.47
975.386	2630.23
975.686	2699.15
975.986	2690.34
976.287	2646.5
976.587	2580.96
976.887	2603.11
977.187	2642.88
977.487	2578.03
977.787	2554.75
978.087	2526.28
978.387	2577.35
978.687	2530.57
978.987	2559.27
979.286	2525.15
979.586	2514.75
979.885	2468.2
980.185	2499.38
980.484	2455.54
980.784	2460.29
981.083	2488.76
981.382	2445.6
981.682	2439.5
981.981	2442.89
982.28	2404.24
982.579	2419.16
982.878	2451.02
983.177	2376.22
983.475	2371.93
983.774	2340.74
984.073	2357.24
984.372	2353.4
984.67	2358.37
984.969	2340.07
985.267	2312.04
985.566	2328.54
985.864	2289.45
986.162	2311.37
986.461	2269.11
986.759	2243.12
987.057	2245.83
987.355	2242.44
987.653	2225.27
987.951	2209.67
988.249	2211.48
988.547	2203.57
988.844	2223.46
989.142	2211.03
989.44	2161.31
989.737	2171.26
990.035	2144.36
990.332	2126.06
990.63	2119.73
990.927	2142.78
991.224	2114.31
991.521	2094.42
991.819	2066.63
992.116	2088.55
992.413	2080.41
992.71	2068.43
993.006	2060.3
993.303	2088.77
993.6	2065.5
993.897	2052.39
994.193	2021.88
994.49	2002.67
994.787	1994.76
995.083	1981.88
995.379	1959.51
995.676	2014.42
995.972	1984.82
996.268	1962.67
996.565	1951.83
996.861	1967.87
997.157	1959.74
997.453	1940.08
997.749	1935.78
998.044	1905.95
998.34	1920.19
998.636	1867.08
998.932	1878.38
999.227	1872.51
999.523	1879.51
999.818	1855.11
1000.114	1849.68
1000.409	1817.59
1000.704	1813.75
1001	1799.29
1001.295	1800.42
1001.59	1782.79
1001.885	1780.08
1002.18	1735.79
1002.475	1787.31
1002.77	1758.16
1003.065	1738.95
1003.359	1747.09
1003.654	1735.34
1003.949	1735.11
1004.243	1739.18
1004.538	1697.6
1004.832	1690.37
1005.127	1683.13
1005.421	1678.16
1005.715	1672.06
1006.009	1672.51
1006.304	1648.56
1006.598	1655.34
1006.892	1649.69
1007.186	1654.43
1007.48	1583.02
1007.773	1577.83
1008.067	1592.97
1008.361	1620.08
1008.655	1587.77
1008.948	1630.71
1009.242	1553.19
1009.535	1559.3
1009.829	1555.23
1010.122	1529.69
1010.415	1522.01
1010.708	1541.89
1011.001	1508.9
1011.295	1478.85
1011.588	1484.27
1011.881	1502.8
1012.173	1492.18
1012.466	1465.96
1012.759	1438.85
1013.052	1439.98
1013.344	1456.47
1013.637	1418.28
1013.93	1446.76
1014.222	1436.36
1014.514	1404.72
1014.807	1400.66
1015.099	1404.72
1015.391	1383.25
1015.683	1387.55
1015.976	1374.44
1016.268	1374.89
1016.56	1336.48
1016.851	1353.88
1017.143	1342.58
1017.435	1350.94
1017.727	1318.17
1018.018	1315.91
1018.31	1300.54
1018.602	1281.56
1018.893	1311.39
1019.185	1269.81
1019.476	1261.22
1019.767	1267.33
1020.058	1270.72
1020.35	1278.17
1020.641	1262.58
1020.932	1248.34
1021.223	1225.29
1021.514	1202.69
1021.804	1233.2
1022.095	1195.46
1022.386	1218.51
1022.677	1191.62
1022.967	1224.39
1023.258	1173.54
1023.548	1172.19
1023.839	1169.25
1024.129	1172.41
1024.419	1145.29
1024.709	1139.19
1025	1116.37
1025.29	1118.18
1025.58	1098.74
1025.87	1139.87
1026.16	1104.84
1026.449	1108.23
1026.739	1113.88
1027.029	1102.13
1027.319	1096.71
1027.608	1062.13
1027.898	1063.26
1028.187	1058.74
1028.477	1030.5
1028.766	1039.53
1029.055	1038.63
1029.344	1037.27
1029.634	1028.91
1029.923	1039.08
1030.212	1014.68
1030.501	1022.59
1030.79	1009.93
1031.078	999.08
1031.367	987.11
1031.656	1003.83
1031.945	986.88
1032.233	993.43
1032.522	959.31
1032.81	976.71
1033.099	972.42
1033.387	944.62
1033.675	923.15
1033.963	948.92
1034.251	922.48
1034.54	930.16
1034.828	894.45
1035.116	928.58
1035.403	945.75
1035.691	926.09
1035.979	895.13
1036.267	889.48
1036.554	911.63
1036.842	902.14
1037.129	877.51
1037.417	858.07
1037.704	898.3
1037.992	883.83
1038.279	853.33
1038.566	848.35
1038.853	848.35
1039.14	848.35
