Data from hue_10_FLMS001491_57.txt Node
Date: Mon Feb 06 15:32:09 GMT 2017
User: dcchb
Spectrometer: FLMS00149
Trigger mode: 0
Integration Time (sec): 2.000000E-2
Scans to average: 10
Electric dark correction enabled: true
Nonlinearity correction enabled: false
Boxcar width: 0
XAxis mode: Wavelengths
Number of Pixels in Spectrum: 2048
>>>>>Begin Spectral Data<<<<<
341.393	-14.56
341.776	-14.56
342.16	-14.56
342.543	-78.74
342.927	-75.58
343.31	-68.35
343.693	-60.44
344.077	-44.39
344.46	-62.47
344.843	-49.82
345.226	-45.07
345.61	-22.47
345.993	-24.96
346.376	-17.73
346.759	12.33
347.142	41.03
347.525	35.61
347.908	57.98
348.291	61.82
348.674	83.97
349.057	102.95
349.44	123.06
349.823	124.42
350.206	141.59
350.588	210.74
350.971	195.38
351.354	207.13
351.737	226.34
352.119	229.95
352.502	263.62
352.884	275.37
353.267	282.38
353.65	288.26
354.032	284.19
354.414	293.9
354.797	324.86
355.179	334.13
355.562	330.97
355.944	324.19
356.326	321.47
356.709	311.53
357.091	330.06
357.473	342.49
357.855	349.72
358.238	353.34
358.62	330.74
359.002	336.84
359.384	320.12
359.766	340.46
360.148	322.6
360.53	336.16
360.912	337.29
361.294	325.77
361.676	333.68
362.057	331.19
362.439	334.81
362.821	322.15
363.203	321.02
363.584	320.34
363.966	323.28
364.348	305.88
364.729	337.75
365.111	314.7
365.493	337.75
365.874	318.08
366.256	318.08
366.637	329.38
367.019	300.68
367.4	309.5
367.781	306.33
368.163	309.95
368.544	304.07
368.925	300.46
369.306	336.84
369.688	304.3
370.069	290.06
370.45	315.83
370.831	315.15
371.212	309.95
371.593	316.73
371.974	317.41
372.355	305.43
372.736	310.4
373.117	300.91
373.498	307.01
373.879	303.17
374.26	299.1
374.641	306.79
375.021	314.92
375.402	308.14
375.783	338.2
376.163	343.17
376.544	327.58
376.925	340.46
377.305	330.51
377.686	327.12
378.066	320.8
378.447	347.69
378.827	328.93
379.208	337.29
379.588	311.53
379.968	325.54
380.349	335.03
380.729	333.68
381.109	335.94
381.489	332.55
381.87	326.22
382.25	314.24
382.63	324.64
383.01	355.6
383.39	311.98
383.77	333.23
384.15	336.62
384.53	350.17
384.91	353.11
385.29	318.31
385.67	339.55
386.049	307.92
386.429	343.85
386.809	335.49
387.189	332.32
387.568	347.01
387.948	331.87
388.328	356.05
388.707	340.01
389.087	341.36
389.466	364.41
389.846	368.7
390.225	325.32
390.605	351.76
390.984	359.67
391.363	357.18
391.743	377.97
392.122	363.51
392.501	365.32
392.881	382.72
393.26	352.66
393.639	358.76
394.018	363.28
394.397	364.41
394.776	350.63
395.155	365.32
395.534	376.61
395.913	366.67
396.292	368.48
396.671	381.36
397.05	370.51
397.429	390.63
397.808	377.74
398.186	363.28
398.565	390.4
398.944	375.26
399.323	390.17
399.701	380.46
400.08	383.39
400.458	365.54
400.837	387.01
401.215	400.79
401.594	408.25
401.972	400.34
402.351	390.63
402.729	383.85
403.107	381.13
403.486	385.43
403.864	384.75
404.242	393.11
404.62	393.79
404.999	403.05
405.377	384.52
405.755	393.34
406.133	396.5
406.511	406.44
406.889	411.64
407.267	419.33
407.645	413
408.023	402.38
408.401	430.4
408.779	404.86
409.156	428.82
409.534	422.49
409.912	433.79
410.29	422.94
410.667	426.1
411.045	420.46
411.422	415.71
411.8	437.4
412.178	427.23
412.555	452.77
412.933	424.3
413.31	431.98
413.687	434.01
414.065	423.62
414.442	464.07
414.819	445.99
415.197	475.82
415.574	456.84
415.951	441.02
416.328	469.49
416.705	465.43
417.082	462.04
417.46	473.11
417.837	493.9
418.214	473.34
418.591	477.85
418.967	458.42
419.344	499.32
419.721	502.26
420.098	495.03
420.475	481.02
420.852	466.56
421.228	485.09
421.605	485.76
421.982	513.79
422.358	485.31
422.735	527.57
423.111	525.09
423.488	508.81
423.864	492.32
424.241	522.15
424.617	518.08
424.994	517.18
425.37	517.4
425.746	514.92
426.123	530.28
426.499	523.96
426.875	530.96
427.251	527.34
427.627	537.74
428.003	545.2
428.379	542.49
428.756	537.29
429.132	568.7
429.507	544.75
429.883	562.15
430.259	566.67
430.635	568.47
431.011	560.34
431.387	561.92
431.763	595.37
432.138	578.64
432.514	587
432.89	608.25
433.265	620.22
433.641	593.33
434.016	592.65
434.392	636.49
434.767	647.57
435.143	639.88
435.518	643.05
435.894	647.57
436.269	638.98
436.644	645.76
437.02	658.64
437.395	630.17
437.77	667.68
438.145	655.48
438.52	649.38
438.895	676.04
439.271	677.17
439.646	678.75
440.021	693.22
440.395	671.52
440.77	657.06
441.145	695.93
441.52	711.97
441.895	699.32
442.27	696.83
442.645	701.13
443.019	707.45
443.394	711.29
443.769	718.07
444.143	723.72
444.518	715.59
444.892	721.46
445.267	708.58
445.641	724.4
446.016	737.06
446.39	768.02
446.764	737.96
447.139	728.47
447.513	753.55
447.887	747.68
448.262	762.14
448.636	747
449.01	758.53
449.384	746.77
449.758	789.94
450.132	765.53
450.506	774.34
450.88	795.13
451.254	765.3
451.628	801.91
452.002	799.43
452.376	816.83
452.75	822.03
453.123	816.6
453.497	810.73
453.871	817.05
454.244	831.52
454.618	850.95
454.992	850.73
455.365	847.56
455.739	890.95
456.112	881.23
456.486	871.29
456.859	909.71
457.232	912.65
457.606	893.66
457.979	891.4
458.352	897.96
458.725	920.78
459.099	930.5
459.472	923.72
459.845	954.23
460.218	935.47
460.591	975.47
460.964	944.06
461.337	994.45
461.71	1005.98
462.083	984.96
462.456	1008.01
462.829	1028.35
463.201	1010.04
463.574	1028.57
463.947	1049.37
464.32	1069.25
464.692	1092.3
465.065	1070.16
465.438	1077.39
465.81	1107.67
466.183	1090.49
466.555	1105.41
466.928	1131.4
467.3	1142.02
467.672	1144.96
468.045	1197.84
468.417	1171.17
468.789	1168.68
469.161	1180.44
469.534	1195.35
469.906	1249.13
470.278	1234.67
470.65	1261.11
471.022	1269.92
471.394	1319.64
471.766	1300.66
472.138	1286.65
472.51	1355.57
472.882	1363.26
473.253	1369.13
473.625	1404.38
473.997	1439.64
474.369	1393.99
474.74	1470.37
475.112	1480.99
475.484	1534.1
475.855	1532.52
476.227	1555.79
476.598	1595.34
476.97	1580.42
477.341	1647.77
477.713	1678.05
478.084	1654.32
478.455	1679.63
478.827	1753.08
479.198	1779.06
479.569	1754.21
479.94	1836.24
480.311	1821.1
480.682	1889.57
481.053	1914.43
481.424	1978.15
481.795	1994.65
482.166	2004.14
482.537	2052.95
482.908	2097.7
483.279	2121.43
483.65	2162.33
484.021	2219.96
484.391	2256.11
484.762	2238.03
485.133	2301.99
485.503	2323.46
485.874	2363.91
486.244	2411.14
486.615	2468.54
486.985	2477.8
487.356	2531.13
487.726	2571.81
488.097	2595.77
488.467	2654.52
488.837	2638.48
489.207	2714.63
489.578	2770.45
489.948	2764.12
490.318	2815.65
490.688	2834.18
491.058	2878.7
491.428	2947.17
491.798	2980.39
492.168	3019.93
492.538	3037.34
492.908	3061.52
493.278	3076.88
493.648	3138.12
494.017	3206.14
494.387	3258.12
494.757	3254.73
495.126	3306.25
495.496	3335.41
495.866	3343.09
496.235	3392.13
496.605	3391.22
496.974	3422.64
497.344	3453.14
497.713	3457.89
498.082	3455.86
498.452	3583.99
498.821	3606.36
499.19	3573.59
499.559	3626.7
499.928	3634.16
500.298	3632.8
500.667	3719.13
501.036	3701.05
501.405	3747.83
501.774	3747.37
502.143	3742.85
502.512	3783.53
502.88	3843.64
503.249	3816.75
503.618	3892
503.987	3906.69
504.356	3902.85
504.724	3889.97
505.093	3906.92
505.462	3950.76
505.83	3997.08
506.199	4025.56
506.567	4071.66
506.936	4077.53
507.304	4055.84
507.672	4102.84
508.041	4161.15
508.409	4170.86
508.777	4182.84
509.145	4193.92
509.514	4166.12
509.882	4230.75
510.25	4223.52
510.618	4249.51
510.986	4241.82
511.354	4324.76
511.722	4311.88
512.09	4363.63
512.458	4315.27
512.826	4393.91
513.193	4397.07
513.561	4390.97
513.929	4427.13
514.297	4456.73
514.664	4466.68
515.032	4485.88
515.4	4508.03
515.767	4536.05
516.135	4567.24
516.502	4528.14
516.869	4621.47
517.237	4608.59
517.604	4590.51
517.972	4639.55
518.339	4657.86
518.706	4640.68
519.073	4703.51
519.44	4677.52
519.808	4738.99
520.175	4751.41
520.542	4777.4
520.909	4737.4
521.276	4801.81
521.643	4825.54
522.009	4840
522.376	4852.43
522.743	4890.17
523.11	4968.58
523.477	4973.78
523.843	5000.9
524.21	5015.59
524.577	5070.5
524.943	5094.23
525.31	5097.17
525.676	5047.68
526.043	5199.99
526.409	5157.05
526.776	5200.89
527.142	5185.75
527.508	5278.86
527.874	5257.16
528.241	5306.65
528.607	5288.12
528.973	5344.39
529.339	5347.56
529.705	5412.64
530.071	5423.71
530.437	5505.07
530.803	5502.36
531.169	5495.8
531.535	5493.54
531.901	5542.58
532.267	5558.4
532.632	5598.17
532.998	5618.74
533.364	5630.04
533.73	5712.29
534.095	5671.39
534.461	5728.56
534.826	5761.78
535.192	5789.58
535.557	5829.8
535.923	5804.95
536.288	5828
536.653	5903.47
537.019	5850.37
537.384	5922.46
537.749	5942.8
538.114	5940.99
538.479	5978.05
538.845	5983.47
539.21	6004.26
539.575	6026.86
539.94	6047.88
540.305	6063.92
540.67	6098.72
541.034	6124.49
541.399	6155.67
541.764	6147.08
542.129	6175.56
542.494	6233.18
542.858	6199.06
543.223	6265.95
543.587	6347.08
543.952	6284.93
544.316	6326.74
544.681	6305.05
545.045	6400.18
545.41	6411.71
545.774	6443.8
546.138	6463.91
546.503	6487.19
546.867	6444.25
547.231	6549.56
547.595	6615.09
547.959	6578.71
548.324	6590.24
548.688	6623.23
549.052	6590.91
549.416	6690.57
549.779	6677.01
550.143	6626.85
550.507	6734.19
550.871	6753.4
551.235	6766.5
551.599	6775.09
551.962	6843.79
552.326	6828.65
552.689	6884.92
553.053	6846.05
553.417	6867.74
553.78	6926.05
554.143	6934.63
554.507	6959.49
554.87	6976.67
555.234	7052.37
555.597	7014.63
555.96	7051.02
556.323	7069.77
556.686	7090.56
557.05	7096.89
557.413	7097.79
557.776	7161.97
558.139	7205.14
558.502	7210.11
558.865	7203.55
559.228	7288.52
559.59	7299.6
559.953	7326.94
560.316	7372.36
560.679	7377.11
561.041	7335.98
561.404	7431.57
561.767	7457.56
562.129	7486.48
562.492	7521.74
562.854	7486.94
563.217	7566.71
563.579	7587.27
563.941	7604.22
564.304	7628.63
564.666	7633.82
565.028	7639.02
565.39	7692.58
565.753	7721.51
566.115	7812.58
566.477	7790.43
566.839	7840.37
567.201	7827.04
567.563	7829.07
567.925	7934.83
568.287	7858.23
568.648	7930.09
569.01	7988.62
569.372	8058.22
569.734	8055.51
570.095	8138.22
570.457	8079.24
570.819	8154.04
571.18	8154.26
571.542	8179.35
571.903	8250.08
572.265	8329.85
572.626	8326.69
572.987	8384.54
573.349	8390.19
573.71	8539.11
574.071	8469.96
574.432	8523.97
574.794	8613.23
575.155	8610.52
575.516	8634.7
575.877	8753.34
576.238	8796.28
576.599	8844.87
576.96	8945.43
577.32	9010.29
577.681	8994.92
578.042	9110.4
578.403	9182.48
578.763	9235.14
579.124	9366.43
579.485	9437.39
579.845	9539.99
580.206	9629.03
580.566	9636.94
580.927	9849.59
581.287	9990.15
581.648	9979.07
582.008	10131.39
582.368	10264.72
582.728	10369.57
583.089	10543.13
583.449	10614.54
583.809	10768.66
584.169	10916
584.529	11055.2
584.889	11218.36
585.249	11407.96
585.609	11489.54
585.969	11825.35
586.329	11852.92
586.688	12078.68
587.048	12253.14
587.408	12411.55
587.768	12618.33
588.127	12849.05
588.487	12998.88
588.846	13242.26
589.206	13416.27
589.565	13702.82
589.925	14010.83
590.284	14108
590.643	14426.41
591.003	14630.7
591.362	14941.66
591.721	15089.9
592.08	15375.99
592.44	15645.37
592.799	15843.78
593.158	16071.34
593.517	16321.51
593.876	16624.77
594.235	16826.58
594.593	17130.3
594.952	17441.25
595.311	17648.02
595.67	18033.55
596.029	18387.67
596.387	18595.12
596.746	18897.94
597.104	19132.28
597.463	19377.02
597.822	19746.27
598.18	19902.2
598.538	20203.89
598.897	20564.33
599.255	20613.14
599.613	21194.6
599.972	21226.24
600.33	21592.33
600.688	21750.06
601.046	22090.62
601.404	22414.9
601.762	22679.76
602.12	22865.06
602.478	23316.8
602.836	23363.35
603.194	23606.96
603.552	23845.6
603.91	24173.05
604.268	24486.94
604.625	24581.85
604.983	24937.55
605.341	25079.24
605.698	25361.72
606.056	25720.35
606.413	25860.46
606.771	26150.4
607.128	26334.8
607.485	26447.34
607.843	26676.26
608.2	27140.88
608.557	27440.76
608.914	27465.39
609.272	27818.6
609.629	28037.81
609.986	28248.65
610.343	28314.64
610.7	28727.28
611.057	28840.27
611.414	28985.13
611.771	29182.41
612.127	29419.92
612.484	29536.07
612.841	29792.11
613.198	30016.74
613.554	30040.24
613.911	30413.34
614.267	30611.07
614.624	30728.36
614.98	30841.12
615.337	31158.4
615.693	31194.11
616.05	31304.39
616.406	31581.22
616.762	31614.66
617.118	31741.89
617.475	31949.12
617.831	32180.07
618.187	32338.03
618.543	32416.22
618.899	32608.08
619.255	32765.59
619.611	32840.85
619.967	32902.54
620.323	33002.65
620.678	33098.92
621.034	33145.24
621.39	33328.29
621.746	33491.45
622.101	33849.18
622.457	33499.59
622.812	33806.92
623.168	33941.83
623.523	34008.5
623.879	34269.96
624.234	34060.47
624.589	34143.64
624.945	34338.21
625.3	34473.34
625.655	34577.3
626.01	34635.15
626.365	34711.76
626.72	34781.59
627.075	34699.78
627.43	34767.8
627.785	34710.85
628.14	34900.68
628.495	34975.48
628.85	34926.67
629.205	34958.53
629.559	35128.47
629.914	35017.74
630.269	35189.26
630.623	35132.76
630.978	35153.55
631.332	35284.62
631.687	35407.78
632.041	35231.52
632.396	35279.65
632.75	35135.47
633.104	35405.52
633.459	35347.22
633.813	35297.28
634.167	35337.73
634.521	35310.39
634.875	35483.94
635.229	35409.82
635.583	35290.27
635.937	35427.67
636.291	35329.14
636.645	35390.16
636.999	35324.4
637.352	35341.8
637.706	35279.43
638.06	35341.34
638.413	35476.48
638.767	35348.12
639.121	35383.6
639.474	35141.58
639.828	35342.7
640.181	35390.38
640.534	35351.29
640.888	35335.7
641.241	35158.3
641.594	35229.94
641.947	35413.43
642.301	35214.79
642.654	35331.18
643.007	35321.91
643.36	35236.49
643.713	35304.74
644.066	35357.16
644.419	35133.21
644.771	34861.36
645.124	34605.77
645.477	34678.54
645.83	34465.89
646.182	34344.99
646.535	34238.77
646.888	34311.77
647.24	34218.89
647.593	34211.66
647.945	34205.33
648.298	34250.53
648.65	34045.11
649.002	33979.57
649.355	34105.67
649.707	34103.64
650.059	34314.25
650.411	34603.51
650.763	34725.32
651.115	35070.84
651.467	35047.12
651.819	34909.94
652.171	34869.04
652.523	34744.98
652.875	34831.98
653.227	34674.92
653.578	34959.66
653.93	34865.2
654.282	34714.69
654.633	34657.75
654.985	34761.25
655.337	34792.43
655.688	34703.17
656.039	34824.07
656.391	34530.52
656.742	34596.51
657.094	34508.37
657.445	34657.97
657.796	34672.89
658.147	34544.98
658.498	34627.24
658.849	34657.75
659.2	34613.23
659.551	34477.19
659.902	34554.92
660.253	34615.49
660.604	34591.99
660.955	34437.41
661.306	34661.81
661.656	34560.35
662.007	34561.03
662.358	34392.44
662.708	34551.08
663.059	34409.62
663.409	34354.7
663.76	34621.14
664.11	34559.9
664.461	34399.22
664.811	34433.8
665.161	34452.1
665.511	34436.28
665.862	34363.07
666.212	34533
666.562	34589.27
666.912	34395.15
667.262	34396.51
667.612	34446.45
667.962	34431.31
668.312	34426.34
668.662	34472.44
669.011	34463.18
669.361	34439.45
669.711	34330.75
670.06	34262.28
670.41	34398.54
670.76	34235.16
671.109	34407.58
671.459	34354.93
671.808	34272.45
672.157	34333.91
672.507	33968.27
672.856	34138.66
673.205	34153.81
673.554	34251.66
673.904	34122.62
674.253	34262.05
674.602	34212.11
674.951	33711.78
675.3	33548.62
675.649	34144.31
675.998	34042.62
676.346	34074.49
676.695	34139.12
677.044	33946.81
677.393	34049.18
677.741	34037.88
678.09	33922.62
678.438	33982.28
678.787	33832.68
679.135	33914.04
679.484	33696.64
679.832	33822.97
680.181	33646.02
680.529	33797.66
680.877	33674.95
681.225	33556.31
681.573	33818.67
681.922	33519.92
682.27	33520.83
682.618	33569.41
682.966	33400.6
683.314	33640.82
683.661	33342.98
684.009	33142.53
684.357	33148.41
684.705	33175.75
685.053	33276.54
685.4	33167.16
685.748	32915.65
686.095	32900.96
686.443	32896.89
686.79	32800.62
687.138	32732.83
687.485	32813.95
687.832	32774.86
688.18	32798.59
688.527	32526.05
688.874	32489.89
689.221	32481.76
689.568	32466.62
689.915	32330.35
690.262	32313.18
690.609	32279.05
690.956	32265.27
691.303	32104.59
691.65	32007.42
691.997	32003.58
692.344	31772.85
692.69	31707.99
693.037	31709.35
693.383	31385.74
693.73	31509.81
694.077	31405.86
694.423	31356.36
694.769	31331.73
695.116	31187.33
695.462	31088.58
695.808	31080.21
696.155	31193.88
696.501	30899.88
696.847	30845.87
697.193	30619.21
697.539	30886.55
697.885	30512.32
698.231	30478.87
698.577	30567.91
698.923	30378.31
699.269	30213.12
699.614	30245.21
699.96	30128.15
700.306	30099
700.651	30004.76
700.997	29954.37
701.342	29957.98
701.688	29829.17
702.033	29653.58
702.379	29741.72
702.724	29642.06
703.069	29675.51
703.415	29311.22
703.76	29280.49
704.105	29438.22
704.45	29303.54
704.795	29120.49
705.14	28973.6
705.485	28946.26
705.83	28856.09
706.175	28940.38
706.52	28813.15
706.865	28766.38
707.209	28745.59
707.554	28609.32
707.899	28696.1
708.243	28643.44
708.588	28594.4
708.932	28340.17
709.277	28341.75
709.621	28318.7
709.966	28189.89
710.31	28256.56
710.654	27965.27
710.998	27934.53
711.342	27908.55
711.687	27928.88
712.031	27712.84
712.375	27745.84
712.719	27731.83
713.063	27689.57
713.407	27619.29
713.75	27538.16
714.094	27545.84
714.438	27434.21
714.782	27434.89
715.125	27400.99
715.469	27379.97
715.812	27248.22
716.156	27134.78
716.499	27110.15
716.843	27158.51
717.186	26993.32
717.53	27069.02
717.873	27066.76
718.216	26961.68
718.559	26811.63
718.902	26598.3
719.246	26657.73
719.589	26644.62
719.932	26536.38
720.275	26533.21
720.617	26533.44
720.96	26491.63
721.303	26446.66
721.646	26475.82
721.989	26297.97
722.331	26399.21
722.674	26216.61
723.016	26331.64
723.359	26262.94
723.701	26310.85
724.044	25996.28
724.386	26051.19
724.729	26044.64
725.071	26102.04
725.413	26064.53
725.755	26019.78
726.097	25797.64
726.439	25614.14
726.782	25774.14
727.124	25829.73
727.465	25606.69
727.807	25698.21
728.149	25592.67
728.491	25573.24
728.833	25636.29
729.175	25529.17
729.516	25417.54
729.858	25415.96
730.199	25475.39
730.541	25367.37
730.882	25328.95
731.224	25462.73
731.565	25183.65
731.906	25262.51
732.248	25218.9
732.589	25043.54
732.93	25022.07
733.271	25019.13
733.612	25001.73
733.953	24900.49
734.294	24856.2
734.635	24865.01
734.976	24933.93
735.317	24790.44
735.658	24792.92
735.999	24838.8
736.339	24686.94
736.68	24820.49
737.021	24872.92
737.361	24646.48
737.702	24747.95
738.042	24625.02
738.383	24638.35
738.723	24650.33
739.063	24602.64
739.404	24562.19
739.744	24493.72
740.084	24425.7
740.424	24400.39
740.764	24324.91
741.104	24407.39
741.444	24249.88
741.784	24243.78
742.124	24369.43
742.464	24280.62
742.804	24055.31
743.143	24098.7
743.483	24102.77
743.823	24053.28
744.162	23995.43
744.502	24067.52
744.841	23879.05
745.181	23967.18
745.52	23992.04
745.86	24027.52
746.199	23801.99
746.538	23952.72
746.877	23814.87
747.216	23928.76
747.556	23820.29
747.895	23781.2
748.234	23728.99
748.573	23663.91
748.911	23628.43
749.25	23575.78
749.589	23528.55
749.928	23506.4
750.267	23554.76
750.605	23460.75
750.944	23479.51
751.283	23272.96
751.621	23249.46
751.96	23126.3
752.298	23165.85
752.636	23209.69
752.975	23097.37
753.313	23136.02
753.651	23212.4
753.989	23084.72
754.327	22940.77
754.666	22936.7
755.004	22979.41
755.342	22916.81
755.679	22857.83
756.017	22761.11
756.355	22898.51
756.693	22668.46
757.031	22849.47
757.368	22600.66
757.706	22599.08
758.044	22520.21
758.381	22488.8
758.719	22503.26
759.056	22549.36
759.394	22299.88
759.731	22232.31
760.068	22263.95
760.405	22182.59
760.743	22060.11
761.08	22156.83
761.417	21978.76
761.754	21910.06
762.091	21901.47
762.428	21895.14
762.765	21648.37
763.102	21738.99
763.438	21610.86
763.775	21591.65
764.112	21452.22
764.449	21542.84
764.785	21416.97
765.122	21269.4
765.458	21292.9
765.795	21212.45
766.131	21165.22
766.467	21116.18
766.804	20988.95
767.14	20974.72
767.476	20911.44
767.812	20793.48
768.148	20911.67
768.485	20685.23
768.821	20629.64
769.157	20673.48
769.492	20500.38
769.828	20480.94
770.164	20315.07
770.5	20182.42
770.836	20313.72
771.171	20147.62
771.507	20171.57
771.842	19949.66
772.178	19970.9
772.513	19853.39
772.849	19867.18
773.184	19824.46
773.519	19763
773.855	19630.35
774.19	19598.93
774.525	19582.21
774.86	19527.75
775.195	19395.55
775.53	19375.21
775.865	19191.26
776.2	19110.36
776.535	18942.45
776.87	19018.84
777.205	19017.03
777.539	18847.54
777.874	18864.04
778.209	18633.76
778.543	18608.23
778.878	18463.82
779.212	18561.67
779.547	18408.23
779.881	18531.17
780.215	18320.78
780.55	18409.59
780.884	18195.35
781.218	18127.11
781.552	18199.87
781.886	18029.03
782.22	17956.72
782.554	17918.3
782.888	17826.55
783.222	17771.19
783.556	17601.92
783.889	17495.94
784.223	17529.84
784.557	17480.57
784.89	17443.28
785.224	17339.56
785.557	17219.11
785.891	17339.11
786.224	17145.66
786.558	17212.56
786.891	17021.83
787.224	16937.08
787.557	16909.06
787.891	16917.2
788.224	16853.92
788.557	16739.8
788.89	16769.4
789.223	16755.39
789.556	16645.57
789.888	16554.72
790.221	16519.01
790.554	16430.66
790.887	16397.89
791.219	16297.33
791.552	16286.7
791.884	16293.71
792.217	16218.23
792.549	16037.67
792.882	15992.7
793.214	15959.71
793.546	15929.65
793.879	15759.49
794.211	15846.04
794.543	15832.71
794.875	15741.86
795.207	15755.42
795.539	15609.21
795.871	15626.16
796.203	15577.12
796.535	15423
796.867	15432.26
797.198	15350.68
797.53	15330.8
797.862	15270.91
798.193	15287.86
798.525	15157.47
798.856	15197.69
799.188	15028.66
799.519	14996.79
799.85	14908.66
800.182	14886.06
800.513	14877.93
800.844	14764.03
801.175	14929.45
801.506	14705.05
801.837	14776.46
802.168	14675.9
802.499	14654.43
802.83	14566.3
803.161	14565.17
803.491	14516.58
803.822	14441.33
804.153	14424.15
804.483	14194.56
804.814	14225.74
805.145	14315.23
805.475	14260.09
805.805	14200.21
806.136	14176.93
806.466	14110.72
806.796	14131.96
807.126	13951.17
807.457	13998.63
807.787	13984.84
808.117	13906.65
808.447	13767.9
808.777	13868.91
809.107	13790.27
809.436	13786.88
809.766	13743.49
810.096	13650.84
810.426	13640.9
810.755	13672.54
811.085	13616.72
811.414	13487.68
811.744	13466.67
812.073	13451.52
812.403	13382.37
812.732	13378.31
813.061	13336.95
813.39	13279.33
813.719	13246.11
814.049	13364.3
814.378	13183.74
814.707	13191.19
815.036	13148.48
815.365	13141.25
815.693	12989.84
816.022	13016.96
816.351	12915.27
816.68	12881.14
817.008	12898.55
817.337	12753.92
817.665	12785.78
817.994	12861.71
818.322	12890.86
818.651	12746.46
818.979	12719.11
819.307	12744.42
819.636	12641.6
819.964	12690.19
820.292	12648.61
820.62	12676.4
820.948	12520.25
821.276	12641.38
821.604	12578.1
821.932	12612.9
822.259	12590.3
822.587	12580.59
822.915	12501.27
823.243	12575.62
823.57	12529.06
823.898	12570.87
824.225	12549.85
824.553	12531.78
824.88	12552.11
825.207	12560.93
825.535	12558.89
825.862	12603.19
826.189	12482.74
826.516	12543.53
826.843	12539.01
827.17	12532.23
827.497	12496.97
827.824	12492.45
828.151	12629.4
828.478	12497.43
828.805	12508.5
829.131	12483.87
829.458	12509.63
829.785	12376.07
830.111	12550.76
830.438	12559.12
830.764	12467.14
831.09	12517.76
831.417	12449.97
831.743	12522.28
832.069	12479.12
832.395	12369.75
832.722	12464.88
833.048	12414.72
833.374	12416.52
833.7	12356.86
834.026	12323.42
834.351	12404.09
834.677	12367.71
835.003	12406.13
835.329	12338.79
835.654	12319.8
835.98	12295.62
836.306	12299.01
836.631	12158
836.956	12162.97
837.282	12250.65
837.607	12113.48
837.932	12159.58
838.258	12097.44
838.583	12138.79
838.908	12047.27
839.233	12103.09
839.558	12052.01
839.883	12065.35
840.208	12000.49
840.533	12046.14
840.858	11967.72
841.182	12005.69
841.507	12023.09
841.832	11889.98
842.156	11908.97
842.481	11887.05
842.805	11814.96
843.13	11831.45
843.454	11847.5
843.778	11696.99
844.103	11758.69
844.427	11796.43
844.751	11702.19
845.075	11617.22
845.399	11621.52
845.723	11491.35
846.047	11610.9
846.371	11507.85
846.695	11523.44
847.019	11466.04
847.343	11324.12
847.666	11220.62
847.99	11215.2
848.313	11183.34
848.637	11161.87
848.96	11105.37
849.284	11055.66
849.607	10980.18
849.931	10995.54
850.254	10954.19
850.577	10879.16
850.9	10784.02
851.223	10787.64
851.546	10741.09
851.869	10716
852.192	10739.28
852.515	10675.1
852.838	10584.48
853.161	10575.22
853.483	10496.8
853.806	10545.84
854.129	10457.93
854.451	10499.51
854.774	10382.23
855.096	10271.5
855.419	10336.8
855.741	10304.04
856.063	10187.88
856.385	10179.52
856.708	10119.64
857.03	10095.23
857.352	10163.25
857.674	10101.33
857.996	10120.09
858.318	10056.59
858.64	10029.47
858.961	9946.76
859.283	9954.67
859.605	9913.54
859.926	9946.53
860.248	9947.44
860.57	9876.7
860.891	9876.7
861.212	9790.83
861.534	9808.23
861.855	9752.64
862.176	9744.73
862.498	9730.04
862.819	9742.24
863.14	9643.72
863.461	9654.11
863.782	9622.92
864.103	9637.39
864.424	9603.04
864.745	9654.79
865.065	9581.8
865.386	9553.77
865.707	9521.68
866.027	9554.45
866.348	9514.23
866.668	9457.73
866.989	9485.75
867.309	9389.26
867.63	9441.46
867.95	9343.84
868.27	9329.83
868.59	9368.24
868.91	9401.69
869.23	9348.13
869.55	9335.93
869.87	9278.53
870.19	9255.25
870.51	9303.39
870.83	9323.27
871.15	9245.99
871.469	9244.18
871.789	9203.27
872.109	9180.45
872.428	9213.44
872.748	9171.64
873.067	9247.57
873.386	9237.62
873.706	9175.25
874.025	9094.58
874.344	9122.83
874.663	9151.07
874.982	9081.47
875.301	9062.26
875.62	9008.25
875.939	9043.96
876.258	9001.7
876.577	8918.54
876.896	8996.73
877.214	8974.58
877.533	8945.88
877.852	8905.66
878.17	8926.22
878.489	8921.02
878.807	8900.01
879.125	8888.93
879.444	8880.8
879.762	8795.83
880.08	8912.21
880.398	8790.18
880.716	8816.17
881.034	8782.95
881.352	8758.31
881.67	8781.14
881.988	8733.91
882.306	8683.74
882.624	8723.97
882.941	8688.71
883.259	8630.41
883.577	8587.7
883.894	8604.87
884.212	8638.54
884.529	8573.24
884.846	8508.15
885.164	8503.86
885.481	8493.92
885.798	8566.46
886.115	8468.38
886.432	8502.95
886.75	8433.58
887.067	8461.15
887.383	8409.17
887.7	8403.97
888.017	8344.77
888.334	8356.29
888.651	8323.75
888.967	8296.18
889.284	8272.9
889.6	8174.15
889.917	8211.44
890.233	8181.61
890.55	8159.69
890.866	8162.85
891.182	8155.84
891.498	8129.18
891.815	8066.36
892.131	8077.65
892.447	8077.43
892.763	7994.49
893.079	8004.21
893.395	7954.27
893.71	7944.33
894.026	7952.46
894.342	7888.06
894.657	7843.31
894.973	7918.79
895.289	7862.52
895.604	7846.93
895.92	7807.61
896.235	7721.73
896.55	7681.28
896.865	7710.43
897.181	7723.31
897.496	7702.52
897.811	7626.82
898.126	7625.24
898.441	7540.49
898.756	7533.26
899.071	7482.42
899.386	7567.61
899.7	7467.5
900.015	7417.56
900.33	7392.25
900.644	7387.5
900.959	7427.05
901.273	7326.71
901.588	7295.08
901.902	7286.04
902.216	7241.29
902.531	7194.51
902.845	7184.57
903.159	7112.03
903.473	7069.09
903.787	7099.15
904.101	7101.64
904.415	7032.26
904.729	7085.59
905.042	6986.16
905.356	7001.75
905.67	6979.38
905.984	6903.9
906.297	6944.13
906.611	6900.06
906.924	6845.82
907.237	6881.3
907.551	6821.64
907.864	6762.89
908.177	6760.18
908.491	6784.36
908.804	6694.64
909.117	6666.17
909.43	6612.61
909.743	6551.14
910.056	6608.77
910.368	6547.53
910.681	6617.81
910.994	6494.42
911.307	6497.81
911.619	6436.12
911.932	6455.78
912.244	6426.4
912.557	6396.8
912.869	6354.31
913.181	6354.08
913.494	6334.65
913.806	6311.15
914.118	6290.13
914.43	6244.26
914.742	6197.7
915.054	6164.48
915.366	6158.84
915.678	6138.27
915.99	6122
916.302	6047.43
916.613	6072.06
916.925	6043.36
917.236	6029.8
917.548	5923.81
917.859	5955.22
918.171	5958.84
918.482	5943.93
918.794	5881.78
919.105	5881.1
919.416	5824.61
919.727	5795.91
920.038	5794.33
920.349	5764.27
920.66	5740.77
920.971	5726.76
921.282	5695.34
921.593	5659.64
921.903	5656.93
922.214	5652.41
922.525	5607.44
922.835	5617.15
923.146	5525.63
923.456	5588.45
923.767	5516.37
924.077	5543.48
924.387	5464.84
924.697	5419.19
925.008	5429.14
925.318	5429.81
925.628	5399.99
925.938	5354.11
926.248	5311.17
926.558	5315.24
926.867	5306.65
927.177	5259.88
927.487	5247.45
927.796	5229.14
928.106	5196.6
928.416	5204.74
928.725	5166.77
929.034	5107.34
929.344	5089.48
929.653	5104.63
929.962	5110.73
930.271	5076.6
930.581	5035.47
930.89	5032.99
931.199	4962.93
931.508	4938.75
931.817	4936.49
932.125	4946.21
932.434	4899.21
932.743	4867.34
933.051	4866.67
933.36	4775.37
933.669	4782.83
933.977	4802.94
934.286	4784.63
934.594	4727.46
934.902	4733.11
935.21	4705.77
935.519	4726.33
935.827	4686.33
936.135	4684.3
936.443	4665.09
936.751	4627.12
937.059	4586
937.367	4519.78
937.674	4581.7
937.982	4527.69
938.29	4494.02
938.597	4492.89
938.905	4479.11
939.213	4478.88
939.52	4425.77
939.827	4458.31
940.135	4423.06
940.442	4387.81
940.749	4356.17
941.056	4340.58
941.363	4308.49
941.67	4322.05
941.977	4317.98
942.284	4264.2
942.591	4259.68
942.898	4243.41
943.205	4263.29
943.511	4156.85
943.818	4223.07
944.125	4174.71
944.431	4181.03
944.738	4140.13
945.044	4122.05
945.35	4126.8
945.657	4090.19
945.963	4073.92
946.269	4049.96
946.575	4044.31
946.881	4007.93
947.187	3989.17
947.493	3966.12
947.799	3994.37
948.105	3934.71
948.41	3933.81
948.716	3918.22
949.022	3893.81
949.327	3913.24
949.633	3859.01
949.938	3887.48
950.244	3819.01
950.549	3829.63
950.854	3828.73
951.16	3775.17
951.465	3782.85
951.77	3770.65
952.075	3718
952.38	3733.14
952.685	3729.52
952.99	3686.81
953.294	3701.05
953.599	3650.65
953.904	3625.12
954.209	3621.27
954.513	3633.03
954.818	3571.33
955.122	3570.43
955.426	3600.26
955.731	3519.36
956.035	3581.73
956.339	3511
956.643	3489.75
956.948	3508.06
957.252	3496.08
957.556	3477.55
957.86	3468.06
958.163	3464.22
958.467	3417.21
958.771	3418.57
959.075	3418.79
959.378	3354.62
959.682	3363.65
959.985	3344.67
960.289	3306.03
960.592	3291.57
960.896	3272.58
961.199	3256.99
961.502	3292.7
961.805	3235.07
962.108	3257.67
962.411	3238.46
962.714	3229.87
963.017	3196.65
963.32	3200.72
963.623	3205.92
963.926	3151.68
964.228	3137.67
964.531	3144.68
964.833	3136.99
965.136	3107.62
965.438	3100.84
965.741	3024.91
966.043	3071.01
966.345	3046.6
966.648	3034.17
966.95	3057.9
967.252	3009.99
967.554	3003.66
967.856	3007.73
968.158	2992.82
968.46	2969.99
968.761	2973.83
969.063	2964.12
969.365	2907.85
969.666	2873.27
969.968	2889.32
970.269	2918.92
970.571	2889.32
970.872	2897
971.174	2831.01
971.475	2844.57
971.776	2846.38
972.077	2778.36
972.378	2790.56
972.679	2826.72
972.98	2821.3
973.281	2743.33
973.582	2753.5
973.883	2739.94
974.183	2740.62
974.484	2703.78
974.785	2687.97
975.085	2720.73
975.386	2706.95
975.686	2694.52
975.986	2658.36
976.287	2670.57
976.587	2632.6
976.887	2597.8
977.187	2606.84
977.487	2607.97
977.787	2558.48
978.087	2593.05
978.387	2607.52
978.687	2523.22
978.987	2555.77
979.286	2534.52
979.586	2521.64
979.885	2540.4
980.185	2501.76
980.484	2453.4
980.784	2457.01
981.083	2487.29
981.382	2497.69
981.682	2484.58
981.981	2429.89
982.28	2455.88
982.579	2423.11
982.878	2421.08
983.177	2419.5
983.475	2392.83
983.774	2411.36
984.073	2356.45
984.372	2327.3
984.67	2343.34
984.969	2349.9
985.267	2371.14
985.566	2327.07
985.864	2322.55
986.162	2296.79
986.461	2264.47
986.759	2288.2
987.057	2283.46
987.355	2240.75
987.653	2236.45
987.951	2236.45
988.249	2225.15
988.547	2245.94
988.844	2227.19
989.142	2202.56
989.44	2214.98
989.737	2179.28
990.035	2188.54
990.332	2164.36
990.63	2149.45
990.927	2136.57
991.224	2137.7
991.521	2130.01
991.819	2115.78
992.116	2113.52
992.413	2122.33
992.71	2121.88
993.006	2091.15
993.303	2071.03
993.6	2036.91
993.897	2078.49
994.193	2042.79
994.49	2052.95
994.787	2028.77
995.083	2009.57
995.379	2012.96
995.676	1993.3
995.972	1950.58
996.268	1976.57
996.565	1951.26
996.861	2016.8
997.157	1965.27
997.453	1918.72
997.749	1913.3
998.044	1918.72
998.34	1894.77
998.636	1887.76
998.932	1879.4
999.227	1863.81
999.523	1884.6
999.818	1861.55
1000.114	1826.97
1000.409	1878.95
1000.704	1859.74
1001	1796.01
1001.295	1804.83
1001.59	1818.61
1001.885	1772.06
1002.18	1767.54
1002.475	1746.3
1002.77	1770.7
1003.065	1738.84
1003.359	1741.32
1003.654	1765.96
1003.949	1740.65
1004.243	1706.3
1004.538	1693.19
1004.832	1711.27
1005.127	1680.76
1005.421	1690.93
1005.715	1707.43
1006.009	1679.18
1006.304	1689.8
1006.598	1645.51
1006.892	1647.32
1007.186	1625.4
1007.48	1598.05
1007.773	1598.73
1008.067	1577.94
1008.361	1589.69
1008.655	1605.73
1008.948	1597.37
1009.242	1555.34
1009.535	1576.81
1009.829	1542.69
1010.122	1553.31
1010.415	1530.93
1010.708	1526.19
1011.001	1518.73
1011.295	1504.27
1011.588	1510.37
1011.881	1488.45
1012.173	1502.69
1012.466	1463.82
1012.759	1502.23
1013.052	1487.55
1013.344	1443.93
1013.637	1454.33
1013.93	1438.28
1014.222	1435.8
1014.514	1429.24
1014.807	1413.65
1015.099	1374.33
1015.391	1377.72
1015.683	1384.95
1015.976	1377.27
1016.268	1380.43
1016.56	1358.06
1016.851	1343.14
1017.143	1359.41
1017.435	1339.53
1017.727	1347.89
1018.018	1349.24
1018.31	1330.26
1018.602	1325.52
1018.893	1323.03
1019.185	1281.68
1019.476	1288.45
1019.767	1298.62
1020.058	1283.71
1020.35	1257.04
1020.641	1257.95
1020.932	1257.72
1021.223	1246.42
1021.514	1239.42
1021.804	1235.8
1022.095	1227.89
1022.386	1231.51
1022.677	1200.55
1022.967	1207.55
1023.258	1188.12
1023.548	1189.02
1023.839	1169.81
1024.129	1144.28
1024.419	1142.47
1024.709	1151.51
1025	1159.64
1025.29	1155.35
1025.58	1145.63
1025.87	1135.46
1026.16	1101.57
1026.449	1106.31
1026.739	1103.15
1027.029	1090.72
1027.319	1075.13
1027.608	1072.87
1027.898	1086.2
1028.187	1089.14
1028.477	1085.75
1028.766	1078.74
1029.055	1061.34
1029.344	1058.18
1029.634	1024.28
1029.923	1033.55
1030.212	1026.77
1030.501	1028.35
1030.79	1008.91
1031.078	1023.6
1031.367	992.19
1031.656	1002.36
1031.945	993.1
1032.233	986.99
1032.522	989.03
1032.81	988.12
1033.099	968.92
1033.387	957.84
1033.675	968.24
1033.963	920.33
1034.251	961.91
1034.54	911.74
1034.828	940.89
1035.116	925.07
1035.403	929.14
1035.691	898.63
1035.979	907.9
1036.267	888.47
1036.554	902.02
1036.842	906.77
1037.129	883.95
1037.417	879.65
1037.704	876.94
1037.992	873.55
1038.279	847.34
1038.566	872.65
1038.853	872.65
1039.14	872.65
