Data from hue_30_FLMS001491_42.txt Node
Date: Mon Feb 06 15:05:22 GMT 2017
User: dcchb
Spectrometer: FLMS00149
Trigger mode: 0
Integration Time (sec): 2.000000E-2
Scans to average: 10
Electric dark correction enabled: true
Nonlinearity correction enabled: false
Boxcar width: 0
XAxis mode: Wavelengths
Number of Pixels in Spectrum: 2048
>>>>>Begin Spectral Data<<<<<
341.393	-33.87
341.776	-33.87
342.16	-33.87
342.543	-77.26
342.927	-78.84
343.31	-76.58
343.693	-57.82
344.077	-62.57
344.46	-57.37
344.843	-46.98
345.226	-28.45
345.61	-27.09
345.993	-39.07
346.376	-15.56
346.759	21.72
347.142	29.41
347.525	48.16
347.908	59.69
348.291	68.73
348.674	74.38
349.057	109.4
349.44	111.44
349.823	139.91
350.206	168.16
350.588	188.95
350.971	191.89
351.354	215.62
351.737	214.71
352.119	223.53
352.502	256.52
352.884	270.76
353.267	287.7
353.65	288.38
354.032	306.23
354.414	299.68
354.797	297.42
355.179	295.84
355.562	324.09
355.944	318.44
356.326	320.7
356.709	345.56
357.091	345.56
357.473	325.67
357.855	310.08
358.238	326.12
358.62	347.36
359.002	331.32
359.384	336.97
359.766	341.49
360.148	332.45
360.53	339.23
360.912	342.62
361.294	327.93
361.676	323.86
362.057	311.88
362.439	329.51
362.821	316.86
363.203	324.31
363.584	327.93
363.966	319.79
364.348	326.35
364.729	321.6
365.111	318.21
365.493	307.14
365.874	299.46
366.256	318.66
366.637	289.06
367.019	318.89
367.4	296.74
367.781	300.36
368.163	302.62
368.544	314.6
368.925	306.69
369.306	314.14
369.688	312.11
370.069	322.96
370.45	277.76
370.831	321.38
371.212	284.77
371.593	313.69
371.974	308.27
372.355	311.43
372.736	306.46
373.117	289.51
373.498	295.61
373.879	322.28
374.26	287.7
374.641	312.11
375.021	313.01
375.402	314.37
375.783	321.38
376.163	296.74
376.544	322.96
376.925	305.1
377.305	336.52
377.686	308.72
378.066	319.12
378.447	313.47
378.827	325.9
379.208	309.62
379.588	304.65
379.968	304.65
380.349	308.95
380.729	326.57
381.109	333.8
381.489	326.8
381.87	327.93
382.25	330.64
382.63	357.31
383.01	328.16
383.39	326.8
383.77	336.06
384.15	335.84
384.53	335.61
384.91	331.09
385.29	332.9
385.67	331.09
386.049	336.29
386.429	368.61
386.809	341.04
387.189	327.03
387.568	328.83
387.948	344.43
388.328	358.21
388.707	340.81
389.087	339
389.466	354.82
389.846	350.3
390.225	350.08
390.605	348.27
390.984	348.49
391.363	362.05
391.743	362.05
392.122	346.91
392.501	381.71
392.881	376.52
393.26	365.44
393.639	357.08
394.018	366.8
394.397	358.44
394.776	348.27
395.155	389.4
395.534	382.39
395.913	364.99
396.292	373.35
396.671	375.39
397.05	355.27
397.429	371.77
397.808	373.8
398.186	362.73
398.565	358.89
398.944	387.81
399.323	354.14
399.701	369.28
400.08	383.3
400.458	381.49
400.837	400.02
401.215	393.01
401.594	370.87
401.972	390.98
402.351	384.65
402.729	398.21
403.107	417.19
403.486	386.23
403.864	409.28
404.242	416.51
404.62	403.63
404.999	388.27
405.377	406.8
405.755	420.81
406.133	400.47
406.511	397.76
406.889	396.4
407.267	421.49
407.645	419.68
408.023	411.09
408.401	404.31
408.779	404.54
409.156	416.51
409.534	416.74
409.912	412.67
410.29	408.83
410.667	436.63
411.045	459.23
411.422	417.42
411.8	447.02
412.178	454.71
412.555	450.19
412.933	462.39
413.31	461.03
413.687	440.69
414.065	448.6
414.442	470.75
414.819	472.11
415.197	470.3
415.574	469.17
415.951	465.1
416.328	478.66
416.705	457.64
417.082	481.37
417.46	474.82
417.837	462.84
418.214	487.93
418.591	484.76
418.967	491.54
419.344	480.24
419.721	488.83
420.098	493.35
420.475	506
420.852	483.63
421.228	512.78
421.605	487.93
421.982	496.96
422.358	502.61
422.735	513.91
423.111	527.02
423.488	521.37
423.864	517.98
424.241	531.54
424.617	518.43
424.994	538.32
425.37	534.93
425.746	519.79
426.123	550.52
426.499	535.16
426.875	525.44
427.251	533.8
427.627	554.36
428.003	562.5
428.379	555.27
428.756	572.89
429.132	560.92
429.507	570.18
429.883	591.88
430.259	598.43
430.635	559.11
431.011	598.43
431.387	593.46
431.763	607.92
432.138	617.64
432.514	609.96
432.89	614.25
433.265	631.2
433.641	618.77
434.016	627.58
434.392	635.27
434.767	631.42
435.143	636.4
435.518	652.89
435.894	652.21
436.269	662.38
436.644	677.07
437.02	684.53
437.395	690.18
437.77	680.46
438.145	713.46
438.52	692.21
438.895	718.65
439.271	696.06
439.646	713.46
440.021	698.99
440.395	715.04
440.77	699.22
441.145	725.21
441.52	723.85
441.895	709.61
442.27	724.53
442.645	730.18
443.019	711.65
443.394	743.96
443.769	741.48
444.143	738.77
444.518	730.86
444.892	753.45
445.267	769.27
445.641	728.14
446.016	754.81
446.39	762.72
446.764	765.66
447.139	768.37
447.513	774.25
447.887	774.47
448.262	799.56
448.636	782.61
449.01	792.78
449.384	815.15
449.758	809.05
450.132	795.26
450.506	818.54
450.88	821.02
451.254	818.09
451.628	836.39
452.002	836.39
452.376	826
452.75	801.59
453.123	829.84
453.497	859.67
453.871	868.93
454.244	882.49
454.618	886.33
454.992	875.26
455.365	879.78
455.739	900.8
456.112	927.91
456.486	909.16
456.859	926.11
457.232	949.16
457.606	947.8
457.979	948.25
458.352	967.69
458.725	973.11
459.099	1014.69
459.472	1009.27
459.845	1014.69
460.218	1014.01
460.591	1018.31
460.964	1020.34
461.337	1066.67
461.71	1072.09
462.083	1082.26
462.456	1086.55
462.829	1079.1
463.201	1090.85
463.574	1101.69
463.947	1139.21
464.32	1142.6
464.692	1123.39
465.065	1156.38
465.438	1195.25
465.81	1183.73
466.183	1187.12
466.555	1232.76
466.928	1252.65
467.3	1221.47
467.672	1260.79
468.045	1246.78
468.417	1303.04
468.789	1284.74
469.161	1326.55
469.534	1336.49
469.906	1359.77
470.278	1352.99
470.65	1386.43
471.022	1390.73
471.394	1413.1
471.766	1402.03
472.138	1468.69
472.51	1472.08
472.882	1515.69
473.253	1526.54
473.625	1580.1
473.997	1606.31
474.369	1607.44
474.74	1634.56
475.112	1666.43
475.484	1703.71
475.855	1722.24
476.227	1764.28
476.598	1812.41
476.97	1822.58
477.341	1870.71
477.713	1891.73
478.084	1926.53
478.455	1968.34
478.827	1988.22
479.198	2081.33
479.569	2091.5
479.94	2152.29
480.311	2155
480.682	2210.59
481.053	2249.01
481.424	2334.2
481.795	2348.67
482.166	2400.87
482.537	2446.74
482.908	2495.78
483.279	2560.19
483.65	2630.24
484.021	2639.73
484.391	2712.27
484.762	2762.44
485.133	2775.77
485.503	2818.03
485.874	2899.39
486.244	2897.35
486.615	2995.43
486.985	3081.53
487.356	3110.45
487.726	3171.02
488.097	3277
488.467	3289.66
488.837	3329.66
489.207	3409.88
489.578	3472.48
489.948	3500.95
490.318	3565.81
490.688	3601.52
491.058	3702.53
491.428	3693.94
491.798	3806.26
492.168	3858.46
492.538	3911.34
492.908	3987.72
493.278	4020.49
493.648	4075.63
494.017	4156.53
494.387	4165.12
494.757	4271.55
495.126	4301.61
495.496	4336.19
495.866	4357.88
496.235	4449.63
496.605	4483.53
496.974	4565.11
497.344	4584.99
497.713	4610.53
498.082	4695.72
498.452	4747.25
498.821	4780.47
499.19	4810.52
499.559	4818.43
499.928	4880.13
500.298	4945.66
500.667	4993.57
501.036	4963.97
501.405	5062.04
501.774	5088.71
502.143	5134.36
502.512	5158.54
502.88	5236.5
503.249	5202.83
503.618	5270.4
503.987	5324.86
504.356	5336.84
504.724	5311.3
505.093	5428.13
505.462	5465.2
505.83	5459.09
506.199	5464.52
506.567	5537.28
506.936	5637.62
507.304	5644.4
507.672	5665.42
508.041	5712.42
508.409	5799.42
508.777	5739.54
509.145	5801.01
509.514	5841.23
509.882	5858.86
510.25	5882.13
510.618	5952.87
510.986	6013.66
511.354	5993.09
511.722	6010.72
512.09	6104.27
512.458	6114.67
512.826	6196.02
513.193	6123.71
513.561	6218.4
513.929	6218.4
514.297	6280.09
514.664	6339.75
515.032	6355.34
515.4	6397.37
515.767	6440.08
516.135	6486.64
516.502	6374.32
516.869	6487.77
517.237	6529.35
517.604	6487.54
517.972	6600.76
518.339	6629.91
518.706	6645.96
519.073	6615.9
519.44	6652.96
519.808	6747.65
520.175	6720.3
520.542	6788.32
520.909	6811.83
521.276	6834.42
521.643	6909.68
522.009	6874.88
522.376	7003.46
522.743	6972.05
523.11	6999.84
523.477	7118.94
523.843	7106.06
524.21	7177.69
524.577	7245.26
524.943	7273.06
525.31	7276.67
525.676	7386.95
526.043	7328.88
526.409	7426.27
526.776	7498.14
527.142	7466.05
527.508	7556.21
527.874	7607.74
528.241	7650.67
528.607	7605.7
528.973	7691.35
529.339	7722.31
529.705	7770.67
530.071	7848.86
530.437	7837.79
530.803	7922.76
531.169	7944.68
531.535	7913.04
531.901	8005.24
532.267	8050.44
532.632	8060.38
532.998	8096.99
533.364	8153.71
533.73	8194.16
534.095	8224.44
534.461	8277.1
534.826	8343.99
535.192	8346.93
535.557	8397.55
535.923	8383.54
536.288	8388.06
536.653	8468.96
537.019	8409.52
537.384	8550.31
537.749	8582.18
538.114	8555.28
538.479	8605
538.845	8636.64
539.21	8626.92
539.575	8708.95
539.94	8752.34
540.305	8777.88
540.67	8768.39
541.034	8855.16
541.399	8962.05
541.764	8865.11
542.129	8947.82
542.494	8955.5
542.858	8994.14
543.223	9009.73
543.587	9075.04
543.952	9078.21
544.316	9096.51
544.681	9185.1
545.045	9165.44
545.41	9330.18
545.774	9284.3
546.138	9400.01
546.503	9382.15
546.867	9347.58
547.231	9442.04
547.595	9490.63
547.959	9489.72
548.324	9476.62
548.688	9545.99
549.052	9539.66
549.416	9646.78
549.779	9604.52
550.143	9623.05
550.507	9733.11
550.871	9826.21
551.235	9784.4
551.599	9893.55
551.962	9854.01
552.326	9892.88
552.689	9923.38
553.053	9873.44
553.417	9988.24
553.78	10104.17
554.143	10014
554.507	10024.85
554.87	10128.35
555.234	10122.93
555.597	10107.56
555.96	10179.65
556.323	10185.07
556.686	10242.47
557.05	10273.66
557.413	10341.9
557.776	10348.68
558.139	10450.83
558.502	10416.7
558.865	10382.58
559.228	10534.67
559.59	10539.19
559.953	10582.35
560.316	10669.8
560.679	10677.49
561.041	10672.52
561.404	10705.06
561.767	10810.37
562.129	10785.51
562.492	10880.87
562.854	10848.1
563.217	10837.03
563.579	10924.71
563.941	10994.54
564.304	11007.2
564.666	11043.35
565.028	11077.48
565.39	11153.41
565.753	11169.68
566.115	11178.27
566.477	11233.18
566.839	11304.36
567.201	11312.27
567.563	11355.44
567.925	11411.93
568.287	11481.08
568.648	11592.27
569.01	11503.91
569.372	11622.1
569.734	11576.9
570.095	11727.86
570.457	11746.84
570.819	11774.18
571.18	11833.62
571.542	11851.24
571.903	11878.36
572.265	11891.69
572.626	11954.06
572.987	12100.5
573.349	12119.94
573.71	12207.16
574.071	12359.25
574.432	12327.39
574.794	12454.16
575.155	12465.24
575.516	12515.86
575.877	12549.53
576.238	12640.6
576.599	12759.69
576.96	12778.45
577.32	12927.37
577.681	12999.69
578.042	13057.76
578.403	13152.9
578.763	13317.19
579.124	13337.76
579.485	13480.13
579.845	13650.29
580.206	13686
580.566	13784.07
580.927	14021.35
581.287	14119.21
581.648	14263.83
582.008	14347.22
582.368	14437.39
582.728	14789.24
583.089	14865.63
583.449	15030.82
583.809	15090.03
584.169	15403.24
584.529	15464.48
584.889	15799.39
585.249	15806.62
585.609	16026.5
585.969	16310.79
586.329	16427.84
586.688	16672.13
587.048	16871.9
587.408	16986.93
587.768	17167.71
588.127	17438.67
588.487	17675.5
588.846	17989.39
589.206	17982.38
589.565	18254.01
589.925	18668.24
590.284	18769.48
590.643	19091.5
591.003	19439.29
591.362	19609.23
591.721	19878.83
592.08	20140.52
592.44	20282.43
592.799	20634.97
593.158	20733.04
593.517	21015.97
593.876	21375.74
594.235	21482.85
594.593	21735.05
594.952	21989.51
595.311	22138.43
595.67	22515.14
596.029	22826.77
596.387	23193.99
596.746	23352.41
597.104	23554.44
597.463	23641.21
597.822	24047.53
598.18	24277.36
598.538	24464.7
598.897	24845.7
599.255	24907.17
599.613	25480.26
599.972	25471
600.33	25733.14
600.688	25901.49
601.046	26176.29
601.404	26518.43
601.762	26771.53
602.12	27058.53
602.478	27341
602.836	27392.08
603.194	27612.86
603.552	27713.88
603.91	27777.38
604.268	28235.22
604.625	28437.7
604.983	28644.47
605.341	28750.46
605.698	29040.39
606.056	29253.95
606.413	29440.84
606.771	29676.31
607.128	29837.89
607.485	29872.01
607.843	30107.71
608.2	30434.48
608.557	30639
608.914	30786.11
609.272	31066.78
609.629	31091.41
609.986	31354.46
610.343	31410.5
610.7	31743.6
611.057	31819.3
611.414	31841.22
611.771	32165.06
612.127	32285.96
612.484	32429.91
612.841	32647.76
613.198	32670.13
613.554	32780.64
613.911	33118.71
614.267	33264.69
614.624	33242.77
614.98	33549.2
615.337	33681.18
615.693	33715.3
616.05	33837.1
616.406	34105.12
616.762	34048.62
617.118	34293.14
617.475	34327.49
617.831	34466.92
618.187	34676.63
618.543	34700.81
618.899	35007.92
619.255	35004.98
619.611	35185.54
619.967	35285.43
620.323	35274.58
620.678	35281.13
621.034	35292.89
621.39	35535.14
621.746	35389.61
622.101	35955.69
622.457	35698.98
622.812	35822.36
623.168	36073.2
623.523	36061
623.879	36175.57
624.234	36009.7
624.589	36279.75
624.945	36287.21
625.3	36438.62
625.655	36445.62
626.01	36401.33
626.365	36588.22
626.72	36603.13
627.075	36566.75
627.43	36609.69
627.785	36621.21
628.14	36725.84
628.495	36652.62
628.85	36710.02
629.205	36728.1
629.559	36983.24
629.914	36807.65
630.269	36867.76
630.623	36796.8
630.978	36819.63
631.332	36952.5
631.687	37148.88
632.041	36848.78
632.396	37072.73
632.75	36824.14
633.104	37079.51
633.459	36844.48
633.813	36938.72
634.167	37000.86
634.521	37041.77
634.875	37108.43
635.229	36968.55
635.583	36986.85
635.937	36738.72
636.291	36941.2
636.645	36928.77
636.999	36784.37
637.352	37019.62
637.706	36756.8
638.06	37032.05
638.413	36921.09
638.767	36964.03
639.121	36895.33
639.474	36683.13
639.828	36853.75
640.181	36836.8
640.534	36839.29
640.888	36772.85
641.241	36656.47
641.594	36796.8
641.947	36770.36
642.301	36742.56
642.654	36705.96
643.007	36592.96
643.36	36691.04
643.713	36615.79
644.066	36750.25
644.419	36435.23
644.771	36386.19
645.124	36021.23
645.477	35853.1
645.83	35664.4
646.182	35664.85
646.535	35520.9
646.888	35645.19
647.24	35373.56
647.593	35637.74
647.945	35470.28
648.298	35503.28
648.65	35451.07
649.002	35346.22
649.355	35393.67
649.707	35367.23
650.059	35604.06
650.411	35989.82
650.763	36064.16
651.115	36411.95
651.467	36330.82
651.819	36232.97
652.171	36234.78
652.523	36073.43
652.875	36091.51
653.227	36090.6
653.578	36366.3
653.93	36171.73
654.282	36151.62
654.633	35909.14
654.985	36087.67
655.337	35998.63
655.688	36196.82
656.039	36143.94
656.391	35906.65
656.742	36012.64
657.094	36022.13
657.445	36119.3
657.796	35913.66
658.147	35810.84
658.498	35979.87
658.849	36116.59
659.2	35854.45
659.551	35856.71
659.902	36051.74
660.253	35865.75
660.604	36041.34
660.955	35755.25
661.306	35906.2
661.656	35868.01
662.007	35729.48
662.358	35827.33
662.708	35854.68
663.059	35750.95
663.409	35597.74
663.76	35883.83
664.11	35961.57
664.461	35829.59
664.811	35838.18
665.161	35849.03
665.511	35668.02
665.862	35684.06
666.212	35928.12
666.562	35865.07
666.912	35876.6
667.262	35775.36
667.612	35663.27
667.962	35719.54
668.312	35704.85
668.662	35792.31
669.011	35807.45
669.361	35791.63
669.711	35644.06
670.06	35583.73
670.41	35605.87
670.76	35619.88
671.109	35688.36
671.459	35690.39
671.808	35752.99
672.157	35741.24
672.507	35398.65
672.856	35415.37
673.205	35533.11
673.554	35591.18
673.904	35545.99
674.253	35697.39
674.602	35530.62
674.951	35039.33
675.3	34745.78
675.649	35427.8
675.998	35383.28
676.346	35474.8
676.695	35340.12
677.044	35190.74
677.393	35213.34
677.741	35329.49
678.09	35230.51
678.438	35205.43
678.787	35182.38
679.135	35215.6
679.484	34988.03
679.832	35198.42
680.181	34956.85
680.529	35137.41
680.877	34974.48
681.225	34951.65
681.573	35098.54
681.922	34996.17
682.27	34783.97
682.618	34747.36
682.966	34710.98
683.314	34683.41
683.661	34608.16
684.009	34421.5
684.357	34422.4
684.705	34328.39
685.053	34439.35
685.4	34314.15
685.748	34046.82
686.095	34235.06
686.443	34068.74
686.79	34053.14
687.138	34125.01
687.485	34150.09
687.832	34038.46
688.18	34052.47
688.527	33770.89
688.874	33784.9
689.221	33796.43
689.568	33679.82
689.915	33667.62
690.262	33611.12
690.609	33497.23
690.956	33420.17
691.303	33308.3
691.65	33171.13
691.997	33093.4
692.344	33038.93
692.69	32956.45
693.037	33059.95
693.383	32685.04
693.73	32788.09
694.077	32682.33
694.423	32708.09
694.769	32481.43
695.116	32490.25
695.462	32297.94
695.808	32323.25
696.155	32287.31
696.501	32047.32
696.847	32163.25
697.193	31908.34
697.539	32031.28
697.885	31744.05
698.231	31598.97
698.577	31693.66
698.923	31659.53
699.269	31574.79
699.614	31344.51
699.96	31303.84
700.306	31364.4
700.651	31180
700.997	31104.52
701.342	31049.61
701.688	30988.14
702.033	30964.41
702.379	30867.92
702.724	30742.95
703.069	30737.75
703.415	30461.83
703.76	30489.85
704.105	30659.11
704.45	30484.88
704.795	30215.28
705.14	30229.29
705.485	30145.68
705.83	30059.35
706.175	30028.84
706.52	29974.16
706.865	30016.41
707.209	29879.92
707.554	29801.96
707.899	29791.34
708.243	29606.26
708.588	29613.03
708.932	29378.24
709.277	29423.89
709.621	29479.25
709.966	29252.82
710.31	29329.43
710.654	29018.02
710.998	29150
711.342	29053.05
711.687	28879.04
712.031	28911.13
712.375	28742.78
712.719	28743
713.063	28639.73
713.407	28808.08
713.75	28561.99
714.094	28638.82
714.438	28453.29
714.782	28670.91
715.125	28479.05
715.469	28379.62
715.812	28284.48
716.156	28139.63
716.499	28180.3
716.843	28258.72
717.186	27938.05
717.53	28242
717.873	28132.4
718.216	28126.75
718.559	27914.77
718.902	27763.37
719.246	27863.25
719.589	27776.93
719.932	27535.12
720.275	27677.72
720.617	27592.52
720.96	27574.44
721.303	27545.97
721.646	27581.9
721.989	27436.82
722.331	27484.73
722.674	27251.29
723.016	27346.88
723.359	27265.53
723.701	27223.04
724.044	27152.53
724.386	27101.01
724.729	27129.03
725.071	27133.78
725.413	26966.1
725.755	26946.21
726.097	26829.83
726.439	26607.69
726.782	26707.35
727.124	26901.24
727.465	26738.53
727.807	26731.53
728.149	26651.3
728.491	26543.29
728.833	26584.19
729.175	26483.4
729.516	26381.26
729.858	26427.36
730.199	26484.76
730.541	26419.45
730.882	26415.38
731.224	26463.97
731.565	26266.68
731.906	26279.34
732.248	26230.98
732.589	26115.5
732.93	26075.73
733.271	26057.2
733.612	26132.67
733.953	26119.34
734.294	25946.92
734.635	25998.67
734.976	25929.29
735.317	25989.85
735.658	25732.01
735.999	25848.16
736.339	25686.81
736.68	25846.13
737.021	25767.03
737.361	25612.69
737.702	25736.53
738.042	25543.31
738.383	25583.99
738.723	25601.84
739.063	25445.91
739.404	25475.74
739.744	25516.19
740.084	25382.41
740.424	25460.6
740.764	25336.76
741.104	25423.31
741.444	25245.47
741.784	25160.72
742.124	25312.81
742.464	25196.2
742.804	25127.28
743.143	25186.03
743.483	25136.09
743.823	25015.87
744.162	25042.99
744.502	25013.16
744.841	24831.69
745.181	24913.72
745.52	24890.9
745.86	24866.27
746.199	24798.25
746.538	24684.58
746.877	24776.78
747.216	24781.75
747.556	24723.45
747.895	24680.96
748.234	24607.06
748.573	24506.95
748.911	24593.96
749.25	24434.64
749.589	24407.97
749.928	24419.5
750.267	24534.3
750.605	24375.43
750.944	24307.86
751.283	24206.4
751.621	24323.46
751.96	24211.14
752.298	24205.04
752.636	24152.39
752.975	24017.93
753.313	24018.38
753.651	24157.59
753.989	23979.96
754.327	23911.94
754.666	23773.41
755.004	23847.76
755.342	23918.27
755.679	23833.53
756.017	23713.08
756.355	23803.24
756.693	23699.29
757.031	23667.43
757.368	23484.38
757.706	23429.02
758.044	23366.42
758.381	23396.7
758.719	23348.11
759.056	23461.78
759.394	23325.74
759.731	23160.78
760.068	23196.25
760.405	23072.87
760.743	22994.9
761.08	22974.34
761.417	22949.26
761.754	22815.25
762.091	22851.63
762.428	22729.83
762.765	22601.24
763.102	22719.2
763.438	22575.93
763.775	22436.95
764.112	22506.78
764.449	22544.29
764.785	22295.04
765.122	22180.01
765.458	22076.96
765.795	22214.81
766.131	22068.83
766.467	21957.64
766.804	21879.45
767.14	21834.93
767.476	21892.79
767.812	21657.76
768.148	21720.36
768.485	21505.23
768.821	21462.97
769.157	21418.22
769.492	21349.07
769.828	21396.53
770.164	21118.57
770.5	21149.98
770.836	21045.35
771.171	20950.44
771.507	20969.65
771.842	20780.72
772.178	20779.82
772.513	20743.21
772.849	20722.42
773.184	20619.15
773.519	20698.47
773.855	20519.49
774.19	20428.19
774.525	20225.03
774.86	20341.64
775.195	20304.13
775.53	20187.07
775.865	20050.12
776.2	19893.97
776.535	19815.1
776.87	19842.67
777.205	19791.37
777.539	19679.74
777.874	19684.93
778.209	19627.31
778.543	19424.38
778.878	19387.32
779.212	19280.43
779.547	19260.99
779.881	19219.18
780.215	19101.67
780.55	19035.46
780.884	19033.88
781.218	18943.48
781.552	18882.24
781.886	18780.1
782.22	18717.28
782.554	18698.75
782.888	18474.8
783.222	18424.63
783.556	18431.18
783.889	18304.41
784.223	18241.13
784.557	18250.62
784.89	18142.38
785.224	18016.96
785.557	17985.77
785.891	17922.95
786.224	17926.34
786.558	17919.56
786.891	17777.19
787.224	17718.21
787.557	17725.66
787.891	17732.67
788.224	17572.22
788.557	17560.47
788.89	17546.01
789.223	17361.38
789.556	17241.61
789.888	17228.28
790.221	17190.99
790.554	17075.74
790.887	17146.02
791.219	17088.17
791.552	17036.64
791.884	16909.41
792.217	16933.37
792.549	16844.56
792.882	16649.31
793.214	16631.91
793.546	16617.44
793.879	16603.43
794.211	16465.58
794.543	16507.16
794.875	16394.85
795.207	16459.26
795.539	16351.01
795.871	16251.8
796.203	16175.65
796.535	16131.13
796.867	16083.67
797.198	16057.69
797.53	15989.89
797.862	15892.27
798.193	15914.41
798.525	15739.28
798.856	15816.11
799.188	15725.26
799.519	15667.86
799.85	15534.76
800.182	15600.97
800.513	15499.06
800.844	15357.82
801.175	15480.75
801.506	15351.71
801.837	15344.94
802.168	15253.86
802.499	15235.11
802.83	15162.57
803.161	15126.41
803.491	15108.33
803.822	15102
804.153	14943.59
804.483	14895.23
804.814	14829.47
805.145	14861.11
805.475	14835.12
805.805	14739.98
806.136	14772.97
806.466	14727.78
806.796	14675.12
807.126	14568.68
807.457	14501.12
807.787	14547.89
808.117	14420.89
808.447	14458.63
808.777	14360.55
809.107	14430.84
809.436	14294.57
809.766	14332.53
810.096	14255.02
810.426	14248.02
810.755	14187.23
811.085	14154.46
811.414	14115.36
811.744	13946.33
812.073	13940.68
812.403	13979.77
812.732	13832.21
813.061	13872.43
813.39	13726
813.719	13755.6
814.049	13815.26
814.378	13834.01
814.707	13681.48
815.036	13713.11
815.365	13591.76
815.693	13546.56
816.022	13587.92
816.351	13504.98
816.68	13486.45
817.008	13401.03
817.337	13344.99
817.665	13330.98
817.994	13359.68
818.322	13375.04
818.651	13283.29
818.979	13275.84
819.307	13257.76
819.636	13225.22
819.964	13167.59
820.292	13216.63
820.62	13237.65
820.948	13108.84
821.276	13200.13
821.604	13108.61
821.932	13174.15
822.259	13145.67
822.587	13029.06
822.915	13013.92
823.243	13103.19
823.57	13075.62
823.898	13186.35
824.225	13007.6
824.553	13078.78
824.88	13003.75
825.207	13114.71
825.535	13056.41
825.862	13050.98
826.189	13006.24
826.516	13066.35
826.843	13131.43
827.17	13038.33
827.497	13088.27
827.824	13071.32
828.151	13010.08
828.478	13041.04
828.805	13105.22
829.131	12998.1
829.458	12942.06
829.785	13000.14
830.111	12902.74
830.438	13018.67
830.764	13002.4
831.09	13045.11
831.417	12948.84
831.743	12905.68
832.069	12979.35
832.395	12932.8
832.722	12962.85
833.048	12853.48
833.374	12858.22
833.7	12898.9
834.026	12897.54
834.351	12876.3
834.677	12837.66
835.003	12862.74
835.329	12861.16
835.654	12786.58
835.98	12828.39
836.306	12767.15
836.631	12719.92
836.956	12783.87
837.282	12766.92
837.607	12674.95
837.932	12603.76
838.258	12662.52
838.583	12619.36
838.908	12592.92
839.233	12616.19
839.558	12536.2
839.883	12494.16
840.208	12505.91
840.533	12490.77
840.858	12510.89
841.182	12491
841.507	12516.08
841.832	12394.73
842.156	12418.01
842.481	12296.2
842.805	12286.03
843.13	12251.68
843.454	12279.25
843.778	12250.1
844.103	12194.51
844.427	12115.87
844.751	12171.46
845.075	12110.9
845.399	12080.84
845.723	11980.96
846.047	11990.9
846.371	11952.26
846.695	11932.6
847.019	11841.52
847.343	11846.27
847.666	11713.17
847.99	11689.89
848.313	11742.32
848.637	11610.8
848.96	11547.07
849.284	11562.21
849.607	11458.26
849.931	11390.92
850.254	11336
850.577	11363.8
850.9	11263.01
851.223	11246.74
851.546	11248.55
851.869	11095.56
852.192	11136.23
852.515	11032.05
852.838	11078.61
853.161	11028.44
853.483	10952.51
853.806	10936.46
854.129	10834.09
854.451	10816.02
854.774	10849.01
855.096	10846.75
855.419	10699.63
855.741	10671.84
856.063	10611.95
856.385	10667.77
856.708	10607.21
857.03	10620.31
857.352	10531.73
857.674	10511.62
857.996	10525.18
858.318	10439.53
858.64	10410.83
858.961	10376.7
859.283	10325.63
859.605	10301.9
859.926	10290.83
860.248	10224.84
860.57	10258.06
860.891	10237.95
861.212	10226.43
861.534	10192.53
861.855	10162.02
862.176	10195.24
862.498	10054.45
862.819	10144.62
863.14	10011.06
863.461	10000.22
863.782	10090.84
864.103	10040.89
864.424	9965.64
864.745	9988.01
865.065	9918.41
865.386	9891.97
865.707	9917.28
866.027	9915.25
866.348	9866.21
866.668	9878.41
866.989	9821.46
867.309	9781.69
867.63	9780.34
867.95	9809.26
868.27	9735.37
868.59	9792.54
868.91	9754.57
869.23	9758.19
869.55	9604.75
869.87	9748.02
870.19	9704.18
870.51	9657.85
870.83	9727.46
871.15	9579.66
871.469	9674.8
871.789	9702.82
872.109	9593.67
872.428	9534.47
872.748	9564.52
873.067	9546.22
873.386	9503.28
873.706	9596.39
874.025	9496.73
874.344	9436.84
874.663	9414.24
874.982	9441.81
875.301	9360.23
875.62	9398.43
875.939	9360.91
876.258	9367.01
876.577	9370.18
876.896	9293.8
877.214	9320.91
877.533	9284.76
877.852	9332.21
878.17	9249.5
878.489	9260.8
878.807	9302.38
879.125	9219.9
879.444	9210.63
879.762	9255.15
880.08	9267.81
880.398	9207.24
880.716	9168.15
881.034	9124.31
881.352	9113.69
881.67	9116.4
881.988	9130.18
882.306	9108.49
882.624	9073.01
882.941	9005.22
883.259	8979.45
883.577	9038.43
883.894	8960.24
884.212	8914.82
884.529	8939.23
884.846	8912.11
885.164	8847.93
885.481	8899.91
885.798	8903.07
886.115	8781.72
886.432	8778.33
886.75	8825.56
887.067	8794.6
887.383	8702.62
887.7	8756.86
888.017	8671.44
888.334	8659.91
888.651	8733.36
888.967	8614.27
889.284	8513.7
889.6	8655.85
889.917	8477.09
890.233	8452.69
890.55	8468.96
890.866	8457.66
891.182	8474.16
891.498	8445
891.815	8366.36
892.131	8337.66
892.447	8356.19
892.763	8357.55
893.079	8327.94
893.395	8246.37
893.71	8188.29
894.026	8270.09
894.342	8237.55
894.657	8195.74
894.973	8117.33
895.289	8186.48
895.604	8192.13
895.92	8071.68
896.235	7986.26
896.55	8018.35
896.865	8020.16
897.181	7976.09
897.496	8004.79
897.811	7895.64
898.126	7871.46
898.441	7892.48
898.756	7787.62
899.071	7794.4
899.386	7823.55
899.7	7743.1
900.015	7714.18
900.33	7652.03
900.644	7667.62
900.959	7687.28
901.273	7620.17
901.588	7609.77
901.902	7573.39
902.216	7511.02
902.531	7527.74
902.845	7489.32
903.159	7454.07
903.473	7447.06
903.787	7409.78
904.101	7376.56
904.415	7370.91
904.729	7326.39
905.042	7259.5
905.356	7283
905.67	7205.94
905.984	7269.44
906.297	7192.16
906.611	7123.91
906.924	7119.39
907.237	7133.4
907.551	7068.99
907.864	7050.69
908.177	7040.3
908.491	7023.35
908.804	6977.7
909.117	6954.42
909.43	6860.86
909.743	6894.54
910.056	6840.3
910.368	6783.58
910.681	6751.26
910.994	6756.01
911.307	6756.01
911.619	6650.7
911.932	6697.93
912.244	6639.85
912.557	6629.46
912.869	6600.31
913.181	6584.49
913.494	6587.43
913.806	6557.82
914.118	6495.9
914.43	6476.24
914.742	6473.3
915.054	6429.46
915.366	6384.27
915.678	6322.12
915.99	6363.93
916.302	6278.73
916.613	6267.21
916.925	6247.1
917.236	6256.81
917.548	6179.98
917.859	6202.8
918.171	6141.56
918.482	6170.71
918.794	6181.11
919.105	6097.27
919.416	6040.32
919.727	6057.04
920.038	6041.45
920.349	6002.81
920.66	5981.57
920.971	5976.59
921.282	5920.1
921.593	5887.56
921.903	5862.7
922.214	5832.64
922.525	5819.08
922.835	5755.58
923.146	5793.32
923.456	5721.91
923.767	5741.35
924.077	5702.48
924.387	5665.64
924.697	5658.41
925.008	5663.38
925.318	5593.55
925.628	5606.43
925.938	5582.03
926.248	5532.09
926.558	5525.31
926.867	5470.17
927.177	5435.14
927.487	5412.99
927.796	5385.2
928.106	5351.53
928.416	5345.65
928.725	5389.04
929.034	5301.13
929.344	5329.15
929.653	5308.59
929.962	5257.97
930.271	5241.25
930.581	5203.96
930.89	5185.2
931.199	5171.87
931.508	5138.42
931.817	5133.9
932.125	5129.84
932.434	5092.55
932.743	5044.19
933.051	5056.39
933.36	4995.6
933.669	4992.89
933.977	4963.51
934.286	4923.29
934.594	4939.79
934.902	4882.39
935.21	4908.6
935.519	4865.89
935.827	4832.9
936.135	4803.07
936.443	4765.33
936.751	4789.96
937.059	4792.67
937.367	4719
937.674	4717.87
937.982	4705.89
938.29	4700.7
938.597	4717.64
938.905	4593.13
939.213	4643.97
939.52	4609.62
939.827	4629.96
940.135	4557.2
940.442	4529.63
940.749	4543.64
941.056	4563.75
941.363	4465.45
941.67	4462.74
941.977	4469.06
942.284	4407.6
942.591	4451.89
942.898	4389.52
943.205	4365.56
943.511	4356.3
943.818	4353.13
944.125	4333.47
944.431	4260.26
944.738	4335.96
945.044	4258
945.35	4234.04
945.657	4228.62
945.963	4244.89
946.269	4177.77
946.575	4176.64
946.881	4119.92
947.187	4133.93
947.493	4114.95
947.799	4136.87
948.105	4098.68
948.41	4110.43
948.716	4076.76
949.022	4049.87
949.327	4062.52
949.633	3988.4
949.938	3968.51
950.244	3972.35
950.549	3944.78
950.854	3944.11
951.16	3936.2
951.465	3937.33
951.77	3950.43
952.075	3911.11
952.38	3864.33
952.685	3805.8
952.99	3844.9
953.294	3771.91
953.599	3767.16
953.904	3794.96
954.209	3756.31
954.513	3715.64
954.818	3701.4
955.122	3767.39
955.426	3674.73
955.731	3644.9
956.035	3682.87
956.339	3629.76
956.643	3681.51
956.948	3568.75
957.252	3629.31
957.556	3577.56
957.86	3559.03
958.163	3566.49
958.467	3502.54
958.771	3505.92
959.075	3522.65
959.378	3473.16
959.682	3466.15
959.985	3453.04
960.289	3429.99
960.592	3410.11
960.896	3401.52
961.199	3419.83
961.502	3412.14
961.805	3415.08
962.108	3365.36
962.411	3339.38
962.714	3338.02
963.017	3312.03
963.32	3314.07
963.623	3319.71
963.926	3275.65
964.228	3228.64
964.531	3254.18
964.833	3219.15
965.136	3210.57
965.438	3194.52
965.741	3166.72
966.043	3178.93
966.345	3146.39
966.648	3129.21
966.95	3141.64
967.252	3131.02
967.554	3112.49
967.856	3121.75
968.158	3067.07
968.46	3097.57
968.761	3079.72
969.063	3058.25
969.365	2992.49
969.666	3029.33
969.968	3004.47
970.269	2982.55
970.571	2967.18
970.872	2951.14
971.174	2963.79
971.475	2957.01
971.776	2939.84
972.077	2921.76
972.378	2903.23
972.679	2890.57
972.98	2898.48
973.281	2834.53
973.582	2839.73
973.883	2812.38
974.183	2816.9
974.484	2854.42
974.785	2799.05
975.085	2806.51
975.386	2753.63
975.686	2766.51
975.986	2763.8
976.287	2733.06
976.587	2718.83
976.887	2707.98
977.187	2704.14
977.487	2726.06
977.787	2667.98
978.087	2650.81
978.387	2651.48
978.687	2659.17
978.987	2629.79
979.286	2651.94
979.586	2614.2
979.885	2622.11
980.185	2615.55
980.484	2575.78
980.784	2584.59
981.083	2554.09
981.382	2568.55
981.682	2525.39
981.981	2545.27
982.28	2494.2
982.579	2493.07
982.878	2468.66
983.177	2516.57
983.475	2460.98
983.774	2444.94
984.073	2444.48
984.372	2460.98
984.67	2396.12
984.969	2402.9
985.267	2385.95
985.566	2376.01
985.864	2373.98
986.162	2379.17
986.461	2369.01
986.759	2357.93
987.057	2316.13
987.355	2349.12
987.653	2295.79
987.951	2277.71
988.249	2326.52
988.547	2317.71
988.844	2263.47
989.142	2261.21
989.44	2265.73
989.737	2258.5
990.035	2249.69
990.332	2254.88
990.63	2241.78
990.927	2207.65
991.224	2195
991.521	2210.37
991.819	2164.27
992.116	2177.15
992.413	2171.04
992.71	2146.64
993.006	2182.12
993.303	2150.93
993.6	2153.64
993.897	2080.65
994.193	2123.36
994.49	2099.18
994.787	2063.02
995.083	2090.37
995.379	2070.93
995.676	2063.25
995.972	2019.18
996.268	2035
996.565	2037.49
996.861	1995.68
997.157	2006.98
997.453	1997.49
997.749	1980.99
998.044	1959.3
998.34	1967.21
998.636	1957.49
998.932	1975.8
999.227	1926.98
999.523	1909.36
999.818	1915.91
1000.114	1902.8
1000.409	1888.79
1000.704	1887.66
1001	1888.34
1001.295	1882.24
1001.59	1857.38
1001.885	1841.79
1002.18	1828.23
1002.475	1802.47
1002.77	1853.09
1003.065	1817.16
1003.359	1804.05
1003.654	1820.77
1003.949	1799.75
1004.243	1775.8
1004.538	1759.08
1004.832	1748.46
1005.127	1761.11
1005.421	1736.03
1005.715	1743.03
1006.009	1730.15
1006.304	1703.94
1006.598	1706.2
1006.892	1689.02
1007.186	1651.51
1007.48	1680.66
1007.773	1647.89
1008.067	1650.83
1008.361	1630.04
1008.655	1630.72
1008.948	1620.32
1009.242	1593.43
1009.535	1628.01
1009.829	1626.2
1010.122	1588.69
1010.415	1579.65
1010.708	1573.32
1011.001	1558.86
1011.295	1550.27
1011.588	1569.7
1011.881	1522.02
1012.173	1537.84
1012.466	1529.03
1012.759	1474.57
1013.052	1499.65
1013.344	1502.59
1013.637	1471.4
1013.93	1502.36
1014.222	1493.1
1014.514	1461.68
1014.807	1464.62
1015.099	1442.02
1015.391	1449.03
1015.683	1442.02
1015.976	1419.43
1016.268	1407.22
1016.56	1378.07
1016.851	1386.43
1017.143	1375.13
1017.435	1370.61
1017.727	1371.52
1018.018	1341.69
1018.31	1351.86
1018.602	1320.22
1018.893	1357.05
1019.185	1316.38
1019.476	1319.77
1019.767	1322.03
1020.058	1276.15
1020.35	1279.77
1020.641	1288.36
1020.932	1279.09
1021.223	1273.67
1021.514	1267.57
1021.804	1256.27
1022.095	1249.94
1022.386	1241.35
1022.677	1223.5
1022.967	1226.66
1023.258	1183.5
1023.548	1204.74
1023.839	1193.22
1024.129	1187.12
1024.419	1193.9
1024.709	1183.73
1025	1166.1
1025.29	1150.05
1025.58	1178.3
1025.87	1144.18
1026.16	1144.4
1026.449	1138.3
1026.739	1135.82
1027.029	1120
1027.319	1119.09
1027.608	1114.58
1027.898	1086.33
1028.187	1085.65
1028.477	1095.59
1028.766	1087.68
1029.055	1054.01
1029.344	1056.72
1029.634	1077.29
1029.923	1068.93
1030.212	1048.81
1030.501	1065.99
1030.79	1029.83
1031.078	1021.24
1031.367	1024.63
1031.656	1003.62
1031.945	1018.98
1032.233	1005.2
1032.522	981.25
1032.81	992.09
1033.099	968.59
1033.387	986.44
1033.675	947.35
1033.963	948.93
1034.251	965.88
1034.54	961.13
1034.828	967.91
1035.116	939.89
1035.403	930.85
1035.691	949.38
1035.979	935.37
1036.267	913.22
1036.554	936.5
1036.842	911.87
1037.129	902.15
1037.417	885.65
1037.704	921.59
1037.992	857.18
1038.279	883.39
1038.566	896.05
1038.853	896.05
1039.14	896.05
