Data from hue_170_FLMS001491_00088.txt Node
Date: Tue Feb 07 16:49:19 GMT 2017
User: dcchb
Spectrometer: FLMS00149
Trigger mode: 0
Integration Time (sec): 2.000000E-2
Scans to average: 10
Electric dark correction enabled: true
Nonlinearity correction enabled: false
Boxcar width: 0
XAxis mode: Wavelengths
Number of Pixels in Spectrum: 2048
>>>>>Begin Spectral Data<<<<<
341.393	-45.31
341.776	-45.31
342.16	-45.31
342.543	-68.81
342.927	-88.02
343.31	-60.22
343.693	-71.75
344.077	-88.25
344.46	-49.83
344.843	-57.51
345.226	-29.49
345.61	-37.4
345.993	-35.82
346.376	-22.71
346.759	-7.57
347.142	29.26
347.525	45.08
347.908	69.94
348.291	80.56
348.674	97.51
349.057	138.19
349.44	134.57
349.823	127.12
350.206	182.93
350.588	180.9
350.971	201.69
351.354	231.52
351.737	245.98
352.119	231.29
352.502	295.47
352.884	262.25
353.267	296.38
353.65	293.89
354.032	279.2
354.414	303.38
354.797	325.53
355.179	323.27
355.562	340.89
355.944	328.69
356.326	327.11
356.709	350.61
357.091	335.92
357.473	332.76
357.855	317.62
358.238	328.01
358.62	330.95
359.002	325.3
359.384	339.54
359.766	332.99
360.148	339.54
360.53	342.48
360.912	343.38
361.294	326.88
361.676	342.25
362.057	345.19
362.439	328.01
362.821	331.63
363.203	313.78
363.584	314.91
363.966	325.53
364.348	325.08
364.729	310.39
365.111	323.95
365.493	325.98
365.874	324.85
366.256	325.53
366.637	304.96
367.019	305.64
367.4	318.3
367.781	318.07
368.163	311.74
368.544	314.46
368.925	298.18
369.306	331.86
369.688	329.14
370.069	312.2
370.45	325.53
370.831	321.69
371.212	315.81
371.593	313.55
371.974	323.27
372.355	304.96
372.736	332.31
373.117	326.88
373.498	322.59
373.879	310.16
374.26	322.82
374.641	304.06
375.021	324.85
375.402	293.66
375.783	318.75
376.163	332.76
376.544	329.37
376.925	300.9
377.305	296.6
377.686	323.95
378.066	325.75
378.447	321.91
378.827	339.09
379.208	325.3
379.588	328.24
379.968	343.38
380.349	324.85
380.729	335.02
381.109	362.36
381.489	345.87
381.87	344.51
382.25	346.77
382.63	326.88
383.01	349.93
383.39	351.97
383.77	356.04
384.15	342.48
384.53	373.21
384.91	356.71
385.29	334.79
385.67	345.87
386.049	369.37
386.429	358.52
386.809	343.61
387.189	358.3
387.568	357.62
387.948	352.19
388.328	342.93
388.707	374.79
389.087	353.55
389.466	368.92
389.846	359.2
390.225	393.32
390.605	360.1
390.984	363.04
391.363	381.57
391.743	398.52
392.122	373.21
392.501	384.06
392.881	380.67
393.26	379.09
393.639	373.89
394.018	389.93
394.397	385.19
394.776	400.33
395.155	416.83
395.534	386.32
395.913	384.74
396.292	390.61
396.671	394.68
397.05	409.14
397.429	403.72
397.808	403.49
398.186	398.52
398.565	393.32
398.944	410.27
399.323	417.96
399.701	393.77
400.08	404.62
400.458	421.12
400.837	411.63
401.215	406.2
401.594	417.73
401.972	434.68
402.351	401.68
402.729	423.38
403.107	431.97
403.486	437.39
403.864	430.61
404.242	426.54
404.62	417.73
404.999	434.23
405.377	431.29
405.755	457.05
406.133	461.8
406.511	435.13
406.889	442.14
407.267	454.79
407.645	482.81
408.023	476.48
408.401	476.71
408.779	486.43
409.156	471.29
409.534	479.87
409.912	483.04
410.29	488.69
410.667	499.08
411.045	488.91
411.422	494.11
411.8	509.93
412.178	530.27
412.555	508.12
412.933	505.18
413.31	537.5
413.687	541.79
414.065	550.16
414.442	544.73
414.819	541.79
415.197	554.67
415.574	568.01
415.951	585.18
416.328	583.15
416.705	576.14
417.082	584.5
417.46	593.32
417.837	574.11
418.214	595.58
418.591	612.3
418.967	586.09
419.344	582.7
419.721	614.79
420.098	614.79
420.475	624.96
420.852	624.73
421.228	650.72
421.605	640.55
421.982	659.76
422.358	652.07
422.735	683.94
423.111	659.08
423.488	674.45
423.864	686.87
424.241	705.63
424.617	708.79
424.994	690.26
425.37	742.47
425.746	715.35
426.123	739.75
426.499	704.5
426.875	750.38
427.251	739.3
427.627	770.49
428.003	785.4
428.379	769.58
428.756	770.94
429.132	796.48
429.507	798.96
429.883	817.04
430.259	819.75
430.635	823.59
431.011	815.01
431.387	848.23
431.763	865.85
432.138	857.27
432.514	890.03
432.89	872.86
433.265	897.04
433.641	900.2
434.016	914.21
434.392	939.52
434.767	947.88
435.143	959.41
435.518	949.24
435.894	972.29
436.269	982.01
436.644	1017.49
437.02	979.97
437.395	1007.32
437.77	1059.52
438.145	1035.11
438.52	1031.72
438.895	1069.69
439.271	1060.2
439.646	1088.9
440.021	1100.42
440.395	1105.85
440.77	1102.23
441.145	1097.71
441.52	1140.87
441.895	1164.6
442.27	1162.79
442.645	1167.09
443.019	1197.14
443.394	1184.71
443.769	1157.37
444.143	1176.58
444.518	1228.1
444.892	1232.62
445.267	1210.02
445.641	1223.13
446.016	1256.13
446.39	1238.05
446.764	1226.3
447.139	1248.22
447.513	1262.68
447.887	1298.38
448.262	1294.99
448.636	1285.5
449.01	1307.88
449.384	1331.6
449.758	1336.35
450.132	1352.39
450.506	1356.91
450.88	1384.94
451.254	1356.91
451.628	1404.6
452.002	1395.56
452.376	1429.45
452.75	1462.22
453.123	1423.13
453.497	1451.83
453.871	1458.61
454.244	1530.02
454.618	1522.33
454.992	1534.99
455.365	1556.46
455.739	1574.99
456.112	1587.64
456.486	1617.02
456.859	1645.49
457.232	1645.72
457.606	1670.58
457.979	1679.84
458.352	1706.06
458.725	1709.9
459.099	1748.99
459.472	1778.15
459.845	1792.83
460.218	1795.55
460.591	1854.3
460.964	1844.81
461.337	1876.67
461.71	1956.9
462.083	1950.8
462.456	1952.83
462.829	1977.01
463.201	2025.82
463.574	2008.87
463.947	2070.79
464.32	2097.01
464.692	2125.71
465.065	2137.91
465.438	2187.85
465.81	2200.06
466.183	2232.37
466.555	2321.18
466.928	2312.82
467.3	2314.18
467.672	2364.12
468.045	2396.66
468.417	2440.73
468.789	2463.1
469.161	2462.87
469.534	2582.42
469.906	2619.71
470.278	2674.17
470.65	2693.15
471.022	2731.57
471.394	2796.88
471.766	2848.4
472.138	2886.14
472.51	2957.55
472.882	3032.12
473.253	3045.68
473.625	3116.87
473.997	3196.19
474.369	3260.14
474.74	3280.48
475.112	3393.7
475.484	3437.76
475.855	3580.13
476.227	3543.75
476.598	3684.54
476.97	3766.79
477.341	3850.63
477.713	3950.52
478.084	4006.56
478.455	4138.99
478.827	4187.12
479.198	4332.43
479.569	4336.5
479.94	4479.32
480.311	4529.71
480.682	4716.15
481.053	4818.29
481.424	4912.98
481.795	4998.63
482.166	5147.55
482.537	5204.27
482.908	5373.98
483.279	5461.66
483.65	5568.33
484.021	5716.57
484.391	5807.42
484.762	5911.37
485.133	5989.56
485.503	6110.69
485.874	6277.24
486.244	6359.95
486.615	6547.29
486.985	6693.95
487.356	6788.64
487.726	6958.12
488.097	7076.76
488.467	7177.55
488.837	7304.33
489.207	7475.62
489.578	7679.01
489.948	7785.67
490.318	7871.77
490.688	8020.92
491.058	8201.25
491.428	8323.96
491.798	8401.47
492.168	8598.3
492.538	8652.99
492.908	8791.29
493.278	8970.27
493.648	8984.28
494.017	9168.01
494.387	9289.13
494.757	9343.6
495.126	9544.72
495.496	9629.92
495.866	9699.29
496.235	9876.01
496.605	9922.79
496.974	10055.89
497.344	10115.33
497.713	10203.91
498.082	10349.22
498.452	10380.63
498.821	10523.45
499.19	10529.33
499.559	10623.34
499.928	10724.35
500.298	10869.21
500.667	10972.93
501.036	10901.75
501.405	11142.87
501.774	11082.31
502.143	11181.06
502.512	11333.83
502.88	11422.19
503.249	11378.12
503.618	11472.81
503.987	11631.45
504.356	11682.52
504.724	11631.45
505.093	11745.34
505.462	11786.7
505.83	11908.5
506.199	11983.07
506.567	12076.18
506.936	12021.04
507.304	12151.43
507.672	12110.53
508.041	12231.88
508.409	12322.5
508.777	12458.77
509.145	12451.09
509.514	12511.2
509.882	12557.07
510.25	12625.32
510.618	12653.11
510.986	12644.3
511.354	12811.53
511.722	12739.89
512.09	12896.95
512.458	12807.69
512.826	12977.85
513.193	12937.17
513.561	13057.17
513.929	13097.62
514.297	13149.6
514.664	13167
515.032	13245.41
515.4	13291.74
515.767	13257.17
516.135	13319.76
516.502	13254.23
516.869	13372.64
517.237	13471.85
517.604	13346.43
517.972	13478.4
518.339	13537.61
518.706	13495.35
519.073	13549.14
519.44	13562.24
519.808	13668.91
520.175	13529.25
520.542	13673.65
520.909	13746.87
521.276	13691.5
521.643	13720.88
522.009	13807.66
522.376	13851.5
522.743	13893.53
523.11	13917.94
523.477	14041.55
523.843	13989.58
524.21	14151.38
524.577	14111.38
524.943	14105.73
525.31	14161.77
525.676	14260.53
526.043	14160.19
526.409	14261.66
526.776	14401.77
527.142	14286.97
527.508	14319.06
527.874	14390.24
528.241	14425.5
528.607	14341.2
528.973	14451.48
529.339	14342.79
529.705	14434.31
530.071	14498.49
530.437	14439.51
530.803	14485.16
531.169	14433.18
531.535	14418.49
531.901	14433.86
532.267	14427.08
532.632	14450.58
532.998	14402.9
533.364	14362.67
533.73	14366.74
534.095	14365.16
534.461	14395.67
534.826	14384.14
535.192	14376.01
535.557	14401.09
535.923	14381.43
536.288	14304.6
536.653	14284.94
537.019	14249
537.384	14149.35
537.749	14272.28
538.114	14170.59
538.479	14130.81
538.845	14122.91
539.21	14079.52
539.575	14049.24
539.94	14023.93
540.305	14022.12
540.67	13948.22
541.034	13925.85
541.399	13829.58
541.764	13905.06
542.129	13885.17
542.494	13763.82
542.858	13789.35
543.223	13719.98
543.587	13761.11
543.952	13671.17
544.316	13622.35
544.681	13595.69
545.045	13664.84
545.41	13571.51
545.774	13475.92
546.138	13512.3
546.503	13371.51
546.867	13437.27
547.231	13450.83
547.595	13429.59
547.959	13291.51
548.324	13329.03
548.688	13289.48
549.052	13132.88
549.416	13147.34
549.779	13122.71
550.143	13082.25
550.507	13138.07
550.871	13174.46
551.235	12992.09
551.599	12966.1
551.962	13011.52
552.326	12999.55
552.689	12929.04
553.053	12872.99
553.417	12814.47
553.78	12891.53
554.143	12757.07
554.507	12855.59
554.87	12788.7
555.234	12843.17
555.597	12743.96
555.96	12757.97
556.323	12725.43
556.686	12647.46
557.05	12690.4
557.413	12708.03
557.776	12647.46
558.139	12719.78
558.502	12716.39
558.865	12688.82
559.228	12665.77
559.59	12657.63
559.953	12601.14
560.316	12692.43
560.679	12618.09
561.041	12670.74
561.404	12696.95
561.767	12795.26
562.129	12655.37
562.492	12662.38
562.854	12663.06
563.217	12713.23
563.579	12645.66
563.941	12739.21
564.304	12685.66
564.666	12713.23
565.028	12715.48
565.39	12686.11
565.753	12645.2
566.115	12708.93
566.477	12770.17
566.839	12738.99
567.201	12788.25
567.563	12730.63
567.925	12833.67
568.287	12748.25
568.648	12832.54
569.01	12861.24
569.372	12877.06
569.734	12833.22
570.095	12803.84
570.457	12952.31
570.819	12918.87
571.18	12794.8
571.542	12896.5
571.903	12895.82
572.265	12905.99
572.626	12928.36
572.987	12956.83
573.349	12980.56
573.71	13008.81
574.071	12945.99
574.432	13026.21
574.794	13032.76
575.155	12957.29
575.516	12979.88
575.877	13022.37
576.238	12991.64
576.599	13053.56
576.96	12970.62
577.32	12998.64
577.681	13078.87
578.042	13050.62
578.403	13010.17
578.763	12998.87
579.124	12951.64
579.485	13064.85
579.845	13131.07
580.206	13092.2
580.566	13063.95
580.927	13028.47
581.287	13032.54
581.648	13012.2
582.008	13058.75
582.368	13008.13
582.728	13076.38
583.089	13030.73
583.449	13041.8
583.809	12959.77
584.169	13049.71
584.529	13004.52
584.889	13113.21
585.249	13074.35
585.609	12996.38
585.969	12985.08
586.329	12900.34
586.688	13023.95
587.048	12891.07
587.408	12863.05
587.768	12922.94
588.127	12870.28
588.487	12840
588.846	12960.68
589.206	12791.64
589.565	12807.69
589.925	12875.71
590.284	12845.42
590.643	12903.28
591.003	12824.63
591.362	12910.73
591.721	12837.74
592.08	12790.74
592.44	12961.35
592.799	12781.47
593.158	12856.95
593.517	12762.26
593.876	12804.52
594.235	12769.95
594.593	12741.47
594.952	12771.3
595.311	12712.32
595.67	12750.74
596.029	12807.46
596.387	12831.87
596.746	12881.36
597.104	12681.81
597.463	12810.4
597.822	12771.3
598.18	12667.8
598.538	12702.38
598.897	12774.47
599.255	12657.18
599.613	12864.41
599.972	12774.01
600.33	12716.61
600.688	12715.94
601.046	12707.35
601.404	12736.28
601.762	12760
602.12	12742.15
602.478	12825.54
602.836	12756.61
603.194	12707.8
603.552	12728.59
603.91	12653.34
604.268	12661.25
604.625	12661.93
604.983	12756.84
605.341	12630.06
605.698	12724.52
606.056	12764.07
606.413	12748.25
606.771	12758.65
607.128	12817.18
607.485	12690.63
607.843	12671.42
608.2	12791.42
608.557	12790.51
608.914	12777.86
609.272	12859.21
609.629	12800
609.986	12863.5
610.343	12688.37
610.7	12867.8
611.057	12832.32
611.414	12840.68
611.771	12821.7
612.127	12863.5
612.484	12864.63
612.841	12964.29
613.198	12871.64
613.554	12870.06
613.911	12924.52
614.267	12899.43
614.624	12830.74
614.98	12902.6
615.337	12965.87
615.693	12948.93
616.05	12959.32
616.406	12962.94
616.762	13008.36
617.118	12926.33
617.475	12974.69
617.831	12998.42
618.187	12978.75
618.543	13034.35
618.899	13038.87
619.255	13037.51
619.611	13037.51
619.967	13042.48
620.323	13094.91
620.678	13039.54
621.034	12971.98
621.39	13013.56
621.746	12942.6
622.101	13150.73
622.457	12989.6
622.812	13072.54
623.168	13103.95
623.523	13098.75
623.879	13110.05
624.234	13008.81
624.589	13054.91
624.945	13075.93
625.3	13125.64
625.655	13080
626.01	13151.41
626.365	13098.07
626.72	13090.62
627.075	13059.66
627.43	13004.52
627.785	13061.01
628.14	12985.53
628.495	13031.86
628.85	12977.4
629.205	12921.81
629.559	13000.68
629.914	12937.4
630.269	13046.55
630.623	12936.5
630.978	12880
631.332	12952.31
631.687	12938.53
632.041	12879.1
632.396	12990.51
632.75	12827.57
633.104	12914.35
633.459	12794.58
633.813	12816.05
634.167	12815.6
634.521	12764.75
634.875	12869.83
635.229	12811.53
635.583	12827.12
635.937	12762.72
636.291	12813.56
636.645	12731.08
636.999	12708.93
637.352	12720.68
637.706	12586.22
638.06	12607.24
638.413	12604.53
638.767	12714.35
639.121	12620.57
639.474	12529.28
639.828	12553.91
640.181	12488.6
640.534	12527.47
640.888	12465.77
641.241	12474.59
641.594	12497.19
641.947	12567.69
642.301	12473.01
642.654	12472.1
643.007	12479.33
643.36	12449.5
643.713	12447.24
644.066	12541.03
644.419	12358.43
644.771	12370.86
645.124	12245.44
645.477	12202.05
645.83	12257.42
646.182	12208.61
646.535	12053.81
646.888	12062.85
647.24	11933.13
647.593	12077.54
647.945	12040.47
648.298	12007.48
648.65	11938.78
649.002	11959.12
649.355	12024.2
649.707	11995.96
650.059	12131.55
650.411	12160.47
650.763	12189.4
651.115	12376.28
651.467	12334.7
651.819	12287.47
652.171	12254.03
652.523	12270.98
652.875	12257.42
653.227	12221.71
653.578	12318.89
653.93	12284.31
654.282	12207.25
654.633	12137.87
654.985	12284.31
655.337	12291.54
655.688	12284.76
656.039	12375.61
656.391	12204.99
656.742	12207.7
657.094	12214.48
657.445	12246.34
657.796	12212.45
658.147	12204.76
658.498	12232.11
658.849	12308.72
659.2	12300.13
659.551	12215.84
659.902	12300.58
660.253	12296.74
660.604	12337.19
660.955	12155.05
661.306	12278.21
661.656	12276.63
662.007	12283.63
662.358	12353.91
662.708	12270.07
663.059	12213.8
663.409	12259.23
663.76	12336.96
664.11	12364.31
664.461	12314.59
664.811	12312.33
665.161	12342.61
665.511	12349.84
665.862	12340.35
666.212	12417.64
666.562	12396.62
666.912	12364.53
667.262	12383.06
667.612	12367.7
667.962	12372.44
668.312	12335.38
668.662	12435.49
669.011	12347.81
669.361	12374.48
669.711	12348.94
670.06	12364.31
670.41	12316.85
670.76	12192.56
671.109	12294.25
671.459	12308.04
671.808	12219.45
672.157	12300.58
672.507	12206.57
672.856	12242.5
673.205	12190.07
673.554	12266.91
673.904	12174.26
674.253	12329.05
674.602	12168.15
674.951	11987.82
675.3	12019.23
675.649	12100.36
675.998	12175.39
676.346	12145.33
676.695	12159.12
677.044	12008.61
677.393	12173.58
677.741	12130.19
678.09	12074.15
678.438	12000.7
678.787	12073.47
679.135	12048.84
679.484	11974.71
679.832	12038.67
680.181	11929.52
680.529	12024.66
680.877	11925
681.225	11986.46
681.573	11969.97
681.922	11813.36
682.27	11796.19
682.618	11803.87
682.966	11776.3
683.314	11820.82
683.661	11733.59
684.009	11685.23
684.357	11653.59
684.705	11673.03
685.053	11712.57
685.4	11691.56
685.748	11598
686.095	11545.8
686.443	11567.04
686.79	11503.09
687.138	11565.68
687.485	11528.85
687.832	11451.11
688.18	11463.54
688.527	11423.77
688.874	11352.58
689.221	11289.76
689.568	11300.15
689.915	11297.44
690.262	11288.63
690.609	11166.83
690.956	11224.45
691.303	11210.44
691.65	11127.73
691.997	11132.48
692.344	11061.97
692.69	11007.51
693.037	11006.38
693.383	10893.39
693.73	10901.07
694.077	10903.1
694.423	10875.31
694.769	10802.09
695.116	10819.04
695.462	10747.85
695.808	10762.32
696.155	10753.05
696.501	10672.83
696.847	10646.39
697.193	10568.2
697.539	10519.16
697.885	10519.38
698.231	10473.96
698.577	10476.45
698.923	10369.56
699.269	10321.88
699.614	10289.79
699.96	10276.68
700.306	10263.8
700.651	10195.1
700.997	10146.74
701.342	10125.72
701.688	10182.22
702.033	10058.15
702.379	10072.16
702.724	10001.66
703.069	10094.31
703.415	9905.39
703.76	9967.76
704.105	9854.77
704.45	9927.76
704.795	9827.2
705.14	9783.81
705.485	9728.67
705.83	9724.83
706.175	9662.91
706.52	9631.72
706.865	9619.52
707.209	9607.54
707.554	9613.19
707.899	9603.25
708.243	9493.42
708.588	9548.56
708.932	9486.64
709.277	9421.56
709.621	9430.83
709.966	9393.99
710.31	9358.29
710.654	9294.33
710.998	9292.52
711.342	9319.19
711.687	9257.72
712.031	9211.85
712.375	9243.26
712.719	9196.26
713.063	9236.25
713.407	9240.32
713.75	9170.72
714.094	9087.11
714.438	9148.8
714.782	9121.46
715.125	9062.93
715.469	9048.01
715.812	8969.14
716.156	9023.15
716.499	9003.27
716.843	9027.22
717.186	9008.01
717.53	8982.48
717.873	8983.38
718.216	8913.32
718.559	8921.69
718.902	8863.38
719.246	8911.97
719.589	8878.75
719.932	8846.43
720.275	8864.51
720.617	8810.73
720.96	8759.43
721.303	8779.77
721.646	8802.59
721.989	8684.4
722.331	8765.53
722.674	8688.47
723.016	8758.75
723.359	8766.89
723.701	8715.82
724.044	8771.41
724.386	8663.16
724.729	8699.77
725.071	8710.39
725.413	8687.34
725.755	8661.35
726.097	8623.39
726.439	8605.76
726.782	8640.34
727.124	8651.64
727.465	8638.76
727.807	8604.18
728.149	8602.6
728.491	8603.5
728.833	8682.6
729.175	8602.37
729.516	8601.92
729.858	8590.85
730.199	8614.8
730.541	8582.71
730.882	8614.12
731.224	8569.15
731.565	8554.92
731.906	8545.2
732.248	8540.68
732.589	8523.28
732.93	8511.3
733.271	8544.97
733.612	8558.76
733.953	8548.81
734.294	8487.8
734.635	8524.86
734.976	8604.63
735.317	8514.24
735.658	8514.92
735.999	8584.75
736.339	8549.72
736.68	8565.99
737.021	8547.91
737.361	8576.16
737.702	8570.51
738.042	8571.87
738.383	8570.96
738.723	8595.59
739.063	8586.78
739.404	8627.91
739.744	8582.94
740.084	8614.12
740.424	8589.72
740.764	8594.01
741.104	8670.39
741.444	8660.22
741.784	8590.85
742.124	8695.93
742.464	8711.97
742.804	8783.84
743.143	8758.3
743.483	8730.28
743.823	8710.17
744.162	8784.51
744.502	8773.89
744.841	8898.18
745.181	8870.84
745.52	8894.79
745.86	8948.8
746.199	8981.8
746.538	9008.69
746.877	9126.65
747.216	9083.26
747.556	9114.68
747.895	9153.09
748.234	9192.87
748.573	9240.32
748.911	9272.19
749.25	9422.69
749.589	9436.02
749.928	9516.02
750.267	9645.51
750.605	9682.12
750.944	9687.77
751.283	9821.78
751.621	9889.57
751.96	9896.12
752.298	10021.54
752.636	10173.4
752.975	10165.5
753.313	10253.4
753.651	10410.01
753.989	10507.41
754.327	10614.75
754.666	10720.96
755.004	10808.64
755.342	11027.85
755.679	11125.47
756.017	11248.18
756.355	11345.58
756.693	11539.02
757.031	11687.49
757.368	11760.48
757.706	11900.37
758.044	12084.54
758.381	12284.54
758.719	12459.45
759.056	12525.43
759.394	12663.28
759.731	12805.65
760.068	12956.16
760.405	13084.06
760.743	13263.95
761.08	13455.35
761.417	13567.89
761.754	13765.4
762.091	13879.52
762.428	14144.6
762.765	14221.66
763.102	14406.97
763.438	14521.99
763.775	14646.96
764.112	14913.17
764.449	15087.63
764.785	15233.61
765.122	15314.29
765.458	15416.88
765.795	15649.19
766.131	15862.75
766.467	15989.52
766.804	16154.72
767.14	16172.34
767.476	16450.3
767.812	16478.78
768.148	16584.08
768.485	16746.11
768.821	16925.09
769.157	16987.46
769.492	17158.31
769.828	17336.15
770.164	17230.17
770.5	17458.64
770.836	17495.7
771.171	17513.78
771.507	17717.61
771.842	17755.8
772.178	17911.96
772.513	17995.8
772.849	18076.25
773.184	18076.25
773.519	18221.33
773.855	18269.01
774.19	18373.64
774.525	18301.55
774.86	18472.62
775.195	18527.54
775.53	18601.21
775.865	18565.73
776.2	18625.84
776.535	18610.92
776.87	18739.51
777.205	18724.37
777.539	18726.4
777.874	18861.31
778.209	18846.62
778.543	18930.91
778.878	18799.62
779.212	18943.12
779.547	18893.18
779.881	18944.02
780.215	18936.11
780.55	19046.62
780.884	18985.83
781.218	18968.88
781.552	19122.77
781.886	19111.7
782.22	18969.33
782.554	19061.08
782.888	18917.58
783.222	18971.82
783.556	18939.5
783.889	18962.55
784.223	18901.08
784.557	18908.54
784.89	18933.63
785.224	18829.67
785.557	18758.26
785.891	18798.04
786.224	18842.78
786.558	18821.09
786.891	18709.45
787.224	18770.47
787.557	18718.49
787.891	18761.43
788.224	18695.44
788.557	18812.05
788.89	18746.06
789.223	18649.79
789.556	18611.15
789.888	18555.33
790.221	18450.93
790.554	18475.33
790.887	18332.74
791.219	18445.96
791.552	18304.94
791.884	18324.83
792.217	18256.81
792.549	18316.02
792.882	18199.18
793.214	18171.84
793.546	18226.98
793.879	18133.87
794.211	18055.68
794.543	18130.71
794.875	17986.98
795.207	18187.66
795.539	18046.64
795.871	18048.45
796.203	17879.87
796.535	17800.32
796.867	17765.3
797.198	17709.03
797.53	17794.45
797.862	17680.78
798.193	17748.12
798.525	17601.01
798.856	17654.34
799.188	17335.93
799.519	17490.05
799.85	17365.31
800.182	17332.99
800.513	17427.9
800.844	17258.42
801.175	17362.59
801.506	17298.19
801.837	17358.75
802.168	17252.09
802.499	17088.93
802.83	17039.21
803.161	17078.99
803.491	17038.31
803.822	17083.96
804.153	16916.96
804.483	16894.13
804.814	16785.21
805.145	16884.19
805.475	16794.47
805.805	16654.14
806.136	16733.46
806.466	16744.98
806.796	16677.87
807.126	16576.17
807.457	16585.21
807.787	16552.67
808.117	16521.94
808.447	16380.93
808.777	16466.12
809.107	16349.97
809.436	16361.04
809.766	16373.02
810.096	16242.85
810.426	16247.82
810.755	16315.62
811.085	16230.19
811.414	16157.2
811.744	16122.63
812.073	16114.04
812.403	16076.75
812.732	15986.36
813.061	16013.7
813.39	15936.64
813.719	15880.6
814.049	15954.72
814.378	15884.89
814.707	15826.82
815.036	15818
815.365	15799.47
815.693	15643.54
816.022	15684.9
816.351	15641.51
816.68	15444.23
817.008	15679.25
817.337	15477.22
817.665	15438.13
817.994	15501.63
818.322	15448.75
818.651	15372.14
818.979	15375.08
819.307	15452.81
819.636	15369.65
819.964	15382.53
820.292	15375.08
820.62	15325.36
820.948	15270.22
821.276	15402.87
821.604	15225.25
821.932	15235.87
822.259	15319.26
822.587	15255.31
822.915	15229.77
823.243	15268.64
823.57	15268.19
823.898	15197
824.225	15134.86
824.553	15147.06
824.88	15178.24
825.207	15200.17
825.535	15193.39
825.862	15278.81
826.189	15215.08
826.516	15204.23
826.843	15243.33
827.17	15264.12
827.497	15263.89
827.824	15330.33
828.151	15318.35
828.478	15332.82
828.805	15353.16
829.131	15254.85
829.458	15195.65
829.785	15299.82
830.111	15229.77
830.438	15371.01
830.764	15286.72
831.09	15321.97
831.417	15239.94
831.743	15333.04
832.069	15266.83
832.395	15248.75
832.722	15252.82
833.048	15189.54
833.374	15231.35
833.7	15133.73
834.026	15142.99
834.351	15178.24
834.677	15146.38
835.003	15217.11
835.329	15072.26
835.654	15119.94
835.98	15030.45
836.306	15176.89
836.631	15020.51
836.956	15056.44
837.282	15048.53
837.607	15092.15
837.932	14866.61
838.258	14947.06
838.583	14958.36
838.908	14818.93
839.233	14865.26
839.558	14857.8
839.883	14816.67
840.208	14749.56
840.533	14726.73
840.858	14791.81
841.182	14734.19
841.507	14793.62
841.832	14635.66
842.156	14589.11
842.481	14565.83
842.805	14609.22
843.13	14503.23
843.454	14566.74
843.778	14457.13
844.103	14423.01
844.427	14412.39
844.751	14453.29
845.075	14381.66
845.399	14366.97
845.723	14252.39
846.047	14158.61
846.371	14204.49
846.695	14138.72
847.019	14077.93
847.343	14038.61
847.666	13922.01
847.99	13838.85
848.313	13807.66
848.637	13762.46
848.96	13683.6
849.284	13698.74
849.607	13540.1
849.931	13540.32
850.254	13517.05
850.577	13377.84
850.9	13333.77
851.223	13349.59
851.546	13232.08
851.869	13182.82
852.192	13223.49
852.515	13095.59
852.838	13038.19
853.161	12999.77
853.483	13024.18
853.806	12898.53
854.129	12923.84
854.451	12892.43
854.774	12757.52
855.096	12770.4
855.419	12729.72
855.741	12704.86
856.063	12606.11
856.385	12668.71
856.708	12485.21
857.03	12599.56
857.352	12527.69
857.674	12493.8
857.996	12447.24
858.318	12389.62
858.64	12306.46
858.961	12297.19
859.283	12260.58
859.605	12197.76
859.926	12248.83
860.248	12215.84
860.57	12087.48
860.891	12206.8
861.212	12056.29
861.534	12078.67
861.855	11981.27
862.176	12005.45
862.498	12001.15
862.819	12012.23
863.14	11972
863.461	11954.6
863.782	11825.79
864.103	11912.79
864.424	11883.64
864.745	11870.08
865.065	11751.67
865.386	11795.74
865.707	11783.08
866.027	11748.05
866.348	11688.17
866.668	11704.89
866.989	11701.95
867.309	11583.54
867.63	11718.22
867.95	11683.87
868.27	11586.25
868.59	11549.41
868.91	11617.43
869.23	11536.31
869.55	11382.64
869.87	11528.62
870.19	11494.5
870.51	11582.18
870.83	11490.21
871.15	11391
871.469	11439.81
871.789	11454.28
872.109	11421.51
872.428	11366.37
872.748	11429.19
873.067	11314.17
873.386	11329.53
873.706	11315.07
874.025	11268.97
874.344	11247.95
874.663	11254.28
874.982	11218.8
875.301	11219.25
875.62	11172.93
875.939	11132.93
876.258	11163.44
876.577	11225.13
876.896	11136.77
877.214	11132.25
877.533	11063.55
877.852	11024
878.17	11124.79
878.489	11031.69
878.807	10994.4
879.125	10979.03
879.444	11008.86
879.762	10903.56
880.08	10934.29
880.398	10880.96
880.716	10920.73
881.034	10862.2
881.352	10903.1
881.67	10836.21
881.988	10779.04
882.306	10773.84
882.624	10710.79
882.941	10666.05
883.259	10625.14
883.577	10663.56
883.894	10667.18
884.212	10586.95
884.529	10575.88
884.846	10552.38
885.164	10508.54
885.481	10427.64
885.798	10551.02
886.115	10431.25
886.432	10496.33
886.75	10369.11
887.067	10478.93
887.383	10397.58
887.7	10330.24
888.017	10334.98
888.334	10366.85
888.651	10307.19
888.967	10262.44
889.284	10214.08
889.6	10184.93
889.917	10097.47
890.233	10138.6
890.55	10099.51
890.866	10099.06
891.182	10058.83
891.498	10054.54
891.815	9999.4
892.131	9974.31
892.447	9910.36
892.763	9866.52
893.079	9893.64
893.395	9846.18
893.71	9792.62
894.026	9835.56
894.342	9749.69
894.657	9649.12
894.973	9685.51
895.289	9646.86
895.604	9602.12
895.92	9532.29
896.235	9508.56
896.55	9484.38
896.865	9523.03
897.181	9515.79
897.496	9473.76
897.811	9475.8
898.126	9390.83
898.441	9310.38
898.756	9315.35
899.071	9225.63
899.386	9247.33
899.7	9184.96
900.015	9106.99
900.33	9066.54
900.644	9026.09
900.959	9113.77
901.273	9050.95
901.588	9002.59
901.902	8936.83
902.216	8945.64
902.531	8951.29
902.845	8883.04
903.159	8845.08
903.473	8762.14
903.787	8785.64
904.101	8746.1
904.415	8745.87
904.729	8743.16
905.042	8629.26
905.356	8594.92
905.67	8604.18
905.984	8594.92
906.297	8572.32
906.611	8481.47
906.924	8380.68
907.237	8438.76
907.551	8361.25
907.864	8373.23
908.177	8316.05
908.491	8337.97
908.804	8225.21
909.117	8229.95
909.43	8129.39
909.743	8060.01
910.056	8108.15
910.368	8144.76
910.681	8013.69
910.994	8067.7
911.307	7970.52
911.619	7823.64
911.932	7924.65
912.244	7858.44
912.557	7821.15
912.869	7767.14
913.181	7767.14
913.494	7709.06
913.806	7667.71
914.118	7665.22
914.43	7569.63
914.742	7591.55
915.054	7522.85
915.366	7501.61
915.678	7493.48
915.99	7432.46
916.302	7439.69
916.613	7418
916.925	7400.37
917.236	7338.68
917.548	7305.01
917.859	7283.31
918.171	7289.19
918.482	7252.58
918.794	7190.66
919.105	7242.41
919.416	7105.24
919.727	7135.52
920.038	7081.51
920.349	7084.67
920.66	7076.99
920.971	7005.35
921.282	7022.53
921.593	6971.46
921.903	6926.03
922.214	6912.25
922.525	6891.68
922.835	6792.25
923.146	6760.61
923.456	6779.14
923.767	6738.92
924.077	6763.55
924.387	6699.15
924.697	6626.38
925.008	6629.77
925.318	6602.43
925.628	6625.02
925.938	6559.71
926.248	6477.68
926.558	6474.07
926.867	6457.8
927.177	6434.07
927.487	6466.61
927.796	6390.23
928.106	6351.81
928.416	6406.95
928.725	6374.86
929.034	6245.37
929.344	6270.46
929.653	6298.7
929.962	6198.59
930.271	6148.65
930.581	6137.35
930.89	6148.43
931.199	6081.76
931.508	6082.21
931.817	6082.21
932.125	6042.89
932.434	6029.33
932.743	5966.51
933.051	5971.03
933.36	5945.72
933.669	5869.56
933.977	5877.25
934.286	5859.17
934.594	5880.86
934.902	5843.58
935.21	5750.02
935.519	5819.62
935.827	5779.17
936.135	5705.27
936.443	5647.2
936.751	5668.89
937.059	5663.92
937.367	5634.32
937.674	5613.52
937.982	5546.18
938.29	5571.94
938.597	5522
938.905	5496.92
939.213	5491.95
939.52	5422.34
939.827	5394.77
940.135	5427.31
940.442	5399.07
940.749	5341.22
941.056	5358.84
941.363	5278.17
941.67	5253.08
941.977	5272.97
942.284	5239.98
942.591	5216.92
942.898	5184.61
943.205	5158.17
943.511	5132.63
943.818	5160.88
944.125	5111.17
944.431	5147.32
944.738	5112.97
945.044	5036.82
945.35	5043.82
945.657	5032.3
945.963	4972.64
946.269	4948.01
946.575	4971.73
946.881	4897.61
947.187	4884.73
947.493	4887.89
947.799	4858.52
948.105	4863.04
948.41	4823.94
948.716	4872.3
949.022	4743.27
949.327	4781.91
949.633	4708.92
949.938	4728.58
950.244	4685.41
950.549	4710.72
950.854	4656.71
951.16	4604.51
951.465	4636.83
951.77	4579.65
952.075	4582.14
952.38	4575.13
952.685	4566.32
952.99	4534.68
953.294	4516.6
953.599	4460.11
953.904	4488.13
954.209	4479.77
954.513	4451.75
954.818	4428.47
955.122	4391.64
955.426	4375.82
955.731	4326.33
956.035	4322.26
956.339	4298.53
956.643	4260.11
956.948	4298.98
957.252	4259.44
957.556	4228.7
957.86	4213.34
958.163	4153.9
958.467	4159.78
958.771	4194.13
959.075	4173.79
959.378	4148.93
959.682	4095.37
959.985	4137.63
960.289	4072.77
960.592	4075.49
960.896	4044.98
961.199	4051.76
961.502	4004.53
961.805	4010.4
962.108	3956.17
962.411	3982.83
962.714	3900.8
963.017	3905.1
963.32	3927.47
963.623	3883.17
963.926	3896.73
964.228	3863.29
964.531	3860.58
964.833	3833.46
965.136	3836.62
965.438	3779.67
965.741	3774.93
966.043	3771.77
966.345	3724.08
966.648	3711.65
966.95	3723.18
967.252	3719.34
967.554	3672.78
967.856	3637.31
968.158	3630.3
968.46	3613.8
968.761	3619.68
969.063	3582.84
969.365	3592.11
969.666	3566.57
969.968	3532.45
970.269	3556.18
970.571	3552.34
970.872	3515.5
971.174	3478.89
971.475	3497.42
971.776	3451.32
972.077	3429.18
972.378	3460.14
972.679	3460.14
972.98	3418.78
973.281	3416.97
973.582	3361.15
973.883	3350.76
974.183	3330.19
974.484	3328.84
974.785	3364.54
975.085	3308.73
975.386	3270.99
975.686	3277.31
975.986	3253.81
976.287	3275.73
976.587	3231.44
976.887	3198.45
977.187	3193.93
977.487	3210.2
977.787	3188.28
978.087	3165.45
978.387	3182.85
978.687	3137.21
978.987	3153.25
979.286	3095.85
979.586	3093.36
979.885	3066.02
980.185	3059.92
980.484	3040.71
980.784	3021.95
981.083	2989.64
981.382	3034.38
981.682	3008.62
981.981	2925.69
982.28	2913.93
982.579	2948.96
982.878	2939.92
983.177	2912.35
983.475	2901.05
983.774	2928.85
984.073	2882.3
984.372	2862.18
984.67	2876.42
984.969	2854.5
985.267	2852.47
985.566	2824.45
985.864	2808.85
986.162	2787.38
986.461	2727.27
986.759	2757.33
987.057	2769.08
987.355	2744.22
987.653	2709.42
987.951	2722.75
988.249	2727.5
988.547	2684.56
988.844	2723.88
989.142	2668.97
989.44	2647.5
989.737	2631.68
990.035	2631
990.332	2639.82
990.63	2589.2
990.927	2614.73
991.224	2612.47
991.521	2547.62
991.819	2552.59
992.116	2517.56
992.413	2509.88
992.71	2524.34
993.006	2492.25
993.303	2504.91
993.6	2469.88
993.897	2454.96
994.193	2492.25
994.49	2419.71
994.787	2417.22
995.083	2449.77
995.379	2424.68
995.676	2423.78
995.972	2373.84
996.268	2373.84
996.565	2362.99
996.861	2369.77
997.157	2360.28
997.453	2337.68
997.749	2325.25
998.044	2308.3
998.34	2274.63
998.636	2301.52
998.932	2266.49
999.227	2277.34
999.523	2273.5
999.818	2241.86
1000.114	2240.73
1000.409	2214.97
1000.704	2208.42
1001	2160.51
1001.295	2181.52
1001.59	2187.17
1001.885	2166.84
1002.18	2154.86
1002.475	2143.33
1002.77	2135.88
1003.065	2105.14
1003.359	2094.97
1003.654	2134.29
1003.949	2066.05
1004.243	2054.97
1004.538	2023.56
1004.832	2019.72
1005.127	2027.86
1005.421	2011.13
1005.715	1972.04
1006.009	1983.34
1006.304	2008.87
1006.598	1945.37
1006.892	1962.77
1007.186	1953.51
1007.48	1951.47
1007.773	1911.48
1008.067	1921.87
1008.361	1889.33
1008.655	1884.36
1008.948	1859.95
1009.242	1857.47
1009.535	1865.83
1009.829	1865.83
1010.122	1847.07
1010.415	1820.4
1010.708	1815.43
1011.001	1832.38
1011.295	1774.3
1011.588	1782.21
1011.881	1772.95
1012.173	1764.81
1012.466	1761.2
1012.759	1760.97
1013.052	1730.24
1013.344	1723.23
1013.637	1705.15
1013.93	1682.55
1014.222	1695.21
1014.514	1706.73
1014.807	1686.17
1015.099	1683.68
1015.391	1622.22
1015.683	1631.03
1015.976	1652.95
1016.268	1623.57
1016.56	1595.55
1016.851	1588.09
1017.143	1571.82
1017.435	1589.45
1017.727	1548.09
1018.018	1581.77
1018.31	1581.77
1018.602	1559.85
1018.893	1546.96
1019.185	1508.1
1019.476	1511.71
1019.767	1524.59
1020.058	1493.18
1020.35	1493.18
1020.641	1444.14
1020.932	1467.87
1021.223	1426.52
1021.514	1445.72
1021.804	1445.05
1022.095	1437.82
1022.386	1407.53
1022.677	1416.12
1022.967	1382.45
1023.258	1407.31
1023.548	1398.72
1023.839	1374.31
1024.129	1373.86
1024.419	1374.54
1024.709	1341.09
1025	1354.65
1025.29	1326.63
1025.58	1312.62
1025.87	1326.86
1026.16	1311.04
1026.449	1316.69
1026.739	1251.61
1027.029	1303.58
1027.319	1289.12
1027.608	1281.21
1027.898	1260.87
1028.187	1255.9
1028.477	1238.5
1028.766	1245.05
1029.055	1215
1029.344	1218.84
1029.634	1203.47
1029.923	1190.36
1030.212	1188.33
1030.501	1175.22
1030.79	1193.98
1031.078	1164.6
1031.367	1157.82
1031.656	1151.27
1031.945	1163.02
1032.233	1146.52
1032.522	1135.22
1032.81	1123.25
1033.099	1113.98
1033.387	1097.71
1033.675	1109.69
1033.963	1092.29
1034.251	1084.6
1034.54	1074.21
1034.828	1077.37
1035.116	1052.74
1035.403	1082.34
1035.691	1038.05
1035.979	1041.44
1036.267	1058.84
1036.554	1029.92
1036.842	1024.49
1037.129	1031.5
1037.417	1026.3
1037.704	1004.61
1037.992	994.66
1038.279	968
1038.566	994.89
1038.853	994.89
1039.14	994.89
