Data from hue_30_FLMS001491_78.txt Node
Date: Mon Feb 06 15:05:56 GMT 2017
User: dcchb
Spectrometer: FLMS00149
Trigger mode: 0
Integration Time (sec): 2.000000E-2
Scans to average: 10
Electric dark correction enabled: true
Nonlinearity correction enabled: false
Boxcar width: 0
XAxis mode: Wavelengths
Number of Pixels in Spectrum: 2048
>>>>>Begin Spectral Data<<<<<
341.393	10.66
341.776	10.66
342.16	10.66
342.543	-58.26
342.927	-65.72
343.31	-68.43
343.693	-72.5
344.077	-50.35
344.46	-70.46
344.843	-38.6
345.226	-56.68
345.61	-8.54
345.993	-30.24
346.376	-18.94
346.759	2.98
347.142	21.51
347.525	54.96
347.908	73.71
348.291	53.15
348.674	98.8
349.057	109.64
349.44	136.31
349.823	144.22
350.206	154.39
350.588	179.02
350.971	207.49
351.354	232.35
351.737	241.17
352.119	232.8
352.502	288.17
352.884	271.22
353.267	285.01
353.65	298.57
354.032	302.63
354.414	300.15
354.797	324.55
355.179	309.64
355.562	332.69
355.944	319.13
356.326	339.02
356.709	359.13
357.091	338.34
357.473	334.95
357.855	338.34
358.238	357.55
358.62	336.53
359.002	341.73
359.384	347.38
359.766	342.63
360.148	322.75
360.53	327.94
360.912	335.85
361.294	347.6
361.676	330.88
362.057	318.9
362.439	330.43
362.821	358
363.203	332.69
363.584	325.46
363.966	330.66
364.348	317.1
364.729	303.99
365.111	328.17
365.493	325.01
365.874	311.67
366.256	336.53
366.637	315.06
367.019	310.09
367.4	329.98
367.781	323.65
368.163	322.29
368.544	310.32
368.925	318
369.306	333.37
369.688	317.1
370.069	292.46
370.45	306.47
370.831	308.96
371.212	317.1
371.593	315.97
371.974	306.25
372.355	309.64
372.736	324.55
373.117	330.88
373.498	316.87
373.879	317.77
374.26	325.68
374.641	323.2
375.021	322.97
375.402	320.94
375.783	316.42
376.163	322.52
376.544	326.14
376.925	334.95
377.305	310.99
377.686	336.3
378.066	328.85
378.447	335.85
378.827	324.1
379.208	344.21
379.588	335.85
379.968	316.64
380.349	343.31
380.729	340.82
381.109	329.3
381.489	353.48
381.87	354.16
382.25	341.5
382.63	337.66
383.01	331.11
383.39	346.7
383.77	341.73
384.15	366.81
384.53	350.54
384.91	356.19
385.29	342.41
385.67	359.35
386.049	328.62
386.429	342.63
386.809	362.29
387.189	335.63
387.568	350.99
387.948	376.3
388.328	368.85
388.707	343.76
389.087	357.32
389.466	354.61
389.846	370.2
390.225	364.78
390.605	384.89
390.984	371.33
391.363	373.14
391.743	358.45
392.122	365.46
392.501	378.11
392.881	376.08
393.26	359.58
393.639	389.86
394.018	391.44
394.397	360.48
394.776	376.98
395.155	403.65
395.534	389.18
395.913	390.99
396.292	394.38
396.671	373.37
397.05	393.03
397.429	407.94
397.808	362.07
398.186	405.91
398.565	415.4
398.944	368.17
399.323	407.72
399.701	366.59
400.08	366.13
400.458	411.11
400.837	406.13
401.215	395.74
401.594	404.33
401.972	417.43
402.351	396.64
402.729	386.7
403.107	405.91
403.486	425.12
403.864	410.88
404.242	416.53
404.62	416.3
404.999	411.11
405.377	405
405.755	429.18
406.133	420.14
406.511	424.89
406.889	430.31
407.267	435.74
407.645	445.45
408.023	452.69
408.401	433.93
408.779	445.68
409.156	468.28
409.534	458.34
409.912	446.81
410.29	472.57
410.667	469.86
411.045	457.66
411.422	477.77
411.8	452.69
412.178	443.42
412.555	466.92
412.933	494.49
413.31	468.73
413.687	487.26
414.065	458.34
414.442	485.23
414.819	495.17
415.197	505.34
415.574	509.86
415.951	491.33
416.328	521.61
416.705	535.4
417.082	517.99
417.46	478.67
417.837	500.14
418.214	494.94
418.591	512.12
418.967	530.65
419.344	520.93
419.721	516.19
420.098	541.27
420.475	543.76
420.852	521.84
421.228	519.35
421.605	529.97
421.982	531.33
422.358	532.23
422.735	528.39
423.111	544.66
423.488	553.93
423.864	554.6
424.241	581.27
424.617	584.66
424.994	571.78
425.37	569.74
425.746	565.23
426.123	585.11
426.499	557.09
426.875	589.18
427.251	572.23
427.627	575.85
428.003	620.37
428.379	610.2
428.756	632.79
429.132	618.78
429.507	608.84
429.883	629.63
430.259	618.56
430.635	650.87
431.011	657.65
431.387	634.6
431.763	654.26
432.138	641.16
432.514	647.48
432.89	671.44
433.265	656.07
433.641	682.96
434.016	685
434.392	683.87
434.767	679.57
435.143	697.65
435.518	688.84
435.894	699.23
436.269	717.09
436.644	704.88
437.02	726.58
437.395	736.75
437.77	726.58
438.145	760.93
438.52	733.13
438.895	753.24
439.271	741.49
439.646	771.1
440.021	773.81
440.395	772.45
440.77	779.23
441.145	770.42
441.52	778.55
441.895	800.02
442.27	774.94
442.645	791.43
443.019	797.76
443.394	828.72
443.769	812
444.143	801.83
444.518	835.5
444.892	804.99
445.267	837.53
445.641	823.07
446.016	840.92
446.39	841.38
446.764	851.32
447.139	847.7
447.513	848.16
447.887	873.47
448.262	852.9
448.636	873.24
449.01	868.95
449.384	871.88
449.758	884.54
450.132	900.58
450.506	879.34
450.88	898.1
451.254	907.82
451.628	909.17
452.002	899
452.376	938.1
452.75	919.57
453.123	929.74
453.497	953.92
453.871	963.63
454.244	957.76
454.618	985.78
454.992	973.12
455.365	991.43
455.739	987.36
456.112	1007.25
456.486	1023.29
456.859	1009.28
457.232	1024.42
457.606	1049.28
457.979	1059.22
458.352	1066.91
458.725	1086.12
459.099	1072.78
459.472	1079.56
459.845	1109.84
460.218	1128.37
460.591	1161.82
460.964	1157.75
461.337	1146.9
461.71	1201.59
462.083	1188.26
462.456	1191.65
462.829	1204.98
463.201	1215.6
463.574	1239.33
463.947	1245.21
464.32	1268.26
464.692	1218.54
465.065	1286.79
465.438	1287.01
465.81	1346.45
466.183	1363.17
466.555	1358.88
466.928	1360.01
467.3	1372.89
467.672	1397.75
468.045	1381.25
468.417	1439.78
468.789	1412.21
469.161	1448.37
469.534	1475.03
469.906	1512.54
470.278	1523.62
470.65	1546.44
471.022	1556.16
471.394	1607.68
471.766	1578.76
472.138	1626.89
472.51	1668.25
472.882	1670.28
473.253	1701.92
473.625	1712.54
473.997	1764.74
474.369	1790.5
474.74	1811.29
475.112	1840.22
475.484	1863.95
475.855	1903.04
476.227	1951.4
476.598	1962.7
476.97	2010.16
477.341	2098.07
477.713	2100.55
478.084	2142.13
478.455	2207.89
478.827	2199.98
479.198	2296.03
479.569	2291.73
479.94	2349.36
480.311	2366.99
480.682	2410.6
481.053	2529.69
481.424	2536.25
481.795	2626.19
482.166	2691.72
482.537	2721.1
482.908	2783.25
483.279	2815.11
483.65	2867.76
484.021	2957.03
484.391	2998.16
484.762	3048.1
485.133	3076.8
485.503	3157.02
485.874	3238.15
486.244	3245.38
486.615	3361.99
486.985	3405.83
487.356	3472.95
487.726	3539.38
488.097	3637.46
488.467	3637.23
488.837	3760.17
489.207	3816.67
489.578	3862.09
489.948	3930.56
490.318	3928.98
490.688	3993.38
491.058	4133.27
491.428	4195.86
491.798	4291.45
492.168	4339.82
492.538	4382.07
492.908	4462.52
493.278	4496.42
493.648	4505.23
494.017	4618.23
494.387	4665
494.757	4720.37
495.126	4758.56
495.496	4833.36
495.866	4843.76
496.235	4945.45
496.605	5013.7
496.974	5072
497.344	5105.44
497.713	5170.08
498.082	5175.27
498.452	5285.78
498.821	5317.42
499.19	5345.44
499.559	5442.61
499.928	5446.68
500.298	5474.47
500.667	5502.5
501.036	5628.82
501.405	5648.71
501.774	5644.64
502.143	5738.2
502.512	5754.69
502.88	5856.39
503.249	5843.5
503.618	5854.8
503.987	5869.04
504.356	5955.14
504.724	6009.6
505.093	6047.12
505.462	6085.98
505.83	6156.04
506.199	6184.29
506.567	6292.53
506.936	6236.94
507.304	6317.16
507.672	6323.72
508.041	6378.41
508.409	6401.68
508.777	6472.19
509.145	6449.82
509.514	6489.82
509.882	6580.66
510.25	6551.96
510.618	6638.06
510.986	6609.13
511.354	6758.06
511.722	6784.04
512.09	6799.64
512.458	6812.29
512.826	6890.71
513.193	6904.95
513.561	6911.5
513.929	6981.33
514.297	7037.15
514.664	7029.69
515.032	7064.94
515.4	7153.07
515.767	7158.05
516.135	7192.4
516.502	7167.54
516.869	7288.89
517.237	7289.57
517.604	7263.81
517.972	7370.02
518.339	7328.44
518.706	7409.34
519.073	7407.98
519.44	7520.52
519.808	7478.04
520.175	7500.86
520.542	7622.67
520.909	7613.63
521.276	7664.7
521.643	7650.46
522.009	7714.64
522.376	7778.37
522.743	7825.37
523.11	7905.15
523.477	7941.08
523.843	7969.78
524.21	8078.7
524.577	8110.34
524.943	8097.91
525.31	8150.11
525.676	8172.26
526.043	8241.18
526.409	8267.62
526.776	8327.73
527.142	8376.09
527.508	8395.08
527.874	8464.68
528.241	8499.71
528.607	8528.86
528.973	8609.31
529.339	8548.52
529.705	8692.24
530.071	8732.92
530.437	8736.99
530.803	8885.46
531.169	8925.01
531.535	8860.15
531.901	8901.5
532.267	8985.79
532.632	9004.1
532.998	9049.3
533.364	9055.4
533.73	9125
534.095	9198.22
534.461	9246.13
534.826	9323.87
535.192	9348.05
535.557	9395.28
535.923	9380.36
536.288	9434.82
536.653	9449.96
537.019	9481.15
537.384	9580.58
537.749	9593.91
538.114	9580.81
538.479	9660.13
538.845	9678.88
539.21	9684.08
539.575	9734.48
539.94	9786.9
540.305	9799.11
540.67	9811.31
541.034	9888.82
541.399	9974.7
541.764	9896.73
542.129	9996.62
542.494	10074.58
542.858	10079.55
543.223	10056.73
543.587	10143.73
543.952	10180.79
544.316	10224.18
544.681	10199.32
545.045	10259.89
545.41	10349.6
545.774	10362.71
546.138	10444.06
546.503	10515.7
546.867	10489.94
547.231	10594.57
547.595	10532.65
547.959	10686.99
548.324	10688.12
548.688	10652.19
549.052	10688.12
549.416	10777.61
549.779	10815.8
550.143	10792.53
550.507	10889.02
550.871	10993.65
551.235	10955.91
551.599	11015.57
551.962	11066.19
552.326	11039.75
552.689	11150.26
553.053	11126.76
553.417	11134.21
553.78	11294.21
554.143	11178.51
554.507	11258.5
554.87	11297.37
555.234	11457.59
555.597	11401.32
555.96	11417.37
556.323	11457.14
556.686	11386.86
557.05	11524.26
557.413	11614.43
557.776	11595.44
558.139	11632.96
558.502	11669.34
558.865	11624.14
559.228	11766.06
559.59	11837.25
559.953	11843.35
560.316	11910.69
560.679	11927.19
561.041	11993.63
561.404	12009.44
561.767	12115.43
562.129	12074.75
562.492	12193.85
562.854	12166.28
563.217	12148.88
563.579	12300.51
563.941	12326.95
564.304	12341.64
564.666	12415.76
565.028	12420.05
565.39	12431.58
565.753	12609.43
566.115	12604
566.477	12654.17
566.839	12695.3
567.201	12693.95
567.563	12719.26
567.925	12889.42
568.287	12793.15
568.648	12887.16
569.01	12982.75
569.372	13078.57
569.734	12978.68
570.095	13063.65
570.457	13209.41
570.819	13189.75
571.18	13251.45
571.542	13307.49
571.903	13344.78
572.265	13388.16
572.626	13479.24
572.987	13485.56
573.349	13616.18
573.71	13765.56
574.071	13819.11
574.432	13770.98
574.794	13961.48
575.155	13999.45
575.516	13939.79
575.877	14158.31
576.238	14180.46
576.599	14373.45
576.96	14354.02
577.32	14501.36
577.681	14610.73
578.042	14674.23
578.403	14815.47
578.763	14901.57
579.124	15018.4
579.485	15180.89
579.845	15288.91
580.206	15347.89
580.566	15515.79
580.927	15746.07
581.287	15933.18
581.648	15921.43
582.008	16267.41
582.368	16346.28
582.728	16552.38
583.089	16690.9
583.449	16860.16
583.809	17023.78
584.169	17318.91
584.529	17410.66
584.889	17751.21
585.249	17956.41
585.609	18071.21
585.969	18450.18
586.329	18516.84
586.688	18745.31
587.048	18993.89
587.408	19309.37
587.768	19531.05
588.127	19775.57
588.487	19945.96
588.846	20266.63
589.206	20331.03
589.565	20780.96
589.925	20978.47
590.284	21187.96
590.643	21544.11
591.003	21926.02
591.362	22231.1
591.721	22333.24
592.08	22654.36
592.44	22994.01
592.799	23217.96
593.158	23485.53
593.517	23861.56
593.876	24149.01
594.235	24390.59
594.593	24521.43
594.952	25066.73
595.311	25074.19
595.67	25571.8
596.029	25942.86
596.387	26269.63
596.746	26578.33
597.104	26636.86
597.463	27022.16
597.822	27319.32
598.18	27484.74
598.538	27760.67
598.897	28174.67
599.255	28305.06
599.613	28961.31
599.972	29055.55
600.33	29368.54
600.688	29498.48
601.046	29785.7
601.404	30234.73
601.762	30292.35
602.12	30792
602.478	31022.28
602.836	31178.88
603.194	31284.19
603.552	31532.09
603.91	31718.53
604.268	32145.41
604.625	32375.91
604.983	32589.02
605.341	32626.76
605.698	33037.37
606.056	33356.23
606.413	33494.08
606.771	33838.7
607.128	34062.65
607.485	34051.58
607.843	34258.35
608.2	34740.15
608.557	35020.14
608.914	34978.56
609.272	35355.04
609.629	35529.05
609.986	35844.07
610.343	35863.51
610.7	36305.98
611.057	36385.3
611.414	36557.05
611.771	36629.81
612.127	36899.41
612.484	37039.29
612.841	37321.32
613.198	37412.62
613.554	37421.43
613.911	37843.57
614.267	37860.06
614.624	38123.11
614.98	38089.66
615.337	38566.71
615.693	38507.5
616.05	38543.44
616.406	38897.32
616.762	38871.79
617.118	39065.68
617.475	38999.02
617.831	39281.95
618.187	39462.28
618.543	39607.36
618.899	39861.59
619.255	40020.68
619.611	40160.34
619.967	40258.42
620.323	40305.2
620.678	40396.95
621.034	40355.14
621.39	40453.67
621.746	40444.18
622.101	41022.92
622.457	40711.74
622.812	40924.16
623.168	40912.86
623.523	41035.8
623.879	41247.55
624.234	41082.35
624.589	41168
624.945	41200.77
625.3	41413.42
625.655	41350.82
626.01	41466.52
626.365	41583.36
626.72	41679.85
627.075	41626.52
627.43	41673.07
627.785	41700.87
628.14	41844.37
628.495	41819.96
628.85	42031.71
629.205	41825.84
629.559	42181.08
629.914	41903.12
630.269	41992.38
630.623	41873.52
630.978	41909.45
631.332	42019.05
631.687	42239.38
632.041	42061.54
632.396	42066.73
632.75	42068.09
633.104	42171.14
633.459	41969.56
633.813	42054.3
634.167	42083.68
634.521	42044.81
634.875	42145.6
635.229	42056.79
635.583	41935.66
635.937	41994.64
636.291	41932.27
636.645	41956.68
636.999	41827.42
637.352	42010.01
637.706	41890.92
638.06	42023.34
638.413	41937.47
638.767	41671.49
639.121	41863.12
639.474	41807.3
639.828	41683.92
640.181	41860.64
640.534	41883.46
640.888	41751.71
641.241	41611.83
641.594	41730.47
641.947	41801.43
642.301	41594.43
642.654	41730.24
643.007	41673.97
643.36	41747.65
643.713	41599.17
644.066	41666.29
644.419	41606.18
644.771	41400.76
645.124	40807.33
645.477	41063.37
645.83	40559.43
646.182	40635.81
646.535	40319.89
646.888	40587.45
647.24	40343.61
647.593	40542.71
647.945	40427.45
648.298	40361.47
648.65	40276.27
649.002	40203.28
649.355	40364.63
649.707	40238.76
650.059	40527.79
650.411	40936.37
650.763	40873.77
651.115	41284.15
651.467	41187.89
651.819	41129.58
652.171	40956.93
652.523	41036.93
652.875	40993.77
653.227	40797.84
653.578	41204.83
653.93	41106.76
654.282	40928.46
654.633	40798.74
654.985	40795.81
655.337	40857.95
655.688	40786.09
656.039	40980.66
656.391	40483.5
656.742	40774.34
657.094	40752.19
657.445	40853.88
657.796	40788.8
658.147	40580.44
658.498	40691.63
658.849	40755.58
659.2	40716.26
659.551	40637.39
659.902	40758.52
660.253	40679.88
660.604	40786.77
660.955	40569.6
661.306	40620.9
661.656	40593.55
662.007	40722.36
662.358	40617.28
662.708	40732.76
663.059	40602.14
663.409	40473.33
663.76	40647.79
664.11	40654.34
664.461	40739.99
664.811	40746.09
665.161	40579.77
665.511	40660.89
665.862	40485.98
666.212	40627.9
666.562	40746.54
666.912	40593.78
667.262	40499.09
667.612	40394.01
667.962	40568.47
668.312	40433.33
668.662	40617.96
669.011	40553.1
669.361	40416.61
669.711	40459.32
670.06	40374.8
670.41	40233.33
670.76	40331.41
671.109	40390.39
671.459	40356.27
671.808	40337.06
672.157	40523.95
672.507	40005.32
672.856	40090.06
673.205	40160.57
673.554	40237.18
673.904	40167.57
674.253	40339.32
674.602	40145.88
674.951	39669.73
675.3	39436.52
675.649	40215.26
675.998	40063.17
676.346	40085.32
676.695	40342.26
677.044	39915.6
677.393	40072.44
677.741	40175.71
678.09	39953.34
678.438	39851.42
678.787	39949.27
679.135	39893.46
679.484	39652.79
679.832	39852.55
680.181	39571.88
680.529	39792.89
680.877	39574.82
681.225	39579.34
681.573	39775.72
681.922	39438.55
682.27	39375.05
682.618	39319.69
682.966	39297.99
683.314	39227.03
683.661	39314.26
684.009	39062.52
684.357	39020.26
684.705	39054.38
685.053	39068.39
685.4	39037.66
685.748	38681.51
686.095	38777.1
686.443	38603.55
686.79	38676.09
687.138	38646.71
687.485	38731.45
687.832	38556.32
688.18	38516.77
688.527	38398.58
688.874	38281.52
689.221	38200.85
689.568	38176.67
689.915	38088.76
690.262	37989.33
690.609	37923.79
690.956	37838.6
691.303	37706.4
691.65	37650.8
691.997	37646.96
692.344	37347.99
692.69	37359.74
693.037	37455.78
693.383	37128.78
693.73	37276.8
694.077	36959.52
694.423	36999.97
694.769	36889.02
695.116	36796.14
695.462	36774.44
695.808	36585.75
696.155	36696.48
696.501	36473.89
696.847	36489.7
697.193	36093.33
697.539	36326.77
697.885	36069.83
698.231	35926.78
698.577	35978.76
698.923	35828.93
699.269	35750.29
699.614	35493.57
699.96	35526.57
700.306	35502.61
700.651	35351.66
700.997	35258.55
701.342	35211.32
701.688	35009.07
702.033	35019.91
702.379	35052.91
702.724	34891.78
703.069	34900.14
703.415	34557.55
703.76	34633.26
704.105	34636.65
704.45	34461.51
704.795	34328.18
705.14	34204.79
705.485	34292.7
705.83	34106.72
706.175	34199.14
706.52	34023.78
706.865	33970.67
707.209	33765.48
707.554	33758.02
707.899	33890.45
708.243	33711.47
708.588	33658.14
708.932	33363.23
709.277	33477.81
709.621	33326.4
709.966	33018.38
710.31	33266.96
710.654	32892.51
710.998	32950.81
711.342	33042.11
711.687	32904.71
712.031	32780.2
712.375	32602.35
712.719	32627.43
713.063	32567.77
713.407	32651.61
713.75	32440.77
714.094	32471.28
714.438	32377.27
714.782	32352.19
715.125	32186.99
715.469	32308.8
715.812	32076.04
716.156	31907.68
716.499	31959.88
716.843	31983.61
717.186	31887.79
717.53	31910.84
717.873	31842.82
718.216	31747.68
718.559	31535.03
718.902	31462.27
719.246	31632.88
719.589	31282.84
719.932	31385.66
720.275	31408.03
720.617	31357.64
720.96	31210.3
721.303	31243.74
721.646	31167.13
721.989	30977.08
722.331	31044.88
722.674	30978.44
723.016	30975.5
723.359	30854.6
723.701	30853.24
724.044	30675.62
724.386	30625.23
724.729	30712.68
725.071	30649.18
725.413	30654.6
725.755	30551.78
726.097	30467.94
726.439	30314.05
726.782	30316.76
727.124	30565.79
727.465	30280.38
727.807	30222.52
728.149	30233.37
728.491	30200.15
728.833	30197.21
729.175	29988.41
729.516	30032.47
729.858	29974.62
730.199	29959.93
730.541	29912.02
730.882	29847.62
731.224	29821.41
731.565	29771.46
731.906	29799.94
732.248	29758.58
732.589	29538.7
732.93	29453.96
733.271	29536.67
733.612	29629.77
733.953	29444.24
734.294	29376.67
734.635	29279.72
734.976	29418.48
735.317	29228.2
735.658	29270.69
735.999	29255.32
736.339	29127.19
736.68	29100.52
737.021	29094.64
737.361	29122.44
737.702	29138.03
738.042	28999.51
738.383	28899.4
738.723	29043.35
739.063	28822.56
739.404	28869.34
739.744	28749.79
740.084	28795.9
740.424	28765.39
740.764	28676.12
741.104	28751.83
741.444	28510.48
741.784	28501.67
742.124	28549.8
742.464	28419.41
742.804	28355.91
743.143	28236.81
743.483	28348.45
743.823	28096.03
744.162	28272.29
744.502	28230.26
744.841	28108.68
745.181	28224.16
745.52	28038.63
745.86	28119.08
746.199	27989.81
746.538	27991.17
746.877	28007.89
747.216	27962.24
747.556	27818.75
747.895	27901
748.234	27779.88
748.573	27665.76
748.911	27773.55
749.25	27614.01
749.589	27502.82
749.928	27598.41
750.267	27674.79
750.605	27502.14
750.944	27400.68
751.283	27279.1
751.621	27496.72
751.96	27300.12
752.298	27204.52
752.636	27337.63
752.975	27248.37
753.313	27078.88
753.651	27190.74
753.989	26989.84
754.327	26883.63
754.666	26893.12
755.004	26927.24
755.342	26873.91
755.679	26675.95
756.017	26769.96
756.355	26672.56
756.693	26738.1
757.031	26656.52
757.368	26486.13
757.706	26525.45
758.044	26323.87
758.381	26445.9
758.719	26253.82
759.056	26319.58
759.394	26124.55
759.731	25987.38
760.068	26031.22
760.405	25943.32
760.743	25847.72
761.08	25830.55
761.417	25685.47
761.754	25679.59
762.091	25551.46
762.428	25428.98
762.765	25278.93
763.102	25466.49
763.438	25436.89
763.775	25259.04
764.112	25216.55
764.449	25146.73
764.785	25041.64
765.122	24917.81
765.458	24726.4
765.795	24785.15
766.131	24759.84
766.467	24635.33
766.804	24581.32
767.14	24483.01
767.476	24396.01
767.812	24319.63
768.148	24392.85
768.485	24182.23
768.821	24092.52
769.157	24092.74
769.492	24069.01
769.828	24005.29
770.164	23830.83
770.5	23717.16
770.836	23662.7
771.171	23606.43
771.507	23457.28
771.842	23375.92
772.178	23354.23
772.513	23371.41
772.849	23066.33
773.184	23077.4
773.519	23100.9
773.855	22958.53
774.19	22832.66
774.525	22846.9
774.86	22795.83
775.195	22726.9
775.53	22574.36
775.865	22556.06
776.2	22354.71
776.535	22297.99
776.87	22250.3
777.205	22213.92
777.539	21941.61
777.874	22022.06
778.209	21754.27
778.543	21845.8
778.878	21699.13
779.212	21722.41
779.547	21479.93
779.881	21654.84
780.215	21352.48
780.55	21414.62
780.884	21283.55
781.218	21309.31
781.552	21283.1
781.886	21081.75
782.22	21059.6
782.554	20969.21
782.888	20795.65
783.222	20763.34
783.556	20621.87
783.889	20569.9
784.223	20337.13
784.557	20334.42
784.89	20462.33
785.224	20209.45
785.557	20197.7
785.891	20116.8
786.224	20127.42
786.558	20071.83
786.891	19854.44
787.224	19817.6
787.557	19826.41
787.891	19727.43
788.224	19714.78
788.557	19711.16
788.89	19603.82
789.223	19501.9
789.556	19482.92
789.888	19410.61
790.221	19237.73
790.554	19049.94
790.887	19196.83
791.219	19000.67
791.552	19005.42
791.884	18979.2
792.217	18786.67
792.549	18777.4
792.882	18601.14
793.214	18685.2
793.546	18598.88
793.879	18470.97
794.211	18426.68
794.543	18385.1
794.875	18329.28
795.207	18396.62
795.539	18273.01
795.871	18246.12
796.203	18033.47
796.535	18091.54
796.867	17964.99
797.198	17957.54
797.53	17873.92
797.862	17828.05
798.193	17833.47
798.525	17718.45
798.856	17709.41
799.188	17523.2
799.519	17496.98
799.85	17482.97
800.182	17351.45
800.513	17493.82
800.844	17283.88
801.175	17359.36
801.506	17242.75
801.837	17169.08
802.168	17211.79
802.499	17065.81
802.83	17028.07
803.161	16967.51
803.491	16929.77
803.822	16910.33
804.153	16872.14
804.483	16725.25
804.814	16716.44
805.145	16636.22
805.475	16717.79
805.805	16549.89
806.136	16561.87
806.466	16553.28
806.796	16459.95
807.126	16321.2
807.457	16205.94
807.787	16245.72
808.117	16216.11
808.447	16185.83
808.777	16191.26
809.107	16070.35
809.436	16061.09
809.766	16069.22
810.096	15939.74
810.426	15936.8
810.755	15897.25
811.085	15873.98
811.414	15884.14
811.744	15783.13
812.073	15718.27
812.403	15709.23
812.732	15632.63
813.061	15555.79
813.39	15421.11
813.719	15447.09
814.049	15509.01
814.378	15427.43
814.707	15384.04
815.036	15377.49
815.365	15275.12
815.693	15147.21
816.022	15148.57
816.351	15130.04
816.68	14958.52
817.008	15085.52
817.337	14959.88
817.665	14904.28
817.994	14956.49
818.322	14880.56
818.651	14888.24
818.979	14792.42
819.307	14934.34
819.636	14756.04
819.964	14638.53
820.292	14738.64
820.62	14721.01
820.948	14636.49
821.276	14741.35
821.604	14617.29
821.932	14680.79
822.259	14681.46
822.587	14642.14
822.915	14615.48
823.243	14674.91
823.57	14568.47
823.898	14631.07
824.225	14519.43
824.553	14552.43
824.88	14595.59
825.207	14625.65
825.535	14601.24
825.862	14584.07
826.189	14573.44
826.516	14615.03
826.843	14589.49
827.17	14608.92
827.497	14654.8
827.824	14537.97
828.151	14655.48
828.478	14565.76
828.805	14650.05
829.131	14577.51
829.458	14581.35
829.785	14558.08
830.111	14561.47
830.438	14608.92
830.764	14574.8
831.09	14597.62
831.417	14449.61
831.743	14550.17
832.069	14536.61
832.395	14421.13
832.722	14469.04
833.048	14507.23
833.374	14505.88
833.7	14443.05
834.026	14431.98
834.351	14439.89
834.677	14387.23
835.003	14425.2
835.329	14382.26
835.654	14361.92
835.98	14314.47
836.306	14296.16
836.631	14174.58
836.956	14280.8
837.282	14214.36
837.607	14178.43
837.932	14157.18
838.258	14179.33
838.583	14218.88
838.908	14053.01
839.233	14147.69
839.558	14109.28
839.883	13991.54
840.208	13953.35
840.533	14066.57
840.858	13977.98
841.182	14007.36
841.507	13989.96
841.832	13935.04
842.156	13840.36
842.481	13794.03
842.805	13846.23
843.13	13730.08
843.454	13626.8
843.778	13748.38
844.103	13658.89
844.427	13615.28
844.751	13621.83
845.075	13579.8
845.399	13517.88
845.723	13577.99
846.047	13515.17
846.371	13445.34
846.695	13384.55
847.019	13255.06
847.343	13260.48
847.666	13135.97
847.99	13133.93
848.313	13112.01
848.637	13007.61
848.96	12943.2
849.284	12909.99
849.607	12857.11
849.931	12792.47
850.254	12754.28
850.577	12655.75
850.9	12571.01
851.223	12569.2
851.546	12472.48
851.869	12473.61
852.192	12491.24
852.515	12285.37
852.838	12316.33
853.161	12275.65
853.483	12219.83
853.806	12171.25
854.129	12225.26
854.451	12099.84
854.774	12071.36
855.096	12059.16
855.419	12012.83
855.741	11974.64
856.063	11897.81
856.385	11917.7
856.708	11867.53
857.03	11836.12
857.352	11784.59
857.674	11798.15
857.996	11808.77
858.318	11687.87
858.64	11691.49
858.961	11654.43
859.283	11541.43
859.605	11460.76
859.926	11542.56
860.248	11472.96
860.57	11475.22
860.891	11477.48
861.212	11378.73
861.534	11432.06
861.855	11364.94
862.176	11263.02
862.498	11314.55
862.819	11348.22
863.14	11263.25
863.461	11265.73
863.782	11178.28
864.103	11268.9
864.424	11164.04
864.745	11153.2
865.065	11162.69
865.386	11088.34
865.707	11062.58
866.027	11113.87
866.348	11038.62
866.668	11005.4
866.989	11032.07
867.309	10990.04
867.63	10949.58
867.95	10945.97
868.27	10858.97
868.59	10905.07
868.91	10873.2
869.23	10885.86
869.55	10869.59
869.87	10835.69
870.19	10804.73
870.51	10828.91
870.83	10847.44
871.15	10762.25
871.469	10778.29
871.789	10779.87
872.109	10716.37
872.428	10714.34
872.748	10712.53
873.067	10723.6
873.386	10733.55
873.706	10652.42
874.025	10640.89
874.344	10569.26
874.663	10609.93
874.982	10572.42
875.301	10581.69
875.62	10521.35
875.939	10504.85
876.258	10491.52
876.577	10449.94
876.896	10469.15
877.214	10428.24
877.533	10384.63
877.852	10378.3
878.17	10371.52
878.489	10399.54
878.807	10339.66
879.125	10347.79
879.444	10272.77
879.762	10229.6
880.08	10246.33
880.398	10207.23
880.716	10217.85
881.034	10192.54
881.352	10216.27
881.67	10165.42
881.988	10156.61
882.306	10064.41
882.624	10130.62
882.941	9998.88
883.259	10009.72
883.577	10002.27
883.894	9995.49
884.212	9977.86
884.529	9924.75
884.846	9858.54
885.164	9965.88
885.481	9852.21
885.798	9925.21
886.115	9833
886.432	9807.24
886.75	9783.74
887.067	9835.26
887.383	9750.07
887.7	9748.71
888.017	9716.17
888.334	9684.99
888.651	9677.3
888.967	9614.25
889.284	9596.4
889.6	9570.19
889.917	9598.66
890.233	9580.58
890.55	9538.55
890.866	9576.29
891.182	9408.61
891.498	9374.26
891.815	9333.81
892.131	9374.26
892.447	9330.87
892.763	9352.11
893.079	9228.05
893.395	9278.89
893.71	9211.33
894.026	9260.14
894.342	9205.22
894.657	9175.85
894.973	9047.49
895.289	9129.52
895.604	9078
895.92	9023.53
896.235	8927.49
896.55	8998.9
896.865	8960.71
897.181	8917.55
897.496	8914.84
897.811	8841.84
898.126	8777.21
898.441	8710.32
898.756	8770.89
899.071	8703.32
899.386	8744.9
899.7	8595.97
900.015	8548.52
900.33	8562.76
900.644	8609.53
900.959	8615.64
901.273	8514.39
901.588	8494.28
901.902	8380.39
902.216	8411.12
902.531	8358.24
902.845	8368.86
903.159	8304.68
903.473	8276.21
903.787	8212.03
904.101	8229.2
904.415	8211.58
904.729	8179.94
905.042	8119.6
905.356	8095.65
905.67	8118.47
905.984	8136.78
906.297	7973.17
906.611	7962.54
906.924	7968.65
907.237	7947.63
907.551	7912.83
907.864	7960.06
908.177	7894.3
908.491	7895.2
908.804	7780.63
909.117	7724.13
909.43	7696.79
909.743	7684.81
910.056	7661.31
910.368	7651.82
910.681	7610.01
910.994	7538.15
911.307	7515.1
911.619	7517.36
911.932	7523.91
912.244	7485.5
912.557	7378.61
912.869	7356.91
913.181	7369.11
913.494	7360.53
913.806	7260.19
914.118	7260.42
914.43	7191.04
914.742	7217.25
915.054	7169.8
915.366	7191.04
915.678	7100.65
915.99	7052.96
916.302	7026.52
916.613	6993.98
916.925	7032.4
917.236	6957.15
917.548	6933.19
917.859	6901.56
918.171	6838.73
918.482	6859.3
918.794	6857.72
919.105	6777.27
919.416	6789.24
919.727	6753.31
920.038	6824.72
920.349	6688
920.66	6653.65
920.971	6648
921.282	6601.22
921.593	6589.47
921.903	6539.98
922.214	6491.85
922.525	6480.55
922.835	6497.5
923.146	6443.94
923.456	6429.93
923.767	6358.75
924.077	6328.46
924.387	6342.93
924.697	6286.43
925.008	6223.83
925.318	6202.37
925.628	6250.5
925.938	6178.19
926.248	6143.84
926.558	6147.9
926.867	6104.97
927.177	6054.8
927.487	6019.77
927.796	6042.14
928.106	5998.3
928.416	6007.34
928.725	5924.63
929.034	5916.95
929.344	5946.78
929.653	5880.34
929.962	5843.28
930.271	5845.54
930.581	5853.22
930.89	5791.98
931.199	5774.81
931.508	5759.21
931.817	5749.95
932.125	5693.68
932.434	5697.97
932.743	5640.8
933.051	5630.18
933.36	5600.12
933.669	5617.3
933.977	5501.59
934.286	5512.21
934.594	5497.52
934.902	5461.82
935.21	5426.34
935.519	5412.1
935.827	5387.25
936.135	5393.57
936.443	5353.8
936.751	5290.07
937.059	5304.54
937.367	5262.5
937.674	5306.57
937.982	5281.26
938.29	5207.36
938.597	5214.14
938.905	5177.31
939.213	5186.8
939.52	5100.02
939.827	5103.64
940.135	5081.94
940.442	5029.74
940.749	5051.66
941.056	5085.11
941.363	4984.54
941.67	4956.97
941.977	4977.31
942.284	4905.45
942.591	4934.38
942.898	4886.24
943.205	4923.98
943.511	4829.52
943.818	4801.05
944.125	4816.41
944.431	4753.36
944.738	4740.26
945.044	4754.49
945.35	4682.41
945.657	4752.69
945.963	4707.26
946.269	4654.38
946.575	4649.64
946.881	4638.79
947.187	4626.36
947.493	4607.6
947.799	4545.23
948.105	4523.99
948.41	4530.54
948.716	4454.61
949.022	4491.9
949.327	4487.83
949.633	4424.78
949.938	4427.72
950.244	4406.48
950.549	4359.25
950.854	4389.76
951.16	4365.13
951.465	4321.28
951.77	4310.21
952.075	4294.84
952.38	4279.7
952.685	4303.21
952.99	4262.3
953.294	4249.2
953.599	4154.06
953.904	4167.84
954.209	4209.88
954.513	4168.29
954.818	4125.13
955.122	4141.4
955.426	4090.78
955.731	4067.05
956.035	4065.92
956.339	4048.52
956.643	4013.72
956.948	3992.48
957.252	3968.07
957.556	3981.63
957.86	3965.59
958.163	3952.71
958.467	3915.65
958.771	3873.39
959.075	3912.03
959.378	3882.88
959.682	3831.13
959.985	3837.68
960.289	3784.12
960.592	3808.08
960.896	3782.32
961.199	3766.27
961.502	3788.42
961.805	3748.64
962.108	3734.63
962.411	3722.88
962.714	3676.56
963.017	3686.27
963.32	3654.41
963.623	3627.52
963.926	3685.6
964.228	3648.53
964.531	3575.54
964.833	3585.71
965.136	3539.16
965.438	3508.42
965.741	3564.47
966.043	3556.11
966.345	3482.44
966.648	3450.35
966.95	3475.21
967.252	3461.87
967.554	3466.17
967.856	3438.6
968.158	3397.02
968.46	3384.36
968.761	3393.17
969.063	3375.55
969.365	3356.79
969.666	3320.86
969.968	3322.89
970.269	3300.29
970.571	3318.83
970.872	3284.7
971.174	3266.62
971.475	3236.79
971.776	3240.41
972.077	3225.27
972.378	3216
972.679	3187.76
972.98	3183.24
973.281	3157.02
973.582	3156.34
973.883	3140.75
974.183	3116.57
974.484	3128.32
974.785	3083.8
975.085	3079.06
975.386	3065.72
975.686	3056.69
975.986	3051.94
976.287	3046.06
976.587	3002
976.887	3004.03
977.187	3018.72
977.487	2990.25
977.787	2937.82
978.087	2922.9
978.387	2960.64
978.687	2978.5
978.987	2925.84
979.286	2875.9
979.586	2863.02
979.885	2856.92
980.185	2837.03
980.484	2823.24
980.784	2821.21
981.083	2801.1
981.382	2750.03
981.682	2780.31
981.981	2794.09
982.28	2756.81
982.579	2748.67
982.878	2730.82
983.177	2757.71
983.475	2731.95
983.774	2706.41
984.073	2681.78
984.372	2684.27
984.67	2660.99
984.969	2675.23
985.267	2661.44
985.566	2597.04
985.864	2635.91
986.162	2656.24
986.461	2622.35
986.759	2588.67
987.057	2570.6
987.355	2577.38
987.653	2549.58
987.951	2549.81
988.249	2550.94
988.547	2548.68
988.844	2538.51
989.142	2507.77
989.44	2506.42
989.737	2475.23
990.035	2453.54
990.332	2475.68
990.63	2456.25
990.927	2420.77
991.224	2438.85
991.521	2432.97
991.819	2414.89
992.116	2436.14
992.413	2373.09
992.71	2386.42
993.006	2330.15
993.303	2337.16
993.6	2353.43
993.897	2316.82
994.193	2306.87
994.49	2325.63
994.787	2333.99
995.083	2281.34
995.379	2264.16
995.676	2244.5
995.972	2247.21
996.268	2242.47
996.565	2251.96
996.861	2222.58
997.157	2228.01
997.453	2190.27
997.749	2171.28
998.044	2164.96
998.34	2163.38
998.636	2152.98
998.932	2186.65
999.227	2116.37
999.523	2113.43
999.818	2113.89
1000.114	2090.61
1000.409	2065.07
1000.704	2051.29
1001	2034.34
1001.295	2051.74
1001.59	2032.53
1001.885	2001.12
1002.18	2011.51
1002.475	2004.51
1002.77	1984.4
1003.065	1993.66
1003.359	2004.96
1003.654	1961.35
1003.949	1944.85
1004.243	1985.07
1004.538	1936.26
1004.832	1926.77
1005.127	1942.14
1005.421	1879.99
1005.715	1882.25
1006.009	1902.82
1006.304	1853.78
1006.598	1825.31
1006.892	1842.48
1007.186	1825.98
1007.48	1820.56
1007.773	1796.15
1008.067	1812.88
1008.361	1794.35
1008.655	1779.66
1008.948	1765.19
1009.242	1780.11
1009.535	1738.3
1009.829	1734.91
1010.122	1761.58
1010.415	1731.3
1010.708	1721.81
1011.001	1717.51
1011.295	1731.3
1011.588	1691.98
1011.881	1653.33
1012.173	1665.08
1012.466	1668.47
1012.759	1666.21
1013.052	1644.07
1013.344	1650.62
1013.637	1623.95
1013.93	1596.84
1014.222	1595.03
1014.514	1592.09
1014.807	1587.12
1015.099	1576.5
1015.391	1582.83
1015.683	1572.43
1015.976	1553.45
1016.268	1553.22
1016.56	1543.28
1016.851	1491.98
1017.143	1498.53
1017.435	1498.31
1017.727	1525.65
1018.018	1481.36
1018.31	1443.85
1018.602	1490.17
1018.893	1450.63
1019.185	1445.43
1019.476	1465.77
1019.767	1449.5
1020.058	1438.2
1020.35	1411.53
1020.641	1401.81
1020.932	1407.91
1021.223	1404.3
1021.514	1384.19
1021.804	1370.4
1022.095	1358.65
1022.386	1388.71
1022.677	1349.61
1022.967	1378.99
1023.258	1324.53
1023.548	1301.48
1023.839	1320.23
1024.129	1306.22
1024.419	1276.17
1024.709	1270.52
1025	1278.2
1025.29	1264.42
1025.58	1272.78
1025.87	1243.17
1026.16	1231.2
1026.449	1260.8
1026.739	1225.55
1027.029	1234.36
1027.319	1211.54
1027.608	1192.55
1027.898	1187.13
1028.187	1203.85
1028.477	1206.11
1028.766	1214.7
1029.055	1178.09
1029.344	1183.97
1029.634	1138.32
1029.923	1134.02
1030.212	1146
1030.501	1130.41
1030.79	1095.38
1031.078	1113.91
1031.367	1091.77
1031.656	1107.13
1031.945	1077.75
1032.233	1073.01
1032.522	1077.98
1032.81	1072.1
1033.099	1066.46
1033.387	1064.65
1033.675	1052.9
1033.963	1047.92
1034.251	1038.21
1034.54	1028.04
1034.828	1031.65
1035.116	1047.47
1035.403	1022.16
1035.691	994.59
1035.979	993.69
1036.267	994.37
1036.554	991.43
1036.842	1000.69
1037.129	968.15
1037.417	982.84
1037.704	950.53
1037.992	928.61
1038.279	967.02
1038.566	951.88
1038.853	951.88
1039.14	951.88
