Data from hue_160_FLMS001491_00058.txt Node
Date: Tue Feb 07 16:51:23 GMT 2017
User: dcchb
Spectrometer: FLMS00149
Trigger mode: 0
Integration Time (sec): 2.000000E-2
Scans to average: 10
Electric dark correction enabled: true
Nonlinearity correction enabled: false
Boxcar width: 0
XAxis mode: Wavelengths
Number of Pixels in Spectrum: 2048
>>>>>Begin Spectral Data<<<<<
341.393	-10.13
341.776	-10.13
342.16	-10.13
342.543	-70.24
342.927	-62.1
343.31	-74.53
343.693	-73.18
344.077	-70.69
344.46	-57.58
344.843	-56
345.226	-53.06
345.61	-36.57
345.993	-4.48
346.376	-17.81
346.759	2.75
347.142	21.74
347.525	43.43
347.908	58.8
348.291	78.91
348.674	118.68
349.057	119.59
349.44	127.27
349.823	158.68
350.206	153.48
350.588	193.26
350.971	198.68
351.354	230.09
351.737	214.05
352.119	250.88
352.502	262.86
352.884	271.67
353.267	261.5
353.65	296.31
354.032	313.71
354.414	301.28
354.797	303.54
355.179	325.68
355.562	322.07
355.944	330.88
356.326	324.78
356.709	342.18
357.091	332.69
357.473	322.75
357.855	327.94
358.238	310.09
358.62	341.5
359.002	332.01
359.384	326.81
359.766	335.4
360.148	341.95
360.53	327.72
360.912	310.99
361.294	338.56
361.676	334.04
362.057	332.91
362.439	320.71
362.821	321.16
363.203	315.74
363.584	331.79
363.966	320.71
364.348	328.17
364.729	308.51
365.111	320.49
365.493	307.15
365.874	296.98
366.256	308.28
366.637	303.09
367.019	295.63
367.4	308.96
367.781	313.48
368.163	305.12
368.544	296.31
368.925	299.92
369.306	319.36
369.688	300.6
370.069	298.11
370.45	316.42
370.831	292.92
371.212	306.93
371.593	303.09
371.974	294.27
372.355	304.44
372.736	294.72
373.117	300.15
373.498	315.06
373.879	306.47
374.26	301.96
374.641	325.23
375.021	313.03
375.402	316.19
375.783	329.53
376.163	330.2
376.544	327.94
376.925	322.52
377.305	329.75
377.686	310.99
378.066	316.42
378.447	287.72
378.827	347.6
379.208	328.85
379.588	318.68
379.968	322.75
380.349	313.03
380.729	337.66
381.109	333.59
381.489	336.98
381.87	330.43
382.25	330.66
382.63	332.01
383.01	340.37
383.39	333.59
383.77	338.56
384.15	356.19
384.53	327.94
384.91	331.11
385.29	331.33
385.67	363.65
386.049	335.4
386.429	354.38
386.809	319.36
387.189	330.2
387.568	341.73
387.948	347.15
388.328	370.88
388.707	368.17
389.087	332.01
389.466	355.06
389.846	351.45
390.225	349.64
390.605	344.44
390.984	346.93
391.363	357.77
391.743	326.81
392.122	370.65
392.501	346.02
392.881	360.71
393.26	351.22
393.639	369.07
394.018	362.29
394.397	362.07
394.776	355.06
395.155	366.81
395.534	381.05
395.913	381.28
396.292	375.63
396.671	343.31
397.05	389.18
397.429	390.09
397.808	366.36
398.186	374.5
398.565	405.68
398.944	375.63
399.323	381.73
399.701	374.95
400.08	389.86
400.458	387.38
400.837	396.19
401.215	411.56
401.594	395.29
401.972	373.14
402.351	410.43
402.729	411.56
403.107	393.03
403.486	407.04
403.864	391.22
404.242	427.38
404.62	435.29
404.999	411.33
405.377	400.48
405.755	421.5
406.133	421.5
406.511	415.4
406.889	408.62
407.267	426.25
407.645	425.12
408.023	409.75
408.401	443.42
408.779	430.31
409.156	445
409.534	422.86
409.912	422.18
410.29	459.01
410.667	448.84
411.045	440.48
411.422	440.48
411.8	476.41
412.178	460.82
412.555	475.28
412.933	472.35
413.31	480.48
413.687	451.1
414.065	476.87
414.442	484.55
414.819	488.39
415.197	494.04
415.574	484.55
415.951	485.45
416.328	466.92
416.705	473.48
417.082	481.84
417.46	478.45
417.837	511.22
418.214	511.89
418.591	511.44
418.967	512.12
419.344	518.45
419.721	521.38
420.098	513.7
420.475	523.19
420.852	539.92
421.228	518.22
421.605	538.33
421.982	562.29
422.358	556.64
422.735	549.86
423.111	568.16
423.488	547.6
423.864	565.68
424.241	569.07
424.617	579.69
424.994	569.07
425.37	589.18
425.746	593.93
426.123	573.13
426.499	560.03
426.875	598.67
427.251	586.02
427.627	606.13
428.003	571.55
428.379	616.07
428.756	602.51
429.132	646.58
429.507	635.73
429.883	618.33
430.259	619.24
430.635	631.66
431.011	668.5
431.387	647.48
431.763	657.88
432.138	648.84
432.514	661.95
432.89	669.63
433.265	676.18
433.641	693.36
434.016	710.08
434.392	718.89
434.767	711.89
435.143	715.05
435.518	735.84
435.894	737.42
436.269	716.63
436.644	747.14
437.02	733.36
437.395	755.95
437.77	763.41
438.145	761.38
438.52	743.53
438.895	789.85
439.271	775.84
439.646	812.68
440.021	797.54
440.395	782.85
440.77	783.52
441.145	821.49
441.52	842.05
441.895	834.82
442.27	843.86
442.645	817.2
443.019	830.08
443.394	850.87
443.769	845.67
444.143	836.63
444.518	858.32
444.892	854.48
445.267	880.7
445.641	881.6
446.016	873.01
446.39	881.15
446.764	904.88
447.139	883.18
447.513	918.66
447.887	905.56
448.262	906.46
448.636	919.34
449.01	922.96
449.384	930.41
449.758	918.66
450.132	932.45
450.506	941.94
450.88	957.98
451.254	976.29
451.628	948.72
452.002	970.19
452.376	976.74
452.75	1009.28
453.123	1001.6
453.497	1036.4
453.871	1040.47
454.244	1030.3
454.618	1039.79
454.992	1098.32
455.365	1072.1
455.739	1108.49
456.112	1136.28
456.486	1132.67
456.859	1132.67
457.232	1132.67
457.606	1128.37
457.979	1139.9
458.352	1183.51
458.725	1192.33
459.099	1210.63
459.472	1216.51
459.845	1223.74
460.218	1253.12
460.591	1226.9
460.964	1231.87
461.337	1260.57
461.71	1316.84
462.083	1304.19
462.456	1334.24
462.829	1365.43
463.201	1357.07
463.574	1383.06
463.947	1392.32
464.32	1429.38
464.692	1436.61
465.065	1471.19
465.438	1469.61
465.81	1490.62
466.183	1519.78
466.555	1562.49
466.928	1554.8
467.3	1562.04
467.672	1625.08
468.045	1646.1
468.417	1658.53
468.789	1661.24
469.161	1687.46
469.534	1746.44
469.906	1795.02
470.278	1773.33
470.65	1804.97
471.022	1871.18
471.394	1896.72
471.766	1916.15
472.138	1963.38
472.51	2023.72
472.882	2036.6
473.253	2092.19
473.625	2173.77
473.997	2229.14
474.369	2217.39
474.74	2264.39
475.112	2318.85
475.484	2352.97
475.855	2444.72
476.227	2445.85
476.598	2542.35
476.97	2599.52
477.341	2690.59
477.713	2707.77
478.084	2764.49
478.455	2925.84
478.827	2931.04
479.198	3083.35
479.569	3080.41
479.94	3159.96
480.311	3245.83
480.682	3324.47
481.053	3413.29
481.424	3538.71
481.795	3608.31
482.166	3693.28
482.537	3757.91
482.908	3875.19
483.279	3998.58
483.65	4098.69
484.021	4192.25
484.391	4279.48
484.762	4385.24
485.133	4424.33
485.503	4586.14
485.874	4736.87
486.244	4812.35
486.615	4955.84
486.985	5088.04
487.356	5173.24
487.726	5295.5
488.097	5420.01
488.467	5556.96
488.837	5672.44
489.207	5827.23
489.578	5983.39
489.948	6080.11
490.318	6179.77
490.688	6272.65
491.058	6453.21
491.428	6558.51
491.798	6686.65
492.168	6873.99
492.538	6901.56
492.908	7065.39
493.278	7214.32
493.648	7240.98
494.017	7433.29
494.387	7575.44
494.757	7702.21
495.126	7817.46
495.496	7926.61
495.866	8053.16
496.235	8087.06
496.605	8211.13
496.974	8413.61
497.344	8476.43
497.713	8573.83
498.082	8645.01
498.452	8799.13
498.821	8959.58
499.19	8968.85
499.559	9082.06
499.928	9202.74
500.298	9245.22
500.667	9385.33
501.036	9456.74
501.405	9539
501.774	9587.36
502.143	9677.3
502.512	9776.28
502.88	9911.19
503.249	9944.41
503.618	10024.86
503.987	10069.83
504.356	10093.79
504.724	10225.31
505.093	10157.97
505.462	10343.73
505.83	10409.26
506.199	10459.65
506.567	10594.34
506.936	10588.24
507.304	10722.02
507.672	10753.43
508.041	10839.76
508.409	10966.53
508.777	11067.1
509.145	11070.71
509.514	11083.37
509.882	11081.56
510.25	11173.76
510.618	11272.29
510.986	11224.61
511.354	11265.51
511.722	11391.61
512.09	11522.23
512.458	11457.37
512.826	11519.74
513.193	11585.5
513.561	11578.27
513.929	11657.81
514.297	11710.02
514.664	11757.47
515.032	11824.59
515.4	11929.67
515.767	11868.88
516.135	11916.11
516.502	11867.53
516.869	12043.34
517.237	12050.12
517.604	11914.31
517.972	12064.13
518.339	12074.08
518.706	12139.16
519.073	12180.51
519.44	12168.08
519.808	12337.57
520.175	12208.08
520.542	12305.71
520.909	12367.63
521.276	12388.19
521.643	12366.72
522.009	12458.92
522.376	12530.33
522.743	12430.9
523.11	12507.51
523.477	12686.49
523.843	12694.85
524.21	12671.8
524.577	12799.25
524.943	12797.22
525.31	12736.88
525.676	12809.65
526.043	12851
526.409	12813.94
526.776	12903.21
527.142	12925.8
527.508	12890.32
527.874	12917.44
528.241	12948.63
528.607	12932.13
528.973	13065.01
529.339	12979.59
529.705	13009.19
530.071	13058.91
530.437	13027.5
530.803	13088.74
531.169	13009.87
531.535	12982.75
531.901	12992.92
532.267	12953.83
532.632	12996.76
532.998	12990.44
533.364	12982.07
533.73	13017.33
534.095	13027.27
534.461	13013.94
534.826	13010.1
535.192	12973.71
535.557	12898.01
535.923	12883.32
536.288	12952.02
536.653	12844.9
537.019	12761.29
537.384	12801.06
537.749	12811
538.114	12760.84
538.479	12779.14
538.845	12676.09
539.21	12690.78
539.575	12643.55
539.94	12622.31
540.305	12705.02
540.67	12546.83
541.034	12528.07
541.399	12474.29
541.764	12467.96
542.129	12439.04
542.494	12421.41
542.858	12416.67
543.223	12294.41
543.587	12360.85
543.952	12431.35
544.316	12295.54
544.681	12233.84
545.045	12270.68
545.41	12232.26
545.774	12276.56
546.138	12187.07
546.503	12063.91
546.867	12059.39
547.231	12084.47
547.595	12046.51
547.959	11998.14
548.324	11948.2
548.688	11927.64
549.052	11889.9
549.416	11855.55
549.779	11930.58
550.143	11822.33
550.507	11849
550.871	11804.93
551.235	11794.31
551.599	11806.51
551.962	11710.47
552.326	11671.6
552.689	11690.36
553.053	11606.06
553.417	11611.26
553.78	11708.66
554.143	11583.24
554.507	11619.17
554.87	11536.01
555.234	11635.67
555.597	11567.2
555.96	11455.11
556.323	11523.81
556.686	11401.55
557.05	11491.27
557.413	11431.38
557.776	11457.37
558.139	11432.06
558.502	11482.68
558.865	11364.04
559.228	11455.79
559.59	11432.28
559.953	11395.67
560.316	11476.8
560.679	11372.17
561.041	11475.67
561.404	11446.52
561.767	11477.71
562.129	11442.45
562.492	11472.74
562.854	11433.19
563.217	11393.87
563.579	11488.78
563.941	11433.64
564.304	11560.42
564.666	11487.2
565.028	11435.45
565.39	11410.82
565.753	11589.79
566.115	11525.39
566.477	11568.55
566.839	11504.37
567.201	11544.15
567.563	11595.22
567.925	11584.14
568.287	11566.29
568.648	11554.77
569.01	11569.68
569.372	11627.08
569.734	11587.08
570.095	11627.31
570.457	11669.57
570.819	11639.51
571.18	11642.67
571.542	11757.93
571.903	11658.27
572.265	11751.6
572.626	11773.74
572.987	11685.38
573.349	11750.92
573.71	11765.83
574.071	11795.66
574.432	11754.99
574.794	11781.2
575.155	11728.1
575.516	11715.21
575.877	11779.62
576.238	11810.13
576.599	11829.34
576.96	11805.61
577.32	11757.47
577.681	11812.16
578.042	11815.32
578.403	11790.69
578.763	11815.55
579.124	11743.69
579.485	11804.93
579.845	11830.69
580.206	11864.82
580.566	11820.97
580.927	11762.67
581.287	11861.88
581.648	11789.11
582.008	11797.47
582.368	11746.85
582.728	11878.83
583.089	11733.52
583.449	11721.54
583.809	11769.22
584.169	11787.3
584.529	11767.42
584.889	11816.23
585.249	11718.6
585.609	11669.57
585.969	11696.01
586.329	11664.82
586.688	11737.13
587.048	11724.48
587.408	11629.12
587.768	11680.19
588.127	11656.91
588.487	11633.18
588.846	11696.46
589.206	11647.19
589.565	11590.7
589.925	11690.36
590.284	11645.84
590.643	11679.28
591.003	11648.1
591.362	11591.38
591.721	11616.01
592.08	11606.29
592.44	11619.17
592.799	11658.27
593.158	11471.61
593.517	11564.48
593.876	11582.79
594.235	11546.18
594.593	11539.63
594.952	11526.74
595.311	11527.65
595.67	11505.95
596.029	11620.08
596.387	11534.43
596.746	11541.66
597.104	11542.34
597.463	11555.22
597.822	11534.65
598.18	11477.03
598.538	11500.53
598.897	11566.29
599.255	11496.69
599.613	11604.48
599.972	11480.87
600.33	11549.12
600.688	11507.08
601.046	11462.11
601.404	11516.35
601.762	11501.43
602.12	11563.35
602.478	11508.21
602.836	11582.34
603.194	11488.33
603.552	11456.92
603.91	11417.6
604.268	11473.86
604.625	11415.11
604.983	11459.85
605.341	11488.78
605.698	11522
606.056	11464.15
606.413	11506.41
606.771	11487.88
607.128	11574.43
607.485	11562.45
607.843	11557.03
608.2	11536.69
608.557	11597.03
608.914	11517.03
609.272	11670.7
609.629	11531.04
609.986	11667.31
610.343	11571.49
610.7	11675.89
611.057	11649.23
611.414	11651.71
611.771	11682.45
612.127	11649.23
612.484	11680.64
612.841	11688.77
613.198	11595.9
613.554	11679.28
613.911	11759.73
614.267	11744.59
614.624	11651.71
614.98	11648.32
615.337	11767.64
615.693	11677.25
616.05	11681.54
616.406	11721.32
616.762	11779.17
617.118	11766.51
617.475	11679.06
617.831	11784.59
618.187	11809.9
618.543	11831.14
618.899	11871.59
619.255	11863.69
619.611	11716.8
619.967	11836.79
620.323	11849.45
620.678	11792.95
621.034	11780.3
621.39	11803.35
621.746	11759.06
622.101	11930.35
622.457	11839.96
622.812	11868.66
623.168	11849.9
623.523	11961.76
623.879	11950.91
624.234	11906.62
624.589	11855.55
624.945	11900.07
625.3	11848.77
625.655	11900.07
626.01	11832.73
626.365	11923.8
626.72	11855.55
627.075	11815.55
627.43	11798.83
627.785	11783.46
628.14	11875.89
628.495	11856.91
628.85	11829.11
629.205	11802.44
629.559	11791.14
629.914	11745.5
630.269	11785.72
630.623	11690.13
630.978	11760.41
631.332	11803.12
631.687	11771.26
632.041	11729.9
632.396	11738.26
632.75	11721.77
633.104	11750.47
633.459	11637.7
633.813	11741.43
634.167	11651.94
634.521	11692.39
634.875	11599.51
635.229	11589.79
635.583	11559.06
635.937	11543.24
636.291	11552.28
636.645	11576.01
636.999	11523.81
637.352	11576.69
637.706	11511.38
638.06	11561.09
638.413	11479.51
638.767	11463.02
639.121	11498.95
639.474	11432.51
639.828	11471.38
640.181	11421.66
640.534	11435.22
640.888	11362.46
641.241	11438.39
641.594	11374.66
641.947	11433.64
642.301	11381.66
642.654	11401.1
643.007	11404.94
643.36	11464.83
643.713	11307.32
644.066	11367.65
644.419	11332.17
644.771	11191.84
645.124	11152.97
645.477	11121.33
645.83	11112.07
646.182	11015.12
646.535	10980.77
646.888	10964.73
647.24	10967.21
647.593	11027.1
647.945	10990.71
648.298	10916.14
648.65	10870.94
649.002	10947.33
649.355	10972.64
649.707	10931.28
650.059	10974.22
650.411	11199.3
650.763	11188.9
651.115	11266.86
651.467	11207.43
651.819	11220.09
652.171	11216.02
652.523	11184.38
652.875	11155.23
653.227	11161.33
653.578	11212.4
653.93	11158.85
654.282	11156.59
654.633	11166.08
654.985	11227.54
655.337	11131.05
655.688	11199.3
656.039	11259.18
656.391	11085.85
656.742	11146.19
657.094	11105.97
657.445	11257.6
657.796	11168.11
658.147	11206.08
658.498	11175.57
658.849	11234.1
659.2	11180.09
659.551	11188.67
659.902	11197.04
660.253	11256.92
660.604	11175.79
660.955	11107.32
661.306	11208.11
661.656	11213.08
662.007	11228.67
662.358	11254.44
662.708	11279.07
663.059	11239.97
663.409	11153.2
663.76	11225.28
664.11	11211.72
664.461	11259.41
664.811	11261.44
665.161	11245.62
665.511	11253.08
665.862	11220.09
666.212	11253.08
666.562	11260.54
666.912	11205.62
667.262	11175.12
667.612	11213.08
667.962	11253.76
668.312	11292.4
668.662	11331.27
669.011	11252.4
669.361	11254.44
669.711	11229.13
670.06	11232.29
670.41	11215.79
670.76	11234.32
671.109	11199.07
671.459	11301.67
671.808	11221.44
672.157	11243.81
672.507	11198.17
672.856	11169.69
673.205	11192.74
673.554	11258.05
673.904	11163.14
674.253	11240.88
674.602	11116.36
674.951	10971.96
675.3	10947.33
675.649	11098.51
675.998	11073.2
676.346	11108
676.695	11195.45
677.044	11013.76
677.393	11044.95
677.741	11084.5
678.09	11021.67
678.438	11040.2
678.787	11058.73
679.135	11013.76
679.484	10947.55
679.832	11037.27
680.181	10928.79
680.529	10887.89
680.877	10919.76
681.225	10910.04
681.573	11002.69
681.922	10836.37
682.27	10839.53
682.618	10924.27
682.966	10793.43
683.314	10805.18
683.661	10774.22
684.009	10721.12
684.357	10667.33
684.705	10638.86
685.053	10649.71
685.4	10672.3
685.748	10557.05
686.095	10555.7
686.443	10525.19
686.79	10554.34
687.138	10639.99
687.485	10539.43
687.832	10512.08
688.18	10531.97
688.527	10450.62
688.874	10422.37
689.221	10396.83
689.568	10358.19
689.915	10383.72
690.262	10338.3
690.609	10291.07
690.956	10227.34
691.303	10236.84
691.65	10174.92
691.997	10174.01
692.344	10091.08
692.69	10061.92
693.037	10102.15
693.383	10009.5
693.73	9981.93
694.077	9955.94
694.423	9944.41
694.769	9839.78
695.116	9903.51
695.462	9836.62
695.808	9803.4
696.155	9788.26
696.501	9792.78
696.847	9761.82
697.193	9732.67
697.539	9687.92
697.885	9605.21
698.231	9610.64
698.577	9611.77
698.923	9532
699.269	9451.77
699.614	9438.66
699.96	9463.75
700.306	9412.45
700.651	9361.38
700.997	9303.75
701.342	9320.25
701.688	9257.2
702.033	9198.67
702.379	9238.67
702.724	9149.41
703.069	9205.68
703.415	9093.59
703.76	9107.37
704.105	9022.4
704.45	8976.76
704.795	9000.26
705.14	8968.62
705.485	8910.09
705.83	8931.56
706.175	8937.66
706.52	8903.99
706.865	8867.61
707.209	8815.4
707.554	8685.24
707.899	8781.96
708.243	8721.39
708.588	8726.82
708.932	8670.32
709.277	8608.63
709.621	8650.21
709.966	8591.91
710.31	8578.35
710.654	8583.32
710.998	8510.33
711.342	8483.21
711.687	8496.54
712.031	8470.33
712.375	8386.94
712.719	8413.15
713.063	8440.95
713.407	8452.48
713.75	8374.06
714.094	8425.13
714.438	8384.91
714.782	8340.16
715.125	8333.61
715.469	8359.14
715.812	8291.58
716.156	8235.53
716.499	8206.61
716.843	8177.45
717.186	8203.67
717.53	8278.24
717.873	8235.53
718.216	8246.38
718.559	8114.63
718.902	8170.22
719.246	8187.62
719.589	8095.2
719.932	8099.94
720.275	8137.68
720.617	8094.07
720.96	8010.45
721.303	8072.6
721.646	8138.81
721.989	8073.95
722.331	8081.86
722.674	8042.77
723.016	8000.96
723.359	8048.19
723.701	7959.83
724.044	7999.38
724.386	7936.1
724.729	7997.57
725.071	7988.53
725.413	7975.43
725.755	7974.52
726.097	7929.1
726.439	7838.93
726.782	7894.75
727.124	7944.01
727.465	7880.06
727.807	7965.48
728.149	7932.04
728.491	7861.76
728.833	7913.28
729.175	7897.01
729.516	7873.73
729.858	7925.26
730.199	7906.28
730.541	7885.48
730.882	7885.03
731.224	7927.07
731.565	7895.88
731.906	7863.11
732.248	7864.69
732.589	7818.37
732.93	7810.23
733.271	7845.94
733.612	7860.63
733.953	7829.67
734.294	7833.96
734.635	7878.03
734.976	7939.95
735.317	7878.25
735.658	7861.08
735.999	7890.46
736.339	7876.45
736.68	7927.52
737.021	7904.47
737.361	7809.55
737.702	7911.7
738.042	7920.96
738.383	7888.42
738.723	7891.13
739.063	7845.49
739.404	7894.07
739.744	7893.39
740.084	7883.68
740.424	7920.06
740.764	7907.18
741.104	8006.61
741.444	7905.6
741.784	8009.78
742.124	8006.16
742.464	7966.61
742.804	7981.53
743.143	8053.16
743.483	8033.73
743.823	8073.28
744.162	8140.62
744.502	8080.06
744.841	8118.47
745.181	8136.55
745.52	8205.02
745.86	8285.93
746.199	8302.2
746.538	8316.89
746.877	8327.06
747.216	8390.56
747.556	8421.06
747.895	8431.91
748.234	8480.27
748.573	8561.85
748.911	8566.82
749.25	8731.79
749.589	8707.38
749.928	8803.2
750.267	8843.2
750.605	8896.76
750.944	9002.29
751.283	9026.02
751.621	9177.65
751.96	9222.85
752.298	9309.4
752.636	9427.82
752.975	9479.57
753.313	9493.13
753.651	9697.87
753.989	9727.7
754.327	9830.52
754.666	9846.11
755.004	9969.05
755.342	10227.34
755.679	10286.33
756.017	10427.34
756.355	10515.02
756.693	10588.24
757.031	10792.3
757.368	10873.2
757.706	11051.05
758.044	11154.33
758.381	11312.74
758.719	11504.82
759.056	11659.85
759.394	11707.98
759.731	11877.02
760.068	11954.53
760.405	12157.24
760.743	12232.94
761.08	12476.55
761.417	12565.36
761.754	12768.52
762.091	12989.76
762.428	13064.78
762.765	13131.22
763.102	13392.46
763.438	13485.11
763.775	13691.89
764.112	13830.41
764.449	14007.81
764.785	14071.08
765.122	14212.78
765.458	14327.12
765.795	14565.08
766.131	14710.84
766.467	14785.64
766.804	14937.95
767.14	15011.17
767.476	15211.62
767.812	15283.93
768.148	15538.62
768.485	15561.44
768.821	15677.14
769.157	15706.52
769.492	15944.03
769.828	16080.3
770.164	16088.21
770.5	16242.55
770.836	16323
771.171	16360.74
771.507	16455.43
771.842	16487.29
772.178	16615.42
772.513	16717.12
772.849	16715.99
773.184	16905.13
773.519	16904.23
773.855	16972.25
774.19	16945.36
774.525	17114.17
774.86	17181.51
775.195	17278.23
775.53	17336.31
775.865	17296.99
776.2	17240.49
776.535	17344.67
776.87	17341.51
777.205	17362.98
777.539	17394.39
777.874	17556.64
778.209	17492.69
778.543	17537.89
778.878	17551.9
779.212	17547.15
779.547	17501.96
779.881	17662.63
780.215	17580.37
780.55	17741.72
780.884	17678.9
781.218	17599.35
781.552	17787.82
781.886	17673.7
782.22	17657.21
782.554	17736.53
782.888	17526.81
783.222	17647.04
783.556	17583.76
783.889	17611.33
784.223	17506.47
784.557	17511.67
784.89	17604.78
785.224	17560.03
785.557	17580.82
785.891	17490.2
786.224	17564.78
786.558	17546.25
786.891	17383.09
787.224	17434.39
787.557	17407.49
787.891	17383.54
788.224	17425.35
788.557	17417.66
788.89	17423.99
789.223	17420.15
789.556	17272.58
789.888	17178.35
790.221	17260.38
790.554	17047.73
790.887	17098.58
791.219	17121.17
791.552	17094.96
791.884	17087.5
792.217	17104.68
792.549	17031.46
792.882	16884.8
793.214	16746.27
793.546	16833.95
793.879	16886.38
794.211	16697.23
794.543	16868.75
794.875	16744.69
795.207	16764.57
795.539	16753.27
795.871	16718.25
796.203	16633.28
796.535	16583.11
796.867	16531.36
797.198	16516.22
797.53	16532.04
797.862	16486.39
798.193	16532.94
798.525	16427.86
798.856	16474.19
799.188	16215.66
799.519	16260.86
799.85	16152.84
800.182	16116.68
800.513	16168.43
800.844	16073.52
801.175	16215.66
801.506	16082.33
801.837	15989
802.168	15935.89
802.499	15976.8
802.83	15926.86
803.161	15840.08
803.491	15851.83
803.822	15847.76
804.153	15690.03
804.483	15683.02
804.814	15678.95
805.145	15629.91
805.475	15646.86
805.805	15501.1
806.136	15544.72
806.466	15563.25
806.796	15537.71
807.126	15466.98
807.457	15405.51
807.787	15381.78
808.117	15360.09
808.447	15207.55
808.777	15360.54
809.107	15270.83
809.436	15288
809.766	15153.54
810.096	15157.61
810.426	15142.92
810.755	15088.46
811.085	14945.86
811.414	15066.54
811.744	14942.02
812.073	14859.31
812.403	14892.08
812.732	14766.43
813.061	14812.76
813.39	14862.93
813.719	14733.44
814.049	14831.52
814.378	14797.62
814.707	14707.68
815.036	14686.89
815.365	14622.48
815.693	14501.13
816.022	14563.05
816.351	14490.06
816.68	14487.57
817.008	14557.17
817.337	14359.44
817.665	14335.26
817.994	14390.4
818.322	14423.17
818.651	14362.38
818.979	14314.02
819.307	14377.97
819.636	14296.39
819.964	14187.69
820.292	14281.93
820.62	14186.79
820.948	14241.25
821.276	14226.56
821.604	14200.35
821.932	14309.04
822.259	14233.11
822.587	14179.1
822.915	14173.46
823.243	14187.92
823.57	14152.21
823.898	14218.65
824.225	14143.63
824.553	14102.5
824.88	14129.61
825.207	14273.79
825.535	14187.92
825.862	14241.7
826.189	14245.32
826.516	14156.73
826.843	14142.72
827.17	14180.46
827.497	14232.44
827.824	14134.81
828.151	14286.22
828.478	14161.48
828.805	14257.97
829.131	14180.69
829.458	14201.7
829.785	14129.16
830.111	14208.26
830.438	14163.51
830.764	14174.13
831.09	14132.78
831.417	14202.83
831.743	14207.35
832.069	14248.93
832.395	14125.09
832.722	14223.62
833.048	14197.86
833.374	14160.35
833.7	14187.92
834.026	14145.43
834.351	14161.03
834.677	14092.78
835.003	14130.29
835.329	14036.06
835.654	14063.63
835.98	13970.3
836.306	13969.84
836.631	13954.25
836.956	14012.1
837.282	14003.52
837.607	13916.51
837.932	13957.19
838.258	13884.65
838.583	13871.99
838.908	13862.28
839.233	13858.89
839.558	13788.83
839.883	13685.78
840.208	13731.43
840.533	13685.78
840.858	13735.95
841.182	13700.25
841.507	13631.32
841.832	13627.25
842.156	13581.15
842.481	13576.63
842.805	13589.29
843.13	13490.54
843.454	13525.56
843.778	13392.46
844.103	13455.51
844.427	13468.61
844.751	13359.24
845.075	13313.14
845.399	13341.84
845.723	13284.66
846.047	13307.94
846.371	13115.4
846.695	13213.93
847.019	13067.27
847.343	12990.21
847.666	12931.45
847.99	12840.16
848.313	12829.76
848.637	12766.26
848.96	12802.87
849.284	12702.99
849.607	12659.82
849.931	12534.63
850.254	12485.14
850.577	12414.86
850.9	12513.16
851.223	12445.36
851.546	12282.43
851.869	12297.57
852.192	12234.07
852.515	12220.74
852.838	12124.24
853.161	12126.28
853.483	12125.6
853.806	11969.9
854.129	12030.46
854.451	11925.83
854.774	11894.19
855.096	11849.67
855.419	11863.01
855.741	11899.84
856.063	11759.73
856.385	11643.13
856.708	11604.26
857.03	11603.81
857.352	11662.79
857.674	11572.85
857.996	11496.69
858.318	11513.19
858.64	11459.4
858.961	11467.54
859.283	11449.23
859.605	11369.23
859.926	11385.96
860.248	11390.03
860.57	11289.24
860.891	11270.71
861.212	11260.09
861.534	11234.32
861.855	11151.39
862.176	11143.03
862.498	11171.95
862.819	11217.83
863.14	11090.6
863.461	11077.72
863.782	11030.49
864.103	10962.69
864.424	11026.19
864.745	10965.63
865.065	11015.57
865.386	10943.71
865.707	10911.62
866.027	10950.71
866.348	10883.82
866.668	10882.02
866.989	10840.89
867.309	10835.24
867.63	10867.78
867.95	10823.94
868.27	10768.12
868.59	10726.09
868.91	10757.05
869.23	10725.86
869.55	10683.83
869.87	10812.64
870.19	10702.81
870.51	10655.13
870.83	10737.39
871.15	10606.09
871.469	10622.36
871.789	10670.04
872.109	10580.78
872.428	10536.71
872.748	10600.44
873.067	10627.11
873.386	10515.47
873.706	10545.3
874.025	10487.68
874.344	10524.96
874.663	10465.3
874.982	10483.83
875.301	10389.83
875.62	10421.92
875.939	10432.08
876.258	10396.15
876.577	10389.37
876.896	10303.73
877.214	10301.01
877.533	10346.44
877.852	10354.12
878.17	10233.22
878.489	10304.86
878.807	10210.17
879.125	10223.28
879.444	10177.85
879.762	10185.31
880.08	10223.5
880.398	10083.17
880.716	10148.25
881.034	10087.01
881.352	10101.7
881.67	10108.93
881.988	10067.12
882.306	10015.37
882.624	9981.93
882.941	9950.97
883.259	9956.16
883.577	9960.23
883.894	9913.68
884.212	9942.83
884.529	9857.64
884.846	9804.98
885.164	9812.44
885.481	9779.45
885.798	9897.64
886.115	9778.09
886.432	9765.44
886.75	9711.65
887.067	9680.24
887.383	9669.39
887.7	9703.97
888.017	9633.01
888.334	9553.92
888.651	9604.99
888.967	9482.05
889.284	9538.1
889.6	9530.87
889.917	9447.7
890.233	9422.85
890.55	9426.91
890.866	9381.49
891.182	9380.59
891.498	9306.24
891.815	9265.34
892.131	9260.82
892.447	9205
892.763	9183.3
893.079	9198.67
893.395	9078.9
893.71	9173.13
894.026	9143.3
894.342	9031.67
894.657	9047.26
894.973	9025.34
895.289	9023.53
895.604	9014.72
895.92	8895.85
896.235	8885.46
896.55	8874.61
896.865	8845.69
897.181	8805.91
897.496	8808.17
897.811	8775.4
898.126	8747.83
898.441	8707.84
898.756	8658.12
899.071	8623.77
899.386	8573.15
899.7	8586.48
900.015	8504.23
900.33	8420.39
900.644	8435.98
900.959	8479.37
901.273	8396.21
901.588	8384
901.902	8303.78
902.216	8310.11
902.531	8223.78
902.845	8201.41
903.159	8160.73
903.473	8131.58
903.787	8082.77
904.101	8086.84
904.415	8129.32
904.729	8006.61
905.042	7977.69
905.356	8007.29
905.67	8003.9
905.984	7996.22
906.297	7953.51
906.611	7888.2
906.924	7860.17
907.237	7861.3
907.551	7828.76
907.864	7812.04
908.177	7786.5
908.491	7636.68
908.804	7622.44
909.117	7569.56
909.43	7579.5
909.743	7573.18
910.056	7519.39
910.368	7492.95
910.681	7431.26
910.994	7425.38
911.307	7469.9
911.619	7363.46
911.932	7379.74
912.244	7287.76
912.557	7247.99
912.869	7310.81
913.181	7163.47
913.494	7193.3
913.806	7174.32
914.118	7107.43
914.43	7099.97
914.742	7092.29
915.054	7118.5
915.366	7051.38
915.678	6999.18
915.99	7041.89
916.302	6912.85
916.613	6904.49
916.925	6909.92
917.236	6878.96
917.548	6865.62
917.859	6831.28
918.171	6821.33
918.482	6731.39
918.794	6731.84
919.105	6676.25
919.416	6673.31
919.727	6641.22
920.038	6662.24
920.349	6588.57
920.66	6573.2
920.971	6584.95
921.282	6544.5
921.593	6490.27
921.903	6474.9
922.214	6417.5
922.525	6437.61
922.835	6410.72
923.146	6343.38
923.456	6342.02
923.767	6284.4
924.077	6314.23
924.387	6246.43
924.697	6215.7
925.008	6168.47
925.318	6210.27
925.628	6164.63
925.938	6174.57
926.248	6140.9
926.558	6042.82
926.867	6075.14
927.177	6017.96
927.487	6025.65
927.796	5972.54
928.106	5934.35
928.416	5894.12
928.725	5949.72
929.034	5914.69
929.344	5859.78
929.653	5835.6
929.962	5798.99
930.271	5765.31
930.581	5765.31
930.89	5719.67
931.199	5730.51
931.508	5696.84
931.817	5711.53
932.125	5692.32
932.434	5660.23
932.743	5572.33
933.051	5559.67
933.36	5535.72
933.669	5486.68
933.977	5510.18
934.286	5492.1
934.594	5457.75
934.902	5385.89
935.21	5372.33
935.519	5423.18
935.827	5350.86
936.135	5344.31
936.443	5309.28
936.751	5284.2
937.059	5277.42
937.367	5268.15
937.674	5242.39
937.982	5195.61
938.29	5151.55
938.597	5201.04
938.905	5166.01
939.213	5118.33
939.52	5126.01
939.827	5134.37
940.135	5047.14
940.442	5043.53
940.749	5034.94
941.056	5036.75
941.363	4979.57
941.67	4954.26
941.977	4914.49
942.284	4895.28
942.591	4877.65
942.898	4850.31
943.205	4854.38
943.511	4894.38
943.818	4835.4
944.125	4734.61
944.431	4728.96
944.738	4778.9
945.044	4725.57
945.35	4692.35
945.657	4644.89
945.963	4638.11
946.269	4624.33
946.575	4626.14
946.881	4580.26
947.187	4644.89
947.493	4576.42
947.799	4525.35
948.105	4526.48
948.41	4497.1
948.716	4512.01
949.022	4478.57
949.327	4461.85
949.633	4396.54
949.938	4414.84
950.244	4430.89
950.549	4376.2
950.854	4374.39
951.16	4344.11
951.465	4349.53
951.77	4296.65
952.075	4253.26
952.38	4274.73
952.685	4279.25
952.99	4201.97
953.294	4224.56
953.599	4197.67
953.904	4184.79
954.209	4161.06
954.513	4178.01
954.818	4138.01
955.122	4125.13
955.426	4100.27
955.731	4071.12
956.035	4046.26
956.339	4087.17
956.643	4063.44
956.948	4016.66
957.252	4015.98
957.556	3949.77
957.86	3972.14
958.163	3967.62
958.467	3943.22
958.771	3929.66
959.075	3875.19
959.378	3843.56
959.682	3902.76
959.985	3888.08
960.289	3810.11
960.592	3828.42
960.896	3767.17
961.199	3759.49
961.502	3763.11
961.805	3736.44
962.108	3752.94
962.411	3669.32
962.714	3713.84
963.017	3687.86
963.32	3687.4
963.623	3673.17
963.926	3636.56
964.228	3596.78
964.531	3577.8
964.833	3587.97
965.136	3578.71
965.438	3542.32
965.741	3544.81
966.043	3500.52
966.345	3521.76
966.648	3492.83
966.95	3467.75
967.252	3440.4
967.554	3432.27
967.856	3431.14
968.158	3402.89
968.46	3390.01
968.761	3399.73
969.063	3364.47
969.365	3331.71
969.666	3328.99
969.968	3300.97
970.269	3299.16
970.571	3291.26
970.872	3300.75
971.174	3300.52
971.475	3274.53
971.776	3236.34
972.077	3243.35
972.378	3233.4
972.679	3195.66
972.98	3163.8
973.281	3169
973.582	3125.84
973.883	3152.28
974.183	3159.06
974.484	3141.88
974.785	3111.6
975.085	3118.6
975.386	3099.17
975.686	3063.69
975.986	3045.16
976.287	3025.05
976.587	2974.88
976.887	3007.65
977.187	3007.42
977.487	2985.73
977.787	2939.4
978.087	2960.19
978.387	2938.27
978.687	2957.25
978.987	2950.7
979.286	2916.35
979.586	2891.04
979.885	2907.99
980.185	2843.81
980.484	2852.4
980.784	2829.12
981.083	2825.28
981.382	2822.34
981.682	2828.89
981.981	2806.75
982.28	2776.69
982.579	2763.36
982.878	2742.34
983.177	2711.38
983.475	2703.47
983.774	2693.08
984.073	2712.97
984.372	2691.27
984.67	2673.87
984.969	2678.62
985.267	2675.23
985.566	2661.44
985.864	2615.57
986.162	2645.4
986.461	2610.14
986.759	2586.64
987.057	2561.33
987.355	2571.27
987.653	2599.52
987.951	2547.77
988.249	2556.81
988.547	2499.64
988.844	2499.64
989.142	2510.48
989.44	2498.96
989.737	2500.32
990.035	2503.03
990.332	2504.61
990.63	2447.89
990.927	2467.1
991.224	2446.53
991.521	2402.92
991.819	2379.64
992.116	2424.39
992.413	2398.17
992.71	2363.6
993.006	2363.82
993.303	2355.01
993.6	2347.33
993.897	2317.5
994.193	2289.7
994.49	2320.21
994.787	2279.08
995.083	2288.12
995.379	2276.14
995.676	2263.03
995.972	2292.41
996.268	2261.68
996.565	2245.86
996.861	2231.85
997.157	2187.78
997.453	2159.53
997.749	2192.08
998.044	2175.8
998.34	2168.12
998.636	2188.23
998.932	2121.57
999.227	2121.57
999.523	2144.39
999.818	2118.86
1000.114	2063.49
1000.409	2092.64
1000.704	2073.21
1001	2109.14
1001.295	2024.17
1001.59	2028.92
1001.885	2028.92
1002.18	2017.16
1002.475	1998.18
1002.77	1969.93
1003.065	1998.41
1003.359	1944.62
1003.654	1975.13
1003.949	1950.5
1004.243	1941.46
1004.538	1938.52
1004.832	1936.04
1005.127	1882.48
1005.421	1883.61
1005.715	1884.51
1006.009	1865.98
1006.304	1869.6
1006.598	1865.76
1006.892	1849.49
1007.186	1868.69
1007.48	1822.59
1007.773	1821.46
1008.067	1828.92
1008.361	1779.88
1008.655	1798.41
1008.948	1762.93
1009.242	1756.38
1009.535	1765.87
1009.829	1771.3
1010.122	1757.74
1010.415	1691.52
1010.708	1717.29
1011.001	1678.42
1011.295	1673.9
1011.588	1701.24
1011.881	1672.31
1012.173	1658.98
1012.466	1666.89
1012.759	1634.12
1013.052	1642.03
1013.344	1615.82
1013.637	1620.11
1013.93	1613.11
1014.222	1613.79
1014.514	1613.33
1014.807	1601.36
1015.099	1558.65
1015.391	1555.03
1015.683	1543.73
1015.976	1549.15
1016.268	1525.43
1016.56	1540.57
1016.851	1532.21
1017.143	1516.39
1017.435	1467.57
1017.727	1493.11
1018.018	1495.14
1018.31	1438.2
1018.602	1448.37
1018.893	1437.52
1019.185	1452.21
1019.476	1442.72
1019.767	1442.04
1020.058	1415.82
1020.35	1385.99
1020.641	1405.2
1020.932	1405.43
1021.223	1358.42
1021.514	1366.11
1021.804	1376.05
1022.095	1347.8
1022.386	1327.69
1022.677	1322.04
1022.967	1310.52
1023.258	1307.58
1023.548	1287.01
1023.839	1318.43
1024.129	1300.8
1024.419	1271.2
1024.709	1273.46
1025	1260.8
1025.29	1268.26
1025.58	1222.84
1025.87	1231.2
1026.16	1228.71
1026.449	1225.32
1026.739	1199.56
1027.029	1232.1
1027.319	1183.06
1027.608	1169.96
1027.898	1181.03
1028.187	1157.75
1028.477	1186.45
1028.766	1168.6
1029.055	1171.99
1029.344	1134.02
1029.634	1148.03
1029.923	1124.53
1030.212	1115.49
1030.501	1121.14
1030.79	1120.24
1031.078	1120.01
1031.367	1101.93
1031.656	1111.88
1031.945	1086.79
1032.233	1072.1
1032.522	1086.57
1032.81	1075.27
1033.099	1049.28
1033.387	1041.37
1033.675	1055.38
1033.963	1071.65
1034.251	1023.97
1034.54	997.3
1034.828	1033.24
1035.116	997.98
1035.403	1029.17
1035.691	1022.61
1035.979	1002.95
1036.267	963.86
1036.554	979.68
1036.842	982.16
1037.129	995.27
1037.417	948.04
1037.704	952.79
1037.992	952.33
1038.279	950.98
1038.566	944.42
1038.853	944.42
1039.14	944.42
