Data from hue_130_FLMS001491_00010.txt Node
Date: Tue Feb 07 16:57:05 GMT 2017
User: dcchb
Spectrometer: FLMS00149
Trigger mode: 0
Integration Time (sec): 2.000000E-2
Scans to average: 10
Electric dark correction enabled: true
Nonlinearity correction enabled: false
Boxcar width: 0
XAxis mode: Wavelengths
Number of Pixels in Spectrum: 2048
>>>>>Begin Spectral Data<<<<<
341.393	5.28
341.776	5.28
342.16	5.28
342.543	-33.36
342.927	-67.26
343.31	-50.76
343.693	-69.74
344.077	-55.06
344.46	-48.05
344.843	-57.54
345.226	-42.4
345.61	-51.21
345.993	-32.23
346.376	2.8
346.759	-0.59
347.142	14.77
347.525	51.38
347.908	53.42
348.291	75.79
348.674	99.74
349.057	109.69
349.44	130.93
349.823	117.14
350.206	171.38
350.588	196.69
350.971	207.31
351.354	211.83
351.737	235.11
352.119	247.08
352.502	254.54
352.884	267.2
353.267	287.53
353.65	308.78
354.032	307.87
354.414	307.87
354.797	310.13
355.179	329.12
355.562	319.62
355.944	309.91
356.326	323.92
356.709	335.44
357.091	346.74
357.473	354.65
357.855	341.32
358.238	348.32
358.62	343.35
359.002	341.09
359.384	352.84
359.766	342.45
360.148	350.81
360.53	357.14
360.912	353.75
361.294	358.49
361.676	343.35
362.057	349.91
362.439	349.45
362.821	348.1
363.203	330.47
363.584	313.75
363.966	328.66
364.348	341.09
364.729	324.82
365.111	330.02
365.493	323.01
365.874	319.17
366.256	345.84
366.637	311.71
367.019	311.94
367.4	310.36
367.781	303.81
368.163	302
368.544	327.08
368.925	319.85
369.306	335.44
369.688	305.16
370.069	335.67
370.45	319.4
370.831	327.31
371.212	309
371.593	333.18
371.974	325.5
372.355	299.74
372.736	325.73
373.117	311.26
373.498	334.09
373.879	321.43
374.26	314.43
374.641	332.28
375.021	334.54
375.402	325.5
375.783	335.67
376.163	327.08
376.544	312.39
376.925	326.86
377.305	319.4
377.686	305.61
378.066	322.56
378.447	308.33
378.827	327.99
379.208	319.17
379.588	331.38
379.968	341.09
380.349	333.18
380.729	339.28
381.109	365.5
381.489	334.31
381.87	360.3
382.25	353.3
382.63	344.03
383.01	338.61
383.39	347.19
383.77	346.52
384.15	363.69
384.53	357.82
384.91	346.29
385.29	366.85
385.67	375.22
386.049	351.26
386.429	361.43
386.809	367.31
387.189	365.95
387.568	378.61
387.948	360.75
388.328	380.64
388.707	368.44
389.087	370.92
389.466	380.19
389.846	391.71
390.225	373.18
390.605	351.26
390.984	362.79
391.363	382.45
391.743	366.85
392.122	387.19
392.501	391.71
392.881	372.28
393.26	408.44
393.639	381.09
394.018	401.2
394.397	398.27
394.776	405.05
395.155	394.88
395.534	382.67
395.913	391.94
396.292	418.38
396.671	413.41
397.05	411.6
397.429	398.04
397.808	405.5
398.186	399.4
398.565	390.13
398.944	388.78
399.323	392.39
399.701	402.11
400.08	407.98
400.458	423.58
400.837	412.5
401.215	415.44
401.594	410.92
401.972	418.38
402.351	395.1
402.729	426.97
403.107	446.17
403.486	432.16
403.864	423.35
404.242	435.33
404.62	468.77
404.999	422.22
405.377	457.7
405.755	432.16
406.133	464.03
406.511	427.64
406.889	454.99
407.267	458.83
407.645	471.71
408.023	470.81
408.401	469
408.779	440.75
409.156	466.06
409.534	466.29
409.912	462.45
410.29	473.74
410.667	473.74
411.045	477.59
411.422	479.39
411.8	495.89
412.178	481.88
412.555	488.66
412.933	484.14
413.31	486.17
413.687	495.21
414.065	523.01
414.442	525.04
414.819	520.98
415.197	520.52
415.574	519.62
415.951	534.53
416.328	526.62
416.705	532.27
417.082	530.92
417.46	550.35
417.837	542.44
418.214	546.51
418.591	550.58
418.967	554.87
419.344	539.96
419.721	539.96
420.098	550.58
420.475	567.53
420.852	564.82
421.228	582.22
421.605	591.93
421.982	555.78
422.358	593.06
422.735	598.94
423.111	570.92
423.488	572.05
423.864	612.95
424.241	585.83
424.617	617.24
424.994	583.57
425.37	609.79
425.746	600.52
426.123	594.65
426.499	621.31
426.875	634.42
427.251	635.77
427.627	636.68
428.003	654.76
428.379	616.34
428.756	654.98
429.132	635.55
429.507	656.34
429.883	658.15
430.259	667.19
430.635	675.32
431.011	698.6
431.387	681.42
431.763	711.25
432.138	692.5
432.514	731.36
432.89	708.77
433.265	696.56
433.641	721.87
434.016	714.19
434.392	741.08
434.767	760.52
435.143	751.7
435.518	755.32
435.894	791.93
436.269	762.55
436.644	797.8
437.02	801.19
437.395	803.91
437.77	791.25
438.145	805.04
438.52	792.83
438.895	813.62
439.271	821.53
439.646	818.37
440.021	834.64
440.395	832.38
440.77	870.8
441.145	850.91
441.52	870.57
441.895	870.12
442.27	877.8
442.645	857.24
443.019	902.89
443.394	880.97
443.769	884.81
444.143	890.68
444.518	897.69
444.892	885.49
445.267	920.06
445.641	933.62
446.016	940.85
446.39	912.83
446.764	920.06
447.139	927.74
447.513	972.04
447.887	942.66
448.262	955.31
448.636	979.49
449.01	980.85
449.384	989.44
449.758	991.02
450.132	1003.67
450.506	1019.94
450.88	1008.65
451.254	1014.52
451.628	1023.33
452.002	1021.07
452.376	1023.79
452.75	1040.96
453.123	1033.05
453.497	1054.52
453.871	1078.7
454.244	1058.36
454.618	1096.1
454.992	1098.36
455.365	1134.07
455.739	1128.19
456.112	1146.27
456.486	1160.28
456.859	1193.05
457.232	1203.89
457.606	1181.3
457.979	1198.47
458.352	1234.63
458.725	1249.54
459.099	1266.94
459.472	1257
459.845	1299.71
460.218	1328.19
460.591	1320.5
460.964	1314.85
461.337	1372.03
461.71	1378.58
462.083	1387.84
462.456	1377.22
462.829	1394.85
463.201	1417.67
463.574	1455.19
463.947	1486.15
464.32	1504.68
464.692	1506.03
465.065	1509.88
465.438	1545.58
465.81	1567.28
466.183	1598.69
466.555	1606.37
466.928	1618.57
467.3	1626.93
467.672	1675.75
468.045	1727.5
468.417	1687.5
468.789	1736.76
469.161	1778.34
469.534	1822.41
469.906	1844.78
470.278	1871
470.65	1925.68
471.022	1953.48
471.394	1967.49
471.766	2014.27
472.138	2076.87
472.51	2138.56
472.882	2140.37
473.253	2171.55
473.625	2198.67
473.997	2269.18
474.369	2333.36
474.74	2344.66
475.112	2446.35
475.484	2487.48
475.855	2520.92
476.227	2566.34
476.598	2666.68
476.97	2676.62
477.341	2759.11
477.713	2838.65
478.084	2927.47
478.455	2988.48
478.827	3038.42
479.198	3160.91
479.569	3206.1
479.94	3278.64
480.311	3370.84
480.682	3460.56
481.053	3570.61
481.424	3658.07
481.795	3747.33
482.166	3882.47
482.537	3925.41
482.908	4058.28
483.279	4141.9
483.65	4268.9
484.021	4394.09
484.391	4494.2
484.762	4574.2
485.133	4659.17
485.503	4821.88
485.874	5016.22
486.244	5074.75
486.615	5225.94
486.985	5312.94
487.356	5431.58
487.726	5554.06
488.097	5760.61
488.467	5860.95
488.837	5997.67
489.207	6179.36
489.578	6378
489.948	6443.98
490.318	6599.69
490.688	6682.62
491.058	6831.09
491.428	6998.77
491.798	7187.69
492.168	7276.73
492.538	7387.69
492.908	7551.75
493.278	7727.11
493.648	7782.93
494.017	8031.51
494.387	8135.69
494.757	8307.66
495.126	8370.26
495.496	8533.42
495.866	8660.65
496.235	8837.59
496.605	8852.28
496.974	9024.25
497.344	9165.27
497.713	9248.2
498.082	9394.87
498.452	9597.12
498.821	9627.85
499.19	9813.39
499.559	9940.16
499.928	9986.49
500.298	10095.64
500.667	10277.55
501.036	10277.55
501.405	10484.1
501.774	10491.79
502.143	10604.78
502.512	10656.08
502.88	10868.5
503.249	10869.63
503.618	10995.05
503.987	11100.36
504.356	11252.67
504.724	11266.46
505.093	11398.88
505.462	11436.17
505.83	11534.7
506.199	11657.18
506.567	11802.03
506.936	11743.96
507.304	11971.3
507.672	12006.1
508.041	12085.87
508.409	12269.37
508.777	12274.79
509.145	12390.72
509.514	12419.42
509.882	12468.01
510.25	12554.78
510.618	12608.79
510.986	12643.14
511.354	12784.38
511.722	12837.26
512.09	12966.52
512.458	12890.82
512.826	13088.78
513.193	13155.67
513.561	13125.16
513.929	13141.66
514.297	13417.36
514.664	13394.31
515.032	13330.36
515.4	13515.66
515.767	13499.16
516.135	13526.28
516.502	13491.03
516.869	13704.81
517.237	13655.54
517.604	13671.59
517.972	13795.65
518.339	13868.19
518.706	13788.65
519.073	13907.74
519.44	13917.01
519.808	13929.44
520.175	13975.54
520.542	14097.57
520.909	14079.94
521.276	14033.39
521.643	14235.87
522.009	14255.98
522.376	14319.26
522.743	14284.23
523.11	14457.78
523.477	14479.03
523.843	14502.3
524.21	14649.87
524.577	14557.22
524.943	14592.7
525.31	14695.74
525.676	14727.16
526.043	14793.37
526.409	14795.4
526.776	14921.27
527.142	14879.24
527.508	14903.65
527.874	14925.57
528.241	15019.8
528.607	14958.11
528.973	15079.01
529.339	15028.84
529.705	15064.1
530.071	15144.32
530.437	15061.16
530.803	15107.03
531.169	15093.25
531.535	15066.13
531.901	15141.61
532.267	15057.32
532.632	15084.43
532.998	15070.42
533.364	15097.77
533.73	15048.73
534.095	15107.48
534.461	15086.47
534.826	15105.45
535.192	15074.49
535.557	15167.37
535.923	15107.26
536.288	15006.7
536.653	15115.85
537.019	14854.61
537.384	14989.52
537.749	14996.98
538.114	14961.27
538.479	14826.14
538.845	14947.04
539.21	14820.03
539.575	14825.46
539.94	14871.78
540.305	14794.5
540.67	14733.48
541.034	14809.86
541.399	14722.64
541.764	14649.19
542.129	14742.3
542.494	14629.76
542.858	14718.57
543.223	14580.04
543.587	14638.34
543.952	14506.82
544.316	14541.17
544.681	14419.59
545.045	14491
545.41	14472.02
545.774	14364.9
546.138	14395.64
546.503	14374.62
546.867	14267.51
547.231	14338.01
547.595	14297.34
547.959	14175.31
548.324	14151.35
548.688	14141.41
549.052	14105.93
549.416	14153.84
549.779	14174.85
550.143	14028.87
550.507	14034.74
550.871	14037
551.235	14008.3
551.599	13998.81
551.962	13981.41
552.326	13947.74
552.689	13997
553.053	13871.81
553.417	13750.23
553.78	13942.77
554.143	13808.54
554.507	13754.07
554.87	13799.27
555.234	13864.35
555.597	13754.3
555.96	13744.36
556.323	13697.8
556.686	13716.33
557.05	13757.24
557.413	13683.11
557.776	13747.52
558.139	13743.68
558.502	13718.82
558.865	13715.88
559.228	13750.91
559.59	13765.37
559.953	13747.97
560.316	13755.2
560.679	13740.74
561.041	13763.56
561.404	13762.43
561.767	13813.96
562.129	13822.09
562.492	13863.45
562.854	13862.09
563.217	13742.32
563.579	13771.7
563.941	13830.91
564.304	13793.39
564.666	13879.49
565.028	13783.45
565.39	13903.22
565.753	13870
566.115	13917.46
566.477	13920.62
566.839	13959.94
567.201	13949.55
567.563	13994.75
567.925	14025.03
568.287	14073.61
568.648	13968.31
569.01	14174.4
569.372	14068.42
569.734	14018.25
570.095	14072.26
570.457	14206.49
570.819	14179.82
571.18	14049.21
571.542	14161.07
571.903	14252.82
572.265	14175.08
572.626	14195.19
572.987	14252.37
573.349	14220.28
573.71	14194.97
574.071	14313.61
574.432	14284.23
574.794	14316.54
575.155	14251.01
575.516	14215.76
575.877	14316.09
576.238	14339.82
576.599	14310.44
576.96	14294.62
577.32	14283.78
577.681	14327.62
578.042	14341.85
578.403	14348.41
578.763	14375.98
579.124	14307.96
579.485	14378.24
579.845	14434.73
580.206	14306.38
580.566	14386.37
580.927	14364
581.287	14539.82
581.648	14340.72
582.008	14364.68
582.368	14413.94
582.728	14370.78
583.089	14360.16
583.449	14295.98
583.809	14375.3
584.169	14367.84
584.529	14337.11
584.889	14396.32
585.249	14277.68
585.609	14235.19
585.969	14330.78
586.329	14307.51
586.688	14287.17
587.048	14296.66
587.408	14260.95
587.768	14253.27
588.127	14282.87
588.487	14237.45
588.846	14322.19
589.206	14198.36
589.565	14215.76
589.925	14256.66
590.284	14168.53
590.643	14205.59
591.003	14189.99
591.362	14145.7
591.721	14214.4
592.08	14198.13
592.44	14201.75
592.799	14200.16
593.158	14070.9
593.517	14120.17
593.876	14233.83
594.235	14124.91
594.593	14028.19
594.952	14154.97
595.311	14103.67
595.67	14018.25
596.029	14180.28
596.387	14132.14
596.746	14106.15
597.104	14083.78
597.463	14035.87
597.822	14139.83
598.18	14032.26
598.538	14065.48
598.897	14110.22
599.255	13951.58
599.613	14121.52
599.972	14115.87
600.33	14106.38
600.688	14043.33
601.046	14098.02
601.404	14136.89
601.762	14087.62
602.12	14120.62
602.478	14144.57
602.836	14103.44
603.194	14075.65
603.552	14194.51
603.91	14026.83
604.268	14104.12
604.625	14022.99
604.983	14168.07
605.341	14046.72
605.698	14079.94
606.056	14138.47
606.413	14121.97
606.771	14152.71
607.128	14104.8
607.485	14016.89
607.843	14082.65
608.2	14123.78
608.557	14299.82
608.914	14127.85
609.272	14154.97
609.629	14208.07
609.986	14236.55
610.343	14204.01
610.7	14268.18
611.057	14268.41
611.414	14298.24
611.771	14293.27
612.127	14211.69
612.484	14304.57
612.841	14381.85
613.198	14277.22
613.554	14402.87
613.911	14322.19
614.267	14376.43
614.624	14364.9
614.98	14389.54
615.337	14389.08
615.693	14403.32
616.05	14399.71
616.406	14397.9
616.762	14358.58
617.118	14428.63
617.475	14416.88
617.831	14535.07
618.187	14525.58
618.543	14390.67
618.899	14547.72
619.255	14470.89
619.611	14472.25
619.967	14577.1
620.323	14597.22
620.678	14466.15
621.034	14442.64
621.39	14494.84
621.746	14513.6
622.101	14613.71
622.457	14519.48
622.812	14581.4
623.168	14568.29
623.523	14638.34
623.879	14666.59
624.234	14521.06
624.589	14535.75
624.945	14599.93
625.3	14637.89
625.655	14566.26
626.01	14566.71
626.365	14561.51
626.72	14509.53
627.075	14507.27
627.43	14540.95
627.785	14518.57
628.14	14487.61
628.495	14494.39
628.85	14568.97
629.205	14482.19
629.559	14552.02
629.914	14451.46
630.269	14411.23
630.623	14471.57
630.978	14402.64
631.332	14396.54
631.687	14436.54
632.041	14453.26
632.396	14488.29
632.75	14377.33
633.104	14421.17
633.459	14396.77
633.813	14393.6
634.167	14327.84
634.521	14301.86
634.875	14334.4
635.229	14268.86
635.583	14223.44
635.937	14249.43
636.291	14277.68
636.645	14238.13
636.999	14141.63
637.352	14178.02
637.706	14111.35
638.06	14247.85
638.413	14135.76
638.767	14049.88
639.121	14143.67
639.474	14083.1
639.828	14114.06
640.181	14083.33
640.534	14030.45
640.888	14059.83
641.241	13988.19
641.594	14006.95
641.947	13995.42
642.301	13944.12
642.654	13982.54
643.007	13933.96
643.36	13971.02
643.713	13908.87
644.066	13975.54
644.419	13957.01
644.771	13808.31
645.124	13726.5
645.477	13696.22
645.83	13540.52
646.182	13579.61
646.535	13559.95
646.888	13525.83
647.24	13447.19
647.593	13446.06
647.945	13431.82
648.298	13454.42
648.65	13404.93
649.002	13386.63
649.355	13424.82
649.707	13439.96
650.059	13496.91
650.411	13664.36
650.763	13664.36
651.115	13778.03
651.467	13728.99
651.819	13721.76
652.171	13817.12
652.523	13689.89
652.875	13671.14
653.227	13687.41
653.578	13747.75
653.93	13707.29
654.282	13684.92
654.633	13696.67
654.985	13665.26
655.337	13765.15
655.688	13748.88
656.039	13779.61
656.391	13695.09
656.742	13651.25
657.094	13730.57
657.445	13666.84
657.796	13723.57
658.147	13708.65
658.498	13657.35
658.849	13798.14
659.2	13695.54
659.551	13660.29
659.902	13805.15
660.253	13775.32
660.604	13836.11
660.955	13690.57
661.306	13770.57
661.656	13794.52
662.007	13765.37
662.358	13785.94
662.708	13759.27
663.059	13789.78
663.409	13757.24
663.76	13846.05
664.11	13760.63
664.461	13762.43
664.811	13756.33
665.161	13804.69
665.511	13756.11
665.862	13761.3
666.212	13829.78
666.562	13829.78
666.912	13749.78
667.262	13754.53
667.612	13775.32
667.962	13763.11
668.312	13754.75
668.662	13870.68
669.011	13773.06
669.361	13783.23
669.711	13718.37
670.06	13703.23
670.41	13761.08
670.76	13727.63
671.109	13764.02
671.459	13760.17
671.808	13653.74
672.157	13816.44
672.507	13577.35
672.856	13675.88
673.205	13625.94
673.554	13647.18
673.904	13598.15
674.253	13695.09
674.602	13630.23
674.951	13419.17
675.3	13449.9
675.649	13607.64
675.998	13571.93
676.346	13498.49
676.695	13652.16
677.044	13543.68
677.393	13475.89
677.741	13556.56
678.09	13469.56
678.438	13430.47
678.787	13458.49
679.135	13504.81
679.484	13392.05
679.832	13432.5
680.181	13353.63
680.529	13391.82
680.877	13342.78
681.225	13352.28
681.573	13376
681.922	13376.46
682.27	13175.56
682.618	13238.61
682.966	13151.15
683.314	13262.56
683.661	13176.24
684.009	13099.63
684.357	13089.68
684.705	13032.74
685.053	13175.78
685.4	13091.04
685.748	12954.77
686.095	12987.54
686.443	12897.82
686.79	12980.53
687.138	12952.51
687.485	12948.67
687.832	12882.68
688.18	12884.49
688.527	12749.81
688.874	12782.12
689.221	12755
689.568	12672.97
689.915	12711.16
690.262	12679.53
690.609	12576.7
690.956	12596.14
691.303	12501.45
691.65	12479.3
691.997	12455.58
692.344	12395.92
692.69	12334.9
693.037	12342.36
693.383	12229.14
693.73	12296.48
694.077	12235.47
694.423	12104.63
694.769	12115.7
695.116	12100.33
695.462	12031.18
695.808	12018.53
696.155	12103.72
696.501	11936.72
696.847	11912.77
697.193	11791.41
697.539	11827.57
697.885	11717.74
698.231	11697.86
698.577	11680.46
698.923	11720
699.269	11614.47
699.614	11524.75
699.96	11570.63
700.306	11591.87
700.651	11475.72
700.997	11404.98
701.342	11428.94
701.688	11331.09
702.033	11176.97
702.379	11279.79
702.724	11216.51
703.069	11246.12
703.415	11203.86
703.76	11085.22
704.105	11139.23
704.45	11080.47
704.795	10999.12
705.14	10964.09
705.485	10913.02
705.83	10886.13
706.175	10879.12
706.52	10883.41
706.865	10796.41
707.209	10807.26
707.554	10769.29
707.899	10765.45
708.243	10666.7
708.588	10668.96
708.932	10598
709.277	10588.73
709.621	10502.18
709.966	10539.47
710.31	10625.12
710.654	10465.8
710.998	10468.51
711.342	10488.62
711.687	10447.49
712.031	10369.98
712.375	10348.06
712.719	10320.49
713.063	10334.5
713.407	10313.94
713.75	10321.62
714.094	10337.67
714.438	10244.56
714.782	10271
715.125	10207.5
715.469	10206.6
715.812	10151.23
716.156	10112.36
716.499	10134.28
716.843	10211.57
717.186	10101.51
717.53	10136.54
717.873	10123.43
718.216	10019.03
718.559	10000.27
718.902	9982.65
719.246	10026.71
719.589	9924.8
719.932	9934.29
720.275	9922.08
720.617	9955.3
720.96	9919.15
721.303	9885.7
721.646	9923.89
721.989	9847.28
722.331	9892.25
722.674	9870.11
723.016	9848.41
723.359	9842.99
723.701	9836.89
724.044	9808.64
724.386	9723.44
724.729	9757.12
725.071	9827.17
725.413	9739.04
725.755	9730.68
726.097	9725.25
726.439	9751.01
726.782	9709.66
727.124	9817.23
727.465	9670.79
727.807	9748.3
728.149	9637.12
728.491	9653.39
728.833	9720.28
729.175	9581.08
729.516	9627.4
729.858	9630.34
730.199	9710.56
730.541	9622.2
730.882	9555.09
731.224	9600.51
731.565	9600.74
731.906	9658.36
732.248	9640.28
732.589	9587.63
732.93	9558.03
733.271	9582.43
733.612	9588.76
733.953	9708.53
734.294	9556.67
734.635	9571.58
734.976	9626.27
735.317	9583.79
735.658	9610.45
735.999	9578.82
736.339	9628.76
736.68	9638.7
737.021	9567.06
737.361	9548.31
737.702	9600.96
738.042	9599.61
738.383	9619.04
738.723	9600.06
739.063	9648.42
739.404	9690
739.744	9694.29
740.084	9674.41
740.424	9697.91
740.764	9639.61
741.104	9720.73
741.444	9722.31
741.784	9631.02
742.124	9692.49
742.464	9778.36
742.804	9760.73
743.143	9799.15
743.483	9815.42
743.823	9814.29
744.162	9816.1
744.502	9863.33
744.841	9894.97
745.181	9941.74
745.52	9988.97
745.86	9939.03
746.199	10025.13
746.538	10087.96
746.877	10093.83
747.216	10185.81
747.556	10223.32
747.895	10240.49
748.234	10322.53
748.573	10304.67
748.911	10384.44
749.25	10456.31
749.589	10456.53
749.928	10561.61
750.267	10597.32
750.605	10685.45
750.944	10859.91
751.283	10899.91
751.621	10993.47
751.96	11045.67
752.298	11095.16
752.636	11229.17
752.975	11211.54
753.313	11346.91
753.651	11578.31
753.989	11588.93
754.327	11713.9
754.666	11863.5
755.004	11955.25
755.342	12039.77
755.679	12143.27
756.017	12306.2
756.355	12545.97
756.693	12628.91
757.031	12734.21
757.368	12812.86
757.706	13007.65
758.044	13198.16
758.381	13358.38
758.719	13525.83
759.056	13742.77
759.394	13801.3
759.731	13913.84
760.068	14116.55
760.405	14290.33
760.743	14375.75
761.08	14661.17
761.417	14664.56
761.754	14915.85
762.091	15114.26
762.428	15228.38
762.765	15396.29
763.102	15568.94
763.438	15835.83
763.775	15887.12
764.112	16027.91
764.449	16299.32
764.785	16367.79
765.122	16575.47
765.458	16629.48
765.795	16785.18
766.131	17013.2
766.467	17113.76
766.804	17224.94
767.14	17320.99
767.476	17485.73
767.812	17589.23
768.148	17730.69
768.485	17862.21
768.821	17888.43
769.157	18123.45
769.492	18214.97
769.828	18360.96
770.164	18287.97
770.5	18423.1
770.836	18711.01
771.171	18706.03
771.507	18732.93
771.842	18805.69
772.178	18938.57
772.513	19129.75
772.849	19047.04
773.184	19070.09
773.519	19301.05
773.855	19340.37
774.19	19440.48
774.525	19416.52
774.86	19517.31
775.195	19552.11
775.53	19597.54
775.865	19658.32
776.2	19647.93
776.535	19598.67
776.87	19713.69
777.205	19776.06
777.539	19777.19
777.874	19886.34
778.209	19735.39
778.543	19844.08
778.878	19762.5
779.212	19865.1
779.547	19915.72
779.881	20030.29
780.215	19942.16
780.55	19965.21
780.884	19839.11
781.218	19990.97
781.552	20045.89
781.886	19930.63
782.22	19982.61
782.554	19967.92
782.888	19858.77
783.222	19874.36
783.556	19832.33
783.889	19879.11
784.223	19752.11
784.557	19683.41
784.89	19788.94
785.224	19738.32
785.557	19724.76
785.891	19670.08
786.224	19714.82
786.558	19652.45
786.891	19636.4
787.224	19578.55
787.557	19575.39
787.891	19527.93
788.224	19661.94
788.557	19543.07
788.89	19503.07
789.223	19545.11
789.556	19429.4
789.888	19346.69
790.221	19350.08
790.554	19192.12
790.887	19196.42
791.219	19225.34
791.552	19191.22
791.884	19105.35
792.217	19163.2
792.549	19079.13
792.882	18992.35
793.214	18853.83
793.546	19068.51
793.879	18912.13
794.211	18809.76
794.543	18939.02
794.875	18895.18
795.207	18948.29
795.539	18850.89
795.871	18868.97
796.203	18667.62
796.535	18486.6
796.867	18616.77
797.198	18567.73
797.53	18599.14
797.862	18455.64
798.193	18464.91
798.525	18406.83
798.856	18322.31
799.188	18150.79
799.519	18206.39
799.85	18082.77
800.182	18108.08
800.513	18174.3
800.844	17966.84
801.175	18062.66
801.506	18100.63
801.837	17985.37
802.168	17957.35
802.499	17801.88
802.83	17798.94
803.161	17651.6
803.491	17790.35
803.822	17801.65
804.153	17685.95
804.483	17623.12
804.814	17512.84
805.145	17466.07
805.475	17472.39
805.805	17379.74
806.136	17436.46
806.466	17351.94
806.796	17383.36
807.126	17229.91
807.457	17230.59
807.787	17315.79
808.117	17255
808.447	17059.3
808.777	17222.23
809.107	17041.44
809.436	17026.98
809.766	17000.77
810.096	16950.83
810.426	16812.98
810.755	16881.22
811.085	16960.09
811.414	16787.89
811.744	16713.77
812.073	16662.7
812.403	16615.92
812.732	16614.11
813.061	16672.87
813.39	16503.83
813.719	16469.03
814.049	16592.64
814.378	16473.32
814.707	16431.52
815.036	16487.56
815.365	16390.84
815.693	16170.06
816.022	16239.66
816.351	16262.48
816.68	16134.58
817.008	16242.82
817.337	16015.26
817.665	15996.73
817.994	16055.48
818.322	16074.01
818.651	15848.48
818.979	16000.34
819.307	15950.4
819.636	15926.67
819.964	15909.95
820.292	15956.5
820.62	15902.49
820.948	15912.89
821.276	15976.39
821.604	15853
821.932	15934.58
822.259	15909.5
822.587	15860.68
822.915	15843.06
823.243	15766.68
823.57	15779.1
823.898	15800.12
824.225	15769.61
824.553	15791.76
824.88	15726.22
825.207	15877.41
825.535	15764.19
825.862	15806.67
826.189	15766
826.516	15798.77
826.843	15878.54
827.17	15852.78
827.497	15848.93
827.824	15857.52
828.151	15888.71
828.478	15879.44
828.805	15967.8
829.131	15817.07
829.458	15852.32
829.785	15825.21
830.111	15834.02
830.438	15928.71
830.764	15845.77
831.09	15945.43
831.417	15745.89
831.743	15865.88
832.069	15868.37
832.395	15785.66
832.722	15815.26
833.048	15761.48
833.374	15867.46
833.7	15752.21
834.026	15750.18
834.351	15775.04
834.677	15732.1
835.003	15752.21
835.329	15639.67
835.654	15673.57
835.98	15634.02
836.306	15740.46
836.631	15640.35
836.956	15653.68
837.282	15635.61
837.607	15543.63
837.932	15429.51
838.258	15547.92
838.583	15529.39
838.908	15407.36
839.233	15400.13
839.558	15369.17
839.883	15315.39
840.208	15267.25
840.533	15251.66
840.858	15291.66
841.182	15277.88
841.507	15282.62
841.832	15184.54
842.156	15122.17
842.481	15143.87
842.805	15111.78
843.13	15073.81
843.454	15011.22
843.778	14987.94
844.103	14973.48
844.427	14918.56
844.751	14861.61
845.075	14845.34
845.399	14779.36
845.723	14696.42
846.047	14684.44
846.371	14651.9
846.695	14643.54
847.019	14493.49
847.343	14465.24
847.666	14472.92
847.99	14352.48
848.313	14394.51
848.637	14261.18
848.96	14305.25
849.284	14166.72
849.607	14058.92
849.931	14060.28
850.254	13974.86
850.577	13920.85
850.9	13813.96
851.223	13821.64
851.546	13752.94
851.869	13703.45
852.192	13725.6
852.515	13653.96
852.838	13477.47
853.161	13558.6
853.483	13344.82
853.806	13412.16
854.129	13331.94
854.451	13227.76
854.774	13253.3
855.096	13202
855.419	13110.02
855.741	13187.76
856.063	13152.06
856.385	13021.21
856.708	13020.08
857.03	13033.87
857.352	12995.68
857.674	12950.93
857.996	12929.46
858.318	12816.47
858.64	12813.99
858.961	12828.45
859.283	12742.57
859.605	12703.93
859.926	12658.73
860.248	12616.93
860.57	12656.02
860.891	12583.48
861.212	12510.72
861.534	12472.98
861.855	12404.5
862.176	12498.97
862.498	12487.21
862.819	12436.37
863.14	12374.22
863.461	12328.12
863.782	12337.84
864.103	12369.7
864.424	12253.55
864.745	12252.42
865.065	12179.2
865.386	12250.38
865.707	12176.04
866.027	12178.52
866.348	12114.79
866.668	12198.41
866.989	12126.09
867.309	12031.86
867.63	12078.41
867.95	12084.06
868.27	12003.38
868.59	11950.05
868.91	11927.45
869.23	11969.94
869.55	11871.19
869.87	11956.15
870.19	11900.34
870.51	11946.89
870.83	11864.18
871.15	11824.41
871.469	11823.05
871.789	11902.6
872.109	11813.79
872.428	11791.41
872.748	11818.98
873.067	11722.04
873.386	11765.2
873.706	11735.14
874.025	11575.37
874.344	11632.1
874.663	11652.89
874.982	11610.17
875.301	11577.18
875.62	11497.18
875.939	11513.68
876.258	11514.81
876.577	11547.58
876.896	11524.98
877.214	11395.94
877.533	11493.79
877.852	11349.16
878.17	11439.33
878.489	11426.68
878.807	11428.03
879.125	11374.02
879.444	11399.11
879.762	11370.18
880.08	11356.17
880.398	11320.47
880.716	11218.09
881.034	11233.01
881.352	11272.33
881.67	11175.38
881.988	11207.47
882.306	11114.14
882.624	11103.75
882.941	11072.11
883.259	11066.01
883.577	11038.66
883.894	11000.47
884.212	11014.94
884.529	10973.36
884.846	11014.94
885.164	10981.94
885.481	10885.9
885.798	10827.14
886.115	10795.51
886.432	10858.1
886.75	10783.08
887.067	10870.08
887.383	10703.98
887.7	10719.12
888.017	10682.06
888.334	10681.61
888.651	10570.88
888.967	10677.09
889.284	10624.44
889.6	10503.99
889.917	10394.16
890.233	10500.37
890.55	10466.7
890.866	10474.61
891.182	10440.94
891.498	10384.67
891.815	10313.49
892.131	10339.25
892.447	10229.19
892.763	10262.64
893.079	10190.33
893.395	10169.53
893.71	10203.43
894.026	10046.37
894.342	10074.85
894.657	10008.64
894.973	10031.01
895.289	10026.26
895.604	9922.54
895.92	9929.32
896.235	9836.89
896.55	9830.33
896.865	9776.55
897.181	9797.12
897.496	9802.54
897.811	9747.17
898.126	9652.49
898.441	9722.99
898.756	9667.4
899.071	9626.05
899.386	9629.21
899.7	9450.91
900.015	9435.99
900.33	9385.15
900.644	9340.86
900.959	9409.33
901.273	9356.9
901.588	9306.96
901.902	9294.76
902.216	9286.39
902.531	9226.28
902.845	9199.84
903.159	9138.38
903.473	9068.32
903.787	9039.85
904.101	8975.67
904.415	9055.44
904.729	9037.59
905.042	8902
905.356	8849.12
905.67	8833.52
905.984	8863.35
906.297	8839.85
906.611	8756.01
906.924	8736.35
907.237	8733.41
907.551	8684.38
907.864	8641.67
908.177	8613.87
908.491	8581.1
908.804	8550.14
909.117	8518.28
909.43	8433.54
909.743	8371.84
910.056	8424.5
910.368	8333.2
910.681	8260.21
910.994	8252.07
911.307	8237.83
911.619	8228.12
911.932	8244.84
912.244	8065.18
912.557	8146.99
912.869	8033.09
913.181	7977.95
913.494	8035.35
913.806	7976.82
914.118	8021.79
914.43	7962.14
914.742	7978.41
915.054	7858.18
915.366	7848.24
915.678	7837.39
915.99	7812.99
916.302	7662.48
916.613	7689.6
916.925	7679.2
917.236	7622.03
917.548	7552.88
917.859	7587
918.171	7518.08
918.482	7510.4
918.794	7430.4
919.105	7439.89
919.416	7329.38
919.727	7415.26
920.038	7329.61
920.349	7344.98
920.66	7246.22
920.971	7282.15
921.282	7210.74
921.593	7261.14
921.903	7213.91
922.214	7121.71
922.525	7109.95
922.835	7113.57
923.146	7057.98
923.456	7030.41
923.767	6992.9
924.077	7032.89
924.387	6943.41
924.697	6888.94
925.008	6860.92
925.318	6858.66
925.628	6830.41
925.938	6828.38
926.248	6802.39
926.558	6712.45
926.867	6734.37
927.177	6709.74
927.487	6664.77
927.796	6629.06
928.106	6596.97
928.416	6551.32
928.725	6543.19
929.034	6529.63
929.344	6547.03
929.653	6492.57
929.962	6406.24
930.271	6370.54
930.581	6391.33
930.89	6369.86
931.199	6358.56
931.508	6326.7
931.817	6291.22
932.125	6236.08
932.434	6233.82
932.743	6180.71
933.051	6147.04
933.36	6149.98
933.669	6100.26
933.977	6098.91
934.286	6059.36
934.594	6072.24
934.902	6031.79
935.21	6004.45
935.519	6018.91
935.827	5949.31
936.135	5853.26
936.443	5900.04
936.751	5897.33
937.059	5856.88
937.367	5797.45
937.674	5802.19
937.982	5734.85
938.29	5733.27
938.597	5706.15
938.905	5673.61
939.213	5673.38
939.52	5630.45
939.827	5616.66
940.135	5617.34
940.442	5587.73
940.749	5571.24
941.056	5581.18
941.363	5506.38
941.67	5456.89
941.977	5449.66
942.284	5411.02
942.591	5383.22
942.898	5362.43
943.205	5340.96
943.511	5336.44
943.818	5332.37
944.125	5280.4
944.431	5262.55
944.738	5265.03
945.044	5236.11
945.35	5209.67
945.657	5164.02
945.963	5147.29
946.269	5123.34
946.575	5154.3
946.881	5104.13
947.187	5022.1
947.493	5102.1
947.799	5004.25
948.105	5043.12
948.41	4995.21
948.716	4998.82
949.022	4926.96
949.327	4932.84
949.633	4879.5
949.938	4832.05
950.244	4875.66
950.549	4826.85
950.854	4806.74
951.16	4780.3
951.465	4814.87
951.77	4749.79
952.075	4718.6
952.38	4723.8
952.685	4739.62
952.99	4646.74
953.294	4629.79
953.599	4586.86
953.904	4603.35
954.209	4590.92
954.513	4564.94
954.818	4561.55
955.122	4524.94
955.426	4528.33
955.731	4475.45
956.035	4460.98
956.339	4462.34
956.643	4427.99
956.948	4413.3
957.252	4420.99
957.556	4362.91
957.86	4380.99
958.163	4387.09
958.467	4300.08
958.771	4312.06
959.075	4316.58
959.378	4248.33
959.682	4297.82
959.985	4238.62
960.289	4175.34
960.592	4174.44
960.896	4164.04
961.199	4162.46
961.502	4137.6
961.805	4148.68
962.108	4148.22
962.411	4090.15
962.714	4081.11
963.017	4010.37
963.32	4046.53
963.623	3986.65
963.926	4024.16
964.228	4032.97
964.531	3942.35
964.833	3914.56
965.136	3939.42
965.438	3855.58
965.741	3877.5
966.043	3881.34
966.345	3900.32
966.648	3834.33
966.95	3814.45
967.252	3827.78
967.554	3764.96
967.856	3731.74
968.158	3738.52
968.46	3739.2
968.761	3752.53
969.063	3682.7
969.365	3728.12
969.666	3665.98
969.968	3675.24
970.269	3637.96
970.571	3642.25
970.872	3655.13
971.174	3594.57
971.475	3571.74
971.776	3618.07
972.077	3555.7
972.378	3558.41
972.679	3550.5
972.98	3500.56
973.281	3458.3
973.582	3482.48
973.883	3467.34
974.183	3432.54
974.484	3417.85
974.785	3435.25
975.085	3386.66
975.386	3443.61
975.686	3383.72
975.986	3357.06
976.287	3349.83
976.587	3352.54
976.887	3317.74
977.187	3320.45
977.487	3271.19
977.787	3262.82
978.087	3256.95
978.387	3230.28
978.687	3234.35
978.987	3193
979.286	3194.8
979.586	3176.05
979.885	3155.03
980.185	3165.43
980.484	3111.64
980.784	3079.33
981.083	3114.13
981.382	3081.13
981.682	3064.64
981.981	3055.82
982.28	3046.78
982.579	3058.31
982.878	3074.13
983.177	3000.23
983.475	2980.35
983.774	2995.71
984.073	2936.05
984.372	2974.7
984.67	2924.08
984.969	2913.23
985.267	2944.19
985.566	2921.82
985.864	2862.16
986.162	2897.18
986.461	2860.57
986.759	2847.47
987.057	2840.46
987.355	2812.44
987.653	2807.02
987.951	2816.96
988.249	2802.5
988.547	2760.69
988.844	2752.55
989.142	2724.98
989.44	2739.67
989.737	2749.84
990.035	2700.8
990.332	2699.45
990.63	2695.16
990.927	2714.36
991.224	2685.44
991.521	2663.29
991.819	2654.25
992.116	2589.4
992.413	2588.04
992.71	2610.64
993.006	2612.22
993.303	2604.54
993.6	2591.43
993.897	2571.99
994.193	2567.93
994.49	2517.98
994.787	2544.65
995.083	2495.61
995.379	2521.83
995.676	2487.93
995.972	2474.82
996.268	2494.93
996.565	2435.5
996.861	2444.77
997.157	2411.77
997.453	2397.76
997.749	2380.14
998.044	2381.27
998.34	2397.76
998.636	2357.76
998.932	2343.75
999.227	2314.37
999.523	2310.76
999.818	2303.53
1000.114	2296.3
1000.409	2271.21
1000.704	2276.18
1001	2241.16
1001.295	2199.12
1001.59	2261.72
1001.885	2230.31
1002.18	2247.94
1002.475	2189.86
1002.77	2168.39
1003.065	2192.12
1003.359	2143.08
1003.654	2127.49
1003.949	2141.72
1004.243	2099.01
1004.538	2127.26
1004.832	2108.5
1005.127	2095.62
1005.421	2085.91
1005.715	2076.19
1006.009	2038.45
1006.304	2061.5
1006.598	2032.57
1006.892	2056.3
1007.186	1979.47
1007.48	1979.69
1007.773	1994.38
1008.067	1950.77
1008.361	1967.49
1008.655	1944.89
1008.948	1976.08
1009.242	1910.54
1009.535	1923.88
1009.829	1903.99
1010.122	1896.31
1010.415	1880.94
1010.708	1885.01
1011.001	1868.28
1011.295	1834.84
1011.588	1839.81
1011.881	1827.61
1012.173	1834.84
1012.466	1808.62
1012.759	1782.64
1013.052	1800.94
1013.344	1786.03
1013.637	1773.82
1013.93	1774.05
1014.222	1707.16
1014.514	1723.66
1014.807	1708.97
1015.099	1709.64
1015.391	1719.36
1015.683	1703.99
1015.976	1691.57
1016.268	1647.27
1016.56	1671.23
1016.851	1611.34
1017.143	1642.98
1017.435	1643.43
1017.727	1626.71
1018.018	1613.15
1018.31	1604.11
1018.602	1609.53
1018.893	1585.13
1019.185	1559.14
1019.476	1573.38
1019.767	1525.92
1020.058	1535.19
1020.35	1500.84
1020.641	1496.77
1020.932	1505.13
1021.223	1492.47
1021.514	1489.09
1021.804	1465.58
1022.095	1467.16
1022.386	1471.68
1022.677	1472.36
1022.967	1442.98
1023.258	1440.27
1023.548	1415.41
1023.839	1407.73
1024.129	1382.65
1024.419	1417.9
1024.709	1367.73
1025	1355.53
1025.29	1381.29
1025.58	1377.9
1025.87	1333.83
1026.16	1351.01
1026.449	1326.15
1026.739	1315.98
1027.029	1287.51
1027.319	1298.81
1027.608	1302.42
1027.898	1298.13
1028.187	1263.1
1028.477	1288.64
1028.766	1282.08
1029.055	1258.36
1029.344	1275.76
1029.634	1249.54
1029.923	1255.19
1030.212	1202.31
1030.501	1218.81
1030.79	1207.96
1031.078	1199.38
1031.367	1205.02
1031.656	1202.76
1031.945	1172.71
1032.233	1177.45
1032.522	1173.84
1032.81	1148.3
1033.099	1158.25
1033.387	1161.41
1033.675	1141.07
1033.963	1115.99
1034.251	1093.62
1034.54	1124.12
1034.828	1109.43
1035.116	1085.93
1035.403	1102.65
1035.691	1058.81
1035.979	1071.24
1036.267	1082.99
1036.554	1051.13
1036.842	1037.8
1037.129	1028.53
1037.417	1021.75
1037.704	1052.03
1037.992	1017.69
1038.279	1008.87
1038.566	998.48
1038.853	998.48
1039.14	998.48
