Data from hue_290_FLMS001491_00056.txt Node
Date: Tue Feb 07 15:52:56 GMT 2017
User: dcchb
Spectrometer: FLMS00149
Trigger mode: 0
Integration Time (sec): 2.000000E-2
Scans to average: 10
Electric dark correction enabled: true
Nonlinearity correction enabled: false
Boxcar width: 0
XAxis mode: Wavelengths
Number of Pixels in Spectrum: 2048
>>>>>Begin Spectral Data<<<<<
341.393	-1.81
341.776	-1.81
342.16	-1.81
342.543	-61.47
342.927	-30.96
343.31	-65.53
343.693	-67.34
344.077	-76.83
344.46	-63.05
344.843	-31.19
345.226	-44.07
345.61	-45.65
345.993	-12.2
346.376	-6.78
346.759	6.78
347.142	15.59
347.525	67.34
347.908	55.59
348.291	73.67
348.674	87.68
349.057	105.99
349.44	146.21
349.823	126.32
350.206	153.22
350.588	197.73
350.971	214.23
351.354	209.03
351.737	229.37
352.119	242.71
352.502	238.86
352.884	278.64
353.267	267.11
353.65	274.57
354.032	304.85
354.414	320.9
354.797	320.67
355.179	329.03
355.562	306.66
355.944	315.47
356.326	338.52
356.709	322.93
357.091	323.16
357.473	330.61
357.855	352.31
358.238	345.98
358.62	309.82
359.002	348.47
359.384	342.36
359.766	346.88
360.148	330.39
360.53	354.34
360.912	324.96
361.294	324.06
361.676	343.49
362.057	329.03
362.439	334.91
362.821	310.05
363.203	320.9
363.584	315.25
363.966	303.49
364.348	328.8
364.729	319.09
365.111	320.9
365.493	329.03
365.874	318.86
366.256	315.47
366.637	311.18
367.019	315.02
367.4	309.82
367.781	294.68
368.163	321.8
368.544	311.86
368.925	302.14
369.306	300.33
369.688	298.3
370.069	308.69
370.45	310.95
370.831	309.6
371.212	298.3
371.593	288.81
371.974	288.58
372.355	318.86
372.736	320.67
373.117	298.07
373.498	331.06
373.879	312.08
374.26	317.05
374.641	315.02
375.021	303.49
375.402	332.87
375.783	289.94
376.163	316.15
376.544	313.21
376.925	325.19
377.305	308.92
377.686	330.16
378.066	357.96
378.447	330.61
378.827	308.01
379.208	308.24
379.588	333.55
379.968	322.25
380.349	323.38
380.729	341.01
381.109	310.27
381.489	337.17
381.87	328.13
382.25	331.74
382.63	323.16
383.01	328.35
383.39	334.91
383.77	327.22
384.15	357.28
384.53	367
384.91	364.96
385.29	335.36
385.67	343.04
386.049	338.3
386.429	356.37
386.809	365.64
387.189	356.6
387.568	350.27
387.948	357.28
388.328	355.02
388.707	354.57
389.087	353.66
389.466	357.28
389.846	365.41
390.225	374.91
390.605	346.88
390.984	363.83
391.363	365.41
391.743	361.12
392.122	368.35
392.501	368.8
392.881	404.96
393.26	382.14
393.639	396.6
394.018	385.07
394.397	400.89
394.776	381.23
395.155	405.41
395.534	426.43
395.913	377.62
396.292	379.88
396.671	392.53
397.05	408.35
397.429	377.39
397.808	383.72
398.186	390.95
398.565	411.29
398.944	382.81
399.323	397.96
399.701	410.38
400.08	420.55
400.458	414.9
400.837	425.53
401.215	429.82
401.594	406.09
401.972	443.6
402.351	438.86
402.729	419.2
403.107	432.98
403.486	442.93
403.864	425.98
404.242	413.1
404.62	458.97
404.999	444.28
405.377	447.9
405.755	469.82
406.133	477.95
406.511	459.87
406.889	467.78
407.267	449.25
407.645	486.09
408.023	503.04
408.401	482.02
408.779	494.68
409.156	491.51
409.534	501.91
409.912	479.31
410.29	496.71
410.667	518.4
411.045	548.69
411.422	527.22
411.8	533.32
412.178	544.62
412.555	544.62
412.933	545.3
413.31	575.13
413.687	564.96
414.065	566.31
414.442	602.7
414.819	580.1
415.197	593.66
415.574	603.6
415.951	616.48
416.328	638.18
416.705	631.17
417.082	635.92
417.46	651.51
417.837	649.02
418.214	657.16
418.591	673.2
418.967	669.59
419.344	688.57
419.721	701.22
420.098	694.67
420.475	701.45
420.852	736.03
421.228	729.7
421.605	739.64
421.982	692.41
422.358	730.15
422.735	748.45
423.111	745.97
423.488	793.43
423.864	768.34
424.241	827.32
424.617	834.1
424.994	830.71
425.37	802.24
425.746	816.02
426.123	805.63
426.499	825.29
426.875	843.37
427.251	865.74
427.627	895.12
428.003	877.27
428.379	873.88
428.756	888.34
429.132	906.19
429.507	927.66
429.883	935.79
430.259	945.74
430.635	942.8
431.011	976.92
431.387	964.27
431.763	1008.79
432.138	1014.21
432.514	1011.5
432.89	1060.31
433.265	1050.82
433.641	1063.7
434.016	1038.62
434.392	1066.86
434.767	1095.56
435.143	1090.37
435.518	1082.01
435.894	1139.63
436.269	1152.06
436.644	1136.69
437.02	1163.81
437.395	1153.87
437.77	1194.09
438.145	1205.39
438.52	1202
438.895	1197.03
439.271	1204.49
439.646	1247.42
440.021	1252.85
440.395	1269.8
440.77	1240.87
441.145	1275.9
441.52	1272.28
441.895	1302.34
442.27	1330.13
442.645	1320.87
443.019	1326.74
443.394	1326.74
443.769	1341.66
444.143	1342.56
444.518	1371.94
444.892	1347.31
445.267	1336.69
445.641	1383.92
446.016	1386.63
446.39	1379.4
446.764	1409.45
447.139	1397.7
447.513	1374.88
447.887	1378.72
448.262	1384.6
448.636	1423.01
449.01	1435.22
449.384	1436.8
449.758	1456.46
450.132	1476.57
450.506	1458.94
450.88	1445.61
451.254	1472.05
451.628	1515.21
452.002	1467.98
452.376	1491.49
452.75	1523.12
453.123	1512.05
453.497	1552.05
453.871	1545.5
454.244	1567.42
454.618	1562.67
454.992	1582.11
455.365	1598.38
455.739	1595.44
456.112	1630.24
456.486	1603.57
456.859	1650.8
457.232	1656.45
457.606	1649.45
457.979	1669.11
458.352	1715.44
458.725	1699.39
459.099	1746.39
459.472	1741.42
459.845	1761.99
460.218	1761.99
460.591	1781.2
460.964	1760.18
461.337	1822.55
461.71	1817.81
462.083	1862.32
462.456	1841.08
462.829	1822.1
463.201	1908.65
463.574	1876.33
463.947	1908.42
464.32	1970.8
464.692	1954.52
465.065	1974.86
465.438	1956.56
465.81	2001.98
466.183	2030
466.555	2048.99
466.928	2036.33
467.3	2028.87
467.672	2067.97
468.045	2097.8
468.417	2109.1
468.789	2126.5
469.161	2139.6
469.534	2135.99
469.906	2177.57
470.278	2183.9
470.65	2195.65
471.022	2226.16
471.394	2286.72
471.766	2344.35
472.138	2300.96
472.51	2376.21
472.882	2366.04
473.253	2381.41
473.625	2421.41
473.997	2446.04
474.369	2451.46
474.74	2454.85
475.112	2490.78
475.484	2538.46
475.855	2595.64
476.227	2613.26
476.598	2656.43
476.97	2627.95
477.341	2699.82
477.713	2737.78
478.084	2737.1
478.455	2765.58
478.827	2802.64
479.198	2856.2
479.569	2863.88
479.94	2955.85
480.311	2940.26
480.682	2963.54
481.053	3011.45
481.424	3053.48
481.795	3102.74
482.166	3078.79
482.537	3130.77
482.908	3201.72
483.279	3184.1
483.65	3239.91
484.021	3304.09
484.391	3334.15
484.762	3326.47
485.133	3363.75
485.503	3390.87
485.874	3427.25
486.244	3455.95
486.615	3517.87
486.985	3556.29
487.356	3596.97
487.726	3614.59
488.097	3702.5
488.467	3685.78
488.837	3761.93
489.207	3722.84
489.578	3792.67
489.948	3821.82
490.318	3862.95
490.688	3892.33
491.058	3898.65
491.428	3935.26
491.798	3977.52
492.168	4057.07
492.538	4013.45
492.908	4079.67
493.278	4134.13
493.648	4111.3
494.017	4143.62
494.387	4177.97
494.757	4218.65
495.126	4275.37
495.496	4243.96
495.866	4285.09
496.235	4329.15
496.605	4372.09
496.974	4384.52
497.344	4381.35
497.713	4372.09
498.082	4396.04
498.452	4466.32
498.821	4487.34
499.19	4499.77
499.559	4485.76
499.928	4545.19
500.298	4541.58
500.667	4573.89
501.036	4567.56
501.405	4610.73
501.774	4577.28
502.143	4668.58
502.512	4634
502.88	4702.93
503.249	4684.4
503.618	4695.92
503.987	4713.55
504.356	4769.14
504.724	4776.15
505.093	4723.49
505.462	4727.79
505.83	4798.52
506.199	4826.77
506.567	4917.84
506.936	4800.78
507.304	4915.35
507.672	4934.11
508.041	4870.83
508.409	4937.5
508.777	4980.21
509.145	4965.07
509.514	4973.43
509.882	5045.97
510.25	4973.2
510.618	5042.35
510.986	5000.55
511.354	5100.43
511.722	5101.33
512.09	5137.27
512.458	5094.78
512.826	5157.15
513.193	5193.99
513.561	5196.47
513.929	5168.9
514.297	5253.42
514.664	5293.19
515.032	5271.27
515.4	5266.75
515.767	5288
516.135	5264.04
516.502	5218.85
516.869	5325.06
517.237	5329.8
517.604	5324.83
517.972	5405.73
518.339	5367.99
518.706	5382.68
519.073	5403.02
519.44	5370.93
519.808	5476.69
520.175	5455.45
520.542	5462.68
520.909	5534.54
521.276	5487.99
521.643	5574.09
522.009	5525.28
522.376	5614.09
522.743	5598.5
523.11	5642.56
523.477	5684.6
523.843	5708.55
524.21	5682.56
524.577	5784.71
524.943	5745.84
525.31	5798.94
525.676	5801.66
526.043	5830.58
526.409	5890.69
526.776	5918.49
527.142	5895.44
527.508	5906.06
527.874	5985.38
528.241	5990.8
528.607	6016.56
528.973	6065.83
529.339	6018.82
529.705	6106.73
530.071	6146.96
530.437	6150.35
530.803	6135.88
531.169	6180.4
531.535	6202.77
531.901	6165.04
532.267	6244.58
532.632	6246.39
532.998	6262.66
533.364	6289.33
533.73	6331.81
534.095	6350.34
534.461	6325.71
534.826	6363.9
535.192	6376.1
535.557	6392.6
535.923	6399.83
536.288	6435.09
536.653	6495.42
537.019	6478.93
537.384	6513.73
537.749	6513.5
538.114	6525.7
538.479	6545.36
538.845	6615.19
539.21	6614.97
539.575	6581.52
539.94	6644.12
540.305	6671.91
540.67	6662.2
541.034	6651.12
541.399	6731.57
541.764	6706.26
542.129	6709.43
542.494	6756.66
542.858	6826.49
543.223	6759.14
543.587	6813.83
543.952	6819.93
544.316	6782.42
544.681	6844.79
545.045	6898.8
545.41	6855.86
545.774	6886.15
546.138	6918.01
546.503	6972.92
546.867	6975.64
547.231	7002.53
547.595	6925.47
547.959	7033.94
548.324	7004.56
548.688	7033.71
549.052	7086.59
549.416	7113.03
549.779	7144.44
550.143	7102.19
550.507	7122.75
550.871	7193.94
551.235	7156.87
551.599	7228.51
551.962	7162.07
552.326	7168.4
552.689	7264.22
553.053	7166.14
553.417	7231.22
553.78	7294.95
554.143	7218.57
554.507	7316.42
554.87	7236.42
555.234	7377.43
555.597	7361.16
555.96	7392.35
556.323	7375.4
556.686	7409.75
557.05	7416.98
557.413	7438.9
557.776	7425.79
558.139	7519.12
558.502	7496.53
558.865	7480.71
559.228	7588.5
559.59	7566.81
559.953	7633.92
560.316	7644.32
560.679	7593.92
561.041	7698.78
561.404	7742.17
561.767	7741.72
562.129	7718.67
562.492	7792.11
562.854	7803.41
563.217	7731.55
563.579	7776.52
563.941	7842.05
564.304	7788.95
564.666	7830.53
565.028	7976.06
565.39	7896.06
565.753	7966.57
566.115	8019.68
566.477	7946.68
566.839	8104.42
567.201	8140.12
567.563	8071.43
567.925	8247.92
568.287	8143.29
568.648	8166.56
569.01	8141.48
569.372	8252.21
569.734	8278.2
570.095	8322.04
570.457	8371.08
570.819	8386.45
571.18	8330.85
571.542	8390.97
571.903	8465.54
572.265	8470.74
572.626	8535.59
572.987	8602.49
573.349	8550.28
573.71	8600
574.071	8629.6
574.432	8657.85
574.794	8808.36
575.155	8774.68
575.516	8794.8
575.877	8812.2
576.238	8877.05
576.599	8954.57
576.96	8979.88
577.32	9059.2
577.681	9117.05
578.042	9138.06
578.403	9191.17
578.763	9265.52
579.124	9315.69
579.485	9440.2
579.845	9470.49
580.206	9506.87
580.566	9559.97
580.927	9622.35
581.287	9765.62
581.648	9741.44
582.008	9907.54
582.368	9929.23
582.728	10066.18
583.089	10096.91
583.449	10228.43
583.809	10333.97
584.169	10385.94
584.529	10514.75
584.889	10636.56
585.249	10658.7
585.609	10800.85
585.969	10975.08
586.329	11011.69
586.688	11174.17
587.048	11272.92
587.408	11395.41
587.768	11441.73
588.127	11649.86
588.487	11757.88
588.846	11931.44
589.206	11998.1
589.565	12059.57
589.925	12294.37
590.284	12396.51
590.643	12446.9
591.003	12668.14
591.362	12853.45
591.721	12908.81
592.08	13063.84
592.44	13315.13
592.799	13449.82
593.158	13523.03
593.517	13656.14
593.876	13812.97
594.235	13883.93
594.593	14090.02
594.952	14184.94
595.311	14224.26
595.67	14469.68
596.029	14718.26
596.387	14779.72
596.746	14854.07
597.104	14951.7
597.463	15082.32
597.822	15265.59
598.18	15358.01
598.538	15408.86
598.897	15699.47
599.255	15722.07
599.613	15957.55
599.972	16112.8
600.33	16190.99
600.688	16235.96
601.046	16487.25
601.404	16658.32
601.762	16675.49
602.12	16919.1
602.478	17007.46
602.836	17087.01
603.194	17058.53
603.552	17226.21
603.91	17264.18
604.268	17394.34
604.625	17437.96
604.983	17548.24
605.341	17672.08
605.698	17815.35
606.056	17912.75
606.413	17959.53
606.771	18057.38
607.128	18131.27
607.485	18127.88
607.843	18188.22
608.2	18388.44
608.557	18523.81
608.914	18608.1
609.272	18619.62
609.629	18679.06
609.986	18806.51
610.343	18912.27
610.7	19005.38
611.057	19074.98
611.414	19099.61
611.771	19208.53
612.127	19307.97
612.484	19379.6
612.841	19539.6
613.198	19385.03
613.554	19462.09
613.911	19663.44
614.267	19736.43
614.624	19806.71
614.98	19853.72
615.337	19965.8
615.693	19937.78
616.05	20050.09
616.406	20126.02
616.762	20147.72
617.118	20097.78
617.475	20180.94
617.831	20333.93
618.187	20401.95
618.543	20324.44
618.899	20533.25
619.255	20486.92
619.611	20439.46
619.967	20598.1
620.323	20699.34
620.678	20649.17
621.034	20632
621.39	20706.57
621.746	20723.07
622.101	20923.52
622.457	20798.32
622.812	20921.48
623.168	21042.38
623.523	20973.91
623.879	21006.23
624.234	20969.62
624.589	21050.97
624.945	21064.08
625.3	21148.14
625.655	21137.07
626.01	21194.47
626.365	21213.23
626.72	21153.34
627.075	21196.73
627.43	21320.34
627.785	21148.14
628.14	21194.02
628.495	21328.7
628.85	21290.29
629.205	21212.55
629.559	21360.57
629.914	21275.82
630.269	21297.07
630.623	21230.18
630.978	21100.91
631.332	21266.56
631.687	21270.18
632.041	21188.6
632.396	21344.3
632.75	21130.74
633.104	21252.77
633.459	21183.4
633.813	21125.09
634.167	21158.31
634.521	21124.42
634.875	21221.59
635.229	21198.54
635.583	21121.93
635.937	21099.11
636.291	21093
636.645	21061.82
636.999	21020.92
637.352	21033.35
637.706	20984.76
638.06	21097.75
638.413	20998.09
638.767	20951.77
639.121	21008.94
639.474	20945.21
639.828	20915.16
640.181	20942.73
640.534	20924.42
640.888	20968.94
641.241	20846.91
641.594	20849.4
641.947	20925.1
642.301	20885.1
642.654	20944.31
643.007	20884.42
643.36	20784.31
643.713	20851.88
644.066	20866.12
644.419	20871.32
644.771	20679.68
645.124	20512.91
645.477	20557.43
645.83	20389.52
646.182	20267.94
646.535	20278.79
646.888	20369.86
647.24	20256.64
647.593	20295.51
647.945	20332.35
648.298	20166.25
648.65	20219.13
649.002	20106.14
649.355	20298.22
649.707	20188.85
650.059	20363.08
650.411	20564.88
650.763	20668.38
651.115	20763.3
651.467	20768.04
651.819	20724.2
652.171	20747.7
652.523	20696.4
652.875	20731.43
653.227	20505
653.578	20865.44
653.93	20756.06
654.282	20730.08
654.633	20626.58
654.985	20617.31
655.337	20727.59
655.688	20840.58
656.039	20741.6
656.391	20655.28
656.742	20674.48
657.094	20733.92
657.445	20776.85
657.796	20678.55
658.147	20761.94
658.498	20758.32
658.849	20756.74
659.2	20774.82
659.551	20725.1
659.902	20861.15
660.253	20763.52
660.604	20681.94
660.955	20772.34
661.306	20741.15
661.656	20815.5
662.007	20646.24
662.358	20818.21
662.708	20778.21
663.059	20692.11
663.409	20699.79
663.76	20804.88
664.11	20849.17
664.461	20809.17
664.811	20856.85
665.161	20793.58
665.511	20822.5
665.862	20819.34
666.212	20836.06
666.562	20926.46
666.912	20842.62
667.262	20763.07
667.612	20827.02
667.962	20783.63
668.312	20789.74
668.662	20927.59
669.011	20837.64
669.361	20734.14
669.711	20697.76
670.06	20711.55
670.41	20658.67
670.76	20776.18
671.109	20776.4
671.459	20708.61
671.808	20781.15
672.157	20733.01
672.507	20573.47
672.856	20567.14
673.205	20745.9
673.554	20729.85
673.904	20589.74
674.253	20774.14
674.602	20610.76
674.951	20406.92
675.3	20243.54
675.649	20572.34
675.998	20561.27
676.346	20546.58
676.695	20623.41
677.044	20419.8
677.393	20541.61
677.741	20570.31
678.09	20443.76
678.438	20456.19
678.787	20462.51
679.135	20441.72
679.484	20264.78
679.832	20350.2
680.181	20222.75
680.529	20305.68
680.877	20269.52
681.225	20252.12
681.573	20323.53
681.922	20286.25
682.27	20065.69
682.618	20109.98
682.966	20069.98
683.314	20164.44
683.661	20010.1
684.009	19970.32
684.357	19926.71
684.705	19881.06
685.053	19844.9
685.4	19820.27
685.748	19809.65
686.095	19755.86
686.443	19675.19
686.79	19619.6
687.138	19654.4
687.485	19625.02
687.832	19484.01
688.18	19692.36
688.527	19452.37
688.874	19396.1
689.221	19366.5
689.568	19260.51
689.915	19248.99
690.262	19181.19
690.609	19187.07
690.956	19031.59
691.303	19063.91
691.65	18990.46
691.997	19082.89
692.344	18826.4
692.69	18824.59
693.037	18796.12
693.383	18699.17
693.73	18790.92
694.077	18630.92
694.423	18618.95
694.769	18594.99
695.116	18542.79
695.462	18510.25
695.808	18389.12
696.155	18418.05
696.501	18291.27
696.847	18191.16
697.193	18076.13
697.539	18196.36
697.885	17974.67
698.231	17973.99
698.577	17948
698.923	17962.69
699.269	17842.69
699.614	17732.64
699.96	17644.51
700.306	17732.87
700.651	17600.67
700.997	17489.03
701.342	17456.04
701.688	17505.3
702.033	17509.82
702.379	17359.32
702.724	17271.41
703.069	17266.21
703.415	17087.23
703.76	17079.32
704.105	17091.3
704.45	17150.74
704.795	16985.09
705.14	16856.96
705.485	16864.19
705.83	16850.63
706.175	16760.92
706.52	16741.93
706.865	16730.18
707.209	16708.49
707.554	16583.52
707.899	16646.79
708.243	16475.95
708.588	16486.35
708.932	16407.93
709.277	16313.24
709.621	16463.75
709.966	16227.82
710.31	16311.66
710.654	16125.23
710.998	16223.75
711.342	16174.49
711.687	16059.24
712.031	16125
712.375	16012.46
712.719	15978.11
713.063	15918.68
713.407	15971.78
713.75	15972.69
714.094	15841.17
714.438	15761.62
714.782	15808.85
715.125	15748.06
715.469	15790.55
715.812	15608.4
716.156	15595.97
716.499	15534.73
716.843	15570.66
717.186	15482.98
717.53	15619.7
717.873	15572.25
718.216	15542.19
718.559	15422.87
718.902	15314.17
719.246	15429.65
719.589	15383.78
719.932	15311.01
720.275	15351.23
720.617	15337.68
720.96	15291.35
721.303	15270.56
721.646	15329.54
721.989	15142.65
722.331	15315.98
722.674	15087.51
723.016	15269.2
723.359	15123.9
723.701	15201.63
724.044	15107.4
724.386	15064.24
724.729	15067.63
725.071	15045.93
725.413	15092.71
725.755	14990.34
726.097	15000.06
726.439	14923.9
726.782	14905.82
727.124	14987.85
727.465	15006.61
727.807	15001.87
728.149	14906.27
728.491	14828.76
728.833	14980.17
729.175	14852.49
729.516	14746.28
729.858	14845.49
730.199	14878.03
730.541	14829.89
730.882	14819.5
731.224	14917.8
731.565	14701.99
731.906	14805.94
732.248	14765.49
732.589	14707.86
732.93	14743.57
733.271	14735.43
733.612	14768.65
733.953	14699.05
734.294	14739.5
734.635	14722.78
734.976	14707.41
735.317	14659.28
735.658	14628.99
735.999	14669.67
736.339	14705.6
736.68	14763.45
737.021	14742.89
737.361	14606.62
737.702	14704.92
738.042	14678.03
738.383	14677.81
738.723	14736.79
739.063	14642.78
739.404	14745.37
739.744	14714.64
740.084	14658.6
740.424	14706.05
740.764	14714.87
741.104	14821.08
741.444	14724.36
741.784	14710.12
742.124	14779.5
742.464	14783.11
742.804	14785.37
743.143	14776.33
743.483	14825.15
743.823	14791.25
744.162	14848.2
744.502	14833.51
744.841	14867.86
745.181	14864.02
745.52	14855.88
745.86	14965.71
746.199	14977.01
746.538	15044.58
746.877	15163.67
747.216	15228.98
747.556	15136.78
747.895	15258.36
748.234	15191.24
748.573	15221.97
748.911	15348.07
749.25	15381.52
749.589	15457.22
749.928	15504.68
750.267	15580.83
750.605	15574.28
750.944	15594.17
751.283	15727.5
751.621	15927.72
751.96	15786.93
752.298	15901.28
752.636	16106.7
752.975	16043.65
753.313	16104.66
753.651	16266.69
753.989	16272.79
754.327	16466.01
754.666	16448.61
755.004	16538.77
755.342	16743.74
755.679	16741.03
756.017	16837.75
756.355	16974.69
756.693	17016.5
757.031	17192.09
757.368	17161.81
757.706	17337.4
758.044	17368.13
758.381	17594.57
758.719	17632.76
759.056	17718.4
759.394	17812.19
759.731	17822.13
760.068	17929.92
760.405	18064.16
760.743	18174.44
761.08	18313.19
761.417	18346.18
761.754	18493.3
762.091	18603.58
762.428	18619.85
762.765	18576.46
763.102	18785.95
763.438	18790.24
763.775	18904.36
764.112	18973.74
764.449	19120.4
764.785	19123.56
765.122	19074.3
765.458	19246.73
765.795	19269.78
766.131	19380.51
766.467	19373.5
766.804	19381.41
767.14	19433.61
767.476	19601.74
767.812	19449.21
768.148	19742.08
768.485	19603.55
768.821	19693.04
769.157	19662.08
769.492	19729.42
769.828	19771.01
770.164	19679.93
770.5	19709.09
770.836	19812.36
771.171	19771.01
771.507	19778.24
771.842	19735.3
772.178	19754.06
772.513	19803.1
772.849	19740.27
773.184	19743.44
773.519	19902.53
773.855	19838.8
774.19	19688.52
774.525	19804.45
774.86	19763.55
775.195	19736.43
775.53	19742.53
775.865	19675.87
776.2	19446.49
776.535	19436.33
776.87	19532.37
777.205	19513.84
777.539	19390.45
777.874	19467.06
778.209	19386.38
778.543	19348.42
778.878	19373.05
779.212	19384.12
779.547	19274.3
779.881	19371.69
780.215	19251.47
780.55	19263.9
780.884	19192.26
781.218	19161.08
781.552	19168.08
781.886	19085.6
782.22	19010.35
782.554	19005.6
782.888	18859.17
783.222	18840.18
783.556	18743.69
783.889	18749.11
784.223	18659.17
784.557	18590.7
784.89	18670.47
785.224	18658.72
785.557	18545.5
785.891	18439.29
786.224	18422.57
786.558	18468.67
786.891	18310.03
787.224	18197.94
787.557	18156.58
787.891	18146.87
788.224	18230.03
788.557	18102.57
788.89	18040.66
789.223	18168.56
789.556	17999.75
789.888	17882.24
790.221	17785.3
790.554	17733.55
790.887	17725.86
791.219	17646.32
791.552	17744.39
791.884	17615.13
792.217	17536.26
792.549	17510.05
792.882	17355.93
793.214	17420.78
793.546	17369.71
793.879	17191.86
794.211	17147.12
794.543	17214.01
794.875	17119.78
795.207	17232.09
795.539	17058.53
795.871	17034.81
796.203	16888.14
796.535	16887.69
796.867	16801.59
797.198	16756.85
797.53	16733.57
797.862	16623.74
798.193	16651.77
798.525	16589.62
798.856	16635.49
799.188	16405.9
799.519	16370.87
799.85	16361.38
800.182	16327.03
800.513	16266.92
800.844	16139.46
801.175	16239.57
801.506	16198.22
801.837	16122.74
802.168	16003.87
802.499	15978.79
802.83	16007.26
803.161	15914.61
803.491	15996.42
803.822	15812.47
804.153	15798.91
804.483	15691.56
804.814	15715.29
805.145	15681.62
805.475	15619.25
805.805	15646.37
806.136	15606.37
806.466	15508.29
806.796	15595.07
807.126	15451.12
807.457	15406.37
807.787	15284.12
808.117	15331.57
808.447	15249.54
808.777	15304
809.107	15230.79
809.436	15147.85
809.766	15146.95
810.096	15149.66
810.426	15082.77
810.755	15097
811.085	14992.6
811.414	14998.48
811.744	14934.97
812.073	14814.53
812.403	14854.98
812.732	14786.96
813.061	14783.57
813.39	14679.61
813.719	14593.29
814.049	14762.32
814.378	14595.1
814.707	14609.11
815.036	14541.99
815.365	14505.16
815.693	14462.9
816.022	14395.55
816.351	14379.73
816.68	14319.62
817.008	14360.53
817.337	14289.12
817.665	14122.57
817.994	14194.2
818.322	14198.72
818.651	14179.29
818.979	14070.82
819.307	14145.16
819.636	13989.01
819.964	13980.42
820.292	14117.37
820.62	14041.66
820.948	13938.39
821.276	14010.48
821.604	13897.94
821.932	14069.69
822.259	13995.79
822.587	13999.18
822.915	13975
823.243	13972.06
823.57	13942.91
823.898	13923.7
824.225	13924.83
824.553	13918.05
824.88	13878.96
825.207	14016.35
825.535	13957.15
825.862	14019.74
826.189	13833.76
826.516	13981.78
826.843	14004.15
827.17	13939.97
827.497	14032.85
827.824	13948.79
828.151	14030.82
828.478	13975.9
828.805	13954.89
829.131	13929.8
829.458	13845.29
829.785	13837.83
830.111	13912.18
830.438	13978.16
830.764	13874.21
831.09	13937.03
831.417	13862.91
831.743	13828.79
832.069	13884.83
832.395	13844.38
832.722	13867.88
833.048	13805.06
833.374	13819.3
833.7	13775.23
834.026	13795.12
834.351	13744.72
834.677	13760.99
835.003	13809.13
835.329	13772.29
835.654	13800.77
835.98	13646.87
836.306	13611.17
836.631	13577.04
836.956	13662.92
837.282	13675.57
837.607	13591.96
837.932	13655.91
838.258	13596.48
838.583	13576.59
838.908	13521.68
839.233	13559.19
839.558	13483.04
839.883	13437.61
840.208	13338.18
840.533	13311.06
840.858	13364.62
841.182	13429.7
841.507	13406.2
841.832	13325.98
842.156	13192.42
842.481	13318.52
842.805	13162.59
843.13	13190.61
843.454	13184.96
843.778	13083.95
844.103	13058.87
844.427	13057.96
844.751	13060
845.075	12981.58
845.399	13049.6
845.723	12885.54
846.047	12922.6
846.371	12761.02
846.695	12820.91
847.019	12756.27
847.343	12649.16
847.666	12571.19
847.99	12547.69
848.313	12583.4
848.637	12479.9
848.96	12345.66
849.284	12355.83
849.607	12278.55
849.931	12237.19
850.254	12228.83
850.577	12202.39
850.9	12007.82
851.223	12070.42
851.546	12067.93
851.869	12001.94
852.192	12013.7
852.515	11900.93
852.838	11817.09
853.161	11857.09
853.483	11718.79
853.806	11688.73
854.129	11723.53
854.451	11676.3
854.774	11658.68
855.096	11560.6
855.419	11516.76
855.741	11488.96
856.063	11449.64
856.385	11411
856.708	11465.24
857.03	11383.66
857.352	11359.25
857.674	11378.46
857.996	11235.18
858.318	11194.06
858.64	11213.49
858.961	11176.2
859.283	11105.47
859.605	11095.08
859.926	11161.29
860.248	11032.7
860.57	11041.07
860.891	11009.43
861.212	10942.76
861.534	10864.8
861.855	10910.22
862.176	10888.53
862.498	10933.5
862.819	10952.25
863.14	10833.84
863.461	10807.4
863.782	10785.93
864.103	10763.11
864.424	10692.83
864.745	10801.07
865.065	10693.28
865.386	10650.34
865.707	10669.55
866.027	10641.3
866.348	10662.32
866.668	10632.04
866.989	10546.16
867.309	10526.28
867.63	10588.42
867.95	10531.25
868.27	10426.84
868.59	10469.33
868.91	10418.48
869.23	10405.6
869.55	10404.7
869.87	10528.54
870.19	10462.1
870.51	10446.73
870.83	10431.36
871.15	10371.03
871.469	10304.14
871.789	10296.45
872.109	10292.84
872.428	10278.6
872.748	10288.54
873.067	10291.25
873.386	10260.3
873.706	10251.03
874.025	10242.67
874.344	10158.83
874.663	10227.75
874.982	10145.27
875.301	10176.46
875.62	10141.43
875.939	10087.64
876.258	10147.08
876.577	10046.29
876.896	10099.4
877.214	10039.06
877.533	10049
877.852	9981.21
878.17	10043.35
878.489	10041.09
878.807	10048.32
879.125	9950.02
879.444	9900.08
879.762	9907.31
880.08	9915.9
880.398	9831.38
880.716	9867.76
881.034	9822.79
881.352	9817.82
881.67	9819.18
881.988	9709.35
882.306	9826.63
882.624	9772.4
882.941	9626.64
883.259	9700.54
883.577	9662.8
883.894	9681.1
884.212	9636.81
884.529	9612.85
884.846	9570.14
885.164	9521.78
885.481	9485.63
885.798	9498.28
886.115	9470.26
886.432	9508.45
886.75	9461.45
887.067	9451.73
887.383	9382.35
887.7	9402.01
888.017	9367.89
888.334	9352.07
888.651	9246.54
888.967	9260.77
889.284	9207.22
889.6	9236.59
889.917	9174.45
890.233	9158.18
890.55	9110.04
890.866	9096.48
891.182	9083.6
891.498	9035.92
891.815	9013.77
892.131	8983.94
892.447	9035.47
892.763	8988.24
893.079	8924.06
893.395	8900.78
893.71	8886.77
894.026	8846.32
894.342	8826.43
894.657	8836.15
894.973	8786.89
895.289	8772.65
895.604	8716.16
895.92	8668.25
896.235	8651.75
896.55	8671.41
896.865	8623.05
897.181	8568.14
897.496	8580.11
897.811	8578.53
898.126	8519.55
898.441	8466.67
898.756	8419.21
899.071	8353
899.386	8314.81
899.7	8355.71
900.015	8302.38
900.33	8241.59
900.644	8188.03
900.959	8219.44
901.273	8229.61
901.588	8107.36
901.902	8070.97
902.216	8075.72
902.531	8122.5
902.845	8055.61
903.159	7936.29
903.473	7953.69
903.787	7930.64
904.101	7895.39
904.415	7814.03
904.729	7826.01
905.042	7860.81
905.356	7782.39
905.67	7797.54
905.984	7712.11
906.297	7749.85
906.611	7699.01
906.924	7685.67
907.237	7623.75
907.551	7614.26
907.864	7629.86
908.177	7501.5
908.491	7427.38
908.804	7489.29
909.117	7430.54
909.43	7349.64
909.743	7390.99
910.056	7390.31
910.368	7371.33
910.681	7289.07
910.994	7273.26
911.307	7242.75
911.619	7186.48
911.932	7220.83
912.244	7176.76
912.557	7170.43
912.869	7035.75
913.181	7042.98
913.494	7042.53
913.806	6999.82
914.118	6972.02
914.43	6913.94
914.742	6860.61
915.054	6921.17
915.366	6855.64
915.678	6817.45
915.99	6782.65
916.302	6819.71
916.613	6729.09
916.925	6760.05
917.236	6701.29
917.548	6706.04
917.859	6673.27
918.171	6616.1
918.482	6555.31
918.794	6533.61
919.105	6577.45
919.416	6513.05
919.727	6485.03
920.038	6494.29
920.349	6380.4
920.66	6413.62
920.971	6296.33
921.282	6360.74
921.593	6313.51
921.903	6302.43
922.214	6267.86
922.525	6232.83
922.835	6199.39
923.146	6153.28
923.456	6092.72
923.767	6166.17
924.077	6167.07
924.387	6091.59
924.697	6034.64
925.008	6040.75
925.318	6031.25
925.628	5991.25
925.938	5982.89
926.248	5956.68
926.558	5906.06
926.867	5896.34
927.177	5847.76
927.487	5812.73
927.796	5765.27
928.106	5756.01
928.416	5737.93
928.725	5709.91
929.034	5699.06
929.344	5725.27
929.653	5664.48
929.962	5635.33
930.271	5606.18
930.581	5621.32
930.89	5543.58
931.199	5549.91
931.508	5520.76
931.817	5531.83
932.125	5497.03
932.434	5465.62
932.743	5377.03
933.051	5395.56
933.36	5378.16
933.669	5356.92
933.977	5338.16
934.286	5321.22
934.594	5283.02
934.902	5234.21
935.21	5218.17
935.519	5248
935.827	5172.29
936.135	5105.85
936.443	5117.83
936.751	5102.24
937.059	5136.36
937.367	5029.7
937.674	5089.13
937.982	5071.28
938.29	5016.14
938.597	5016.37
938.905	4971.17
939.213	4933.2
939.52	4961.45
939.827	4942.02
940.135	4922.13
940.442	4883.26
940.749	4854.11
941.056	4892.53
941.363	4825.41
941.67	4803.04
941.977	4733.43
942.284	4719.2
942.591	4730.27
942.898	4707.9
943.205	4713.55
943.511	4701.8
943.818	4654.57
944.125	4582.48
944.431	4619.09
944.738	4549.94
945.044	4566.66
945.35	4514.68
945.657	4486.89
945.963	4483.72
946.269	4471.97
946.575	4515.81
946.881	4420.9
947.187	4471.29
947.493	4385.65
947.799	4395.59
948.105	4407.57
948.41	4356.95
948.716	4367.34
949.022	4319.89
949.327	4302.26
949.633	4261.36
949.938	4294.8
950.244	4240.34
950.549	4197.86
950.854	4230.85
951.16	4213.22
951.465	4200.34
951.77	4173.9
952.075	4116.5
952.38	4110.4
952.685	4067.46
952.99	4039.44
953.294	4021.14
953.599	4001.7
953.904	3978.88
954.209	3979.1
954.513	4010.74
954.818	3964.64
955.122	3940.46
955.426	3940.91
955.731	3924.42
956.035	3904.08
956.339	3887.58
956.643	3884.42
956.948	3869.73
957.252	3844.19
957.556	3835.15
957.86	3834.02
958.163	3802.16
958.467	3760.81
958.771	3723.29
959.075	3740.92
959.378	3710.41
959.682	3713.57
959.985	3689.17
960.289	3674.25
960.592	3705.67
960.896	3653.69
961.199	3618.44
961.502	3660.69
961.805	3586.12
962.108	3556.74
962.411	3540.25
962.714	3532.79
963.017	3501.38
963.32	3507.48
963.623	3531.66
963.926	3517.2
964.228	3506.35
964.531	3471.1
964.833	3444.88
965.136	3452.34
965.438	3414.6
965.741	3403.53
966.043	3413.92
966.345	3398.1
966.648	3356.97
966.95	3349.97
967.252	3342.96
967.554	3316.3
967.856	3316.75
968.158	3290.99
968.46	3267.48
968.761	3257.09
969.063	3231.33
969.365	3210.76
969.666	3240.82
969.968	3222.29
970.269	3193.81
970.571	3197.66
970.872	3155.4
971.174	3155.62
971.475	3143.87
971.776	3100.26
972.077	3111.78
972.378	3104.78
972.679	3048.51
972.98	3026.14
973.281	3036.3
973.582	3079.92
973.883	3043.54
974.183	3026.36
974.484	3008.06
974.785	2941.84
975.085	2972.58
975.386	2967.15
975.686	2944.56
975.986	2918.12
976.287	2919.25
976.587	2865.01
976.887	2921.73
977.187	2881.05
977.487	2825.69
977.787	2843.99
978.087	2817.1
978.387	2824.78
978.687	2835.18
978.987	2814.16
979.286	2769.42
979.586	2793.37
979.885	2758.12
980.185	2778.01
980.484	2775.29
980.784	2728.06
981.083	2712.25
981.382	2696.88
981.682	2704.56
981.981	2697.1
982.28	2644.9
982.579	2660.04
982.878	2633.15
983.177	2640.83
983.475	2583.89
983.774	2613.94
984.073	2569.88
984.372	2580.72
984.67	2609.42
984.969	2558.12
985.267	2528.52
985.566	2542.08
985.864	2528.97
986.162	2510.44
986.461	2490.33
986.759	2493.04
987.057	2504.79
987.355	2467.96
987.653	2436.32
987.951	2394.29
988.249	2433.83
988.547	2428.18
988.844	2404.46
989.142	2426.38
989.44	2401.52
989.737	2369.2
990.035	2388.86
990.332	2361.75
990.63	2377.79
990.927	2336.21
991.224	2335.31
991.521	2309.09
991.819	2312.03
992.116	2287.4
992.413	2265.48
992.71	2285.14
993.006	2311.58
993.303	2262.77
993.6	2240.62
993.897	2251.92
994.193	2227.96
994.49	2220.73
994.787	2200.39
995.083	2197
995.379	2215.76
995.676	2175.08
995.972	2141.41
996.268	2145.93
996.565	2140.96
996.861	2126.05
997.157	2128.76
997.453	2127.18
997.749	2090.57
998.044	2112.49
998.34	2093.28
998.636	2073.17
998.932	2070.23
999.227	2022.77
999.523	2062.54
999.818	2008.99
1000.114	2015.54
1000.409	2005.82
1000.704	2015.31
1001	1963.34
1001.295	1955.2
1001.59	1997.01
1001.885	1942.55
1002.18	1942.55
1002.475	1930.8
1002.77	1927.86
1003.065	1918.82
1003.359	1881.08
1003.654	1886.05
1003.949	1871.82
1004.243	1895.32
1004.538	1869.78
1004.832	1858.03
1005.127	1830.23
1005.421	1826.62
1005.715	1831.36
1006.009	1823
1006.304	1785.94
1006.598	1784.36
1006.892	1802.21
1007.186	1758.15
1007.48	1772.83
1007.773	1754.53
1008.067	1756.56
1008.361	1709.33
1008.655	1737.81
1008.948	1695.1
1009.242	1716.34
1009.535	1691.93
1009.829	1701.65
1010.122	1700.52
1010.415	1674.98
1010.708	1654.42
1011.001	1642.89
1011.295	1646.74
1011.588	1621.2
1011.881	1628.66
1012.173	1624.36
1012.466	1605.38
1012.759	1596.34
1013.052	1607.64
1013.344	1572.84
1013.637	1569.9
1013.93	1551.82
1014.222	1552.28
1014.514	1549.56
1014.807	1520.64
1015.099	1519.06
1015.391	1520.41
1015.683	1487.64
1015.976	1500.75
1016.268	1489
1016.56	1474.31
1016.851	1457.81
1017.143	1458.27
1017.435	1432.05
1017.727	1447.42
1018.018	1420.3
1018.31	1428.44
1018.602	1413.07
1018.893	1423.69
1019.185	1384.6
1019.476	1392.51
1019.767	1370.36
1020.058	1363.81
1020.35	1362
1020.641	1377.36
1020.932	1330.59
1021.223	1344.6
1021.514	1304.6
1021.804	1322.23
1022.095	1291.27
1022.386	1312.28
1022.677	1305.95
1022.967	1279.29
1023.258	1271.38
1023.548	1287.2
1023.839	1253.07
1024.129	1246.52
1024.419	1243.81
1024.709	1217.6
1025	1234.32
1025.29	1236.35
1025.58	1197.71
1025.87	1198.84
1026.16	1192.29
1026.449	1191.83
1026.739	1172.62
1027.029	1189.35
1027.319	1157.71
1027.608	1161.33
1027.898	1158.84
1028.187	1164.04
1028.477	1136.24
1028.766	1110.93
1029.055	1124.49
1029.344	1126.98
1029.634	1114.77
1029.923	1105.28
1030.212	1093.3
1030.501	1071.61
1030.79	1055.34
1031.078	1071.84
1031.367	1072.06
1031.656	1066.86
1031.945	1058.5
1032.233	1052.4
1032.522	1058.73
1032.81	1011.95
1033.099	1001.1
1033.387	1010.37
1033.675	1010.37
1033.963	1004.72
1034.251	1015.79
1034.54	992.06
1034.828	982.8
1035.116	991.61
1035.403	980.54
1035.691	981.44
1035.979	962.91
1036.267	958.39
1036.554	952.52
1036.842	955.68
1037.129	943.03
1037.417	930.37
1037.704	918.39
1037.992	933.53
1038.279	922.69
1038.566	894.21
1038.853	894.21
1039.14	894.21
