Data from hue_280_FLMS001491_00022.txt Node
Date: Tue Feb 07 15:55:02 GMT 2017
User: dcchb
Spectrometer: FLMS00149
Trigger mode: 0
Integration Time (sec): 2.000000E-2
Scans to average: 10
Electric dark correction enabled: true
Nonlinearity correction enabled: false
Boxcar width: 0
XAxis mode: Wavelengths
Number of Pixels in Spectrum: 2048
>>>>>Begin Spectral Data<<<<<
341.393	2.66
341.776	2.66
342.16	2.66
342.543	-51.13
342.927	-78.92
343.31	-73.73
343.693	-56.78
344.077	-54.07
344.46	-64.46
344.843	-59.04
345.226	-34.18
345.61	-33.28
345.993	-18.36
346.376	-12.03
346.759	16.89
347.142	31.81
347.525	54.18
347.908	52.15
348.291	54.41
348.674	102.31
349.057	94.18
349.44	120.17
349.823	149.32
350.206	160.62
350.588	164.01
350.971	194.06
351.354	203.1
351.737	213.27
352.119	232.71
352.502	246.04
352.884	259.37
353.267	274.06
353.65	277.68
354.032	286.72
354.414	293.5
354.797	298.01
355.179	317.9
355.562	313.38
355.944	325.81
356.326	317
356.709	338.69
357.091	322.65
357.473	317.9
357.855	319.03
358.238	315.19
358.62	317.45
359.002	320.16
359.384	317.45
359.766	332.82
360.148	320.61
360.53	334.4
360.912	318.35
361.294	318.81
361.676	326.26
362.057	298.01
362.439	305.47
362.821	316.55
363.203	303.44
363.584	307.51
363.966	307.96
364.348	326.26
364.729	319.71
365.111	299.82
365.493	314.29
365.874	333.27
366.256	315.87
366.637	295.08
367.019	299.37
367.4	309.09
367.781	310.22
368.163	289.88
368.544	286.72
368.925	295.08
369.306	302.99
369.688	280.84
370.069	298.47
370.45	298.47
370.831	300.95
371.212	290.11
371.593	296.21
371.974	295.53
372.355	298.47
372.736	329.88
373.117	312.48
373.498	318.35
373.879	300.95
374.26	307.51
374.641	301.86
375.021	302.76
375.402	311.57
375.783	327.39
376.163	316.77
376.544	335.08
376.925	324.91
377.305	301.86
377.686	319.26
378.066	321.07
378.447	332.14
378.827	323.78
379.208	324.45
379.588	333.49
379.968	331.01
380.349	343.66
380.729	318.13
381.109	345.25
381.489	324.45
381.87	325.58
382.25	321.52
382.63	317
383.01	326.26
383.39	352.25
383.77	337.79
384.15	321.74
384.53	346.83
384.91	360.39
385.29	324.91
385.67	343.21
386.049	328.3
386.429	345.25
386.809	345.92
387.189	340.5
387.568	352.48
387.948	345.02
388.328	345.47
388.707	343.44
389.087	373.04
389.466	357.9
389.846	350.67
390.225	369.2
390.605	366.49
390.984	374.17
391.363	352.93
391.743	368.97
392.122	352.7
392.501	365.81
392.881	385.7
393.26	369.88
393.639	372.59
394.018	356.77
394.397	387.05
394.776	373.49
395.155	383.89
395.534	387.96
395.913	406.03
396.292	395.19
396.671	406.49
397.05	402.87
397.429	382.98
397.808	386.83
398.186	399.26
398.565	401.74
398.944	387.05
399.323	418.69
399.701	410.1
400.08	398.13
400.458	412.14
400.837	413.04
401.215	414.62
401.594	406.94
401.972	418.69
402.351	437.67
402.729	411.91
403.107	405.13
403.486	433.6
403.864	438.58
404.242	428.63
404.62	450.33
404.999	449.88
405.377	446.26
405.755	457.56
406.133	460.95
406.511	484.22
406.889	466.82
407.267	494.39
407.645	487.39
408.023	479.93
408.401	480.83
408.779	498.46
409.156	503.43
409.534	498.91
409.912	507.5
410.29	506.6
410.667	499.14
411.045	521.29
411.422	518.57
411.8	534.84
412.178	535.75
412.555	534.39
412.933	543.88
413.31	551.57
413.687	577.33
414.065	558.8
414.442	587.05
414.819	587.27
415.197	593.83
415.574	602.64
415.951	604
416.328	608.97
416.705	612.58
417.082	639.93
417.46	641.51
417.837	655.52
418.214	629.31
418.591	639.25
418.967	656.2
419.344	668.4
419.721	670.66
420.098	674.95
420.475	688.06
420.852	685.8
421.228	696.65
421.605	721.05
421.982	710.66
422.358	735.97
422.735	742.07
423.111	734.61
423.488	771.9
423.864	752.92
424.241	772.58
424.617	790.88
424.994	791.11
425.37	777.32
425.746	782.52
426.123	824.1
426.499	823.42
426.875	823.2
427.251	863.2
427.627	869.98
428.003	886.25
428.379	887.6
428.756	887.15
429.132	907.49
429.507	911.78
429.883	939.81
430.259	942.07
430.635	931.67
431.011	957.21
431.387	969.18
431.763	982.97
432.138	994.04
432.514	980.03
432.89	1014.38
433.265	1015.51
433.641	1041.27
434.016	1043.08
434.392	1070.88
434.767	1113.81
435.143	1109.74
435.518	1107.26
435.894	1142.29
436.269	1169.63
436.644	1155.39
437.02	1160.36
437.395	1174.38
437.77	1194.04
438.145	1212.12
438.52	1209.86
438.895	1224.54
439.271	1228.84
439.646	1269.29
440.021	1279.46
440.395	1276.75
440.77	1285.11
441.145	1315.16
441.52	1358.1
441.895	1337.31
442.27	1351.32
442.645	1350.42
443.019	1325.56
443.394	1358.55
443.769	1359
444.143	1379.57
444.518	1411.43
444.892	1391.55
445.267	1407.14
445.641	1410.53
446.016	1444.43
446.39	1399.68
446.764	1429.06
447.139	1422.73
447.513	1449.62
447.887	1462.5
448.262	1477.87
448.636	1466.35
449.01	1501.6
449.384	1492.56
449.758	1493.01
450.132	1512.22
450.506	1507.02
450.88	1545.89
451.254	1540.02
451.628	1563.97
452.002	1564.87
452.376	1565.55
452.75	1575.27
453.123	1607.36
453.497	1626.79
453.871	1588.83
454.244	1627.25
454.618	1641.48
454.992	1646.68
455.365	1682.84
455.739	1701.14
456.112	1715.83
456.486	1704.98
456.859	1737.07
457.232	1786.11
457.606	1786.11
457.979	1798.54
458.352	1787.02
458.725	1816.17
459.099	1848.71
459.472	1860.69
459.845	1881.25
460.218	1892.1
460.591	1909.5
460.964	1878.99
461.337	1954.47
461.71	1975.48
462.083	1978.87
462.456	1958.54
462.829	1947.91
463.201	1980.68
463.574	2004.18
463.947	2045.77
464.32	2081.47
464.692	2094.58
465.065	2090.74
465.438	2110.62
465.81	2154.92
466.183	2140.68
466.555	2177.29
466.928	2201.02
467.3	2212.09
467.672	2243.27
468.045	2278.98
468.417	2271.75
468.789	2312.88
469.161	2345.42
469.534	2361.24
469.906	2369.82
470.278	2403.27
470.65	2398.75
471.022	2467.45
471.394	2502.7
471.766	2463.83
472.138	2520.1
472.51	2556.03
472.882	2591.74
473.253	2631.29
473.625	2636.71
473.997	2673.77
474.369	2656.14
474.74	2695.01
475.112	2775.24
475.484	2789.25
475.855	2815.91
476.227	2817.95
476.598	2907.21
476.97	2947.89
477.341	2990.37
477.713	2986.31
478.084	3033.76
478.455	3075.34
478.827	3110.6
479.198	3167.09
479.569	3196.02
479.94	3215.9
480.311	3259.07
480.682	3300.87
481.053	3346.97
481.424	3414.32
481.795	3454.32
482.166	3434.43
482.537	3520.98
482.908	3538.61
483.279	3601.66
483.65	3629.23
484.021	3697.93
484.391	3708.32
484.762	3706.74
485.133	3761.88
485.503	3800.97
485.874	3858.15
486.244	3911.93
486.615	3950.35
486.985	3965.71
487.356	4014.98
487.726	4007.3
488.097	4111.25
488.467	4127.29
488.837	4190.79
489.207	4198.03
489.578	4277.35
489.948	4293.62
490.318	4378.59
490.688	4319.15
491.058	4440.96
491.428	4443.44
491.798	4462.65
492.168	4557.11
492.538	4494.97
492.908	4603.21
493.278	4639.82
493.648	4651.35
494.017	4683.89
494.387	4742.64
494.757	4796.65
495.126	4838.91
495.496	4838.01
495.866	4831.68
496.235	4864.67
496.605	4919.14
496.974	4880.49
497.344	4984.45
497.713	4994.39
498.082	4981.96
498.452	5038
498.821	5026.7
499.19	5069.41
499.559	5145.57
499.928	5094.05
500.298	5109.19
500.667	5143.99
501.036	5120.49
501.405	5209.98
501.774	5202.74
502.143	5266.7
502.512	5287.49
502.88	5320.03
503.249	5301.27
503.618	5337.43
503.987	5407.26
504.356	5407.48
504.724	5405.45
505.093	5414.72
505.462	5453.13
505.83	5432.12
506.199	5539.68
506.567	5541.49
506.936	5483.64
507.304	5547.37
507.672	5569.74
508.041	5618.55
508.409	5566.12
508.777	5614.26
509.145	5684.77
509.514	5625.78
509.882	5661.94
510.25	5673.01
510.618	5719.12
510.986	5721.37
511.354	5764.76
511.722	5802.28
512.09	5802.5
512.458	5837.3
512.826	5870.52
513.193	5850.19
513.561	5864.87
513.929	5867.13
514.297	5957.75
514.664	5931.09
515.032	5923.18
515.4	5998.2
515.767	5988.94
516.135	5986.68
516.502	5978.54
516.869	6005.21
517.237	6057.19
517.604	5984.19
517.972	6052.21
518.339	6152.32
518.706	6055.83
519.073	6137.18
519.44	6121.59
519.808	6188.48
520.175	6172.44
520.542	6204.53
520.909	6260.34
521.276	6264.19
521.643	6279.33
522.009	6365.43
522.376	6314.13
522.743	6370.85
523.11	6411.3
523.477	6389.83
523.843	6399.1
524.21	6486.1
524.577	6456.27
524.943	6507.57
525.31	6521.58
525.676	6526.33
526.043	6528.81
526.409	6596.83
526.776	6696.26
527.142	6564.52
527.508	6725.42
527.874	6695.36
528.241	6726.77
528.607	6789.37
528.973	6830.72
529.339	6777.39
529.705	6860.33
530.071	6886.54
530.437	6885.19
530.803	6928.57
531.169	6946.65
531.535	6896.03
531.901	6978.29
532.267	6929.93
532.632	7000.66
532.998	7010.15
533.364	7016.26
533.73	7062.13
534.095	7078.4
534.461	7057.84
534.826	7088.34
535.192	7131.73
535.557	7149.59
535.923	7162.92
536.288	7168.34
536.653	7169.02
537.019	7180.32
537.384	7214.9
537.749	7302.12
538.114	7296.02
538.479	7258.06
538.845	7277.27
539.21	7288.57
539.575	7303.93
539.94	7321.56
540.305	7375.79
540.67	7403.59
541.034	7381.44
541.399	7399.75
541.764	7318.4
542.129	7433.19
542.494	7444.04
542.858	7485.62
543.223	7488.33
543.587	7482.01
543.952	7558.84
544.316	7495.11
544.681	7468.9
545.045	7517.94
545.41	7611.72
545.774	7607.43
546.138	7575.56
546.503	7597.48
546.867	7594.09
547.231	7611.95
547.595	7638.61
547.959	7705.73
548.324	7656.92
548.688	7620.99
549.052	7709.12
549.416	7730.14
549.779	7730.36
550.143	7648.1
550.507	7783.92
550.871	7734.66
551.235	7785.73
551.599	7779.85
551.962	7769.91
552.326	7840.87
552.689	7830.02
553.053	7840.64
553.417	7769
553.78	7889.45
554.143	7827.99
554.507	7930.58
554.87	7866.86
555.234	7953.63
555.597	7914.09
555.96	7962.45
556.323	8003.8
556.686	8033.4
557.05	7989.79
557.413	8033.86
557.776	8072.27
558.139	8095.78
558.502	8103.91
558.865	8067.08
559.228	8168.77
559.59	8186.17
559.953	8238.14
560.316	8237.69
560.679	8215.09
561.041	8254.64
561.404	8331.7
561.767	8327.41
562.129	8310.01
562.492	8323.34
562.854	8426.16
563.217	8382.77
563.579	8421.42
563.941	8479.27
564.304	8437.01
564.666	8511.58
565.028	8596.33
565.39	8578.25
565.753	8602.43
566.115	8648.76
566.477	8686.95
566.839	8714.29
567.201	8712.48
567.563	8711.35
567.925	8756.32
568.287	8763.1
568.648	8835.64
569.01	8873.38
569.372	8882.2
569.734	8875.19
570.095	8901.86
570.457	8953.38
570.819	8980.5
571.18	8930.56
571.542	9067.5
571.903	9098.91
572.265	9096.88
572.626	9139.59
572.987	9141.17
573.349	9134.62
573.71	9240.15
574.071	9232.92
574.432	9332.58
574.794	9331.22
575.155	9327.83
575.516	9370.77
575.877	9406.93
576.238	9475.63
576.599	9455.29
576.96	9501.84
577.32	9525.57
577.681	9582.06
578.042	9672.23
578.403	9640.82
578.763	9669.52
579.124	9707.26
579.485	9770.53
579.845	9798.33
580.206	9786.13
580.566	9860.93
580.927	9933.24
581.287	9972.56
581.648	9988.38
582.008	10043.75
582.368	10105.67
582.728	10146.57
583.089	10198.77
583.449	10241.48
583.809	10358.54
584.169	10352.44
584.529	10411.2
584.889	10487.58
585.249	10502.72
585.609	10552.43
585.969	10653.9
586.329	10649.38
586.688	10742.71
587.048	10767.57
587.408	10782.26
587.768	10892.09
588.127	10922.14
588.487	10922.82
588.846	11119.2
589.206	11036.04
589.565	11123.49
589.925	11262.47
590.284	11257.5
590.643	11397.38
591.003	11415.46
591.362	11510.15
591.721	11636.93
592.08	11605.74
592.44	11679.64
592.799	11745.17
593.158	11820.65
593.517	11794.89
593.876	11927.99
594.235	11946.3
594.593	12066.74
594.952	12212.05
595.311	12114.65
595.67	12174.09
596.029	12322.11
596.387	12359.17
596.746	12435.77
597.104	12414.31
597.463	12479.39
597.822	12671.93
598.18	12600.52
598.538	12668.31
598.897	12759.83
599.255	12723.45
599.613	12909.21
599.972	12897.91
600.33	12986.95
600.688	12966.83
601.046	13049.54
601.404	13155.08
601.762	13172.93
602.12	13240.95
602.478	13260.61
602.836	13267.84
603.194	13294.96
603.552	13356.43
603.91	13380.83
604.268	13441.62
604.625	13428.52
604.983	13513.49
605.341	13554.16
605.698	13665.12
606.056	13581.28
606.413	13661.28
606.771	13669.19
607.128	13748.06
607.485	13711.45
607.843	13710.32
608.2	13859.24
608.557	13922.29
608.914	13860.37
609.272	14016.52
609.629	14061.72
609.986	14102.17
610.343	14009.97
610.7	14093.36
611.057	14138.33
611.414	14165.67
611.771	14182.4
612.127	14310.53
612.484	14281.15
612.841	14310.53
613.198	14336.06
613.554	14377.87
613.911	14466.68
614.267	14381.26
614.624	14438.21
614.98	14392.56
615.337	14568.83
615.693	14535.38
616.05	14549.84
616.406	14631.42
616.762	14596.85
617.118	14532.67
617.475	14600.24
617.831	14693.12
618.187	14708.26
618.543	14766.33
618.899	14719.78
619.255	14841.59
619.611	14803.4
619.967	14825.99
620.323	14804.53
620.678	14707.81
621.034	14759.78
621.39	14902.83
621.746	14766.11
622.101	15041.13
622.457	14901.7
622.812	14856.28
623.168	14878.87
623.523	14917.74
623.879	14928.14
624.234	14869.61
624.589	14954.8
624.945	15026.67
625.3	14942.6
625.655	14995.93
626.01	15029.15
626.365	14960.91
626.72	14994.13
627.075	14974.69
627.43	14914.13
627.785	14956.61
628.14	15059.66
628.495	15058.08
628.85	15025.99
629.205	14996.16
629.559	15136.49
629.914	14943.28
630.269	15048.59
630.623	14959.1
630.978	14938.08
631.332	14970.4
631.687	14965.65
632.041	14863.28
632.396	14905.54
632.75	14863.96
633.104	14975.37
633.459	14935.82
633.813	14866.9
634.167	14896.73
634.521	14826.9
634.875	14889.04
635.229	14770.63
635.583	14785.32
635.937	14827.8
636.291	14791.87
636.645	14723.62
636.999	14761.14
637.352	14710.97
637.706	14637.98
638.06	14737.86
638.413	14654.47
638.767	14634.13
639.121	14699.44
639.474	14691.99
639.828	14609.28
640.181	14720.01
640.534	14700.35
640.888	14646.11
641.241	14543.52
641.594	14540.58
641.947	14688.6
642.301	14583.74
642.654	14535.38
643.007	14621.71
643.36	14623.51
643.713	14608.37
644.066	14584.19
644.419	14472.33
644.771	14395.05
645.124	14257.87
645.477	14268.04
645.83	14135.62
646.182	14233.47
646.535	14171.32
646.888	14132.23
647.24	14064.88
647.593	14115.05
647.945	14120.7
648.298	14061.04
648.65	14061.95
649.002	14005.9
649.355	14170.42
649.707	14110.08
650.059	14121.38
650.411	14357.98
650.763	14308.49
651.115	14504.65
651.467	14390.98
651.819	14480.24
652.171	14337.19
652.523	14326.57
652.875	14330.64
653.227	14371.77
653.578	14376.29
653.93	14451.31
654.282	14282.28
654.633	14333.13
654.985	14392.56
655.337	14321.83
655.688	14350.75
656.039	14404.08
656.391	14401.37
656.742	14415.16
657.094	14415.16
657.445	14437.08
657.796	14435.27
658.147	14389.4
658.498	14434.59
658.849	14413.8
659.2	14363.18
659.551	14401.6
659.902	14475.5
660.253	14415.38
660.604	14466.23
660.955	14405.89
661.306	14426.91
661.656	14485.66
662.007	14443.63
662.358	14514.36
662.708	14545.78
663.059	14425.78
663.409	14337.42
663.76	14508.04
664.11	14413.8
664.461	14618.77
664.811	14543.74
665.161	14461.26
665.511	14426.23
665.862	14480.24
666.212	14507.58
666.562	14529.28
666.912	14523.18
667.262	14452.67
667.612	14437.98
667.962	14501.71
668.312	14494.7
668.662	14587.81
669.011	14491.77
669.361	14498.77
669.711	14459.68
670.06	14532.44
670.41	14365.44
670.76	14470.07
671.109	14484.08
671.459	14457.42
671.808	14432.11
672.157	14396.4
672.507	14351.88
672.856	14335.61
673.205	14378.1
673.554	14412.22
673.904	14386.46
674.253	14433.69
674.602	14377.64
674.951	14200.7
675.3	14179.68
675.649	14321.83
675.998	14345.56
676.346	14303.3
676.695	14329.28
677.044	14231.66
677.393	14254.94
677.741	14208.61
678.09	14214.49
678.438	14151.66
678.787	14284.09
679.135	14266.69
679.484	14193.24
679.832	14237.08
680.181	14098.1
680.529	14094.04
680.877	14051.1
681.225	14104.43
681.573	14063.3
681.922	13932.46
682.27	13947.15
682.618	13978.56
682.966	13974.94
683.314	13923.19
683.661	13887.49
684.009	13872.57
684.357	13796.64
684.705	13819.92
685.053	13813.59
685.4	13767.04
685.748	13709.64
686.095	13759.58
686.443	13633.71
686.79	13583.77
687.138	13627.38
687.485	13609.3
687.832	13536.54
688.18	13482.53
688.527	13456.31
688.874	13553.71
689.221	13369.76
689.568	13330.67
689.915	13350.78
690.262	13382.19
690.609	13243.21
690.956	13233.27
691.303	13172.03
691.65	13160.73
691.997	13058.36
692.344	12923.9
692.69	13011.58
693.037	13030.11
693.383	12835.54
693.73	12942.88
694.077	12790.79
694.423	12894.07
694.769	12810.45
695.116	12776.78
695.462	12718.71
695.808	12724.13
696.155	12689.78
696.501	12623.11
696.847	12578.14
697.193	12517.81
697.539	12489.33
697.885	12417.7
698.231	12345.83
698.577	12337.02
698.923	12360.97
699.269	12174.99
699.614	12152.62
699.96	12149
700.306	12205.05
700.651	12068.78
700.997	12035.79
701.342	11997.14
701.688	12013.64
702.033	11914.66
702.379	11966.41
702.724	11878.28
703.069	11800.99
703.415	11690.71
703.76	11691.39
704.105	11644.84
704.45	11641.45
704.795	11608.68
705.14	11558.28
705.485	11463.82
705.83	11398.06
706.175	11552.41
706.52	11390.83
706.865	11429.93
707.209	11384.28
707.554	11349.02
707.899	11311.28
708.243	11232.64
708.588	11285.97
708.932	11202.13
709.277	11197.62
709.621	11223.38
709.966	11110.84
710.31	11149.48
710.654	10957.85
710.998	11015.93
711.342	10991.74
711.687	10975.93
712.031	10916.94
712.375	10848.25
712.719	10891.41
713.063	10901.13
713.407	10830.17
713.75	10780
714.094	10815.93
714.438	10734.12
714.782	10761.47
715.125	10742.26
715.469	10840.34
715.812	10688.02
716.156	10625.65
716.499	10603.96
716.843	10643.28
717.186	10635.14
717.53	10644.41
717.873	10629.72
718.216	10595.82
718.559	10552.66
718.902	10507.92
719.246	10608.25
719.589	10557.63
719.932	10429.5
720.275	10460.91
720.617	10412.55
720.96	10484.87
721.303	10425.43
721.646	10391.08
721.989	10406.9
722.331	10460.46
722.674	10417.07
723.016	10409.84
723.359	10364.87
723.701	10454.13
724.044	10379.56
724.386	10259.79
724.729	10285.55
725.071	10308.37
725.413	10313.12
725.755	10270.18
726.097	10223.63
726.439	10134.37
726.782	10167.81
727.124	10217.75
727.465	10152.9
727.807	10224.99
728.149	10152.67
728.491	10109.06
728.833	10168.26
729.175	10172.78
729.516	10160.58
729.858	10143.41
730.199	10154.7
730.541	10158.32
730.882	10105.44
731.224	10158.55
731.565	10123.75
731.906	10072.45
732.248	10130.52
732.589	10092.79
732.93	10131.88
733.271	10165.33
733.612	10086.91
733.953	10081.49
734.294	10112.22
734.635	10073.58
734.976	10102.95
735.317	10111.77
735.658	10127.36
735.999	10110.64
736.339	10131.65
736.68	10141.6
737.021	10156.74
737.361	10091.66
737.702	10163.07
738.042	10102.5
738.383	10193.8
738.723	10185.44
739.063	10184.99
739.404	10171.65
739.744	10178.43
740.084	10142.95
740.424	10108.15
740.764	10193.35
741.104	10224.53
741.444	10209.84
741.784	10156.06
742.124	10301.59
742.464	10224.76
742.804	10235.38
743.143	10298.66
743.483	10254.36
743.823	10266.57
744.162	10306.11
744.502	10340.24
744.841	10400.12
745.181	10491.87
745.52	10443.28
745.86	10509.27
746.199	10550.63
746.538	10575.94
746.877	10611.87
747.216	10669.95
747.556	10702.71
747.895	10750.85
748.234	10772.32
748.573	10801.92
748.911	10885.31
749.25	10995.36
749.589	10964.63
749.928	11116.71
750.267	11229.93
750.605	11271.06
750.944	11290.95
751.283	11403.26
751.621	11487.1
751.96	11451.62
752.298	11651.16
752.636	11751.72
752.975	11718.28
753.313	11896.58
753.651	12082.56
753.989	12077.82
754.327	12226.74
754.666	12271.49
755.004	12385.61
755.342	12539.73
755.679	12544.25
756.017	12695.2
756.355	12860.62
756.693	12935.2
757.031	13051.13
757.368	13203.89
757.706	13327.73
758.044	13432.58
758.381	13559.36
758.719	13762.29
759.056	13890.88
759.394	14005.45
759.731	14095.84
760.068	14238.67
760.405	14420.13
760.743	14577.87
761.08	14717.97
761.417	14773.34
761.754	14974.01
762.091	15088.13
762.428	15241.35
762.765	15312.08
763.102	15557.05
763.438	15578.52
763.775	15694.67
764.112	15818.96
764.449	15997.26
764.785	16076.81
765.122	16186.64
765.458	16204.94
765.795	16439.29
766.131	16644.48
766.467	16632.95
766.804	16764.47
767.14	16805.6
767.476	16997.46
767.812	17132.6
768.148	17095.09
768.485	17180.96
768.821	17299.83
769.157	17366.72
769.492	17455.98
769.828	17622.53
770.164	17518.35
770.5	17585.02
770.836	17734.39
771.171	17695.3
771.507	17790.21
771.842	17796.09
772.178	17961.05
772.513	17956.08
772.849	18005.8
773.184	17941.84
773.519	18063.42
773.855	18121.27
774.19	18096.19
774.525	18131.9
774.86	18283.3
775.195	18269.29
775.53	18315.39
775.865	18300.71
776.2	18267.71
776.535	18229.29
776.87	18297.32
777.205	18274.94
777.539	18314.04
777.874	18395.39
778.209	18180.26
778.543	18299.12
778.878	18246.02
779.212	18253.47
779.547	18204.89
779.881	18328.28
780.215	18300.25
780.55	18352.91
780.884	18134.16
781.218	18282.85
781.552	18329.86
781.886	18323.08
782.22	18168.96
782.554	18189.97
782.888	18056.64
783.222	17957.44
783.556	18015.74
783.889	18083.99
784.223	17952.01
784.557	17924.67
784.89	18020.26
785.224	17925.12
785.557	17927.61
785.891	17919.7
786.224	17866.14
786.558	17831.11
786.891	17725.13
787.224	17673.38
787.557	17705.69
787.891	17648.74
788.224	17637.45
788.557	17712.47
788.89	17576.66
789.223	17655.3
789.556	17477.68
789.888	17544.79
790.221	17476.55
790.554	17384.12
790.887	17259.6
791.219	17262.77
791.552	17267.06
791.884	17167.4
792.217	17127.4
792.549	17201.3
792.882	17022.32
793.214	17036.33
793.546	17091.02
793.879	16982.1
794.211	16910.23
794.543	17035.43
794.875	16915.66
795.207	16913.62
795.539	16764.7
795.871	16840.4
796.203	16795.43
796.535	16600.18
796.867	16637.7
797.198	16571.26
797.53	16571.71
797.862	16503.69
798.193	16531.71
798.525	16352.28
798.856	16462.56
799.188	16170.14
799.519	16262.57
799.85	16130.14
800.182	16188.67
800.513	16089.46
800.844	16060.31
801.175	16182.79
801.506	16124.04
801.837	15957.26
802.168	15973.99
802.499	15897.38
802.83	15819.87
803.161	15825.52
803.491	15773.54
803.822	15813.99
804.153	15714.78
804.483	15644.96
804.814	15614.67
805.145	15554.79
805.475	15598.18
805.805	15544.85
806.136	15537.84
806.466	15444.74
806.796	15474.34
807.126	15380.33
807.457	15362.48
807.787	15381.91
808.117	15264.63
808.447	15224.18
808.777	15277.28
809.107	15189.37
809.436	15150.96
809.766	15146.66
810.096	15037.97
810.426	14966.78
810.755	15068.25
811.085	14901.92
811.414	14929.04
811.744	14871.42
812.073	14865.77
812.403	14802.94
812.732	14788.26
813.061	14806.79
813.39	14710.97
813.719	14549.17
814.049	14739.22
814.378	14695.6
814.707	14528.6
815.036	14580.35
815.365	14491.54
815.693	14407.02
816.022	14364.76
816.351	14442.95
816.68	14329.74
817.008	14378.1
817.337	14344.65
817.665	14198.44
817.994	14241.38
818.322	14201.38
818.651	14187.59
818.979	14104.88
819.307	14176.07
819.636	14162.96
819.964	14145.79
820.292	14093.58
820.62	14132.45
820.948	14066.69
821.276	14090.87
821.604	14013.81
821.932	14154.15
822.259	14007.71
822.587	13987.82
822.915	14040.48
823.243	14060.82
823.57	13976.98
823.898	14078.9
824.225	13953.47
824.553	13992.8
824.88	13990.54
825.207	14030.31
825.535	13955.06
825.862	13998.9
826.189	13919.8
826.516	14029.63
826.843	14077.77
827.17	14132
827.497	14023.53
827.824	14078.22
828.151	14051.33
828.478	14107.37
828.805	14129.29
829.131	13976.53
829.458	13987.6
829.785	13943.98
830.111	13901.95
830.438	14086.8
830.764	13950.54
831.09	13989.86
831.417	13879.35
831.743	14016.98
832.069	14026.24
832.395	13945.57
832.722	13990.08
833.048	13962.06
833.374	13978.78
833.7	13947.37
834.026	13854.04
834.351	13906.47
834.677	13897.88
835.003	13934.27
835.329	13857.66
835.654	13882.06
835.98	13851.56
836.306	13917.32
836.631	13649.08
836.956	13818.11
837.282	13801.84
837.607	13779.47
837.932	13713.48
838.258	13745.57
838.583	13740.83
838.908	13616.99
839.233	13671.9
839.558	13613.6
839.883	13546.71
840.208	13511.23
840.533	13551.68
840.858	13478.46
841.182	13515.75
841.507	13546.93
841.832	13461.74
842.156	13369.54
842.481	13348.07
842.805	13398.69
843.13	13312.36
843.454	13301.51
843.778	13229.88
844.103	13209.31
844.427	13275.98
844.751	13220.39
845.075	13162.54
845.399	13080.28
845.723	12966.38
846.047	13023.33
846.371	12931.81
846.695	12993.5
847.019	12823.56
847.343	12817.23
847.666	12703.56
847.99	12688.65
848.313	12621.31
848.637	12576.34
848.96	12588.31
849.284	12607.52
849.607	12405.27
849.931	12370.69
850.254	12304.25
850.577	12276
850.9	12111.26
851.223	12102.45
851.546	12181.32
851.869	11989.01
852.192	12098.61
852.515	12027.88
852.838	11953.3
853.161	11873.76
853.483	11806.19
853.806	11826.3
854.129	11803.7
854.451	11703.59
854.774	11629.02
855.096	11602.35
855.419	11737.49
855.741	11646.19
856.063	11482.35
856.385	11521.9
856.708	11473.99
857.03	11374.11
857.352	11461.11
857.674	11448.46
857.996	11342.7
858.318	11308.12
858.64	11319.87
858.961	11338.4
859.283	11209.14
859.605	11097.96
859.926	11187.67
860.248	11132.31
860.57	11104.28
860.891	11121.23
861.212	11051.63
861.534	11044.4
861.855	11020.22
862.176	11001.69
862.498	11033.55
862.819	10964.85
863.14	10890.96
863.461	10956.72
863.782	10868.13
864.103	10955.59
864.424	10886.89
864.745	10861.13
865.065	10807.79
865.386	10777.06
865.707	10722.83
866.027	10850.73
866.348	10758.76
866.668	10744.29
866.989	10687.57
867.309	10660.68
867.63	10715.37
867.95	10623.17
868.27	10551.53
868.59	10617.52
868.91	10556.5
869.23	10619.78
869.55	10458.2
869.87	10586.78
870.19	10490.74
870.51	10565.77
870.83	10478.09
871.15	10387.69
871.469	10460.23
871.789	10439.89
872.109	10408.48
872.428	10384.08
872.748	10444.19
873.067	10407.13
873.386	10360.8
873.706	10415.94
874.025	10253.46
874.344	10261.59
874.663	10258.88
874.982	10314.7
875.301	10257.75
875.62	10239.67
875.939	10181.82
876.258	10246.68
876.577	10139.34
876.896	10108.38
877.214	10103.18
877.533	10114.71
877.852	10104.54
878.17	10106.12
878.489	10125.78
878.807	10123.52
879.125	10121.49
879.444	10051.66
879.762	10008.27
880.08	9999
880.398	9946.8
880.716	9961.26
881.034	9948.83
881.352	9911.55
881.67	9898.89
881.988	9893.47
882.306	9841.04
882.624	9827.93
882.941	9830.87
883.259	9845.56
883.577	9765.79
883.894	9837.42
884.212	9765.11
884.529	9677.43
884.846	9710.87
885.164	9636.3
885.481	9614.61
885.798	9652.8
886.115	9500.03
886.432	9563.76
886.75	9511.33
887.067	9536.19
887.383	9488.73
887.7	9483.76
888.017	9446.7
888.334	9457.55
888.651	9407.38
888.967	9376.42
889.284	9329.64
889.6	9377.1
889.917	9274.28
890.233	9287.61
890.55	9224.11
890.866	9245.8
891.182	9171.91
891.498	9115.64
891.815	9169.19
892.131	9064.79
892.447	9081.96
892.763	9002.19
893.079	9011.68
893.395	9012.14
893.71	8969.43
894.026	8958.13
894.342	8964
894.657	8872.7
894.973	8866.83
895.289	8787.74
895.604	8870.9
895.92	8724.69
896.235	8685.14
896.55	8737.57
896.865	8668.42
897.181	8713.16
897.496	8668.19
897.811	8618.7
898.126	8500.28
898.441	8532.83
898.756	8482.88
899.071	8466.84
899.386	8493.73
899.7	8368.09
900.015	8392.94
900.33	8341.87
900.644	8343.68
900.959	8359.5
901.273	8211.7
901.588	8278.82
901.902	8196.11
902.216	8219.61
902.531	8150.92
902.845	8070.24
903.159	8032.05
903.473	8004.03
903.787	7987.08
904.101	8016.68
904.415	7929.68
904.729	7888.32
905.042	7918.61
905.356	7858.27
905.67	7850.13
905.984	7839.96
906.297	7803.13
906.611	7708.44
906.924	7728.1
907.237	7688.55
907.551	7636.58
907.864	7635.22
908.177	7617.6
908.491	7577.6
908.804	7520.65
909.117	7436.13
909.43	7496.47
909.743	7366.98
910.056	7406.98
910.368	7364.95
910.681	7345.06
910.994	7357.72
911.307	7262.58
911.619	7233.65
911.932	7238.85
912.244	7176.03
912.557	7165.86
912.869	7102.36
913.181	7121.79
913.494	7088.57
913.806	7048.8
914.118	7035.24
914.43	6974.45
914.742	6962.02
915.054	6878.18
915.366	6939.42
915.678	6860.33
915.99	6861.23
916.302	6795.7
916.613	6812.19
916.925	6778.97
917.236	6778.3
917.548	6729.71
917.859	6710.95
918.171	6618.07
918.482	6651.52
918.794	6601.58
919.105	6630.28
919.416	6541.47
919.727	6499.89
920.038	6501.69
920.349	6527.46
920.66	6431.86
920.971	6420.11
921.282	6413.33
921.593	6341.7
921.903	6363.62
922.214	6352.77
922.525	6278.87
922.835	6233.9
923.146	6254.47
923.456	6213.11
923.767	6172.21
924.077	6174.24
924.387	6139.9
924.697	6098.77
925.008	6140.35
925.318	6103.51
925.628	6070.07
925.938	6013.12
926.248	5979.9
926.558	5935.83
926.867	5943.29
927.177	5882.95
927.487	5889.96
927.796	5834.82
928.106	5816.29
928.416	5772
928.725	5821.03
929.034	5759.57
929.344	5776.74
929.653	5709.4
929.962	5649.96
930.271	5699.68
930.581	5644.99
930.89	5613.36
931.199	5591.89
931.508	5583.07
931.817	5519.57
932.125	5544.2
932.434	5540.14
932.743	5494.04
933.051	5458.78
933.36	5487.48
933.669	5393.7
933.977	5378.33
934.286	5325.91
934.594	5371.33
934.902	5307.83
935.21	5255.62
935.519	5279.8
935.827	5235.06
936.135	5214.72
936.443	5183.31
936.751	5141.05
937.059	5183.08
937.367	5156.87
937.674	5104.22
937.982	5084.56
938.29	5067.61
938.597	5065.57
938.905	5043.88
939.213	5012.47
939.52	4995.97
939.827	4949.19
940.135	4928.63
940.442	4936.54
940.749	4915.29
941.056	4908.29
941.363	4834.17
941.67	4862.87
941.977	4821.51
942.284	4813.83
942.591	4781.51
942.898	4774.51
943.205	4730.21
943.511	4732.7
943.818	4690.67
944.125	4731.12
944.431	4663.78
944.738	4701.97
945.044	4624
945.35	4561.18
945.657	4523.89
945.963	4570.9
946.269	4540.16
946.575	4535.87
946.881	4499.26
947.187	4487.51
947.493	4431.69
947.799	4412.71
948.105	4426.49
948.41	4412.26
948.716	4385.14
949.022	4352.15
949.327	4362.99
949.633	4316.44
949.938	4328.19
950.244	4306.04
950.549	4254.29
950.854	4231.02
951.16	4215.88
951.465	4209.32
951.77	4180.85
952.075	4151.47
952.38	4185.82
952.685	4178.82
952.99	4145.82
953.294	4066.73
953.599	4058.14
953.904	4046.39
954.209	4026.96
954.513	4064.92
954.818	4010.46
955.122	4024.47
955.426	3992.38
955.731	3976.79
956.035	3963
956.339	3925.49
956.643	3933.17
956.948	3863.57
957.252	3914.87
957.556	3909.67
957.86	3866.06
958.163	3879.62
958.467	3808.88
958.771	3766.62
959.075	3799.84
959.378	3751.26
959.682	3800.52
959.985	3767.08
960.289	3729.79
960.592	3710.81
960.896	3691.82
961.199	3667.87
961.502	3666.74
961.805	3673.07
962.108	3629.68
962.411	3596.23
962.714	3643.92
963.017	3566.18
963.32	3569.12
963.623	3577.02
963.926	3535.67
964.228	3495.67
964.531	3519.85
964.833	3493.86
965.136	3456.35
965.438	3476.24
965.741	3440.76
966.043	3410.48
966.345	3397.59
966.648	3399.63
966.95	3362.57
967.252	3382
967.554	3345.84
967.856	3310.36
968.158	3344.04
968.46	3294.77
968.761	3284.38
969.063	3287.77
969.365	3273.98
969.666	3263.59
969.968	3235.34
970.269	3204.15
970.571	3205.73
970.872	3194.44
971.174	3185.85
971.475	3210.25
971.776	3162.57
972.077	3118.96
972.378	3103.14
972.679	3094.55
972.98	3105.62
973.281	3113.31
973.582	3077.6
973.883	3093.2
974.183	3054.55
974.484	3051.16
974.785	3068.56
975.085	3008.9
975.386	3014.1
975.686	2994.22
975.986	2942.01
976.287	2974.55
976.587	2977.72
976.887	2934.1
977.187	2934.33
977.487	2909.25
977.787	2896.59
978.087	2885.52
978.387	2872.64
978.687	2871.51
978.987	2867.44
979.286	2815.69
979.586	2860.43
979.885	2796.71
980.185	2769.14
980.484	2814.78
980.784	2754.9
981.083	2729.82
981.382	2764.16
981.682	2710.15
981.981	2735.46
982.28	2686.43
982.579	2679.42
982.878	2670.61
983.177	2671.96
983.475	2651.17
983.774	2610.72
984.073	2619.99
984.372	2651.85
984.67	2615.69
984.969	2620.67
985.267	2617.73
985.566	2554.23
985.864	2564.17
986.162	2576.6
986.461	2493.44
986.759	2492.31
987.057	2495.92
987.355	2517.39
987.653	2504.51
987.951	2508.58
988.249	2474.68
988.547	2465.87
988.844	2433.55
989.142	2437.17
989.44	2427.9
989.737	2406.43
990.035	2408.47
990.332	2408.02
990.63	2355.81
990.927	2375.47
991.224	2372.08
991.521	2375.93
991.819	2325.31
992.116	2349.94
992.413	2340.9
992.71	2278.08
993.006	2304.06
993.303	2290.28
993.6	2290.05
993.897	2256.38
994.193	2273.1
994.49	2247.34
994.787	2235.36
995.083	2224.97
995.379	2212.54
995.676	2223.39
995.972	2192.2
996.268	2208.47
996.565	2174.35
996.861	2141.13
997.157	2147.46
997.453	2113.56
997.749	2145.88
998.044	2109.27
998.34	2091.41
998.636	2077.85
998.932	2067.23
999.227	2098.87
999.523	2050.96
999.818	2050.29
1000.114	2007.12
1000.409	2025.2
1000.704	2034.92
1001	1989.95
1001.295	1983.17
1001.59	1990.4
1001.885	1978.42
1002.18	1957.86
1002.475	1933.45
1002.77	1926.9
1003.065	1916.28
1003.359	1923.73
1003.654	1902.49
1003.949	1874.7
1004.243	1882.38
1004.538	1883.74
1004.832	1883.51
1005.127	1863.4
1005.421	1877.63
1005.715	1836.28
1006.009	1840.35
1006.304	1807.35
1006.598	1794.47
1006.892	1794.02
1007.186	1777.75
1007.48	1789.95
1007.773	1762.38
1008.067	1750.41
1008.361	1751.31
1008.655	1715.38
1008.948	1724.42
1009.242	1704.98
1009.535	1712.67
1009.829	1664.53
1010.122	1674.7
1010.415	1665.66
1010.708	1682.16
1011.001	1672.22
1011.295	1660.46
1011.588	1629.05
1011.881	1652.33
1012.173	1662.72
1012.466	1606.91
1012.759	1615.27
1013.052	1598.55
1013.344	1621.14
1013.637	1572.78
1013.93	1567.59
1014.222	1587.92
1014.514	1548.38
1014.807	1534.37
1015.099	1554.93
1015.391	1528.94
1015.683	1528.49
1015.976	1510.64
1016.268	1489.62
1016.56	1462.28
1016.851	1453.24
1017.143	1466.35
1017.435	1453.01
1017.727	1425.44
1018.018	1424.99
1018.31	1427.02
1018.602	1426.57
1018.893	1427.93
1019.185	1400.81
1019.476	1398.55
1019.767	1395.16
1020.058	1377.31
1020.35	1370.75
1020.641	1345.44
1020.932	1329.85
1021.223	1333.69
1021.514	1278.33
1021.804	1296.86
1022.095	1315.39
1022.386	1309.51
1022.677	1291.43
1022.967	1290.76
1023.258	1276.97
1023.548	1260.02
1023.839	1302.06
1024.129	1250.53
1024.419	1279.01
1024.709	1246.46
1025	1225.22
1025.29	1210.31
1025.58	1206.47
1025.87	1201.49
1026.16	1188.16
1026.449	1196.52
1026.739	1164.21
1027.029	1188.39
1027.319	1170.76
1027.608	1165.34
1027.898	1155.17
1028.187	1113.81
1028.477	1161.04
1028.766	1128.73
1029.055	1121.95
1029.344	1121.27
1029.634	1127.37
1029.923	1092.34
1030.212	1078.11
1030.501	1092.8
1030.79	1057.32
1031.078	1102.06
1031.367	1069.52
1031.656	1064.55
1031.945	1043.08
1032.233	1073.36
1032.522	1040.14
1032.81	1053.25
1033.099	1029.52
1033.387	1015.96
1033.675	1015.74
1033.963	1006.02
1034.251	998.34
1034.54	1009.41
1034.828	985.23
1035.116	992.01
1035.403	972.35
1035.691	983.19
1035.979	974.16
1036.267	951.33
1036.554	979.35
1036.842	962.63
1037.129	951.33
1037.417	914.5
1037.704	939.58
1037.992	932.57
1038.279	924.21
1038.566	885.8
1038.853	885.8
1039.14	885.8
