Data from hue_110_FLMS001491_00032.txt Node
Date: Tue Feb 07 17:01:13 GMT 2017
User: dcchb
Spectrometer: FLMS00149
Trigger mode: 0
Integration Time (sec): 2.000000E-2
Scans to average: 10
Electric dark correction enabled: true
Nonlinearity correction enabled: false
Boxcar width: 0
XAxis mode: Wavelengths
Number of Pixels in Spectrum: 2048
>>>>>Begin Spectral Data<<<<<
341.393	-1.19
341.776	-1.19
342.16	-1.19
342.543	-61.52
342.927	-54.07
343.31	-51.58
343.693	-92.48
344.077	-57.46
344.46	-88.42
344.843	-54.07
345.226	-19.72
345.61	-14.75
345.993	-20.17
346.376	-0.73
346.759	18.47
347.142	12.82
347.525	32.26
347.908	41.52
348.291	78.36
348.674	98.7
349.057	117.23
349.44	99.15
349.823	144.35
350.206	152.71
350.588	170.33
350.971	204.46
351.354	239.26
351.737	228.19
352.119	227.51
352.502	268.19
352.884	280.39
353.267	277.9
353.65	294.4
354.032	312.7
354.414	287.85
354.797	303.21
355.179	321.97
355.562	308.18
355.944	305.92
356.326	324.45
356.709	345.7
357.091	344.79
357.473	346.83
357.855	328.52
358.238	341.18
358.62	343.66
359.002	349.09
359.384	336.21
359.766	363.1
360.148	328.97
360.53	347.96
360.912	328.97
361.294	345.47
361.676	338.69
362.057	325.36
362.439	312.03
362.821	320.84
363.203	325.13
363.584	330.1
363.966	338.01
364.348	324
364.729	308.86
365.111	319.94
365.493	329.88
365.874	299.37
366.256	307.73
366.637	305.92
367.019	336.21
367.4	316.09
367.781	310.9
368.163	320.84
368.544	325.13
368.925	314.51
369.306	322.87
369.688	304.34
370.069	326.94
370.45	311.8
370.831	325.36
371.212	323.78
371.593	303.89
371.974	314.06
372.355	309.54
372.736	310.67
373.117	328.07
373.498	300.05
373.879	306.83
374.26	314.06
374.641	318.58
375.021	320.84
375.402	326.04
375.783	313.38
376.163	318.13
376.544	335.3
376.925	332.14
377.305	328.07
377.686	326.94
378.066	337.11
378.447	325.58
378.827	315.64
379.208	342.76
379.588	328.97
379.968	337.34
380.349	338.01
380.729	334.17
381.109	342.53
381.489	321.29
381.87	310.44
382.25	323.32
382.63	346.6
383.01	355.64
383.39	353.38
383.77	342.76
384.15	340.5
384.53	352.93
384.91	345.92
385.29	332.36
385.67	350.67
386.049	362.65
386.429	339.82
386.809	362.65
387.189	337.56
387.568	337.79
387.948	364
388.328	373.27
388.707	357.67
389.087	355.41
389.466	359.48
389.846	370.56
390.225	384.79
390.605	377.11
390.984	372.36
391.363	366.04
391.743	389.76
392.122	369.43
392.501	374.85
392.881	375.07
393.26	381.85
393.639	380.95
394.018	377.79
394.397	394.06
394.776	386.6
395.155	384.79
395.534	389.76
395.913	401.06
396.292	395.41
396.671	376.88
397.05	394.06
397.429	394.06
397.808	394.28
398.186	403.32
398.565	386.83
398.944	404.45
399.323	403.55
399.701	411.91
400.08	415.75
400.458	424.57
400.837	404.68
401.215	411.46
401.594	396.09
401.972	406.49
402.351	407.16
402.729	421.18
403.107	401.06
403.486	426.37
403.864	429.08
404.242	438.8
404.62	443.1
404.999	434.96
405.377	426.37
405.755	446.94
406.133	435.86
406.511	444.45
406.889	431.12
407.267	453.04
407.645	430.44
408.023	438.12
408.401	437.45
408.779	450.78
409.156	449.65
409.534	469.76
409.912	455.07
410.29	447.39
410.667	470.21
411.045	480.61
411.422	473.15
411.8	481.96
412.178	486.48
412.555	462.08
412.933	494.39
413.31	492.59
413.687	501.4
414.065	491
414.442	504.79
414.819	502.53
415.197	506.14
415.574	506.6
415.951	522.42
416.328	517.67
416.705	526.71
417.082	509.76
417.46	527.16
417.837	519.03
418.214	545.24
418.591	530.55
418.967	534.62
419.344	549.31
419.721	552.7
420.098	571.23
420.475	561.28
420.852	542.98
421.228	566.03
421.605	563.77
421.982	573.94
422.358	565.58
422.735	573.04
423.111	581.85
423.488	591.79
423.864	557.67
424.241	596.54
424.617	575.97
424.994	572.36
425.37	591.57
425.746	606.93
426.123	631.34
426.499	621.62
426.875	608.52
427.251	603.09
427.627	615.97
428.003	631.34
428.379	648.06
428.756	630.21
429.132	657.78
429.507	658.23
429.883	643.77
430.259	657.33
430.635	668.4
431.011	650.1
431.387	695.74
431.763	674.73
432.138	695.07
432.514	707.04
432.89	682.41
433.265	694.39
433.641	709.98
434.016	721.51
434.392	707.95
434.767	711.56
435.143	740.04
435.518	745.46
435.894	755.4
436.269	754.5
436.644	766.25
437.02	776.19
437.395	772.58
437.77	791.56
438.145	791.79
438.52	775.06
438.895	793.37
439.271	790.88
439.646	807.15
440.021	827.04
440.395	836.31
440.77	826.14
441.145	825.68
441.52	857.55
441.895	836.76
442.27	838.57
442.645	858.68
443.019	862.52
443.394	877.21
443.769	883.54
444.143	876.3
444.518	907.94
444.892	862.29
445.267	913.37
445.641	902.52
446.016	901.61
446.39	898.22
446.764	903.2
447.139	916.08
447.513	925.12
447.887	916.98
448.262	921.28
448.636	919.47
449.01	950.43
449.384	953.59
449.758	983.87
450.132	999.47
450.506	967.38
450.88	975.51
451.254	987.04
451.628	998.11
452.002	1006.47
452.376	1047.37
452.75	1044.44
453.123	1039.92
453.497	1053.93
453.871	1048.05
454.244	1069.75
454.618	1078.11
454.992	1078.56
455.365	1113.59
455.739	1142.74
456.112	1138.22
456.486	1139.12
456.859	1159.91
457.232	1171.44
457.606	1150.42
457.979	1184.77
458.352	1219.12
458.725	1263.87
459.099	1242.62
459.472	1270.19
459.845	1277.65
460.218	1300.02
460.591	1290.98
460.964	1312.23
461.337	1334.15
461.71	1317.65
462.083	1370.3
462.456	1343.19
462.829	1374.14
463.201	1412.56
463.574	1413.69
463.947	1443.07
464.32	1468.83
464.692	1484.42
465.065	1488.72
465.438	1549.96
465.81	1525.78
466.183	1552.45
466.555	1609.62
466.928	1633.35
467.3	1621.14
467.672	1665.89
468.045	1708.6
468.417	1734.14
468.789	1712.44
469.161	1729.39
469.534	1785.43
469.906	1853
470.278	1884.87
470.65	1913.11
471.022	1922.6
471.394	1982.49
471.766	1999.89
472.138	2019.1
472.51	2086.44
472.882	2120.79
473.253	2162.6
473.625	2191.75
473.997	2255.93
474.369	2307.68
474.74	2357.4
475.112	2390.84
475.484	2423.83
475.855	2488.69
476.227	2538.41
476.598	2623.6
476.97	2698.18
477.341	2740.21
477.713	2815.01
478.084	2897.49
478.455	2966.65
478.827	3049.58
479.198	3192.63
479.569	3165.51
479.94	3299.29
480.311	3384.04
480.682	3524.37
481.053	3608.66
481.424	3654.76
481.795	3804.59
482.166	3894.08
482.537	3932.5
482.908	4100.85
483.279	4166.39
483.65	4299.49
484.021	4438.02
484.391	4515.76
484.762	4645.7
485.133	4710.55
485.503	4847.5
485.874	5047.27
486.244	5121.62
486.615	5294.72
486.985	5382.85
487.356	5561.83
487.726	5654.03
488.097	5829.62
488.467	5909.62
488.837	6094.25
489.207	6260.34
489.578	6389.83
489.948	6516.38
490.318	6658.98
490.688	6791.86
491.058	6962.25
491.428	7192.75
491.798	7289.7
492.168	7498.5
492.538	7597.48
492.908	7818.95
493.278	7943.24
493.648	8055.32
494.017	8166.28
494.387	8232.72
494.757	8461.42
495.126	8583.45
495.496	8704.8
495.866	8840.39
496.235	9013.72
496.605	9204
496.974	9317.21
497.344	9435.18
497.713	9512.24
498.082	9718.56
498.452	9819.35
498.821	9904.99
499.19	10027.93
499.559	10165.1
499.928	10222.27
500.298	10369.61
500.667	10533.68
501.036	10515.37
501.405	10753.56
501.774	10744.07
502.143	10892.99
502.512	10971.63
502.88	11171.4
503.249	11130.95
503.618	11250.95
503.987	11324.17
504.356	11502.92
504.724	11663.14
505.093	11604.16
505.462	11794.66
505.83	11820.2
506.199	11887.99
506.567	12086.41
506.936	12080.08
507.304	12244.82
507.672	12353.52
508.041	12297.93
508.409	12504.93
508.777	12588.77
509.145	12712.6
509.514	12751.02
509.882	12775.88
510.25	12851.81
510.618	12903.33
510.986	12989.21
511.354	13080.5
511.722	13057.23
512.09	13271.01
512.458	13238.92
512.826	13347.39
513.193	13418.12
513.561	13428.97
513.929	13575.41
514.297	13608.17
514.664	13712.35
515.032	13719.36
515.4	13854.72
515.767	13881.61
516.135	13872.12
516.502	13756.19
516.869	13995.73
517.237	13986.69
517.604	13948.73
517.972	14145.56
518.339	14107.14
518.706	14128.84
519.073	14180.36
519.44	14215.61
519.808	14358.21
520.175	14334.71
520.542	14406.57
520.909	14546.45
521.276	14396.18
521.643	14554.82
522.009	14639.78
522.376	14716.17
522.743	14709.61
523.11	14813.34
523.477	14817.86
523.843	14831.42
524.21	15044.97
524.577	14975.82
524.943	15075.48
525.31	15078.64
525.676	15212.65
526.043	15253.1
526.409	15180.79
526.776	15367
527.142	15308.92
527.508	15339.65
527.874	15341.24
528.241	15365.64
528.607	15366.55
528.973	15396.83
529.339	15414.23
529.705	15500.55
530.071	15571.74
530.437	15556.14
530.803	15499.87
531.169	15598.63
531.535	15501.91
531.901	15424.4
532.267	15498.97
532.632	15554.11
532.998	15559.31
533.364	15555.47
533.73	15453.55
534.095	15611.28
534.461	15517.28
534.826	15642.24
535.192	15558.63
535.557	15648.12
535.923	15623.94
536.288	15619.19
536.653	15556.82
537.019	15502.81
537.384	15418.52
537.749	15456.94
538.114	15433.66
538.479	15473.43
538.845	15384.17
539.21	15344.85
539.575	15365.42
539.94	15361.35
540.305	15408.13
540.67	15237.28
541.034	15310.05
541.399	15302.14
541.764	15297.39
542.129	15265.53
542.494	15108.92
542.858	15169.04
543.223	15077.29
543.587	15258.98
543.952	15137.4
544.316	15096.5
544.681	15070.73
545.045	15054.01
545.41	15001.13
545.774	14985.31
546.138	14922.94
546.503	14877.52
546.867	14847.01
547.231	14886.56
547.595	14835.71
547.959	14826.45
548.324	14772.44
548.688	14726.56
549.052	14798.42
549.416	14709.84
549.779	14673
550.143	14650.63
550.507	14698.54
550.871	14606.57
551.235	14568.83
551.599	14693.79
551.962	14588.03
552.326	14567.92
552.689	14637.98
553.053	14463.52
553.417	14480.01
553.78	14590.75
554.143	14407.7
554.507	14461.26
554.87	14494.03
555.234	14544.87
555.597	14413.35
555.96	14404.31
556.323	14383.52
556.686	14362.28
557.05	14420.36
557.413	14415.16
557.776	14416.06
558.139	14376.51
558.502	14317.31
558.865	14289.29
559.228	14419.9
559.59	14376.29
559.953	14345.78
560.316	14372.45
560.679	14320.24
561.041	14448.15
561.404	14439.56
561.767	14437.76
562.129	14405.21
562.492	14426.46
562.854	14458.32
563.217	14468.49
563.579	14456.51
563.941	14496.06
564.304	14553.23
564.666	14505.32
565.028	14589.62
565.39	14614.7
565.753	14633.68
566.115	14592.1
566.477	14575.61
566.839	14674.13
567.201	14669.84
567.563	14647.47
567.925	14731.31
568.287	14636.39
568.648	14647.24
569.01	14752.78
569.372	14730.63
569.734	14686.11
570.095	14797.29
570.457	14769.72
570.819	14882.49
571.18	14861.02
571.542	14851.3
571.903	14869.38
572.265	14821.93
572.626	14950.51
572.987	14932.88
573.349	14927.46
573.71	14929.27
574.071	14995.93
574.432	14898.31
574.794	15016.27
575.155	14972.66
575.516	14951.87
575.877	14992.77
576.238	14990.74
576.599	14990.96
576.96	15010.85
577.32	15015.37
577.681	15049.49
578.042	15098.98
578.403	15039.77
578.763	15107.57
579.124	15037.74
579.485	15023.96
579.845	15225.31
580.206	15078.64
580.566	15121.13
580.927	15104.86
581.287	15108.02
581.648	15046.78
582.008	15151.86
582.368	15078.64
582.728	15099.89
583.089	15114.35
583.449	15015.37
583.809	14985.31
584.169	15034.58
584.529	14986.89
584.889	15096.5
585.249	14999.1
585.609	14889.27
585.969	15027.8
586.329	14903.51
586.688	14981.02
587.048	15021.7
587.408	14966.78
587.768	14996.39
588.127	14908.25
588.487	14861.02
588.846	15024.41
589.206	14872.77
589.565	14849.04
589.925	14988.93
590.284	14872.77
590.643	14870.29
591.003	14941.02
591.362	14969.49
591.721	14785.77
592.08	14895.15
592.44	14894.92
592.799	14887.69
593.158	14819.67
593.517	14804.98
593.876	14836.62
594.235	14758.2
594.593	14801.81
594.952	14864.41
595.311	14777.41
595.67	14839.33
596.029	14893.56
596.387	14838.42
596.746	14896.73
597.104	14702.61
597.463	14727.01
597.822	14848.59
598.18	14685.66
598.538	14765.2
598.897	14777.86
599.255	14707.81
599.613	14902.6
599.972	14640.69
600.33	14751.19
600.688	14769.95
601.046	14774.7
601.404	14842.94
601.762	14790.52
602.12	14802.27
602.478	14899.89
602.836	14850.4
603.194	14800.23
603.552	14778.31
603.91	14689.5
604.268	14814.92
604.625	14776.96
604.983	14822.38
605.341	14783.96
605.698	14763.62
606.056	14777.63
606.413	14785.32
606.771	14857.63
607.128	14826.67
607.485	14724.98
607.843	14818.76
608.2	14844.3
608.557	14863.96
608.914	14884.75
609.272	14907.12
609.629	14891.98
609.986	14988.02
610.343	14834.81
610.7	15001.36
611.057	14964.3
611.414	14950.51
611.771	14947.35
612.127	14984.63
612.484	15049.94
612.841	15064.41
613.198	15019.89
613.554	14909.61
613.911	15105.54
614.267	14975.82
614.624	15051.75
614.98	15109.38
615.337	15160.45
615.693	15070.73
616.05	15044.07
616.406	15129.72
616.762	15071.64
617.118	15114.57
617.475	15103.73
617.831	15207.45
618.187	15200.45
618.543	15170.17
618.899	15321.35
619.255	15212.65
619.611	15243.61
619.967	15316.6
620.323	15264.63
620.678	15165.19
621.034	15149.83
621.39	15289.71
621.746	15115.48
622.101	15352.53
622.457	15234.12
622.812	15237.28
623.168	15249.03
623.523	15208.58
623.879	15313.67
624.234	15167
624.589	15255.59
624.945	15229.37
625.3	15337.17
625.655	15301.01
626.01	15320.22
626.365	15336.49
626.72	15282.25
627.075	15256.94
627.43	15294.23
627.785	15210.62
628.14	15284.06
628.495	15355.7
628.85	15172.43
629.205	15202.03
629.559	15258.3
629.914	15130.62
630.269	15204.97
630.623	15142.37
630.978	15072.99
631.332	15154.57
631.687	15235.25
632.041	15171.3
632.396	15068.47
632.75	15080.9
633.104	15061.02
633.459	15051.53
633.813	14935.6
634.167	14977.85
634.521	14959.78
634.875	15098.3
635.229	14947.57
635.583	14881.13
635.937	14907.12
636.291	14945.09
636.645	14885.2
636.999	14932.21
637.352	14897.4
637.706	14793
638.06	14928.14
638.413	14786.67
638.767	14758.65
639.121	14858.08
639.474	14727.01
639.828	14727.47
640.181	14600.92
640.534	14780.8
640.888	14767.92
641.241	14694.92
641.594	14722.95
641.947	14726.79
642.301	14595.27
642.654	14646.79
643.007	14814.92
643.36	14624.19
643.713	14603.85
644.066	14722.49
644.419	14565.44
644.771	14503.74
645.124	14449.06
645.477	14354.37
645.83	14304.65
646.182	14257.2
646.535	14163.19
646.888	14206.12
647.24	14151.44
647.593	14266.24
647.945	14094.04
648.298	14154.15
648.65	14060.82
649.002	14047.94
649.355	14092.68
649.707	14095.84
650.059	14252
650.411	14372.22
650.763	14325.44
651.115	14543.29
651.467	14452.44
651.819	14452.67
652.171	14508.94
652.523	14370.41
652.875	14414.93
653.227	14409.06
653.578	14520.92
653.93	14467.59
654.282	14413.12
654.633	14362.05
654.985	14452.9
655.337	14474.59
655.688	14405.44
656.039	14447.93
656.391	14444.54
656.742	14352.11
657.094	14436.17
657.445	14559.79
657.796	14419.23
658.147	14370.41
658.498	14439.34
658.849	14465.78
659.2	14512.78
659.551	14458.55
659.902	14418.1
660.253	14422.84
660.604	14528.15
660.955	14371.09
661.306	14451.99
661.656	14428.26
662.007	14375.16
662.358	14438.66
662.708	14491.99
663.059	14472.78
663.409	14389.62
663.76	14513.46
664.11	14529.96
664.461	14442.05
664.811	14494.03
665.161	14511.65
665.511	14538.54
665.862	14524.99
666.212	14462.16
666.562	14521.6
666.912	14431.2
667.262	14543.06
667.612	14489.28
667.962	14529.73
668.312	14421.26
668.662	14433.91
669.011	14472.56
669.361	14488.15
669.711	14351.2
670.06	14490.64
670.41	14519.79
670.76	14401.82
671.109	14522.27
671.459	14431.88
671.808	14445.89
672.157	14488.15
672.507	14333.58
672.856	14334.26
673.205	14351.43
673.554	14376.74
673.904	14315.27
674.253	14368.15
674.602	14320.24
674.951	14089.97
675.3	14183.3
675.649	14215.16
675.998	14243.86
676.346	14272.79
676.695	14297.65
677.044	14217.87
677.393	14298.78
677.741	14279.34
678.09	14256.74
678.438	14187.14
678.787	14209.29
679.135	14279.12
679.484	14110.98
679.832	14090.65
680.181	13941.5
680.529	14037.54
680.877	14035.96
681.225	13947.83
681.573	14081.83
681.922	13953.93
682.27	13967.49
682.618	13866.92
682.966	13814.27
683.314	13959.58
683.661	13799.58
684.009	13771.78
684.357	13782.86
684.705	13723.65
685.053	13758.45
685.4	13673.03
685.748	13652.92
686.095	13691.33
686.443	13603.2
686.79	13617.44
687.138	13701.5
687.485	13705.57
687.832	13521.4
688.18	13533.82
688.527	13493.83
688.874	13468.52
689.221	13338.8
689.568	13358.01
689.915	13339.93
690.262	13311.46
690.609	13258.8
690.956	13169.54
691.303	13140.84
691.65	13127.73
691.997	13079.83
692.344	12912.15
692.69	12970.68
693.037	12984.91
693.383	12911.02
693.73	12928.64
694.077	12846.39
694.423	12814.3
694.769	12725.71
695.116	12739.27
695.462	12700.4
695.808	12641.87
696.155	12713.51
696.501	12606.17
696.847	12475.77
697.193	12451.82
697.539	12508.32
697.885	12331.6
698.231	12333.4
698.577	12310.58
698.923	12370.47
699.269	12251.82
699.614	12193.75
699.96	12166.86
700.306	12113.75
700.651	12045.28
700.997	11961.89
701.342	11911.04
701.688	11956.47
702.033	11877.15
702.379	11936.35
702.724	11887.99
703.069	11771.84
703.415	11693.87
703.76	11633.54
704.105	11659.52
704.45	11698.84
704.795	11635.8
705.14	11490.49
705.485	11465.4
705.83	11453.65
706.175	11479.64
706.52	11431.51
706.865	11377.05
707.209	11355.8
707.554	11315.58
707.899	11355.8
708.243	11217.5
708.588	11229.7
708.932	11134.34
709.277	11145.64
709.621	11139.31
709.966	11035.59
710.31	11043.95
710.654	11054.12
710.998	10986.55
711.342	10983.61
711.687	10904.74
712.031	10928.02
712.375	10856.61
712.719	10946.55
713.063	10883.95
713.407	10885.08
713.75	10719.21
714.094	10851.64
714.438	10737.97
714.782	10706.1
715.125	10648.48
715.469	10741.81
715.812	10621.59
716.156	10594.02
716.499	10640.12
716.843	10654.13
717.186	10547.46
717.53	10672.43
717.873	10562.83
718.216	10542.27
718.559	10551.3
718.902	10454.13
719.246	10481.7
719.589	10487.13
719.932	10440.8
720.275	10401.7
720.617	10326.23
720.96	10364.42
721.303	10370.29
721.646	10404.87
721.989	10296.85
722.331	10325.1
722.674	10327.58
723.016	10345.21
723.359	10251.43
723.701	10303.18
724.044	10328.26
724.386	10246.91
724.729	10272.22
725.071	10223.18
725.413	10135.72
725.755	10278.77
726.097	10224.76
726.439	10208.26
726.782	10214.82
727.124	10254.59
727.465	10203.29
727.807	10137.53
728.149	10194.03
728.491	10176.4
728.833	10130.52
729.175	10060.24
729.516	10150.41
729.858	10136.63
730.199	10078.32
730.541	10115.84
730.882	10039.45
731.224	10077.87
731.565	10125.55
731.906	10082.39
732.248	10171.2
732.589	10102.05
732.93	10090.98
733.271	10091.66
733.612	10064.09
733.953	10041.94
734.294	10112.45
734.635	10098.66
734.976	10090.98
735.317	10002.84
735.658	10115.38
735.999	10040.58
736.339	10072.67
736.68	10109.96
737.021	10141.82
737.361	10089.85
737.702	10067.93
738.042	10051.43
738.383	10142.05
738.723	10115.84
739.063	10132.33
739.404	10176.4
739.744	10145.89
740.084	10172.78
740.424	10238.32
740.764	10109.96
741.104	10304.31
741.444	10269.73
741.784	10152.44
742.124	10211.88
742.464	10257.53
742.804	10294.14
743.143	10248.26
743.483	10300.01
743.823	10291.88
744.162	10383.4
744.502	10366.68
744.841	10385.66
745.181	10428.6
745.52	10463.4
745.86	10460.46
746.199	10515.83
746.538	10563.73
746.877	10654.58
747.216	10726.22
747.556	10746.55
747.895	10801.92
748.234	10756.5
748.573	10883.27
748.911	10934.57
749.25	10904.97
749.589	11005.98
749.928	11141.8
750.267	11218.86
750.605	11250.04
750.944	11266.09
751.283	11367.33
751.621	11524.16
751.96	11573.65
752.298	11686.64
752.636	11718.96
752.975	11808.9
753.313	11923.02
753.651	12035.33
753.989	12200.75
754.327	12251.6
754.666	12323.91
755.004	12574.3
755.342	12612.95
755.679	12769.33
756.017	12868.98
756.355	13077.79
756.693	13174.51
757.031	13423.09
757.368	13409.53
757.706	13607.95
758.044	13741.05
758.381	13881.16
758.719	14040.93
759.056	14168.84
759.394	14348.72
759.731	14495.16
760.068	14695.6
760.405	14816.5
760.743	14897.18
761.08	15132.65
761.417	15277.73
761.754	15433.21
762.091	15505.75
762.428	15784.61
762.765	15818.06
763.102	16131.27
763.438	16133.76
763.775	16364.94
764.112	16579.17
764.449	16795.89
764.785	16866.39
765.122	16881.31
765.458	17063.22
765.795	17160.85
766.131	17420.5
766.467	17471.8
766.804	17599.71
767.14	17768.06
767.476	17837.89
767.812	17947.95
768.148	18086.93
768.485	18212.8
768.821	18313.36
769.157	18295.96
769.492	18537.54
769.828	18588.61
770.164	18702.05
770.5	18746.57
770.836	18876.51
771.171	18926.9
771.507	19008.26
771.842	19113.11
772.178	19129.61
772.513	19198.31
772.849	19331.19
773.184	19333.45
773.519	19455.25
773.855	19533.89
774.19	19547.9
774.525	19619.31
774.86	19789.25
775.195	19745.64
775.53	19694.57
775.865	19811.17
776.2	19643.49
776.535	19608.24
776.87	19718.07
777.205	19763.94
777.539	19753.32
777.874	19860.44
778.209	19744.96
778.543	19872.19
778.878	19773.89
779.212	19848.69
779.547	19832.42
779.881	19989.7
780.215	19815.24
780.55	19931.62
780.884	19818.86
781.218	19778.18
781.552	19844.17
781.886	19924.84
782.22	19767.56
782.554	19871.74
782.888	19714
783.222	19742.48
783.556	19725.07
783.889	19669.93
784.223	19625.19
784.557	19598.75
784.89	19609.82
785.224	19662.25
785.557	19506.78
785.891	19492.76
786.224	19525.98
786.558	19464.06
786.891	19351.3
787.224	19402.15
787.557	19309.72
787.891	19271.08
788.224	19412.31
788.557	19432.2
788.89	19315.37
789.223	19300
789.556	19299.1
789.888	19255.03
790.221	19219.55
790.554	19022.95
790.887	19071.76
791.219	19066.33
791.552	19061.82
791.884	19008.03
792.217	18953.12
792.549	18863.18
792.882	18788.38
793.214	18774.14
793.546	18785.66
793.879	18694.37
794.211	18585.22
794.543	18579.34
794.875	18697.53
795.207	18618.89
795.539	18523.52
795.871	18498.44
796.203	18436.97
796.535	18346.81
796.867	18313.81
797.198	18347.71
797.53	18306.35
797.862	18130.09
798.193	18268.16
798.525	18003.54
798.856	18034.27
799.188	17984.1
799.519	17920.6
799.85	17832.92
800.182	17839.02
800.513	17879.25
800.844	17681.06
801.175	17806.93
801.506	17764
801.837	17692.81
802.168	17614.4
802.499	17535.98
802.83	17432.48
803.161	17400.39
803.491	17497.56
803.822	17434.97
804.153	17429.77
804.483	17261.64
804.814	17251.24
805.145	17248.53
805.475	17191.81
805.805	17089.66
806.136	17181.41
806.466	17088.53
806.796	17096.67
807.126	16999.5
807.457	16895.77
807.787	16904.13
808.117	16904.81
808.447	16739.84
808.777	16856.45
809.107	16708.2
809.436	16712.72
809.766	16698.94
810.096	16617.81
810.426	16639.73
810.755	16575.78
811.085	16522.67
811.414	16455.56
811.744	16405.84
812.073	16369.91
812.403	16319.51
812.732	16343.24
813.061	16262.34
813.39	16249.69
813.719	16159.29
814.049	16307.99
814.378	16235.67
814.707	16163.36
815.036	16134.66
815.365	16082.91
815.693	16000.88
816.022	15931.5
816.351	15897.38
816.68	15798.85
817.008	15921.56
817.337	15780.32
817.665	15723.15
817.994	15800.43
818.322	15775.57
818.651	15707.33
818.979	15624.84
819.307	15697.16
819.636	15654.22
819.964	15577.61
820.292	15646.99
820.62	15642.24
820.948	15602.25
821.276	15697.16
821.604	15577.84
821.932	15608.57
822.259	15542.81
822.587	15579.19
822.915	15485.41
823.243	15521.57
823.57	15544.17
823.898	15567.44
824.225	15511.85
824.553	15465.3
824.88	15527.44
825.207	15586.88
825.535	15511.63
825.862	15558.4
826.189	15498.52
826.516	15488.58
826.843	15624.62
827.17	15543.72
827.497	15540.78
827.824	15647.22
828.151	15519.76
828.478	15568.35
828.805	15602.47
829.131	15510.5
829.458	15484.06
829.785	15439.54
830.111	15465.98
830.438	15497.39
830.764	15535.58
831.09	15625.07
831.417	15385.08
831.743	15640.44
832.069	15465.53
832.395	15384.85
832.722	15429.37
833.048	15354.34
833.374	15412.65
833.7	15336.94
834.026	15356.6
834.351	15409.71
834.677	15311.41
835.003	15385.3
835.329	15391.18
835.654	15321.12
835.98	15284.97
836.306	15262.59
836.631	15258.98
836.956	15205.65
837.282	15280.67
837.607	15261.24
837.932	15169.49
838.258	15223.05
838.583	15164.97
838.908	15082.94
839.233	15203.16
839.558	15044.29
839.883	14959.55
840.208	15064.86
840.533	15041.58
840.858	14981.92
841.182	14976.27
841.507	14826.9
841.832	14840.46
842.156	14849.04
842.481	14854.24
842.805	14868.48
843.13	14788.26
843.454	14749.16
843.778	14666.9
844.103	14670.97
844.427	14587.58
844.751	14612.44
845.075	14547.36
845.399	14461.26
845.723	14460.13
846.047	14384.88
846.371	14386.91
846.695	14317.76
847.019	14230.08
847.343	14152.34
847.666	14106.24
847.99	14048.16
848.313	14025.79
848.637	13982.4
848.96	13995.96
849.284	13840.71
849.607	13852.46
849.931	13771.33
850.254	13704.67
850.577	13675.29
850.9	13535.86
851.223	13557.78
851.546	13424
851.869	13380.61
852.192	13447.5
852.515	13237.79
852.838	13227.62
853.161	13287.05
853.483	13194.85
853.806	13181.07
854.129	13113.95
854.451	13155.3
854.774	12991.24
855.096	12880.73
855.419	12841.19
855.741	12861.98
856.063	12729.78
856.385	12760.06
856.708	12759.61
857.03	12748.99
857.352	12758.93
857.674	12596.22
857.996	12542.44
858.318	12560.07
858.64	12579.05
858.961	12579.73
859.283	12391.03
859.605	12352.16
859.926	12418.37
860.248	12358.94
860.57	12348.09
860.891	12366.17
861.212	12269.9
861.534	12235.78
861.855	12201.2
862.176	12240.98
862.498	12162.79
862.819	12160.08
863.14	12098.16
863.461	12046.41
863.782	12100.64
864.103	12086.63
864.424	11996.24
864.745	12017.93
865.065	11876.24
865.386	11973.41
865.707	11896.13
866.027	11884.6
866.348	11813.42
866.668	11839.63
866.989	11791.72
867.309	11804.38
867.63	11876.69
867.95	11764.38
868.27	11758.73
868.59	11739.52
868.91	11666.53
869.23	11727.54
869.55	11731.39
869.87	11765.51
870.19	11677.83
870.51	11627.89
870.83	11681.22
871.15	11670.37
871.469	11616.36
871.789	11593.76
872.109	11530.26
872.428	11544.72
872.748	11552.41
873.067	11541.56
873.386	11541.79
873.706	11523.26
874.025	11383.37
874.344	11370.04
874.663	11380.89
874.982	11323.71
875.301	11422.92
875.62	11363.03
875.939	11323.26
876.258	11278.74
876.577	11295.01
876.896	11321.23
877.214	11240.33
877.533	11205.98
877.852	11150.16
878.17	11181.8
878.489	11167.33
878.807	11212.53
879.125	11159.42
879.444	11066.09
879.762	11059.31
880.08	11089.37
880.398	11004.63
880.716	10982.48
881.034	11050.05
881.352	11030.16
881.67	10938.41
881.988	10907.23
882.306	10908.13
882.624	10859.09
882.941	10830.85
883.259	10816.83
883.577	10777.74
883.894	10764.63
884.212	10775.71
884.529	10751.75
884.846	10727.57
885.164	10653
885.481	10620.91
885.798	10625.2
886.115	10612.32
886.432	10539.78
886.75	10531.64
887.067	10542.94
887.383	10436.73
887.7	10480.12
888.017	10504.53
888.334	10485.77
888.651	10366.9
888.967	10384.3
889.284	10303.85
889.6	10300.01
889.917	10207.13
890.233	10288.94
890.55	10194.48
890.866	10233.12
891.182	10256.85
891.498	10188.83
891.815	10182.73
892.131	10061.83
892.447	10055.95
892.763	10024.76
893.079	9948.61
893.395	9889.18
893.71	9922.39
894.026	9965.11
894.342	9905.67
894.657	9803.08
894.973	9756.07
895.289	9822.74
895.604	9771.21
895.92	9712.68
896.235	9665.45
896.55	9697.32
896.865	9598.34
897.181	9637.2
897.496	9610.76
897.811	9500.03
898.126	9508.85
898.441	9528.05
898.756	9438.57
899.071	9349.53
899.386	9333.03
899.7	9260.49
900.015	9209.42
900.33	9250.77
900.644	9226.59
900.959	9172.36
901.273	9148.4
901.588	9074.51
901.902	9056.2
902.216	9026.37
902.531	8986.6
902.845	8952.02
903.159	8854.85
903.473	8844.23
903.787	8886.04
904.101	8813.05
904.415	8815.3
904.729	8728.98
905.042	8722.88
905.356	8655.99
905.67	8605.82
905.984	8680.62
906.297	8628.19
906.611	8543
906.924	8507.29
907.237	8564.24
907.551	8487.86
907.864	8444.02
908.177	8407.18
908.491	8359.27
908.804	8286.73
909.117	8247.41
909.43	8249.44
909.743	8196.56
910.056	8196.11
910.368	8147.07
910.681	8148.43
910.994	8106.62
911.307	8021.88
911.619	8009.45
911.932	8028.88
912.244	7975.1
912.557	7973.75
912.869	7921.77
913.181	7929.9
913.494	7889.91
913.806	7804.26
914.118	7756.8
914.43	7699.18
914.742	7794.54
915.054	7708.44
915.366	7598.61
915.678	7570.37
915.99	7596.35
916.302	7541.44
916.613	7538.95
916.925	7494.21
917.236	7504.6
917.548	7416.47
917.859	7456.02
918.171	7338.51
918.482	7325.63
918.794	7304.16
919.105	7294.44
919.416	7196.59
919.727	7186.65
920.038	7244.5
920.349	7150.26
920.66	7131.96
920.971	7133.77
921.282	7093.99
921.593	6996.6
921.903	6985.07
922.214	7025.97
922.525	6945.3
922.835	6962.92
923.146	6858.75
923.456	6880.89
923.767	6780.33
924.077	6836.6
924.387	6762.7
924.697	6687
925.008	6638.64
925.318	6679.99
925.628	6661.92
925.938	6681.58
926.248	6592.99
926.558	6561.58
926.867	6579.43
927.177	6531.07
927.487	6546.21
927.796	6432.32
928.106	6481.36
928.416	6419.44
928.725	6405.65
929.034	6406.33
929.344	6371.98
929.653	6358.19
929.962	6311.64
930.271	6293.34
930.581	6219.89
930.89	6237.07
931.199	6142.38
931.508	6154.13
931.817	6118.2
932.125	6131.31
932.434	6056.96
932.743	6097.86
933.051	6056.06
933.36	6054.02
933.669	5988.03
933.977	5901.26
934.286	5862.39
934.594	5908.71
934.902	5865.55
935.21	5862.61
935.519	5837.08
935.827	5847.02
936.135	5818.1
936.443	5788.27
936.751	5716.63
937.059	5696.52
937.367	5668.04
937.674	5692
937.982	5650.87
938.29	5618.55
938.597	5606.58
938.905	5563.41
939.213	5531.55
939.52	5485.9
939.827	5520.02
940.135	5522.28
940.442	5449.74
940.749	5435.05
941.056	5452.91
941.363	5388.95
941.67	5377.43
941.977	5290.88
942.284	5286.81
942.591	5301.5
942.898	5274.16
943.205	5263.53
943.511	5238.9
943.818	5181.73
944.125	5152.35
944.431	5154.38
944.738	5182.18
945.044	5119.58
945.35	5090.43
945.657	5057.21
945.963	5056.31
946.269	5037.55
946.575	4994.16
946.881	5016.53
947.187	4949.42
947.493	4941.28
947.799	4894.96
948.105	4898.57
948.41	4855.18
948.716	4810.89
949.022	4813.38
949.327	4850.89
949.633	4767.73
949.938	4816.31
950.244	4794.17
950.549	4689.76
950.854	4694.51
951.16	4677.33
951.465	4673.27
951.77	4602.53
952.075	4654.96
952.38	4647.73
952.685	4609.09
952.99	4569.77
953.294	4534.29
953.599	4534.97
953.904	4506.04
954.209	4425.59
954.513	4493.84
954.818	4427.62
955.122	4445.7
955.426	4407.96
955.731	4393.73
956.035	4367.06
956.339	4346.72
956.643	4399.6
956.948	4339.49
957.252	4278.48
957.556	4256.33
957.86	4247.74
958.163	4264.92
958.467	4249.55
958.771	4206.16
959.075	4228.31
959.378	4108.99
959.682	4181.3
959.985	4148.53
960.289	4122.32
960.592	4079.38
960.896	4081.42
961.199	4077.12
961.502	4041.65
961.805	4015.88
962.108	4050.46
962.411	3997.58
962.714	3947.41
963.017	3994.64
963.32	3931.59
963.623	3938.37
963.926	3890.46
964.228	3861.54
964.531	3880.97
964.833	3901.31
965.136	3828.09
965.438	3789.67
965.741	3788.77
966.043	3826.74
966.345	3741.31
966.648	3740.18
966.95	3751.03
967.252	3687.76
967.554	3699.51
967.856	3658.6
968.158	3643.01
968.46	3656.34
968.761	3657.25
969.063	3595.56
969.365	3622.22
969.666	3578.83
969.968	3565.5
970.269	3557.82
970.571	3552.62
970.872	3504.03
971.174	3516.24
971.475	3521.66
971.776	3518.95
972.077	3449.34
972.378	3456.12
972.679	3437.59
972.98	3454.77
973.281	3376.35
973.582	3407.54
973.883	3380.87
974.183	3352.62
974.484	3349.23
974.785	3351.72
975.085	3360.08
975.386	3350.82
975.686	3345.84
975.986	3265.17
976.287	3301.78
976.587	3207.32
976.887	3208.67
977.187	3223.36
977.487	3197.6
977.787	3213.42
978.087	3206.86
978.387	3166.41
978.687	3179.52
978.987	3149.24
979.286	3111.27
979.586	3107.21
979.885	3123.25
980.185	3060.88
980.484	3074.89
980.784	3051.39
981.083	3050.26
981.382	3019.75
981.682	3057.26
981.981	3009.36
982.28	2998.73
982.579	2967.1
982.878	2952.86
983.177	2976.81
983.475	2916.48
983.774	2921.67
984.073	2885.97
984.372	2874.67
984.67	2896.82
984.969	2921.9
985.267	2862.69
985.566	2801.9
985.864	2834.22
986.162	2820.21
986.461	2772.98
986.759	2777.5
987.057	2769.81
987.355	2779.08
987.653	2772.53
987.951	2748.8
988.249	2735.69
988.547	2687.56
988.844	2698.86
989.142	2696.14
989.44	2707.67
989.737	2647.33
990.035	2674.22
990.332	2659.76
990.63	2615.92
990.927	2606.65
991.224	2601.91
991.521	2607.11
991.819	2575.47
992.116	2593.77
992.413	2560.78
992.71	2553.1
993.006	2486.66
993.303	2529.37
993.6	2495.02
993.897	2485.08
994.193	2450.95
994.49	2480.1
994.787	2470.84
995.083	2418.41
995.379	2425.42
995.676	2402.37
995.972	2401.46
996.268	2407.56
996.565	2411.86
996.861	2412.99
997.157	2344.51
997.453	2354.01
997.749	2353.33
998.044	2329.6
998.34	2332.54
998.636	2317.17
998.932	2293.44
999.227	2261.35
999.523	2280.11
999.818	2267.68
1000.114	2230.62
1000.409	2251.41
1000.704	2222.03
1001	2195.59
1001.295	2194.91
1001.59	2188.81
1001.885	2182.94
1002.18	2149.72
1002.475	2140.23
1002.77	2132.09
1003.065	2098.42
1003.359	2127.57
1003.654	2084.18
1003.949	2089.83
1004.243	2080.34
1004.538	2066.78
1004.832	2054.35
1005.127	2065.43
1005.421	2044.18
1005.715	2012.77
1006.009	2030.17
1006.304	2002.6
1006.598	2000.34
1006.892	1977.52
1007.186	1979.55
1007.48	1972.55
1007.773	1946.56
1008.067	1951.3
1008.361	1877.86
1008.655	1906.33
1008.948	1901.14
1009.242	1869.05
1009.535	1900.68
1009.829	1874.24
1010.122	1851.65
1010.415	1805.55
1010.708	1848.26
1011.001	1822.49
1011.295	1830.63
1011.588	1805.55
1011.881	1783.4
1012.173	1810.97
1012.466	1779.78
1012.759	1740.46
1013.052	1779.11
1013.344	1737.98
1013.637	1717.41
1013.93	1695.49
1014.222	1720.8
1014.514	1673.35
1014.807	1667.02
1015.099	1667.24
1015.391	1674.02
1015.683	1670.18
1015.976	1650.3
1016.268	1657.53
1016.56	1640.35
1016.851	1574.82
1017.143	1613.23
1017.435	1601.48
1017.727	1577.08
1018.018	1574.82
1018.31	1565.33
1018.602	1580.69
1018.893	1542.95
1019.185	1532.56
1019.476	1531.88
1019.767	1531.43
1020.058	1510.86
1020.35	1502.28
1020.641	1498.66
1020.932	1482.62
1021.223	1480.13
1021.514	1451.88
1021.804	1437.87
1022.095	1478.32
1022.386	1418.44
1022.677	1419.79
1022.967	1423.63
1023.258	1394.71
1023.548	1374.37
1023.839	1370.3
1024.129	1402.84
1024.419	1372.11
1024.709	1352.68
1025	1336.41
1025.29	1342.96
1025.58	1328.04
1025.87	1324.2
1026.16	1329.4
1026.449	1315.16
1026.739	1286.92
1027.029	1302.28
1027.319	1254.83
1027.608	1276.29
1027.898	1282.85
1028.187	1280.81
1028.477	1235.62
1028.766	1241.49
1029.055	1250.53
1029.344	1224.77
1029.634	1213.24
1029.923	1228.16
1030.212	1188.16
1030.501	1206.69
1030.79	1172.34
1031.078	1178.67
1031.367	1154.26
1031.656	1134.6
1031.945	1161.27
1032.233	1152
1032.522	1129.86
1032.81	1105.68
1033.099	1124.21
1033.387	1133.47
1033.675	1090.76
1033.963	1125.11
1034.251	1125.34
1034.54	1097.54
1034.828	1084.21
1035.116	1055.96
1035.403	1063.87
1035.691	1057.99
1035.979	1055.51
1036.267	1037.88
1036.554	1022.29
1036.842	1034.27
1037.129	1031.1
1037.417	1036.75
1037.704	1029.07
1037.992	996.3
1038.279	990.43
1038.566	978.9
1038.853	978.9
1039.14	978.9
