Data from hue_280_FLMS001491_00027.txt Node
Date: Tue Feb 07 15:55:03 GMT 2017
User: dcchb
Spectrometer: FLMS00149
Trigger mode: 0
Integration Time (sec): 2.000000E-2
Scans to average: 10
Electric dark correction enabled: true
Nonlinearity correction enabled: false
Boxcar width: 0
XAxis mode: Wavelengths
Number of Pixels in Spectrum: 2048
>>>>>Begin Spectral Data<<<<<
341.393	-21.54
341.776	-21.54
342.16	-21.54
342.543	-61.54
342.927	-61.54
343.31	-76.45
343.693	-79.62
344.077	-69.45
344.46	-33.97
344.843	-66.51
345.226	-52.5
345.61	-35.78
345.993	-14.76
346.376	8.06
346.759	20.04
347.142	32.7
347.525	44.22
347.908	58.46
348.291	81.28
348.674	90.1
349.057	94.16
349.44	126.71
349.823	119.02
350.206	162.64
350.588	160.6
350.971	195.63
351.354	215.97
351.737	234.27
352.119	258.23
352.502	266.14
352.884	263.65
353.267	274.5
353.65	276.08
354.032	287.61
354.414	302.29
354.797	311.11
355.179	314.95
355.562	310.2
355.944	316.08
356.326	324.21
356.709	308.17
357.091	313.14
357.473	314.72
357.855	327.15
358.238	321.95
358.62	309.53
359.002	321.95
359.384	334.38
359.766	336.42
360.148	320.6
360.53	324.89
360.912	327.83
361.294	328.28
361.676	319.24
362.057	324.21
362.439	298
362.821	308.17
363.203	314.5
363.584	318.57
363.966	316.76
364.348	308.4
364.729	300.49
365.111	302.75
365.493	293.26
365.874	301.16
366.256	307.94
366.637	306.36
367.019	292.35
367.4	310.88
367.781	319.02
368.163	292.8
368.544	290.77
368.925	298.45
369.306	306.59
369.688	313.37
370.069	319.02
370.45	315.18
370.831	305.23
371.212	318.11
371.593	297.32
371.974	309.07
372.355	295.74
372.736	324.44
373.117	305.68
373.498	307.04
373.879	295.97
374.26	294.61
374.641	315.4
375.021	316.98
375.402	316.76
375.783	324.44
376.163	312.46
376.544	326.47
376.925	314.95
377.305	322.63
377.686	322.18
378.066	311.11
378.447	319.92
378.827	319.69
379.208	334.61
379.588	312.46
379.968	302.29
380.349	301.39
380.729	333.93
381.109	344.55
381.489	322.18
381.87	343.2
382.25	342.75
382.63	346.13
383.01	333.93
383.39	351.11
383.77	342.75
384.15	328.28
384.53	331.45
384.91	349.75
385.29	331.9
385.67	352.46
386.049	335.74
386.429	352.01
386.809	339.58
387.189	353.37
387.568	357.21
387.948	357.43
388.328	359.24
388.707	359.69
389.087	361.05
389.466	342.97
389.846	332.8
390.225	358.34
390.605	368.06
390.984	368.51
391.363	361.95
391.743	357.89
392.122	361.5
392.501	377.77
392.881	376.42
393.26	356.53
393.639	384.33
394.018	385
394.397	380.71
394.776	380.03
395.155	393.59
395.534	381.16
395.913	385
396.292	376.42
396.671	391.56
397.05	365.12
397.429	380.26
397.808	391.56
398.186	399.92
398.565	404.21
398.944	408.96
399.323	412.8
399.701	391.56
400.08	405.34
400.458	403.99
400.837	394.27
401.215	410.54
401.594	413.25
401.972	434.27
402.351	423.2
402.729	439.69
403.107	430.65
403.486	422.74
403.864	434.49
404.242	430.88
404.62	443.53
404.999	446.25
405.377	436.3
405.755	455.06
406.133	455.28
406.511	459.35
406.889	453.48
407.267	483.98
407.645	488.05
408.023	473.82
408.401	476.98
408.779	484.44
409.156	468.84
409.534	485.34
409.912	490.76
410.29	508.84
410.667	504.55
411.045	507.03
411.422	513.59
411.8	533.02
412.178	531.89
412.555	536.41
412.933	521.72
413.31	551.55
413.687	564.66
414.065	581.16
414.442	591.78
414.819	583.19
415.197	591.55
415.574	589.74
415.951	610.53
416.328	599.46
416.705	634.04
417.082	626.13
417.46	627.94
417.837	638.1
418.214	629.29
418.591	659.35
418.967	664.32
419.344	624.32
419.721	652.57
420.098	686.24
420.475	689.4
420.852	692.34
421.228	700.25
421.605	706.35
421.982	714.49
422.358	704.54
422.735	740.93
423.111	736.41
423.488	750.42
423.864	738.89
424.241	770.98
424.617	780.93
424.994	782.51
425.37	810.3
425.746	799.68
426.123	801.94
426.499	816.86
426.875	859.57
427.251	849.4
427.627	828.16
428.003	886.91
428.379	882.17
428.756	871.09
429.132	888.72
429.507	885.1
429.883	926.46
430.259	935.27
430.635	944.09
431.011	948.61
431.387	968.94
431.763	990.64
432.138	996.51
432.514	996.06
432.89	1000.13
433.265	1032.67
433.641	1026.57
434.016	1056.62
434.392	1045.55
434.767	1101.82
435.143	1084.19
435.518	1089.84
435.894	1140.92
436.269	1133.46
436.644	1143.4
437.02	1168.03
437.395	1170.29
437.77	1169.16
438.145	1193.57
438.52	1210.07
438.895	1226.56
439.271	1243.96
439.646	1272.66
440.021	1265.66
440.395	1312.21
440.77	1285.55
441.145	1277.41
441.52	1308.14
441.895	1312.44
442.27	1329.84
442.645	1312.89
443.019	1362.15
443.394	1365.54
443.769	1365.09
444.143	1386.56
444.518	1405.32
444.892	1380.23
445.267	1387.69
445.641	1435.37
446.016	1424.75
446.39	1435.37
446.764	1414.81
447.139	1406.67
447.513	1462.49
447.887	1451.19
448.262	1460.23
448.636	1444.64
449.01	1471.08
449.384	1509.27
449.758	1486.22
450.132	1532.09
450.506	1506.1
450.88	1485.99
451.254	1525.54
451.628	1550.4
452.002	1554.69
452.376	1584.75
452.75	1571.19
453.123	1593.11
453.497	1624.75
453.871	1608.02
454.244	1625.2
454.618	1645.08
454.992	1667.23
455.365	1667
455.739	1692.31
456.112	1701.13
456.486	1743.61
456.859	1716.49
457.232	1750.17
457.606	1757.17
457.979	1744.29
458.352	1785.87
458.725	1810.28
459.099	1816.83
459.472	1815.02
459.845	1868.58
460.218	1897.96
460.591	1867.68
460.964	1869.94
461.337	1928.24
461.71	1963.72
462.083	1973.21
462.456	1966.21
462.829	1961.23
463.201	2001.01
463.574	1995.81
463.947	2029.71
464.32	2077.39
464.692	2092.53
465.065	2079.87
465.438	2116.48
465.81	2149.25
466.183	2131.4
466.555	2160.55
466.928	2171.62
467.3	2177.95
467.672	2240.77
468.045	2251.85
468.417	2274.22
468.789	2275.12
469.161	2313.77
469.534	2330.04
469.906	2384.95
470.278	2388.57
470.65	2434.89
471.022	2414.78
471.394	2432.41
471.766	2493.88
472.138	2480.77
472.51	2549.24
472.882	2590.37
473.253	2589.47
473.625	2639.41
473.997	2684.15
474.369	2694.32
474.74	2702.68
475.112	2749.24
475.484	2772.06
475.855	2790.82
476.227	2857.26
476.598	2873.3
476.97	2914.43
477.341	2977.25
477.713	2967.08
478.084	3006.63
478.455	3087.31
478.827	3088.44
479.198	3116.01
479.569	3140.41
479.94	3207.53
480.311	3230.8
480.682	3277.58
481.053	3372.04
481.424	3372.95
481.795	3428.54
482.166	3432.61
482.537	3478.03
482.908	3573.85
483.279	3588.76
483.65	3626.27
484.021	3645.26
484.391	3686.39
484.762	3718.48
485.133	3779.27
485.503	3773.39
485.874	3847.06
486.244	3830.11
486.615	3903.1
486.985	3917.11
487.356	4020.39
487.726	4023.33
488.097	4140.39
488.467	4071.91
488.837	4185.58
489.207	4218.35
489.578	4242.53
489.948	4242.76
490.318	4311.91
490.688	4356.88
491.058	4405.24
491.428	4456.76
491.798	4439.36
492.168	4511.22
492.538	4546.02
492.908	4590.77
493.278	4617.66
493.648	4604.55
494.017	4664.67
494.387	4720.71
494.757	4754.83
495.126	4796.87
495.496	4771.56
495.866	4808.62
496.235	4823.98
496.605	4862.85
496.974	4874.6
497.344	4920.03
497.713	4935.39
498.082	4972
498.452	5039.57
498.821	5068.5
499.19	5041.6
499.559	5091.77
499.928	5132.45
500.298	5079.12
500.667	5179.45
501.036	5139
501.405	5210.64
501.774	5207.48
502.143	5230.98
502.512	5236.63
502.88	5243.18
503.249	5249.06
503.618	5289.73
503.987	5317.53
504.356	5332.44
504.724	5411.54
505.093	5377.19
505.462	5387.81
505.83	5388.71
506.199	5493.57
506.567	5462.38
506.936	5463.74
507.304	5518.65
507.672	5500.35
508.041	5568.6
508.409	5599.56
508.777	5600.91
509.145	5665.32
509.514	5601.36
509.882	5647.46
510.25	5698.31
510.618	5712.32
510.986	5714.81
511.354	5698.54
511.722	5771.53
512.09	5787.8
512.458	5809.49
512.826	5820.34
513.193	5872.09
513.561	5850.17
513.929	5824.86
514.297	5919.32
514.664	5873
515.032	5937.63
515.4	5897.63
515.767	5969.72
516.135	5992.77
516.502	5941.69
516.869	5983.95
517.237	5997.74
517.604	6023.05
517.972	6094.46
518.339	6064.18
518.706	6055.82
519.073	6143.72
519.44	6113.67
519.808	6150.95
520.175	6121.8
520.542	6214.91
520.909	6218.3
521.276	6227.56
521.643	6267.11
522.009	6227.79
522.376	6257.84
522.743	6290.84
523.11	6359.08
523.477	6336.26
523.843	6366.99
524.21	6427.56
524.577	6465.3
524.943	6461.68
525.31	6451.51
525.676	6546.42
526.043	6571.96
526.409	6553.2
526.776	6582.36
527.142	6685.63
527.508	6646.53
527.874	6720.2
528.241	6772.18
528.607	6740.32
528.973	6804.04
529.339	6736.7
529.705	6842.69
530.071	6864.16
530.437	6867.32
530.803	6894.66
531.169	6858.51
531.535	6875.23
531.901	6863.93
532.267	6954.32
532.632	7022.12
532.998	7041.1
533.364	7049.46
533.73	7000.42
534.095	7051.72
534.461	7039.97
534.826	7116.58
535.192	7093.53
535.557	7155.45
535.923	7140.76
536.288	7164.03
536.653	7136.01
537.019	7169.01
537.384	7170.36
537.749	7217.37
538.114	7245.61
538.479	7262.34
538.845	7279.96
539.21	7248.1
539.575	7255.78
539.94	7260.53
540.305	7329.68
540.67	7294.88
541.034	7329.23
541.399	7310.02
541.764	7336.01
542.129	7320.87
542.494	7413.29
542.858	7431.37
543.223	7385.05
543.587	7489.45
543.952	7470.47
544.316	7431.82
544.681	7481.09
545.045	7526.96
545.41	7530.8
545.774	7568.32
546.138	7545.04
546.503	7506.17
546.867	7549.11
547.231	7608.77
547.595	7606.06
547.959	7585.04
548.324	7667.52
548.688	7611.93
549.052	7637.02
549.416	7667.07
549.779	7720.63
550.143	7705.49
550.507	7675.66
550.871	7667.3
551.235	7684.93
551.599	7769.22
551.962	7763.34
552.326	7765.15
552.689	7791.81
553.053	7767.63
553.417	7815.54
553.78	7877.01
554.143	7819.61
554.507	7873.62
554.87	7853.28
555.234	7915.43
555.597	7900.51
555.96	7867.29
556.323	7989.55
556.686	7915.43
557.05	8020.74
557.413	8031.58
557.776	7999.27
558.139	7963.11
558.502	8069.1
558.865	8046.5
559.228	8085.14
559.59	8125.14
559.953	8151.58
560.316	8223.89
560.679	8163.56
561.041	8223.89
561.404	8200.39
561.767	8307.06
562.129	8272.03
562.492	8337.79
562.854	8327.85
563.217	8309.54
563.579	8308.41
563.941	8356.55
564.304	8445.13
564.666	8468.18
565.028	8460.27
565.39	8523.32
565.753	8497.79
566.115	8556.99
566.477	8570.78
566.839	8655.97
567.201	8686.03
567.563	8694.62
567.925	8722.41
568.287	8736.65
568.648	8798.57
569.01	8785.01
569.372	8835.18
569.734	8801.05
570.095	8912.69
570.457	8924.67
570.819	8904.78
571.18	8904.33
571.542	8986.59
571.903	8985.91
572.265	9056.64
572.626	9032.01
572.987	9098.9
573.349	9142.97
573.71	9186.13
574.071	9191.78
574.432	9269.52
574.794	9264.09
575.155	9256.18
575.516	9295.73
575.877	9362.17
576.238	9422.28
576.599	9415.5
576.96	9425.67
577.32	9468.38
577.681	9500.7
578.042	9617.76
578.403	9574.14
578.763	9687.36
579.124	9695.49
579.485	9727.36
579.845	9760.58
580.206	9820.46
580.566	9813.46
580.927	9885.55
581.287	9930.29
581.648	10008.48
582.008	10065.2
582.368	10055.48
582.728	10073.79
583.089	10157.4
583.449	10171.19
583.809	10256.61
584.169	10292.99
584.529	10321.24
584.889	10439.43
585.249	10437.85
585.609	10449.37
585.969	10613.21
586.329	10626.77
586.688	10672.42
587.048	10710.83
587.408	10705.41
587.768	10861.79
588.127	10908.57
588.487	10934.33
588.846	11061.79
589.206	11069.24
589.565	11126.87
589.925	11195.12
590.284	11231.95
590.643	11282.34
591.003	11372.06
591.362	11490.47
591.721	11467.65
592.08	11560.53
592.44	11692.05
592.799	11715.78
593.158	11829.22
593.517	11775.44
593.876	11919.16
594.235	11897.7
594.593	12054.75
594.952	11988.54
595.311	12054.53
595.67	12141.76
596.029	12225.14
596.387	12350.79
596.746	12389.21
597.104	12396.44
597.463	12435.53
597.822	12503.33
598.18	12516.44
598.538	12564.34
598.897	12745.81
599.255	12679.14
599.613	12878.01
599.972	12850.44
600.33	12901.51
600.688	12913.71
601.046	13016.08
601.404	13134.5
601.762	13143.31
602.12	13183.76
602.478	13240.94
602.836	13251.56
603.194	13299.69
603.552	13266.47
603.91	13349.18
604.268	13406.13
604.625	13421.5
604.983	13421.27
605.341	13393.02
605.698	13576.52
606.056	13529.52
606.413	13654.03
606.771	13611.32
607.128	13689.74
607.485	13603.41
607.843	13656.52
608.2	13754.37
608.557	13876.85
608.914	13853.12
609.272	13947.13
609.629	13979
609.986	14011.99
610.343	13968.38
610.7	14095.83
611.057	14051.54
611.414	14094.47
611.771	14182.38
612.127	14154.59
612.484	14205.88
612.841	14240.91
613.198	14269.61
613.554	14280.46
613.911	14466.44
614.267	14382.83
614.624	14360
614.98	14473.22
615.337	14479.77
615.693	14398.87
616.05	14374.47
616.406	14514.12
616.762	14544.41
617.118	14498.08
617.475	14531.75
617.831	14574.46
618.187	14687.23
618.543	14592.09
618.899	14712.76
619.255	14754.12
619.611	14667.57
619.967	14725.64
620.323	14771.52
620.678	14711.41
621.034	14661.24
621.39	14819.2
621.746	14734.23
622.101	14913.44
622.457	14716.15
622.812	14849.48
623.168	14887.22
623.523	14830.95
623.879	14898.07
624.234	14859.43
624.589	14821.46
624.945	14809.94
625.3	14887.9
625.655	14914.79
626.01	14975.35
626.365	14920.67
626.72	14924.51
627.075	14818.3
627.43	14926.77
627.785	14817.17
628.14	14953.21
628.495	14950.27
628.85	14836.6
629.205	14874.57
629.559	14974
629.914	14892.87
630.269	14916.37
630.623	14870.72
630.978	14841.8
631.332	14889.26
631.687	14972.64
632.041	14860.56
632.396	14846.77
632.75	14745.53
633.104	14841.8
633.459	14820.78
633.813	14780.33
634.167	14732.65
634.521	14676.61
634.875	14803.16
635.229	14758.86
635.583	14749.37
635.937	14782.82
636.291	14727
636.645	14737.39
636.999	14627.57
637.352	14778.3
637.706	14637.28
638.06	14597.51
638.413	14693.33
638.767	14636.61
639.121	14571.52
639.474	14531.07
639.828	14521.13
640.181	14581.01
640.534	14599.77
640.888	14484.97
641.241	14471.87
641.594	14483.39
641.947	14601.58
642.301	14473.45
642.654	14514.35
643.007	14543.95
643.36	14554.35
643.713	14478.87
644.066	14461.92
644.419	14426.67
644.771	14373.34
645.124	14268.48
645.477	14295.15
645.83	14080.01
646.182	14097.86
646.535	14106.68
646.888	14134.25
647.24	13986.23
647.593	14054.7
647.945	14094.7
648.298	13992.56
648.65	13940.58
649.002	13937.64
649.355	14033.91
649.707	13983.52
650.059	14107.13
650.411	14253.11
650.763	14281.14
651.115	14401.13
651.467	14297.41
651.819	14267.12
652.171	14263.06
652.523	14288.82
652.875	14295.82
653.227	14224.87
653.578	14351.87
653.93	14358.87
654.282	14271.87
654.633	14188.26
654.985	14213.57
655.337	14346.9
655.688	14291.98
656.039	14320.23
656.391	14218.31
656.742	14304.19
657.094	14269.84
657.445	14390.29
657.796	14289.05
658.147	14275.94
658.498	14335.82
658.849	14321.36
659.2	14317.97
659.551	14295.82
659.902	14362.94
660.253	14375.82
660.604	14394.58
660.955	14362.04
661.306	14400.45
661.656	14340.34
662.007	14354.13
662.358	14380.34
662.708	14417.63
663.059	14275.94
663.409	14343.51
663.76	14395.71
664.11	14454.24
664.461	14391.64
664.811	14447.01
665.161	14382.38
665.511	14414.47
665.862	14425.76
666.212	14482.71
666.562	14397.29
666.912	14462.6
667.262	14307.35
667.612	14488.81
667.962	14426.44
668.312	14366.56
668.662	14481.13
669.011	14422.15
669.361	14381.7
669.711	14370.62
670.06	14287.46
670.41	14350.51
670.76	14373.11
671.109	14385.09
671.459	14394.58
671.808	14379.21
672.157	14344.86
672.507	14231.87
672.856	14282.72
673.205	14206.56
673.554	14326.11
673.904	14315.71
674.253	14327.46
674.602	14271.19
674.951	14035.49
675.3	13995.95
675.649	14230.29
675.998	14206.34
676.346	14239.33
676.695	14166.79
677.044	14097.64
677.393	14186.22
677.741	14231.65
678.09	14145.32
678.438	14168.6
678.787	14265.54
679.135	14160.46
679.484	14061.03
679.832	14155.72
680.181	14009.73
680.529	14061.48
680.877	13978.09
681.225	14010.41
681.573	14120.91
681.922	14006.34
682.27	13871.66
682.618	13939.22
682.966	13840.02
683.314	13914.14
683.661	13843.41
684.009	13812
684.357	13797.08
684.705	13690.87
685.053	13787.59
685.4	13703.98
685.748	13595.05
686.095	13584.88
686.443	13536.52
686.79	13579.23
687.138	13576.3
687.485	13569.52
687.832	13492
688.18	13513.47
688.527	13428.05
688.874	13355.96
689.221	13336.53
689.568	13308.96
689.915	13259.92
690.262	13296.08
690.609	13224.67
690.956	13144.22
691.303	13173.59
691.65	13137.89
691.997	13061.51
692.344	13007.95
692.69	13019.93
693.037	12983.77
693.383	12812.47
693.73	12871
694.077	12774.28
694.423	12750.1
694.769	12699.93
695.116	12722.98
695.462	12673.72
695.808	12591.46
696.155	12651.12
696.501	12540.84
696.847	12557.79
697.193	12358.02
697.539	12490.9
697.885	12347.63
698.231	12348.53
698.577	12304.46
698.923	12275.99
699.269	12250.68
699.614	12217.24
699.96	12133.85
700.306	12085.71
700.651	12038.71
700.997	12105.37
701.342	11949.45
701.688	11896.11
702.033	11880.52
702.379	11842.78
702.724	11805.72
703.069	11775.66
703.415	11584.94
703.76	11599.4
704.105	11630.13
704.45	11545.84
704.795	11600.53
705.14	11517.37
705.485	11379.29
705.83	11349.01
706.175	11437.37
706.52	11330.7
706.865	11257.03
707.209	11273.98
707.554	11238.96
707.899	11325.06
708.243	11151.5
708.588	11201.22
708.932	11113.76
709.277	11036.02
709.621	11088.9
709.966	10988.79
710.31	11064.27
710.654	10974.78
710.998	10882.81
711.342	10943.37
711.687	10965.74
712.031	10838.97
712.375	10835.8
712.719	10789.25
713.063	10821.34
713.407	10834.9
713.75	10836.93
714.094	10799.65
714.438	10694.34
714.782	10712.87
715.125	10647.56
715.469	10732.3
715.812	10659.76
716.156	10584.06
716.499	10619.31
716.843	10594.91
717.186	10568.24
717.53	10599.42
717.873	10559.65
718.216	10570.05
718.559	10499.09
718.902	10493.66
719.246	10421.58
719.589	10495.25
719.932	10402.59
720.275	10397.85
720.617	10437.85
720.96	10425.64
721.303	10385.19
721.646	10340.67
721.989	10332.99
722.331	10305.65
722.674	10323.73
723.016	10324.86
723.359	10358.53
723.701	10306.55
724.044	10205.08
724.386	10274.01
724.729	10280.56
725.071	10254.35
725.413	10167.12
725.755	10218.64
726.097	10120.12
726.439	10132.77
726.782	10140.68
727.124	10158.31
727.465	10114.01
727.807	10095.03
728.149	10109.72
728.491	10141.36
728.833	10138.19
729.175	10106.56
729.516	10094.81
729.858	10105.65
730.199	10107.69
730.541	10099.78
730.882	10078.08
731.224	10076.27
731.565	10062.72
731.906	10113.34
732.248	10062.94
732.589	10086.22
732.93	10160.11
733.271	10106.1
733.612	10141.36
733.953	10100.68
734.294	10009.16
734.635	9988.82
734.976	10082.83
735.317	9984.53
735.658	10027.24
735.999	10065.2
736.339	10063.85
736.68	10041.02
737.021	10099.32
737.361	9992.66
737.702	10100.91
738.042	10147.23
738.383	10058.2
738.723	10097.29
739.063	10004.41
739.404	10142.71
739.744	10137.06
740.084	10063.62
740.424	10167.8
740.764	10122.15
741.104	10091.64
741.444	10118.08
741.784	10108.59
742.124	10172.32
742.464	10240.56
742.804	10175.48
743.143	10276.5
743.483	10252.99
743.823	10205.76
744.162	10268.13
744.502	10329.15
744.841	10270.39
745.181	10382.48
745.52	10347.91
745.86	10464.06
746.199	10445.53
746.538	10538.18
746.877	10642.59
747.216	10694.56
747.556	10672.87
747.895	10676.71
748.234	10698.63
748.573	10787.22
748.911	10856.82
749.25	10949.92
749.589	10960.55
749.928	11036.7
750.267	11163.7
750.605	11149.92
750.944	11215
751.283	11325.51
751.621	11436.46
751.96	11463.58
752.298	11498.16
752.636	11608.89
752.975	11758.26
753.313	11747.87
753.651	11994.19
753.989	12082.1
754.327	12092.94
754.666	12180.17
755.004	12340.17
755.342	12461.97
755.679	12595.53
756.017	12635.3
756.355	12819.93
756.693	12953.94
757.031	13159.36
757.368	13148.74
757.706	13274.38
758.044	13342.63
758.381	13530.42
758.719	13677.08
759.056	13825.78
759.394	13920.69
759.731	13994.36
760.068	14246.33
760.405	14304.86
760.743	14404.97
761.08	14695.59
761.417	14750.73
761.754	14963.15
762.091	15105.07
762.428	15160.43
762.765	15190.49
763.102	15537.37
763.438	15435.23
763.775	15545.51
764.112	15864.6
764.449	15929
764.785	16040.64
765.122	16129.45
765.458	16185.72
765.795	16382.78
766.131	16484.24
766.467	16543.9
766.804	16681.98
767.14	16728.3
767.476	16890.78
767.812	16882.88
768.148	17053.04
768.485	17112.47
768.821	17120.38
769.157	17333.94
769.492	17403.99
769.828	17536.19
770.164	17465.46
770.5	17571.44
770.836	17664.78
771.171	17647.37
771.507	17653.48
771.842	17730.54
772.178	17867.48
772.513	17889.4
772.849	17890.76
773.184	17909.74
773.519	18178.66
773.855	18067.25
774.19	18001.49
774.525	18138.44
774.86	18169.85
775.195	18156.74
775.53	18265.66
775.865	18253.91
776.2	18207.81
776.535	18182.95
776.87	18240.58
777.205	18327.81
777.539	18256.85
777.874	18214.14
778.209	18128.27
778.543	18154.93
778.878	18174.37
779.212	18258.43
779.547	18236.06
779.881	18350.86
780.215	18283.74
780.55	18323.52
780.884	18291.2
781.218	18166.23
781.552	18213.91
781.886	18217.98
782.22	18168.72
782.554	18077.65
782.888	17975.5
783.222	17976.63
783.556	18028.16
783.889	18008.72
784.223	17984.54
784.557	17916.29
784.89	17882.85
785.224	17951.1
785.557	17842.62
785.891	17838.56
786.224	17852.79
786.558	17797.65
786.891	17810.53
787.224	17603.99
787.557	17701.38
787.891	17573.25
788.224	17609.18
788.557	17704.55
788.89	17555.63
789.223	17622.74
789.556	17453.03
789.888	17488.28
790.221	17373.03
790.554	17295.07
790.887	17244.67
791.219	17239.7
791.552	17222.08
791.884	17160.16
792.217	17167.39
792.549	17138.69
792.882	16983.66
793.214	16962.87
793.546	16873.61
793.879	16964.91
794.211	16757.68
794.543	16910.67
794.875	16844.01
795.207	16938.02
795.539	16747.96
795.871	16901.86
796.203	16663.22
796.535	16620.74
796.867	16497.57
797.198	16570.12
797.53	16594.3
797.862	16379.61
798.193	16538.93
798.525	16384.36
798.856	16374.19
799.188	16126.29
799.519	16225.27
799.85	16110.24
800.182	16180.29
800.513	16194.31
800.844	15920.41
801.175	16123.35
801.506	16110.47
801.837	16011.03
802.168	15936.69
802.499	15853.3
802.83	15790.47
803.161	15727.2
803.491	15773.3
803.822	15883.81
804.153	15720.19
804.483	15512.52
804.814	15568.33
805.145	15531.95
805.475	15534.21
805.805	15525.4
806.136	15392.74
806.466	15453.31
806.796	15425.29
807.126	15336.7
807.457	15270.94
807.787	15235.69
808.117	15248.57
808.447	15098.52
808.777	15222.13
809.107	15195.91
809.436	15213.77
809.766	15096.26
810.096	15067.78
810.426	14955.92
810.755	14938.52
811.085	14988.91
811.414	14970.38
811.744	14811.07
812.073	14880.67
812.403	14810.84
812.732	14721.58
813.061	14719.32
813.39	14641.13
813.719	14583.27
814.049	14639.09
814.378	14626.66
814.707	14590.28
815.036	14515.71
815.365	14469.38
815.693	14371.53
816.022	14370.85
816.351	14315.03
816.68	14311.19
817.008	14352.55
817.337	14212.44
817.665	14172.66
817.994	14295.82
818.322	14188.93
818.651	14134.02
818.979	14089.73
819.307	14125.66
819.636	14120.01
819.964	14047.7
820.292	14181.03
820.62	14054.25
820.948	13968.15
821.276	14052.89
821.604	13927.92
821.932	13966.12
822.259	14063.06
822.587	14022.84
822.915	13925.66
823.243	14037.07
823.57	13929.05
823.898	13939
824.225	13834.59
824.553	13906.23
824.88	13967.92
825.207	13983.29
825.535	14003.85
825.862	14001.37
826.189	13930.18
826.516	13955.04
826.843	14113.68
827.17	14026
827.497	14089.95
827.824	14023.52
828.151	14008.37
828.478	14021.26
828.805	14138.31
829.131	13981.93
829.458	13951.65
829.785	13955.04
830.111	13978.32
830.438	13917.76
830.764	13993.23
831.09	13975.16
831.417	13946
831.743	14011.76
832.069	14000.24
832.395	13780.13
832.722	13899.9
833.048	13964.08
833.374	13960.69
833.7	13773.8
834.026	13883.86
834.351	13862.84
834.677	13896.97
835.003	13795.27
835.329	13842.05
835.654	13801.83
835.98	13753.47
836.306	13727.93
836.631	13730.42
836.956	13823.29
837.282	13851.54
837.607	13650.42
837.932	13786.69
838.258	13718.21
838.583	13682.28
838.908	13606.58
839.233	13563.41
839.558	13577.2
839.883	13525.45
840.208	13482.29
840.533	13523.64
840.858	13527.48
841.182	13531.78
841.507	13467.15
841.832	13372.23
842.156	13368.84
842.481	13338.56
842.805	13325.23
843.13	13307.6
843.454	13294.04
843.778	13299.69
844.103	13195.97
844.427	13143.99
844.751	13169.07
845.075	13097.66
845.399	13072.81
845.723	13014.73
846.047	13016.99
846.371	12877.33
846.695	12868.74
847.019	12861.06
847.343	12745.81
847.666	12688.41
847.99	12672.59
848.313	12569.54
848.637	12562.08
848.96	12525.7
849.284	12488.64
849.607	12341.75
849.931	12372.71
850.254	12222.43
850.577	12140.63
850.9	12134.75
851.223	12106.05
851.546	12050.46
851.869	11972.27
852.192	12070.12
852.515	11996.9
852.838	11851.37
853.161	11859.96
853.483	11880.29
853.806	11779.28
854.129	11712.84
854.451	11726.85
854.774	11773.41
855.096	11640.53
855.419	11600.75
855.741	11566.18
856.063	11549.23
856.385	11530.25
856.708	11487.99
857.03	11475.33
857.352	11405.51
857.674	11300.65
857.996	11414.77
858.318	11272.85
858.64	11252.06
858.961	11256.13
859.283	11217.26
859.605	11161.67
859.926	11216.81
860.248	11126.19
860.57	11128.9
860.891	11136.36
861.212	11019.3
861.534	10956.48
861.855	10973.43
862.176	11029.92
862.498	10971.62
862.819	11004.39
863.14	10909.25
863.461	10940.43
863.782	10841.45
864.103	10889.13
864.424	10824.73
864.745	10894.56
865.065	10807.55
865.386	10742.25
865.707	10789.25
866.027	10792.64
866.348	10750.16
866.668	10668.8
866.989	10666.54
867.309	10614.34
867.63	10647.33
867.95	10660.67
868.27	10566.88
868.59	10518.07
868.91	10558.75
869.23	10567.34
869.55	10457.06
869.87	10522.14
870.19	10526.43
870.51	10510.16
870.83	10474.68
871.15	10404.18
871.469	10409.37
871.789	10401.92
872.109	10374.35
872.428	10274.91
872.748	10377.74
873.067	10358.75
873.386	10355.36
873.706	10326.44
874.025	10251.19
874.344	10181.36
874.663	10342.71
874.982	10242.15
875.301	10239.89
875.62	10161.24
875.939	10168.7
876.258	10153.56
876.577	10100.68
876.896	10162.15
877.214	10173.22
877.533	10113.56
877.852	10135.03
878.17	10089.61
878.489	10118.31
878.807	10064.52
879.125	9988.14
879.444	10043.96
879.762	9992.89
880.08	10027.24
880.398	9913.57
880.716	10024.07
881.034	9890.52
881.352	9930.74
881.67	9873.34
881.988	9877.41
882.306	9833.34
882.624	9810.29
882.941	9792.67
883.259	9799.67
883.577	9698.88
883.894	9732.1
884.212	9769.16
884.529	9698.21
884.846	9613.91
885.164	9596.74
885.481	9545.89
885.798	9554.25
886.115	9534.59
886.432	9591.54
886.75	9576.17
887.067	9512
887.383	9444.65
887.7	9548.83
888.017	9438.33
888.334	9472.9
888.651	9408.5
888.967	9321.94
889.284	9323.07
889.6	9283.3
889.917	9212.79
890.233	9253.92
890.55	9208.73
890.866	9239.23
891.182	9169.41
891.498	9135.06
891.815	9111.55
892.131	9101.16
892.447	9061.16
892.763	9010.09
893.079	9003.99
893.395	8946.81
893.71	8956.53
894.026	8874.95
894.342	8872.69
894.657	8758.57
894.973	8812.13
895.289	8808.29
895.604	8806.93
895.92	8732.36
896.235	8683.54
896.55	8634.96
896.865	8687.16
897.181	8549.54
897.496	8687.84
897.811	8606.26
898.126	8557.22
898.441	8490.78
898.756	8519.48
899.071	8477.22
899.386	8426.37
899.7	8384.34
900.015	8361.07
900.33	8262.09
900.644	8353.16
900.959	8282.65
901.273	8258.02
901.588	8237.23
901.902	8134.18
902.216	8150.22
902.531	8173.5
902.845	8089.66
903.159	8066.38
903.473	7987.97
903.787	7985.93
904.101	7961.3
904.415	7941.64
904.729	7912.72
905.042	7890.57
905.356	7853.06
905.67	7839.5
905.984	7807.41
906.297	7837.46
906.611	7699.39
906.924	7720.63
907.237	7667.52
907.551	7637.02
907.864	7639.95
908.177	7597.7
908.491	7629.56
908.804	7569.9
909.117	7469.56
909.43	7412.84
909.743	7414.42
910.056	7416.23
910.368	7355.67
910.681	7301.43
910.994	7315.9
911.307	7265.28
911.619	7222.11
911.932	7220.08
912.244	7154.32
912.557	7100.08
912.869	7062.12
913.181	7111.15
913.494	7049.46
913.806	7000.2
914.118	7007.88
914.43	6914.32
914.742	6902.35
915.054	6939.86
915.366	6837.26
915.678	6845.17
915.99	6841.33
916.302	6788.45
916.613	6747.55
916.925	6748.45
917.236	6735.57
917.548	6654.44
917.859	6659.42
918.171	6626.42
918.482	6575.58
918.794	6575.35
919.105	6583.26
919.416	6554.11
919.727	6542.58
920.038	6494.67
920.349	6458.29
920.66	6410.38
920.971	6430.04
921.282	6410.38
921.593	6337.84
921.903	6335.13
922.214	6331.06
922.525	6294.91
922.835	6254.91
923.146	6219.65
923.456	6201.12
923.767	6186.89
924.077	6195.7
924.387	6152.31
924.697	6057.85
925.008	6065.31
925.318	6096.49
925.628	6016.72
925.938	5999.77
926.248	5992.54
926.558	5964.97
926.867	5940.79
927.177	5901.02
927.487	5857.4
927.796	5852.66
928.106	5805.2
928.416	5817.18
928.725	5745.54
929.034	5793.68
929.344	5684.53
929.653	5747.57
929.962	5659.44
930.271	5677.97
930.581	5590.29
930.89	5594.58
931.199	5540.35
931.508	5560.46
931.817	5580.35
932.125	5604.3
932.434	5490.18
932.743	5491.08
933.051	5393.01
933.36	5401.82
933.669	5385.55
933.977	5373.8
934.286	5317.98
934.594	5332.9
934.902	5310.75
935.21	5264.2
935.519	5278.21
935.827	5266.23
936.135	5248.6
936.443	5148.27
936.751	5195.05
937.059	5195.72
937.367	5099.23
937.674	5129.29
937.982	5071.89
938.29	5023.75
938.597	5075.05
938.905	4969.29
939.213	4999.12
939.52	4988.72
939.827	4976.52
940.135	4900.59
940.442	4899.24
940.749	4873.93
941.056	4901.04
941.363	4842.74
941.67	4814.72
941.977	4847.03
942.284	4770.2
942.591	4757.77
942.898	4710.77
943.205	4751.89
943.511	4743.76
943.818	4726.36
944.125	4656.98
944.431	4650.65
944.738	4611.56
945.044	4598.9
945.35	4622.86
945.657	4535.18
945.963	4526.36
946.269	4529.3
946.575	4563.2
946.881	4460.15
947.187	4490.43
947.493	4440.26
947.799	4407.72
948.105	4405.01
948.41	4344.9
948.716	4396.65
949.022	4341.06
949.327	4370.66
949.633	4325.69
949.938	4323.43
950.244	4316.43
950.549	4254.73
950.854	4235.07
951.16	4243.66
951.465	4249.99
951.77	4210.44
952.075	4154.4
952.38	4160.05
952.685	4181.51
952.99	4108.07
953.294	4100.84
953.599	4067.17
953.904	4017.68
954.209	3998.69
954.513	4014.06
954.818	4003.21
955.122	3993.27
955.426	3962.76
955.731	3937
956.035	3943.55
956.339	3956.66
956.643	3920.5
956.948	3887.06
957.252	3877.57
957.556	3861.97
957.86	3812.03
958.163	3830.79
958.467	3828.08
958.771	3770.23
959.075	3795.76
959.378	3814.29
959.682	3763.45
959.985	3723.9
960.289	3726.61
960.592	3714.86
960.896	3671.47
961.199	3656.33
961.502	3675.09
961.805	3667.86
962.108	3621.08
962.411	3554.19
962.714	3584.24
963.017	3562.77
963.32	3604.81
963.623	3540.4
963.926	3594.64
964.228	3488.2
964.531	3498.82
964.833	3466.96
965.136	3450.01
965.438	3449.78
965.741	3464.7
966.043	3422.66
966.345	3399.39
966.648	3374.98
966.95	3388.99
967.252	3354.87
967.554	3340.18
967.856	3321.42
968.158	3308.54
968.46	3319.39
968.761	3302.67
969.063	3261.31
969.365	3258.83
969.666	3265.61
969.968	3231.26
970.269	3224.03
970.571	3196.68
970.872	3146.74
971.174	3173.41
971.475	3121.2
971.776	3178.15
972.077	3126.17
972.378	3142.22
972.679	3086.85
972.98	3096.35
973.281	3074.65
973.582	3090.47
973.883	3080.07
974.183	3064.93
974.484	3026.29
974.785	3024.48
975.085	3024.26
975.386	3007.31
975.686	3019.96
975.986	2997.59
976.287	2970.92
976.587	2927.31
976.887	2933.86
977.187	2930.93
977.487	2901.77
977.787	2882.34
978.087	2861.1
978.387	2869.46
978.687	2847.31
978.987	2827.88
979.286	2803.7
979.586	2804.15
979.885	2794.43
980.185	2786.07
980.484	2796.01
980.784	2724.83
981.083	2751.27
981.382	2755.79
981.682	2739.52
981.981	2733.64
982.28	2701.55
982.579	2676.7
982.878	2688.22
983.177	2660.42
983.475	2632.4
983.774	2633.08
984.073	2635.79
984.372	2573.2
984.67	2608.22
984.969	2577.49
985.267	2597.38
985.566	2562.12
985.864	2574.32
986.162	2538.62
986.461	2533.42
986.759	2522.57
987.057	2499.07
987.355	2514.89
987.653	2482.8
987.951	2480.09
988.249	2474.44
988.547	2484.61
988.844	2401.45
989.142	2452.97
989.44	2423.37
989.737	2379.3
990.035	2391.05
990.332	2390.6
990.63	2386.76
990.927	2344.05
991.224	2394.67
991.521	2332.75
991.819	2334.33
992.116	2335.01
992.413	2330.49
992.71	2295.69
993.006	2302.24
993.303	2288.68
993.6	2257.5
993.897	2287.55
994.193	2263.15
994.49	2223.37
994.787	2203.71
995.083	2219.76
995.379	2210.27
995.676	2214.11
995.972	2191.96
996.268	2201.68
996.565	2160.55
996.861	2135.92
997.157	2145.41
997.453	2154.22
997.749	2096.37
998.044	2119.2
998.34	2099.76
998.636	2097.73
998.932	2090.04
999.227	2030.61
999.523	2050.5
999.818	2064.51
1000.114	2026.54
1000.409	2026.54
1000.704	1984.51
1001	2024.28
1001.295	1979.54
1001.59	1956.71
1001.885	1982.48
1002.18	1964.85
1002.475	1967.34
1002.77	1941.8
1003.065	1903.61
1003.359	1936.83
1003.654	1907.22
1003.949	1889.37
1004.243	1863.38
1004.538	1857.73
1004.832	1869.26
1005.127	1878.52
1005.421	1853.89
1005.715	1835.14
1006.009	1816.38
1006.304	1816.38
1006.598	1827.45
1006.892	1788.13
1007.186	1768.7
1007.48	1764.63
1007.773	1763.72
1008.067	1748.13
1008.361	1740
1008.655	1734.12
1008.948	1696.61
1009.242	1713.1
1009.535	1706.1
1009.829	1706.1
1010.122	1677.63
1010.415	1687.12
1010.708	1688.47
1011.001	1683.95
1011.295	1638.3
1011.588	1627.01
1011.881	1641.47
1012.173	1637.4
1012.466	1599.89
1012.759	1586.1
1013.052	1599.66
1013.344	1600.79
1013.637	1565.09
1013.93	1569.83
1014.222	1558.98
1014.514	1510.4
1014.807	1533.9
1015.099	1525.76
1015.391	1518.31
1015.683	1491.87
1015.976	1519.66
1016.268	1496.16
1016.56	1459.78
1016.851	1465.43
1017.143	1446.45
1017.435	1454.58
1017.727	1433.79
1018.018	1453.22
1018.31	1433.79
1018.602	1448.25
1018.893	1403.06
1019.185	1420.91
1019.476	1387.46
1019.767	1387.24
1020.058	1367.13
1020.35	1356.5
1020.641	1364.41
1020.932	1356.96
1021.223	1329.61
1021.514	1337.3
1021.804	1319.22
1022.095	1313.57
1022.386	1307.47
1022.677	1300.46
1022.967	1301.82
1023.258	1266.56
1023.548	1270.63
1023.839	1259.56
1024.129	1254.81
1024.419	1267.92
1024.709	1238.54
1025	1223.63
1025.29	1221.82
1025.58	1205.32
1025.87	1188.6
1026.16	1199.22
1026.449	1186.56
1026.739	1175.94
1027.029	1171.42
1027.319	1163.74
1027.608	1152.44
1027.898	1163.06
1028.187	1149.28
1028.477	1154.7
1028.766	1130.52
1029.055	1104.99
1029.344	1102.5
1029.634	1105.89
1029.923	1088.04
1030.212	1108.15
1030.501	1083.06
1030.79	1083.52
1031.078	1080.58
1031.367	1059.11
1031.656	1064.08
1031.945	1055.72
1032.233	1037.64
1032.522	1036.96
1032.81	1047.13
1033.099	1045.1
1033.387	1034.03
1033.675	1030.86
1033.963	1015.27
1034.251	1013.24
1034.54	993.58
1034.828	1003.52
1035.116	980.92
1035.403	970.53
1035.691	991.09
1035.979	987.02
1036.267	954.93
1036.554	967.14
1036.842	958.1
1037.129	938.44
1037.417	931.66
1037.704	917.65
1037.992	955.16
1038.279	914.93
1038.566	913.8
1038.853	913.8
1039.14	913.8
