Data from hue_100_FLMS001491_00003.txt Node
Date: Tue Feb 07 17:02:33 GMT 2017
User: dcchb
Spectrometer: FLMS00149
Trigger mode: 0
Integration Time (sec): 2.000000E-2
Scans to average: 10
Electric dark correction enabled: true
Nonlinearity correction enabled: false
Boxcar width: 0
XAxis mode: Wavelengths
Number of Pixels in Spectrum: 2048
>>>>>Begin Spectral Data<<<<<
341.393	-46.47
341.776	-46.47
342.16	-46.47
342.543	-69.97
342.927	-61.38
343.31	-55.28
343.693	-76.3
344.077	-43.53
344.46	-66.81
344.843	-59.12
345.226	-46.92
345.61	-44.66
345.993	-19.12
346.376	1.21
346.759	0.76
347.142	34.43
347.525	31.95
347.908	72.17
348.291	71.27
348.674	87.31
349.057	112.62
349.44	131.15
349.823	145.17
350.206	151.72
350.588	191.27
350.971	195.11
351.354	231.04
351.737	234.65
352.119	236.69
352.502	251.38
352.884	269.46
353.267	280.53
353.65	288.44
354.032	285.95
354.414	272.62
354.797	308.33
355.179	305.16
355.562	329.57
355.944	297.7
356.326	337.48
356.709	337.7
357.091	327.76
357.473	321.43
357.855	347.65
358.238	327.99
358.62	333.18
359.002	342
359.384	324.6
359.766	329.12
360.148	320.3
360.53	323.01
360.912	329.79
361.294	332.96
361.676	337.48
362.057	316.69
362.439	329.12
362.821	306.52
363.203	324.82
363.584	307.42
363.966	324.37
364.348	297.03
364.729	329.12
365.111	306.29
365.493	321.43
365.874	299.74
366.256	299.06
366.637	288.89
367.019	307.65
367.4	309.23
367.781	339.51
368.163	322.11
368.544	311.71
368.925	303.35
369.306	308.78
369.688	301.32
370.069	310.81
370.45	316.23
370.831	295.67
371.212	312.39
371.593	308.55
371.974	321.21
372.355	310.59
372.736	312.84
373.117	325.73
373.498	324.37
373.879	304.94
374.26	313.07
374.641	287.76
375.021	307.2
375.402	318.27
375.783	314.65
376.163	315.78
376.544	323.92
376.925	340.41
377.305	327.53
377.686	324.14
378.066	324.82
378.447	329.12
378.827	330.92
379.208	328.66
379.588	332.73
379.968	333.86
380.349	304.71
380.729	352.39
381.109	328.66
381.489	314.88
381.87	351.71
382.25	335.9
382.63	323.47
383.01	331.6
383.39	329.79
383.77	349.45
384.15	340.87
384.53	336.12
384.91	358.04
385.29	364.14
385.67	339.74
386.049	355.33
386.429	362.11
386.809	363.47
387.189	359.62
387.568	361.21
387.948	346.97
388.328	361.66
388.707	363.69
389.087	363.47
389.466	370.24
389.846	381.54
390.225	376.12
390.605	375.44
390.984	375.44
391.363	375.67
391.743	351.71
392.122	382.9
392.501	398.27
392.881	373.63
393.26	388.1
393.639	386.52
394.018	387.65
394.397	391.26
394.776	387.42
395.155	394.65
395.534	367.53
395.913	398.94
396.292	399.62
396.671	393.75
397.05	406.4
397.429	411.83
397.808	412.96
398.186	404.59
398.565	403.46
398.944	396.46
399.323	414.54
399.701	391.26
400.08	414.54
400.458	428.1
400.837	421.09
401.215	422.67
401.594	419.51
401.972	424.25
402.351	418.83
402.729	413.86
403.107	428.32
403.486	428.55
403.864	436.23
404.242	438.04
404.62	424.25
404.999	448.21
405.377	443.01
405.755	454.99
406.133	475.55
406.511	436.91
406.889	426.29
407.267	462.45
407.645	435.55
408.023	461.77
408.401	451.37
408.779	473.52
409.156	464.48
409.534	468.55
409.912	448.21
410.29	485.27
410.667	479.17
411.045	508.09
411.422	500.18
411.8	497.7
412.178	513.97
412.555	522.1
412.933	497.7
413.31	518.04
413.687	507.87
414.065	515.55
414.442	521.65
414.819	502.67
415.197	537.47
415.574	525.04
415.951	528.21
416.328	543.35
416.705	544.25
417.082	537.25
417.46	541.31
417.837	530.92
418.214	545.83
418.591	562.56
418.967	575.89
419.344	579.96
419.721	580.18
420.098	589.22
420.475	570.69
420.852	582.22
421.228	594.19
421.605	590.13
421.982	573.63
422.358	613.4
422.735	578.83
423.111	634.19
423.488	608.43
423.864	604.81
424.241	623.35
424.617	628.54
424.994	626.96
425.37	626.28
425.746	637.81
426.123	628.77
426.499	641.65
426.875	641.65
427.251	667.19
427.627	659.05
428.003	651.14
428.379	660.86
428.756	681.65
429.132	694.3
429.507	697.69
429.883	711.7
430.259	691.37
430.635	716
431.011	705.38
431.387	723.46
431.763	736.11
432.138	724.13
432.514	744.7
432.89	750.8
433.265	794.41
433.641	753.51
434.016	757.13
434.392	803.45
434.767	797.58
435.143	809.1
435.518	812.94
435.894	806.84
436.269	825.6
436.644	823.34
437.02	835.09
437.395	834.87
437.77	830.8
438.145	871.47
438.52	857.92
438.895	868.31
439.271	879.84
439.646	860.85
440.021	904.92
440.395	900.4
440.77	916.44
441.145	922.55
441.52	928.42
441.895	924.81
442.27	938.59
442.645	943.56
443.019	955.09
443.394	939.04
443.769	958.03
444.143	961.87
444.518	968.19
444.892	985.6
445.267	971.81
445.641	988.53
446.016	980.85
446.39	1013.84
446.764	973.84
447.139	993.28
447.513	1008.42
447.887	1003.9
448.262	1038.48
448.636	1027.4
449.01	1045.26
449.384	1064.69
449.758	1037.57
450.132	1044.13
450.506	1078.02
450.88	1090.68
451.254	1071.02
451.628	1118.47
452.002	1114.86
452.376	1108.53
452.75	1123.67
453.123	1133.84
453.497	1171.35
453.871	1181.3
454.244	1168.42
454.618	1203.44
454.992	1220.84
455.365	1214.06
455.739	1228.75
456.112	1235.76
456.486	1245.02
456.859	1244.12
457.232	1281.41
457.606	1283.89
457.979	1316.21
458.352	1329.77
458.725	1322.08
459.099	1372.25
459.472	1381.29
459.845	1388.97
460.218	1412.48
460.591	1424.91
460.964	1445.47
461.337	1473.27
461.71	1504.9
462.083	1506.94
462.456	1497.45
462.829	1528.41
463.201	1536.77
463.574	1563.66
463.947	1549.65
464.32	1642.3
464.692	1637.1
465.065	1652.7
465.438	1689.76
465.81	1715.97
466.183	1753.26
466.555	1759.81
466.928	1798
467.3	1796.42
467.672	1832.58
468.045	1868.74
468.417	1883.2
468.789	1927.27
469.161	1939.69
469.534	1971.11
469.906	2044.55
470.278	2024.21
470.65	2085.45
471.022	2101.05
471.394	2148.5
471.766	2203.87
472.138	2237.99
472.51	2257.65
472.882	2310.08
473.253	2389.4
473.625	2416.07
473.997	2470.08
474.369	2509.85
474.74	2546.23
475.112	2631.43
475.484	2673.91
475.855	2741.48
476.227	2826.68
476.598	2875.26
476.97	2961.81
477.341	2989.61
477.713	3081.59
478.084	3125.88
478.455	3277.51
478.827	3291.98
479.198	3427.11
479.569	3414.91
479.94	3604.74
480.311	3634.57
480.682	3778.97
481.053	3867.78
481.424	3943.26
481.795	4046.53
482.166	4152.07
482.537	4271.61
482.908	4421.89
483.279	4442.68
483.65	4605.39
484.021	4747.3
484.391	4820.97
484.762	4922.44
485.133	5015.55
485.503	5141.19
485.874	5361.75
486.244	5384.58
486.615	5592.03
486.985	5700.73
487.356	5834.06
487.726	5916.09
488.097	6153.82
488.467	6231.56
488.837	6418.45
489.207	6526.69
489.578	6692.56
489.948	6855.27
490.318	6936.63
490.688	7079.67
491.058	7268.59
491.428	7374.58
491.798	7539.32
492.168	7781.35
492.538	7870.39
492.908	8046.43
493.278	8180.66
493.648	8229.47
494.017	8409.13
494.387	8644.38
494.757	8683.25
495.126	8887.31
495.496	8968.89
495.866	9131.37
496.235	9231.93
496.605	9389.22
496.974	9561.42
497.344	9640.74
497.713	9828.3
498.082	9899.94
498.452	10121.17
498.821	10171.12
499.19	10294.5
499.559	10429.87
499.928	10584.44
500.298	10634.83
500.667	10837.54
501.036	10880.48
501.405	11055.16
501.774	11123.86
502.143	11260.35
502.512	11223.52
502.88	11303.97
503.249	11461.25
503.618	11673.22
503.987	11691.98
504.356	11757.97
504.724	11893.33
505.093	11929.26
505.462	12019.2
505.83	12193.21
506.199	12285.19
506.567	12438.85
506.936	12425.07
507.304	12649.92
507.672	12729.02
508.041	12816.47
508.409	12889.92
508.777	13027.76
509.145	13070.7
509.514	13081.55
509.882	13227.31
510.25	13203.81
510.618	13353.41
510.986	13319.06
511.354	13483.12
511.722	13627.07
512.09	13690.12
512.458	13631.36
512.826	13756.79
513.193	13755.43
513.561	13883.79
513.929	14008.3
514.297	14036.78
514.664	14146.15
515.032	14239.03
515.4	14291.46
515.767	14333.95
516.135	14439.25
516.502	14371.91
516.869	14561.74
517.237	14541.17
517.604	14493.04
517.972	14609.87
518.339	14631.56
518.706	14653.71
519.073	14761.96
519.44	14818.9
519.808	14890.54
520.175	14776.42
520.542	15032.23
520.909	15055.73
521.276	15060.03
521.643	15160.82
522.009	15201.49
522.376	15214.15
522.743	15353.35
523.11	15403.07
523.477	15486.23
523.843	15481.26
524.21	15618.88
524.577	15618.43
524.943	15682.61
525.31	15775.49
525.676	15827.69
526.043	15846.9
526.409	15868.82
526.776	16054.8
527.142	15996.5
527.508	15979.33
527.874	16036.05
528.241	16031.98
528.607	16050.96
528.973	16203.95
529.339	16163.73
529.705	16288.02
530.071	16283.05
530.437	16245.31
530.803	16236.27
531.169	16342.03
531.535	16233.56
531.901	16244.86
532.267	16308.36
532.632	16354.91
532.998	16330.05
533.364	16346.77
533.73	16375.02
534.095	16475.58
534.461	16321.01
534.826	16305.19
535.192	16326.21
535.557	16319.2
535.923	16348.58
536.288	16311.07
536.653	16334.12
537.019	16235.14
537.384	16303.38
537.749	16313.33
538.114	16210.51
538.479	16243.73
538.845	16218.42
539.21	16135.71
539.575	16192.88
539.94	16234.91
540.305	16246.44
540.67	16210.28
541.034	16165.54
541.399	16124.18
541.764	16147.46
542.129	16134.58
542.494	16065.88
542.858	16029.49
543.223	15924.19
543.587	16026.56
543.952	15901.81
544.316	16027.69
544.681	15818.2
545.045	15928.93
545.41	15912.21
545.774	15851.19
546.138	15886.67
546.503	15872.44
546.867	15738.65
547.231	15785.88
547.595	15689.62
547.959	15806.22
548.324	15628.37
548.688	15681.93
549.052	15661.59
549.416	15645.32
549.779	15538.43
550.143	15647.13
550.507	15702.95
550.871	15630.18
551.235	15555.83
551.599	15550.64
551.962	15555.83
552.326	15499.11
552.689	15527.59
553.053	15465.21
553.417	15363.75
553.78	15504.54
554.143	15423.41
554.507	15431.77
554.87	15417.31
555.234	15430.87
555.597	15352
555.96	15391.77
556.323	15416.18
556.686	15359
557.05	15350.87
557.413	15464.54
557.776	15429.28
558.139	15553.8
558.502	15399.45
558.865	15347.7
559.228	15500.47
559.59	15424.99
559.953	15355.16
560.316	15564.87
560.679	15422.73
561.041	15580.69
561.404	15496.17
561.767	15614.36
562.129	15434.71
562.492	15582.95
562.854	15545.21
563.217	15489.85
563.579	15498.89
563.941	15666.11
564.304	15617.75
564.666	15680.12
565.028	15684.19
565.39	15598.54
565.753	15661.14
566.115	15757.64
566.477	15812.78
566.839	15782.72
567.201	15822.27
567.563	15808.48
567.925	15905.2
568.287	15841.02
568.648	15878.76
569.01	15909.95
569.372	15943.39
569.734	15872.89
570.095	15976.84
570.457	16023.39
570.819	16085.76
571.18	16050.51
571.542	16082.6
571.903	16104.97
572.265	16158.08
572.626	16135.48
572.987	16145.42
573.349	16145.65
573.71	16293.67
574.071	16140.68
574.432	16193.33
574.794	16227.23
575.155	16187
575.516	16161.02
575.877	16200.11
576.238	16230.62
576.599	16268.13
576.96	16284.4
577.32	16269.49
577.681	16354.68
578.042	16350.16
578.403	16292.31
578.763	16351.07
579.124	16421.12
579.485	16355.13
579.845	16431.74
580.206	16372.31
580.566	16417.51
580.927	16340.45
581.287	16475.58
581.648	16273.78
582.008	16436.71
582.368	16349.49
582.728	16413.89
583.089	16288.47
583.449	16338.19
583.809	16338.86
584.169	16453.44
584.529	16353.33
584.889	16380.67
585.249	16350.16
585.609	16256.83
585.969	16336.83
586.329	16224.29
586.688	16370.5
587.048	16334.8
587.408	16228.58
587.768	16251.41
588.127	16262.93
588.487	16191.52
588.846	16219.55
589.206	16118.53
589.565	16171.64
589.925	16273.78
590.284	16212.77
590.643	16255.25
591.003	16182.94
591.362	16294.57
591.721	16107.91
592.08	16220.9
592.44	16219.32
592.799	16184.07
593.158	16076.95
593.517	16070.17
593.876	16181.13
594.235	16048.48
594.593	16102.71
594.952	16255.02
595.311	16193.56
595.67	16144.74
596.029	16238.98
596.387	16182.48
596.746	16184.52
597.104	16069.72
597.463	16183.84
597.822	16247.12
598.18	16154.24
598.538	16162.15
598.897	16243.95
599.255	15990.85
599.613	16171.18
599.972	16135.03
600.33	16192.2
600.688	16057.06
601.046	16180.45
601.404	16226.78
601.762	16087.35
602.12	16083.96
602.478	16158.08
602.836	16139.77
603.194	16050.51
603.552	16038.31
603.91	16128.47
604.268	16189.04
604.625	16057.29
604.983	16115.82
605.341	16038.31
605.698	16168.25
606.056	16128.25
606.413	16125.08
606.771	16203.73
607.128	16198.08
607.485	16168.47
607.843	16124.63
608.2	16260.45
608.557	16216.16
608.914	16197.17
609.272	16227.45
609.629	16251.63
609.986	16322.82
610.343	16278.3
610.7	16299.09
611.057	16297.74
611.414	16310.39
611.771	16333.89
612.127	16404.17
612.484	16325.76
612.841	16405.76
613.198	16331.86
613.554	16422.25
613.911	16481.46
614.267	16500.22
614.624	16493.66
614.98	16453.89
615.337	16450.5
615.693	16422.48
616.05	16527.33
616.406	16624.73
616.762	16446.66
617.118	16479.43
617.475	16574.11
617.831	16540.89
618.187	16535.7
618.543	16577.05
618.899	16614.79
619.255	16572.98
619.611	16573.89
619.967	16678.06
620.323	16682.36
620.678	16685.97
621.034	16481.69
621.39	16579.54
621.746	16573.66
622.101	16796.03
622.457	16660.21
622.812	16704.05
623.168	16655.69
623.523	16716.93
623.879	16804.16
624.234	16615.69
624.589	16694.79
624.945	16701.79
625.3	16672.87
625.655	16622.02
626.01	16632.87
626.365	16667.22
626.72	16579.08
627.075	16574.56
627.43	16586.54
627.785	16566.2
628.14	16654.79
628.495	16525.98
628.85	16590.83
629.205	16541.12
629.559	16612.98
629.914	16485.98
630.269	16613.43
630.623	16429.94
630.978	16402.82
631.332	16532.98
631.687	16503.61
632.041	16477.39
632.396	16493.89
632.75	16452.53
633.104	16503.61
633.459	16367.34
633.813	16433.1
634.167	16441.69
634.521	16392.2
634.875	16391.29
635.229	16387.9
635.583	16301.58
635.937	16296.15
636.291	16205.99
636.645	16255.48
636.999	16244.18
637.352	16299.77
637.706	16083.5
638.06	16137.74
638.413	16113.33
638.767	16060.91
639.121	16148.13
639.474	15955.15
639.828	16018.87
640.181	16011.42
640.534	16109.27
640.888	16029.72
641.241	15969.61
641.594	16034.69
641.947	16010.29
642.301	15954.24
642.654	16023.17
643.007	15974.13
643.36	15979.78
643.713	15905.66
644.066	16065.65
644.419	15791.08
644.771	15768.03
645.124	15641.26
645.477	15594.25
645.83	15605.55
646.182	15494.82
646.535	15407.82
646.888	15461.6
647.24	15382.51
647.593	15475.61
647.945	15374.6
648.298	15352.68
648.65	15344.54
649.002	15227.25
649.355	15455.72
649.707	15377.53
650.059	15444.42
650.411	15690.07
650.763	15626.57
651.115	15779.56
651.467	15732.78
651.819	15715.83
652.171	15636.28
652.523	15670.63
652.875	15716.51
653.227	15597.87
653.578	15749.73
653.93	15621.59
654.282	15704.98
654.633	15583.4
654.985	15617.75
655.337	15676.28
655.688	15692.33
656.039	15751.31
656.391	15634.7
656.742	15622.95
657.094	15648.71
657.445	15711.08
657.796	15659.79
658.147	15611.43
658.498	15537.53
658.849	15686.9
659.2	15680.58
659.551	15652.1
659.902	15720.58
660.253	15644.42
660.604	15737.98
660.955	15584.99
661.306	15702.04
661.656	15647.36
662.007	15595.38
662.358	15598.54
662.708	15684.64
663.059	15653.46
663.409	15558.32
663.76	15630.86
664.11	15709.73
664.461	15744.76
664.811	15688.49
665.161	15741.37
665.511	15693.23
665.862	15645.78
666.212	15757.18
666.562	15712.89
666.912	15706.11
667.262	15712.67
667.612	15737.52
667.962	15758.09
668.312	15642.39
668.662	15726
669.011	15674.7
669.361	15669.28
669.711	15678.99
670.06	15592.22
670.41	15551.31
670.76	15647.13
671.109	15699.33
671.459	15637.87
671.808	15538.21
672.157	15653.91
672.507	15538.21
672.856	15575.95
673.205	15555.16
673.554	15649.84
673.904	15554.25
674.253	15578.43
674.602	15506.12
674.951	15394.93
675.3	15245.79
675.649	15426.8
675.998	15463.63
676.346	15516.51
676.695	15548.15
677.044	15417.08
677.393	15313.81
677.741	15373.24
678.09	15375.73
678.438	15335.27
678.787	15303.86
679.135	15465.44
679.484	15213.02
679.832	15247.59
680.181	15177.99
680.529	15208.72
680.877	15182.96
681.225	15204.88
681.573	15203.07
681.922	15147.71
682.27	15045.79
682.618	15059.58
682.966	14925.57
683.314	15021.16
683.661	14992.46
684.009	14924.66
684.357	14867.04
684.705	14850.99
685.053	14865.68
685.4	14893.03
685.748	14754.95
686.095	14661.39
686.443	14655.07
686.79	14691.22
687.138	14775.29
687.485	14701.17
687.832	14648.51
688.18	14664.11
688.527	14535.52
688.874	14490.55
689.221	14424.11
689.568	14414.4
689.915	14326.71
690.262	14388.41
690.609	14356.77
690.956	14257.79
691.303	14233.83
691.65	14098.47
691.997	14190.67
692.344	14084.91
692.69	14092.82
693.037	14070.22
693.383	13887.63
693.73	13976.44
694.077	13894.41
694.423	13860.74
694.769	13858.93
695.116	13801.08
695.462	13743.9
695.808	13688.54
696.155	13711.81
696.501	13580.74
696.847	13584.59
697.193	13473.85
697.539	13506.62
697.885	13430.92
698.231	13338.94
698.577	13361.09
698.923	13279.51
699.269	13288.32
699.614	13133.75
699.96	13119.29
700.306	13116.58
700.651	13051.94
700.997	12986.86
701.342	13027.09
701.688	12972.17
702.033	12875.68
702.379	12960.87
702.724	12820.99
703.069	12931.27
703.415	12675.68
703.76	12739.18
704.105	12709.13
704.45	12614.67
704.795	12607.66
705.14	12542.35
705.485	12521.11
705.83	12450.38
706.175	12436.59
706.52	12420.32
706.865	12312.76
707.209	12204.74
707.554	12281.8
707.899	12304.62
708.243	12102.59
708.588	12145.98
708.932	12065.53
709.277	12018.3
709.621	12072.76
709.966	12023.27
710.31	12043.16
710.654	11878.87
710.998	11920
711.342	11943.05
711.687	11916.61
712.031	11835.03
712.375	11834.12
712.719	11838.19
713.063	11739.66
713.407	11923.61
713.75	11769.04
714.094	11651.53
714.438	11643.17
714.782	11631.19
715.125	11574.92
715.469	11655.6
715.812	11625.77
716.156	11525.21
716.499	11580.57
716.843	11490.4
717.186	11444.53
717.53	11508.93
717.873	11517.3
718.216	11437.75
718.559	11414.02
718.902	11289.73
719.246	11396.4
719.589	11342.39
719.932	11319.79
720.275	11299.22
720.617	11346.91
720.96	11319.79
721.303	11288.15
721.646	11335.15
721.989	11243.63
722.331	11238.89
722.674	11249.96
723.016	11273.46
723.359	11326.57
723.701	11217.19
724.044	11124.99
724.386	11080.47
724.729	11183.97
725.071	11118.44
725.413	11100.81
725.755	11120.02
726.097	11133.58
726.439	10954.82
726.782	10997.76
727.124	11091.77
727.465	11047.93
727.807	11073.01
728.149	11004.77
728.491	10987.14
728.833	10935.39
729.175	10995.28
729.516	10925.45
729.858	10943.75
730.199	10944.43
730.541	10900.82
730.882	10880.93
731.224	10913.7
731.565	10934.03
731.906	10899.69
732.248	10882.06
732.589	10908.27
732.93	10875.05
733.271	10910.98
733.612	10927.71
733.953	10903.53
734.294	10877.54
734.635	10894.26
734.976	10969.06
735.317	10858.1
735.658	10850.87
735.999	10866.24
736.339	10898.33
736.68	10892.23
737.021	10929.97
737.361	10787.6
737.702	10942.62
738.042	10878.44
738.383	10766.13
738.723	10853.36
739.063	10892.91
739.404	10962.96
739.744	10940.14
740.084	10782.4
740.424	10931.77
740.764	10893.58
741.104	10916.63
741.444	10938.78
741.784	10988.95
742.124	10915.73
742.464	11004.77
742.804	10988.5
743.143	10974.03
743.483	11056.52
743.823	11103.75
744.162	11102.17
744.502	11194.14
744.841	11097.87
745.181	11195.27
745.52	11153.92
745.86	11213.8
746.199	11276.17
746.538	11351.42
746.877	11380.12
747.216	11415.6
747.556	11367.47
747.895	11428.71
748.234	11470.29
748.573	11558.42
748.911	11649.5
749.25	11658.31
749.589	11714.35
749.928	11774.46
750.267	11920
750.605	11923.61
750.944	12080.67
751.283	12073.21
751.621	12159.31
751.96	12215.36
752.298	12318.63
752.636	12381
752.975	12471.85
753.313	12522.24
753.651	12649.92
753.989	12653.99
754.327	12912.97
754.666	12918.62
755.004	13070.93
755.342	13281.54
755.679	13425.04
756.017	13419.84
756.355	13727.18
756.693	13752.72
757.031	13996.33
757.368	14020.96
757.706	14147.28
758.044	14324.45
758.381	14435.41
758.719	14615.52
759.056	14801.96
759.394	14836.98
759.731	14989.75
760.068	15199.69
760.405	15351.55
760.743	15475.38
761.08	15635.15
761.417	15699.33
761.754	16014.58
762.091	16195.37
762.428	16339.99
762.765	16323.27
763.102	16622.02
763.438	16752.41
763.775	16826.99
764.112	17062.91
764.449	17270.59
764.785	17386.07
765.122	17403.24
765.458	17521.21
765.795	17822.22
766.131	17905.38
766.467	18012.72
766.804	18115.77
767.14	18261.98
767.476	18411.13
767.812	18485.02
768.148	18800.95
768.485	18655.41
768.821	18841.17
769.157	18968.85
769.492	19120.94
769.828	19204.1
770.164	19162.74
770.5	19290.65
770.836	19403.87
771.171	19350.54
771.507	19582.85
771.842	19566.12
772.178	19710.53
772.513	19774.25
772.849	19953.91
773.184	19948.26
773.519	20022.84
773.855	20005.89
774.19	20021.25
774.525	20219.44
774.86	20198.42
775.195	20322.49
775.53	20318.19
775.865	20274.81
776.2	20324.3
776.535	20259.44
776.87	20345.09
777.205	20299.89
777.539	20380.79
777.874	20441.13
778.209	20331.53
778.543	20466.44
778.878	20373.33
779.212	20453.56
779.547	20504.4
779.881	20580.33
780.215	20472.99
780.55	20491.07
780.884	20453.11
781.218	20545.31
781.552	20622.82
781.886	20442.26
782.22	20427.8
782.554	20363.39
782.888	20326.78
783.222	20297.63
783.556	20327.46
783.889	20313
784.223	20323.62
784.557	20244.75
784.89	20296.05
785.224	20080.91
785.557	20027.81
785.891	20110.29
786.224	20106.9
786.558	20127.69
786.891	19930.18
787.224	19885.44
787.557	19997.53
787.891	19937.64
788.224	20018.09
788.557	19839.34
788.89	19853.57
789.223	19832.56
789.556	19769.28
789.888	19781.03
790.221	19793.46
790.554	19607.03
790.887	19632.11
791.219	19563.86
791.552	19595.95
791.884	19468.27
792.217	19462.62
792.549	19369.29
792.882	19376.98
793.214	19268.5
793.546	19466.24
793.879	19294.72
794.211	19249.75
794.543	19171.78
794.875	19184.89
795.207	19194.61
795.539	19087.94
795.871	19141.05
796.203	18891.57
796.535	18897.67
796.867	18821.96
797.198	18833.94
797.53	18764.34
797.862	18680.5
798.193	18779.7
798.525	18615.87
798.856	18687.05
799.188	18537
799.519	18442.76
799.85	18392.37
800.182	18339.72
800.513	18383.33
800.844	18268.98
801.175	18327.96
801.506	18307.85
801.837	18201.64
802.168	18221.3
802.499	18111.02
802.83	18019.95
803.161	17937.92
803.491	18030.35
803.822	17995.77
804.153	17940.18
804.483	17822.89
804.814	17742.22
805.145	17758.49
805.475	17792.84
805.805	17705.83
806.136	17696.34
806.466	17630.13
806.796	17656.8
807.126	17533.41
807.457	17453.19
807.787	17538.61
808.117	17437.59
808.447	17363.02
808.777	17393.3
809.107	17325.96
809.436	17220.65
809.766	17254.32
810.096	17154.21
810.426	17069.24
810.755	17168.9
811.085	17030.15
811.414	17008.23
811.744	17034.89
812.073	16910.15
812.403	16958.51
812.732	16828.12
813.061	16775.69
813.39	16756.71
813.719	16718.52
814.049	16843.48
814.378	16742.7
814.707	16672.64
815.036	16715.58
815.365	16570.27
815.693	16459.76
816.022	16407.79
816.351	16394.91
816.68	16294.12
817.008	16421.8
817.337	16236.72
817.665	16230.39
817.994	16217.74
818.322	16180.9
818.651	16187
818.979	16082.37
819.307	16166.44
819.636	16168.47
819.964	16048.93
820.292	16131.19
820.62	16122.15
820.948	15934.58
821.276	16057.29
821.604	16137.29
821.932	16073.33
822.259	16047.35
822.587	16004.18
822.915	15959.67
823.243	16036.95
823.57	15927.12
823.898	16024.07
824.225	15845.32
824.553	15916.73
824.88	15937.07
825.207	16041.7
825.535	16017.29
825.862	16020.23
826.189	15860.46
826.516	16020.23
826.843	16103.84
827.17	16045.09
827.497	16067.68
827.824	15952.21
828.151	16103.39
828.478	16013.22
828.805	16076.95
829.131	16003.05
829.458	16012.55
829.785	16018.19
830.111	15986.11
830.438	16073.11
830.764	16004.18
831.09	16007.8
831.417	15928.03
831.743	15973.68
832.069	15975.26
832.395	15888.48
832.722	15972.55
833.048	15895.94
833.374	15881.48
833.7	15879.89
834.026	15886.45
834.351	15943.62
834.677	15834.47
835.003	15916.5
835.329	15902.27
835.654	15828.37
835.98	15725.1
836.306	15785.66
836.631	15726.22
836.956	15753.12
837.282	15769.61
837.607	15658.2
837.932	15647.36
838.258	15647.36
838.583	15621.14
838.908	15574.36
839.233	15525.78
839.558	15479
839.883	15465.89
840.208	15433.8
840.533	15399.91
840.858	15347.25
841.182	15368.49
841.507	15407.14
841.832	15318.1
842.156	15281.94
842.481	15331.21
842.805	15245.79
843.13	15154.94
843.454	15204.88
843.778	15187.71
844.103	15084.66
844.427	15044.21
844.751	15072.23
845.075	15053.02
845.399	14930.31
845.723	14890.77
846.047	14959.69
846.371	14840.6
846.695	14778.45
847.019	14672.47
847.343	14672.69
847.666	14533.71
847.99	14520.83
848.313	14441.74
848.637	14427.5
848.96	14386.6
849.284	14333.72
849.607	14206.04
849.931	14147.74
850.254	14169.43
850.577	14094.18
850.9	13924.69
851.223	13944.12
851.546	13950
851.869	13731.25
852.192	13805.15
852.515	13696.67
852.838	13744.81
853.161	13645.83
853.483	13578.48
853.806	13557.24
854.129	13451.48
854.451	13485.38
854.774	13439.28
855.096	13284.26
855.419	13265.05
855.741	13237.02
856.063	13234.31
856.385	13178.27
856.708	13002
857.03	13057.37
857.352	13191.15
857.674	13025.73
857.996	12980.53
858.318	12845.4
858.64	12907.09
858.961	12897.15
859.283	12747.77
859.605	12727.43
859.926	12769.24
860.248	12759.07
860.57	12667.32
860.891	12706.87
861.212	12616.02
861.534	12633.2
861.855	12627.32
862.176	12498.51
862.498	12471.17
862.819	12604.95
863.14	12533.09
863.461	12478.17
863.782	12489.02
864.103	12410.15
864.424	12364.05
864.745	12366.77
865.065	12249.03
865.386	12329.93
865.707	12228.01
866.027	12316.6
866.348	12264.4
866.668	12219.42
866.989	12170.39
867.309	12131.97
867.63	12116.6
867.95	12179.88
868.27	12153.44
868.59	12090.16
868.91	12050.62
869.23	12038.41
869.55	12028.7
869.87	12101.46
870.19	12050.84
870.51	11967.68
870.83	12028.24
871.15	11914.57
871.469	11913.44
871.789	11958.19
872.109	12014.68
872.428	11810.4
872.748	11863.95
873.067	11853.78
873.386	11840.9
873.706	11861.24
874.025	11728.14
874.344	11709.38
874.663	11680.23
874.982	11748.25
875.301	11683.39
875.62	11683.39
875.939	11711.64
876.258	11633.68
876.577	11607.24
876.896	11540.12
877.214	11610.17
877.533	11579.67
877.852	11513.23
878.17	11498.09
878.489	11541.25
878.807	11520.46
879.125	11447.92
879.444	11507.35
879.762	11386.45
880.08	11423.29
880.398	11321.82
880.716	11361.82
881.034	11350.07
881.352	11353.23
881.67	11231.88
881.988	11353.01
882.306	11187.14
882.624	11197.76
882.941	11117.31
883.259	11044.09
883.577	11060.58
883.894	11058.33
884.212	11125.44
884.529	11071.21
884.846	11024.88
885.164	10944.2
885.481	10955.05
885.798	10916.63
886.115	10912.11
886.432	10856.52
886.75	10793.93
887.067	10832.34
887.383	10765.9
887.7	10820.14
888.017	10729.07
888.334	10779.91
888.651	10656.53
888.967	10680.48
889.284	10652.91
889.6	10581.5
889.917	10449.98
890.233	10601.39
890.55	10545.8
890.866	10526.36
891.182	10532.01
891.498	10493.82
891.815	10401.85
892.131	10426.25
892.447	10361.62
892.763	10318.46
893.079	10236.88
893.395	10228.74
893.71	10226.71
894.026	10262.41
894.342	10143.09
894.657	10137.45
894.973	10103.77
895.289	10108.52
895.604	10060.61
895.92	10059.48
896.235	9966.15
896.55	9894.74
896.865	9768.19
897.181	9808.41
897.496	9886.15
897.811	9800.28
898.126	9800.05
898.441	9759.15
898.756	9690.23
899.071	9652.49
899.386	9683.9
899.7	9578.14
900.015	9581.53
900.33	9464.47
900.644	9447.29
900.959	9542.43
901.273	9431.7
901.588	9428.54
901.902	9298.15
902.216	9311.93
902.531	9334.3
902.845	9237.58
903.159	9210.46
903.473	9167.08
903.787	9122.1
904.101	9106.96
904.415	9116
904.729	9083.91
905.042	8942.67
905.356	8942.45
905.67	8924.6
905.984	8890.7
906.297	8872.17
906.611	8773.41
906.924	8798.72
907.237	8756.92
907.551	8729.8
907.864	8743.36
908.177	8694.09
908.491	8645.73
908.804	8613.64
909.117	8545.17
909.43	8477.15
909.743	8448.45
910.056	8469.47
910.368	8425.85
910.681	8403.03
910.994	8349.92
911.307	8287.55
911.619	8247.55
911.932	8280.54
912.244	8177.72
912.557	8195.58
912.869	8087.33
913.181	8129.14
913.494	8073.09
913.806	8043.26
914.118	7987.45
914.43	7916.26
914.742	7906.77
915.054	7901.57
915.366	7887.56
915.678	7815.7
915.99	7815.02
916.302	7679.66
916.613	7694.35
916.925	7690.73
917.236	7683.05
917.548	7643.73
917.859	7647.34
918.171	7551.3
918.482	7593.78
918.794	7513.11
919.105	7496.16
919.416	7399.89
919.727	7421.81
920.038	7348.14
920.349	7399.89
920.66	7274.92
920.971	7316.5
921.282	7264.75
921.593	7202.38
921.903	7170.29
922.214	7155.6
922.525	7152.89
922.835	7136.62
923.146	7083.97
923.456	7067.02
923.767	7059.11
924.077	7042.16
924.387	7006.68
924.697	6938.89
925.008	6888.49
925.318	6856.4
925.628	6916.29
925.938	6822.73
926.248	6804.65
926.558	6761.71
926.867	6766.46
927.177	6751.32
927.487	6687.59
927.796	6662.73
928.106	6655.05
928.416	6650.31
928.725	6612.79
929.034	6534.15
929.344	6532.79
929.653	6527.37
929.962	6518.33
930.271	6466.58
930.581	6433.36
930.89	6342.52
931.199	6341.61
931.508	6348.17
931.817	6315.17
932.125	6295.96
932.434	6283.54
932.743	6203.31
933.051	6201.5
933.36	6175.97
933.669	6125.12
933.977	6146.14
934.286	6116.76
934.594	6065.91
934.902	6116.76
935.21	6006.71
935.519	6018.46
935.827	6019.81
936.135	5926.48
936.443	5890.33
936.751	5873.15
937.059	5872.92
937.367	5852.36
937.674	5877.67
937.982	5792.93
938.29	5768.97
938.597	5744.57
938.905	5710.9
939.213	5665.25
939.52	5659.14
939.827	5697.79
940.135	5605.59
940.442	5596.55
940.749	5580.5
941.056	5557.23
941.363	5480.84
941.67	5508.87
941.977	5471.13
942.284	5446.5
942.591	5427.74
942.898	5400.62
943.205	5392.03
943.511	5380.28
943.818	5364.01
944.125	5295.99
944.431	5286.05
944.738	5308.19
945.044	5278.59
945.35	5235.65
945.657	5187.29
945.963	5171.93
946.269	5113.85
946.575	5153.62
946.881	5141.87
947.187	5118.14
947.493	5063.91
947.799	5042.44
948.105	5043.79
948.41	4989.33
948.716	4947.3
949.022	4946.17
949.327	4935.55
949.633	4938.49
949.938	4928.77
950.244	4872.95
950.549	4834.99
950.854	4892.16
951.16	4857.81
951.465	4778.72
951.77	4752.5
952.075	4759.28
952.38	4743.46
952.685	4734.65
952.99	4668.89
953.294	4657.59
953.599	4670.24
953.904	4629.57
954.209	4634.09
954.513	4628.44
954.818	4534.65
955.122	4587.31
955.426	4531.04
955.731	4530.36
956.035	4503.24
956.339	4470.93
956.643	4473.19
956.948	4460.08
957.252	4396.58
957.556	4407.43
957.86	4350.25
958.163	4371.5
958.467	4346.86
958.771	4313.42
959.075	4308.9
959.378	4305.96
959.682	4302.12
959.985	4257.37
960.289	4233.19
960.592	4246.07
960.896	4192.29
961.199	4191.16
961.502	4169.69
961.805	4133.76
962.108	4141.9
962.411	4135.57
962.714	4088.34
963.017	4071.62
963.32	4083.59
963.623	4069.13
963.926	4033.43
964.228	3965.63
964.531	3981.22
964.833	3982.35
965.136	3930.6
965.438	3904.16
965.741	3901.9
966.043	3888.8
966.345	3870.04
966.648	3872.3
966.95	3884.5
967.252	3817.61
967.554	3782.36
967.856	3823.94
968.158	3750.72
968.46	3783.49
968.761	3718.18
969.063	3717.95
969.365	3687.67
969.666	3726.54
969.968	3686.09
970.269	3671.4
970.571	3631.18
970.872	3676.6
971.174	3615.36
971.475	3580.33
971.776	3594.11
972.077	3532.2
972.378	3558.64
972.679	3529.03
972.98	3492.42
973.281	3482.93
973.582	3476.6
973.883	3454.68
974.183	3488.13
974.484	3418.53
974.785	3443.84
975.085	3409.71
975.386	3395.48
975.686	3394.8
975.986	3370.17
976.287	3308.92
976.587	3324.29
976.887	3291.98
977.187	3318.19
977.487	3310.05
977.787	3293.78
978.087	3317.06
978.387	3266.44
978.687	3253.56
978.987	3219.66
979.286	3201.58
979.586	3187.57
979.885	3209.04
980.185	3162.26
980.484	3152.09
980.784	3126.78
981.083	3082.94
981.382	3087.24
981.682	3088.37
981.981	3126.1
982.28	3091.53
982.579	3053.11
982.878	3039.55
983.177	3042.94
983.475	3039.78
983.774	2968.14
984.073	2963.17
984.372	2957.97
984.67	2912.55
984.969	2951.87
985.267	2910.97
985.566	2911.65
985.864	2888.6
986.162	2857.18
986.461	2857.86
986.759	2835.49
987.057	2809.95
987.355	2812.89
987.653	2801.82
987.951	2798.66
988.249	2801.14
988.547	2779.67
988.844	2767.47
989.142	2814.25
989.44	2745.32
989.737	2720.01
990.035	2728.15
990.332	2674.59
990.63	2655.83
990.927	2671.43
991.224	2646.57
991.521	2702.16
991.819	2643.86
992.116	2615.38
992.413	2653.35
992.71	2622.61
993.006	2573.35
993.303	2582.62
993.6	2583.07
993.897	2567.25
994.193	2537.42
994.49	2522.28
994.787	2540.81
995.083	2487.03
995.379	2506.91
995.676	2462.62
995.972	2514.14
996.268	2469.4
996.565	2445.22
996.861	2448.83
997.157	2468.04
997.453	2396.86
997.749	2407.03
998.044	2351.66
998.34	2370.42
998.636	2375.39
998.932	2334.71
999.227	2349.18
999.523	2357.76
999.818	2337.2
1000.114	2296.97
1000.409	2262.62
1000.704	2252.45
1001	2252.68
1001.295	2249.97
1001.59	2265.34
1001.885	2217.65
1002.18	2205.45
1002.475	2204.55
1002.77	2188.73
1003.065	2163.19
1003.359	2172.23
1003.654	2153.47
1003.949	2166.13
1004.243	2141.5
1004.538	2150.08
1004.832	2075.96
1005.127	2088.84
1005.421	2075.06
1005.715	2056.75
1006.009	2071.67
1006.304	2019.47
1006.598	2025.79
1006.892	2026.25
1007.186	2018.11
1007.48	1984.44
1007.773	1962.29
1008.067	1970.65
1008.361	1965.23
1008.655	1945.8
1008.948	1934.05
1009.242	1947.83
1009.535	1945.34
1009.829	1918.68
1010.122	1891.79
1010.415	1880.26
1010.708	1875.52
1011.001	1860.83
1011.295	1846.36
1011.588	1816.08
1011.881	1825.8
1012.173	1833.71
1012.466	1795.97
1012.759	1803.65
1013.052	1791.22
1013.344	1774.95
1013.637	1779.25
1013.93	1750.55
1014.222	1726.59
1014.514	1741.28
1014.807	1751.9
1015.099	1706.71
1015.391	1687.05
1015.683	1668.74
1015.976	1675.29
1016.268	1670.32
1016.56	1640.95
1016.851	1615.18
1017.143	1641.17
1017.435	1662.41
1017.727	1630.1
1018.018	1630.78
1018.31	1588.29
1018.602	1565.47
1018.893	1580.61
1019.185	1574.51
1019.476	1586.71
1019.767	1568.41
1020.058	1518.46
1020.35	1518.91
1020.641	1508.07
1020.932	1499.48
1021.223	1514.4
1021.514	1515.3
1021.804	1460.61
1022.095	1472.36
1022.386	1449.99
1022.677	1445.7
1022.967	1429.65
1023.258	1418.13
1023.548	1464.9
1023.839	1425.13
1024.129	1400.5
1024.419	1407.28
1024.709	1368.86
1025	1372.93
1025.29	1353.95
1025.58	1360.95
1025.87	1339.03
1026.16	1339.48
1026.449	1327.73
1026.739	1305.14
1027.029	1305.81
1027.319	1318.69
1027.608	1315.98
1027.898	1284.8
1028.187	1292.93
1028.477	1282.99
1028.766	1280.05
1029.055	1257.68
1029.344	1252.03
1029.634	1243.89
1029.923	1221.75
1030.212	1217.91
1030.501	1235.98
1030.79	1224.91
1031.078	1188.3
1031.367	1180.39
1031.656	1170.9
1031.945	1192.82
1032.233	1187.17
1032.522	1174.07
1032.81	1148.08
1033.099	1181.3
1033.387	1131.81
1033.675	1144.24
1033.963	1135.2
1034.251	1120.96
1034.54	1106.27
1034.828	1072.37
1035.116	1098.36
1035.403	1042.09
1035.691	1064.92
1035.979	1057.01
1036.267	1062.2
1036.554	1050.9
1036.842	1032.83
1037.129	1066.05
1037.417	1021.98
1037.704	1024.46
1037.992	1027.85
1038.279	1011.36
1038.566	991.47
1038.853	991.47
1039.14	991.47
