Data from hue_70_FLMS001491_100.txt Node
Date: Mon Feb 06 15:21:47 GMT 2017
User: dcchb
Spectrometer: FLMS00149
Trigger mode: 0
Integration Time (sec): 2.000000E-2
Scans to average: 10
Electric dark correction enabled: true
Nonlinearity correction enabled: false
Boxcar width: 0
XAxis mode: Wavelengths
Number of Pixels in Spectrum: 2048
>>>>>Begin Spectral Data<<<<<
341.393	-12.43
341.776	-12.43
342.16	-12.43
342.543	-63.28
342.927	-49.04
343.31	-58.98
343.693	-79.32
344.077	-68.25
344.46	-54.46
344.843	-50.39
345.226	-54.46
345.61	-38.42
345.993	-6.33
346.376	-13.56
346.759	-3.84
347.142	33.9
347.525	45.42
347.908	56.5
348.291	68.25
348.674	94.23
349.057	129.71
349.44	126.78
349.823	119.32
350.206	158.64
350.588	190.5
350.971	212.2
351.354	232.99
351.737	244.74
352.119	226.66
352.502	242.03
352.884	278.41
353.267	291.07
353.65	296.26
354.032	310.27
354.414	303.04
354.797	308.47
355.179	322.93
355.562	322.7
355.944	312.53
356.326	336.49
356.709	318.18
357.091	325.42
357.473	346.66
357.855	335.58
358.238	345.53
358.62	331.74
359.002	339.88
359.384	332.87
359.766	338.3
360.148	335.81
360.53	336.71
360.912	343.04
361.294	324.74
361.676	333.78
362.057	329.03
362.439	344.17
362.821	333.78
363.203	319.54
363.584	335.36
363.966	321.57
364.348	338.52
364.729	320.9
365.111	313.21
365.493	332.42
365.874	308.92
366.256	323.83
366.637	312.53
367.019	331.74
367.4	315.7
367.781	308.24
368.163	303.95
368.544	308.24
368.925	316.6
369.306	322.93
369.688	293.55
370.069	309.37
370.45	293.33
370.831	310.95
371.212	303.27
371.593	293.33
371.974	320.67
372.355	327.67
372.736	330.84
373.117	318.64
373.498	314.79
373.879	318.41
374.26	312.53
374.641	293.55
375.021	318.64
375.402	318.41
375.783	329.03
376.163	331.06
376.544	305.75
376.925	323.38
377.305	321.12
377.686	337.62
378.066	327
378.447	315.92
378.827	339.65
379.208	345.98
379.588	335.13
379.968	324.06
380.349	334.23
380.729	329.93
381.109	337.17
381.489	311.63
381.87	344.62
382.25	331.52
382.63	335.58
383.01	331.29
383.39	308.01
383.77	341.23
384.15	333.78
384.53	334.23
384.91	355.24
385.29	356.37
385.67	327.68
386.049	344.17
386.429	359.76
386.809	338.3
387.189	351.4
387.568	352.99
387.948	350.5
388.328	358.63
388.707	339.88
389.087	349.6
389.466	350.27
389.846	351.63
390.225	351.86
390.605	380.33
390.984	364.74
391.363	376.26
391.743	352.53
392.122	375.36
392.501	355.92
392.881	365.19
393.26	376.04
393.639	375.13
394.018	380.33
394.397	371.29
394.776	378.97
395.155	367.22
395.534	391.4
395.913	375.13
396.292	387.33
396.671	374.68
397.05	370.61
397.429	388.24
397.808	354.11
398.186	395.47
398.565	400.44
398.944	379.88
399.323	382.81
399.701	397.28
400.08	378.07
400.458	382.59
400.837	374.68
401.215	381.01
401.594	383.94
401.972	374.45
402.351	384.85
402.729	418.29
403.107	416.49
403.486	404.51
403.864	405.64
404.242	412.42
404.62	403.38
404.999	409.48
405.377	413.55
405.755	416.26
406.133	406.54
406.511	405.41
406.889	422.59
407.267	423.04
407.645	423.49
408.023	416.71
408.401	424.4
408.779	430.05
409.156	406.32
409.534	428.24
409.912	428.01
410.29	449.03
410.667	433.66
411.045	448.35
411.422	433.89
411.8	430.95
412.178	439.76
412.555	435.69
412.933	442.25
413.31	454.9
413.687	453.55
414.065	465.75
414.442	472.98
414.819	463.72
415.197	488.12
415.574	475.24
415.951	466.43
416.328	476.82
416.705	496.26
417.082	468.01
417.46	454.68
417.837	492.87
418.214	467.56
418.591	485.64
418.967	484.96
419.344	500.33
419.721	473.89
420.098	511.17
420.475	509.37
420.852	499.42
421.228	496.71
421.605	494.68
421.982	504.62
422.358	518.4
422.735	508.01
423.111	503.72
423.488	522.7
423.864	524.73
424.241	533.77
424.617	528.35
424.994	522.7
425.37	544.84
425.746	542.81
426.123	538.52
426.499	544.17
426.875	557.5
427.251	562.02
427.627	561.12
428.003	580.32
428.379	582.58
428.756	575.35
429.132	575.58
429.507	556.82
429.883	577.39
430.259	569.7
430.635	583.04
431.011	605.86
431.387	586.65
431.763	620.77
432.138	592.07
432.514	616.71
432.89	614
433.265	634.33
433.641	641.57
434.016	611.51
434.392	624.16
434.767	628.46
435.143	637.05
435.518	638.63
435.894	642.02
436.269	637.05
436.644	661
437.02	675.91
437.395	658.74
437.77	649.93
438.145	656.48
438.52	668.46
438.895	712.3
439.271	686.08
439.646	707.1
440.021	704.39
440.395	703.48
440.77	701.68
441.145	722.69
441.52	717.04
441.895	740.77
442.27	713.88
442.645	722.01
443.019	729.47
443.394	712.52
443.769	741.68
444.143	730.38
444.518	740.77
444.892	766.76
445.267	755.69
445.641	758.4
446.016	769.02
446.39	761.56
446.764	773.09
447.139	799.53
447.513	778.96
447.887	786.19
448.262	786.19
448.636	784.39
449.01	790.49
449.384	794.33
449.758	803.59
450.132	780.32
450.506	812.86
450.88	812.63
451.254	835.68
451.628	840.2
452.002	853.99
452.376	844.27
452.75	869.81
453.123	873.42
453.497	873.2
453.871	880.88
454.244	862.8
454.618	900.32
454.992	889.24
455.365	877.04
455.739	941.67
456.112	898.96
456.486	915
456.859	932.4
457.232	975.12
457.606	932.4
457.979	974.66
458.352	997.26
458.725	1024.15
459.099	1017.37
459.472	1017.15
459.845	989.58
460.218	1036.58
460.591	1051.27
460.964	1060.09
461.337	1067.99
461.71	1073.87
462.083	1073.19
462.456	1103.02
462.829	1143.92
463.201	1117.94
463.574	1151.38
463.947	1163.59
464.32	1164.94
464.692	1185.51
465.065	1192.06
465.438	1202
465.81	1225.5
466.183	1239.97
466.555	1258.72
466.928	1256.01
467.3	1286.52
467.672	1295.33
468.045	1338.5
468.417	1358.38
468.789	1364.71
469.161	1393.86
469.534	1424.37
469.906	1443.58
470.278	1468.44
470.65	1465.5
471.022	1518.6
471.394	1558.83
471.766	1557.02
472.138	1603.8
472.51	1631.14
472.882	1674.31
473.253	1688.54
473.625	1721.08
473.997	1781.42
474.369	1823.23
474.74	1839.73
475.112	1882.66
475.484	1947.07
475.855	1975.99
476.227	1987.52
476.598	2090.79
476.97	2093.28
477.341	2175.54
477.713	2202.88
478.084	2269.09
478.455	2347.51
478.827	2420.28
479.198	2455.98
479.569	2485.36
479.94	2619.37
480.311	2659.14
480.682	2766.03
481.053	2815.97
481.424	2905.01
481.795	2980.71
482.166	3088.73
482.537	3152.46
482.908	3305
483.279	3344.54
483.65	3450.3
484.021	3575.73
484.391	3632.45
484.762	3724.65
485.133	3841.93
485.503	3891.42
485.874	4015.26
486.244	4142.26
486.615	4292.54
486.985	4381.81
487.356	4485.98
487.726	4610.05
488.097	4724.62
488.467	4834
488.837	5015.91
489.207	5110.37
489.578	5228.34
489.948	5369.8
490.318	5498.84
490.688	5621.32
491.058	5740.19
491.428	5930.69
491.798	6013.4
492.168	6229.44
492.538	6295.88
492.908	6511.47
493.278	6695.42
493.648	6708.98
494.017	6873.94
494.387	6998.46
494.757	7196.87
495.126	7285.68
495.496	7426.02
495.866	7537.2
496.235	7722.51
496.605	7894.48
496.974	7963.63
497.344	8144.64
497.713	8271.19
498.082	8411.08
498.452	8593.45
498.821	8665.76
499.19	8797.28
499.559	8882.25
499.928	9072.53
500.298	9129.48
500.667	9352.52
501.036	9399.07
501.405	9570.82
501.774	9654.89
502.143	9731.27
502.512	9919.51
502.88	10082.67
503.249	10085.16
503.618	10270.01
503.987	10383.46
504.356	10558.59
504.724	10570.8
505.093	10703.67
505.462	10790.22
505.83	10939.6
506.199	11134.62
506.567	11283.32
506.936	11266.6
507.304	11462.98
507.672	11516.99
508.041	11674.72
508.409	11782.74
508.777	11886.47
509.145	12084.43
509.514	12060.93
509.882	12224.76
510.25	12295.27
510.618	12422.05
510.986	12464.08
511.354	12687.12
511.722	12782.26
512.09	12883.5
512.458	12960.79
512.826	13104.06
513.193	13069.71
513.561	13245.53
513.929	13306.32
514.297	13438.97
514.664	13561.68
515.032	13684.39
515.4	13802.35
515.767	13863.14
516.135	13927.77
516.502	13851.16
516.869	14170.7
517.237	14228.55
517.604	14308.55
517.972	14340.64
518.339	14439.62
518.706	14494.99
519.073	14664.7
519.44	14711.48
519.808	14861.98
520.175	14817.24
520.542	15049.77
520.909	15096.55
521.276	15134.97
521.643	15297.22
522.009	15320.5
522.376	15522.76
522.743	15580.38
523.11	15713.26
523.477	15803.43
523.843	15847.27
524.21	15966.81
524.577	16151.89
524.943	16226.24
525.31	16280.02
525.676	16446.12
526.043	16518.89
526.409	16481.83
526.776	16677.75
527.142	16682.95
527.508	16845.88
527.874	16997.97
528.241	16999.1
528.607	17000
528.973	17169.72
529.339	17159.32
529.705	17340.34
530.071	17499.88
530.437	17464.4
530.803	17604.73
531.169	17693.09
531.535	17601.35
531.901	17572.19
532.267	17672.76
532.632	17863.94
532.998	17870.49
533.364	17930.38
533.73	17937.16
534.095	18059.86
534.461	18072.52
534.826	18115.46
535.192	18150.94
535.557	18288.11
535.923	18288.56
536.288	18259.63
536.653	18389.57
537.019	18396.35
537.384	18411.95
537.749	18518.84
538.114	18403.36
538.479	18442.9
538.845	18504.37
539.21	18486.07
539.575	18573.52
539.94	18607.42
540.305	18641.32
540.67	18609.23
541.034	18602
541.399	18768.32
541.764	18676.12
542.129	18764.7
542.494	18801.99
542.858	18848.09
543.223	18753.63
543.587	18939.62
543.952	18805.83
544.316	18881.54
544.681	18924.47
545.045	18887.41
545.41	18932.84
545.774	18935.55
546.138	18942.1
546.503	18961.54
546.867	18911.14
547.231	19139.38
547.595	19083.79
547.959	19076.11
548.324	19036.11
548.688	19137.58
549.052	19124.92
549.416	19097.35
549.779	19157.46
550.143	19251.02
550.507	19259.83
550.871	19234.52
551.235	19261.64
551.599	19390
551.962	19440.17
552.326	19349.55
552.689	19478.58
553.053	19350.23
553.417	19482.65
553.78	19664.34
554.143	19565.14
554.507	19576.66
554.87	19656.88
555.234	19767.84
555.597	19620.5
555.96	19742.76
556.323	19711.8
556.686	19753.15
557.05	19850.33
557.413	19863.21
557.776	19940.27
558.139	20074.95
558.502	19964.9
558.865	20024.56
559.228	20189.53
559.59	20168.51
559.953	20143.2
560.316	20353.14
560.679	20352.91
561.041	20466.35
561.404	20452.12
561.767	20589.29
562.129	20485.56
562.492	20701.38
562.854	20658.21
563.217	20617.99
563.579	20647.59
563.941	20813.46
564.304	20888.94
564.666	20932.1
565.028	20836.06
565.39	20943.18
565.753	21030.41
566.115	21130.74
566.477	21166.45
566.839	21264.75
567.201	21416.61
567.563	21419.32
567.925	21500.23
568.287	21434.01
568.648	21648.24
569.01	21641.01
569.372	21735.93
569.734	21680.79
570.095	21758.75
570.457	21725.3
570.819	21874.45
571.18	21846.66
571.542	21998.52
571.903	22015.47
572.265	22070.15
572.626	22152.41
572.987	22123.71
573.349	22108.35
573.71	22227.89
574.071	22309.92
574.432	22272.86
574.794	22512.63
575.155	22421.33
575.516	22420.43
575.877	22533.64
576.238	22532.51
576.599	22562.8
576.96	22569.58
577.32	22601.44
577.681	22673.3
578.042	22711.04
578.403	22669.46
578.763	22752.62
579.124	22737.71
579.485	22846.63
579.845	22913.75
580.206	22759.85
580.566	22751.27
580.927	22800.53
581.287	22896.8
581.648	22825.16
582.008	22896.12
582.368	22873.97
582.728	22864.94
583.089	22855.67
583.449	22876.01
583.809	22832.62
584.169	22954.42
584.529	22882.56
584.889	23102.9
585.249	22977.7
585.609	22949.68
585.969	22973.86
586.329	22924.82
586.688	23004.37
587.048	22875.33
587.408	22859.96
587.768	22880.08
588.127	22867.2
588.487	22844.6
588.846	23057.25
589.206	22874.43
589.565	22932.05
589.925	22915.78
590.284	22906.29
590.643	22988.32
591.003	23014.31
591.362	23036.91
591.721	22947.87
592.08	23028.77
592.44	22957.81
592.799	23003.24
593.158	23083.91
593.517	22947.42
593.876	23019.73
594.235	22928.66
594.593	22967.98
594.952	23038.49
595.311	22852.51
595.67	23002.33
596.029	23160.07
596.387	23184.48
596.746	23091.82
597.104	23030.35
597.463	23021.99
597.822	23090.01
598.18	22937.93
598.538	23100.18
598.897	23114.87
599.255	22961.2
599.613	23299.5
599.972	23073.74
600.33	23262.67
600.688	23117.36
601.046	23259.05
601.404	23343.12
601.762	23171.14
602.12	23265.6
602.478	23268.31
602.836	23398.03
603.194	23170.69
603.552	23240.52
603.91	23156.91
604.268	23318.48
604.625	23145.61
604.983	23310.57
605.341	23167.98
605.698	23364.36
606.056	23271.93
606.413	23342.66
606.771	23421.31
607.128	23532.71
607.485	23392.83
607.843	23432.15
608.2	23499.95
608.557	23602.54
608.914	23435.77
609.272	23617.91
609.629	23657.68
609.986	23783.56
610.343	23605.48
610.7	23772.93
611.057	23762.99
611.414	23686.38
611.771	23731.13
612.127	23774.29
612.484	23828.53
612.841	23938.35
613.198	23807.74
613.554	23876.89
613.911	24022.19
614.267	23920.5
614.624	24058.12
614.98	23997.56
615.337	24134.96
615.693	24093.38
616.05	24065.13
616.406	24323.43
616.762	24121.4
617.118	24188.29
617.475	24190.1
617.831	24160.49
618.187	24248.18
618.543	24229.87
618.899	24444.33
619.255	24305.35
619.611	24278.46
619.967	24459.02
620.323	24466.48
620.678	24427.15
621.034	24365.46
621.39	24253.37
621.746	24405.46
622.101	24705.57
622.457	24417.89
622.812	24501.28
623.168	24625.12
623.523	24499.69
623.879	24680.71
624.234	24481.16
624.589	24615.4
624.945	24549.19
625.3	24686.81
625.655	24618.34
626.01	24590.31
626.365	24544.89
626.72	24627.6
627.075	24669.86
627.43	24645.91
627.785	24511.67
628.14	24571.78
628.495	24636.64
628.85	24653.36
629.205	24575.85
629.559	24603.19
629.914	24521.62
630.269	24587.83
630.623	24509.19
630.978	24496.08
631.332	24604.55
631.687	24495.18
632.041	24567.26
632.396	24526.81
632.75	24410.66
633.104	24485.68
633.459	24359.36
633.813	24278.23
634.167	24315.74
634.521	24347.61
634.875	24390.77
635.229	24300.15
635.583	24233.71
635.937	24241.17
636.291	24127.95
636.645	24198.46
636.999	24141.29
637.352	24171.57
637.706	24010.89
638.06	24229.65
638.413	24037.33
638.767	24062.87
639.121	24168.86
639.474	24054.51
639.828	23954.85
640.181	24054.96
640.534	24025.13
640.888	23919.15
641.241	23822.88
641.594	23978.58
641.947	24049.09
642.301	23959.14
642.654	23894.96
643.007	23958.01
643.36	23917.11
643.713	23856.55
644.066	23958.24
644.419	23766.61
644.771	23676.21
645.124	23438.25
645.477	23395.54
645.83	23242.1
646.182	23191.71
646.535	23125.72
646.888	23161.2
647.24	22984.71
647.593	23158.71
647.945	23184.02
648.298	23017.25
648.65	22947.19
649.002	22914.43
649.355	23134.76
649.707	23036.91
650.059	23144.02
650.411	23340.86
650.763	23448.65
651.115	23654.97
651.467	23601.64
651.819	23535.88
652.171	23481.42
652.523	23553.73
652.875	23510.57
653.227	23349.44
653.578	23609.1
653.93	23519.61
654.282	23412.27
654.633	23360.74
654.985	23466.5
655.337	23374.75
655.688	23465.37
656.039	23484.13
656.391	23325.94
656.742	23387.63
657.094	23447.52
657.445	23448.65
657.796	23426.28
658.147	23382.44
658.498	23339.05
658.849	23398.03
659.2	23345.37
659.551	23245.04
659.902	23353.06
660.253	23266.73
660.604	23472.38
660.955	23233.29
661.306	23375.43
661.656	23292.95
662.007	23360.74
662.358	23438.25
662.708	23376.79
663.059	23362.1
663.409	23204.14
663.76	23329.1
664.11	23321.87
664.461	23326.39
664.811	23361.65
665.161	23394.41
665.511	23298.6
665.862	23405.49
666.212	23492.94
666.562	23505.6
666.912	23346.28
667.262	23308.31
667.612	23450
667.962	23473.28
668.312	23287.52
668.662	23374.3
669.011	23394.41
669.361	23301.53
669.711	23326.84
670.06	23307.41
670.41	23226.73
670.76	23264.47
671.109	23329.56
671.459	23183.8
671.808	23202.1
672.157	23316.22
672.507	23146.06
672.856	23127.75
673.205	23051.37
673.554	23312.83
673.904	23216.56
674.253	23256.79
674.602	23189.9
674.951	22839.85
675.3	22764.15
675.649	23121.65
675.998	23134.76
676.346	23172.05
676.695	23220.86
677.044	22941.77
677.393	22960.3
677.741	23005.72
678.09	23004.37
678.438	22856.35
678.787	22840.98
679.135	22866.74
679.484	22771.83
679.832	22929.79
680.181	22741.32
680.529	22877.36
680.877	22768.67
681.225	22695.45
681.573	22832.17
681.922	22711.04
682.27	22652.51
682.618	22647.77
682.966	22530.93
683.314	22565.73
683.661	22558.73
684.009	22535.23
684.357	22378.39
684.705	22304.5
685.053	22375.68
685.4	22238.51
685.748	22222.47
686.095	22182.02
686.443	21985.64
686.79	22018.18
687.138	22008.91
687.485	22031.29
687.832	21947.67
688.18	22005.07
688.527	21831.06
688.874	21796.26
689.221	21786.09
689.568	21627.68
689.915	21724.17
690.262	21621.58
690.609	21490.73
690.956	21396.5
691.303	21432.66
691.65	21334.81
691.997	21373.22
692.344	21200.12
692.69	21100.46
693.037	21240.35
693.383	20975.95
693.73	21110.18
694.077	20919.45
694.423	20972.1
694.769	20905.67
695.116	20831.54
695.462	20767.82
695.808	20614.83
696.155	20752.9
696.501	20601.94
696.847	20566.92
697.193	20395.85
697.539	20475.62
697.885	20282.86
698.231	20204.67
698.577	20275.17
698.923	20189.3
699.269	20182.07
699.614	19985.24
699.96	19982.98
700.306	19876.77
700.651	19787.5
700.997	19770.33
701.342	19711.8
701.688	19726.94
702.033	19635.87
702.379	19562.2
702.724	19467.74
703.069	19462.99
703.415	19325.82
703.76	19303.9
704.105	19370.34
704.45	19316.1
704.795	19203.56
705.14	19122.44
705.485	19064.58
705.83	18997.92
706.175	18947.07
706.52	18922.44
706.865	18884.02
707.209	18828.21
707.554	18709.34
707.899	18658.27
708.243	18635.67
708.588	18599.51
708.932	18498.04
709.277	18455.56
709.621	18460.76
709.966	18255.34
710.31	18365.39
710.654	18224.38
710.998	18242.68
711.342	18147.09
711.687	18127.43
712.031	18122.24
712.375	17955.23
712.719	18136.25
713.063	18028.23
713.407	18055.57
713.75	17943.48
714.094	17880.43
714.438	17768.57
714.782	17907.33
715.125	17700.55
715.469	17853.32
715.812	17707.56
716.156	17575.13
716.499	17569.93
716.843	17686.54
717.186	17522.25
717.53	17658.74
717.873	17536.94
718.216	17615.36
718.559	17492.87
718.902	17454.46
719.246	17429.37
719.589	17395.02
719.932	17272.54
720.275	17304.18
720.617	17377.62
720.96	17212.2
721.303	17205.2
721.646	17201.36
721.989	17166.1
722.331	17118.65
722.674	17219.89
723.016	17099.44
723.359	17066.67
723.701	17153.22
724.044	16970.4
724.386	16969.27
724.729	16942.83
725.071	16969.27
725.413	16937.41
725.755	16947.8
726.097	16837.52
726.439	16759.56
726.782	16711.2
727.124	16904.19
727.465	16769.5
727.807	16778.32
728.149	16668.26
728.491	16778.99
728.833	16747.58
729.175	16710.07
729.516	16663.52
729.858	16629.85
730.199	16682.5
730.541	16642.5
730.882	16594.82
731.224	16648.83
731.565	16571.09
731.906	16506.91
732.248	16600.02
732.589	16589.62
732.93	16489.28
733.271	16489.96
733.612	16473.01
733.953	16562.5
734.294	16430.98
734.635	16490.19
734.976	16439.79
735.317	16416.07
735.658	16356.63
735.999	16385.56
736.339	16359.8
736.68	16437.76
737.021	16394.82
737.361	16402.05
737.702	16409.06
738.042	16390.76
738.383	16380.36
738.723	16420.13
739.063	16347.59
739.404	16399.79
739.744	16405.9
740.084	16307.37
740.424	16406.8
740.764	16302.17
741.104	16381.49
741.444	16308.72
741.784	16308.05
742.124	16423.97
742.464	16364.54
742.804	16356.63
743.143	16413.81
743.483	16377.42
743.823	16349.17
744.162	16359.57
744.502	16475.72
744.841	16383.07
745.181	16482.96
745.52	16400.92
745.86	16475.95
746.199	16481.6
746.538	16509.62
746.877	16486.35
747.216	16548.49
747.556	16578.55
747.895	16637.08
748.234	16550.75
748.573	16680.24
748.911	16668.04
749.25	16721.82
749.589	16649.96
749.928	16745.1
750.267	16830.07
750.605	16850.4
750.944	16868.48
751.283	16873.45
751.621	17043.62
751.96	16980.12
752.298	16983.96
752.636	17021.47
752.975	17099.44
753.313	17102.15
753.651	17320.22
753.989	17286.1
754.327	17346.89
754.666	17327
755.004	17470.5
755.342	17588.46
755.679	17531.29
756.017	17614
756.355	17735.35
756.693	17676.6
757.031	17840.43
757.368	17874.11
757.706	17871.85
758.044	17934.67
758.381	18011.28
758.719	18055.12
759.056	18241.1
759.394	18254.89
759.731	18304.83
760.068	18190.71
760.405	18298.28
760.743	18333.3
761.08	18411.27
761.417	18569
761.754	18595.9
762.091	18641.77
762.428	18638.15
762.765	18501.43
763.102	18659.85
763.438	18678.6
763.775	18746.17
764.112	18847.19
764.449	19049.44
764.785	18913.4
765.122	18864.14
765.458	18877.02
765.795	18924.02
766.131	19038.82
766.467	18917.92
766.804	18929.67
767.14	18994.53
767.476	18952.04
767.812	18945.04
768.148	19148.42
768.485	19005.15
768.821	19065.26
769.157	18990.24
769.492	19036.34
769.828	19020.97
770.164	18957.24
770.5	19105.94
770.836	19128.76
771.171	18920.41
771.507	18994.98
771.842	18862.55
772.178	18922.89
772.513	18943
772.849	18859.39
773.184	18822.78
773.519	18844.93
773.855	18789.79
774.19	18757.7
774.525	18781.88
774.86	18799.28
775.195	18848.77
775.53	18667.76
775.865	18678.15
776.2	18503.92
776.535	18452.4
776.87	18506.18
777.205	18495.33
777.539	18416.24
777.874	18436.58
778.209	18304.83
778.543	18312.06
778.878	18199.97
779.212	18243.59
779.547	18089.69
779.881	18185.74
780.215	18069.13
780.55	18053.08
780.884	18092.63
781.218	17915.91
781.552	17944.84
781.886	17907.1
782.22	17719.76
782.554	17751.17
782.888	17627.79
783.222	17575.13
783.556	17523.61
783.889	17490.84
784.223	17378.75
784.557	17374.91
784.89	17421.01
785.224	17192.32
785.557	17175.37
785.891	17114.8
786.224	17198.42
786.558	17149.61
786.891	16979.89
787.224	16929.05
787.557	16927.92
787.891	16975.82
788.224	16871.42
788.557	16799.11
788.89	16764.08
789.223	16845.43
789.556	16637.75
789.888	16583.29
790.221	16552.79
790.554	16488.15
790.887	16458.55
791.219	16487.7
791.552	16477.53
791.884	16264.43
792.217	16241.61
792.549	16209.07
792.882	16091.1
793.214	15995.74
793.546	16068.5
793.879	16011.33
794.211	15894.5
794.543	15974.27
794.875	15869.64
795.207	15934.5
795.539	15767.04
795.871	15867.15
796.203	15682.07
796.535	15609.31
796.867	15614.05
797.198	15539.93
797.53	15543.32
797.862	15432.36
798.193	15526.37
798.525	15341.97
798.856	15395.08
799.188	15177.68
799.519	15185.36
799.85	15098.36
800.182	15121.64
800.513	15072.6
800.844	14937.01
801.175	15058.81
801.506	15041.41
801.837	14955.76
802.168	14918.25
802.499	14805.71
802.83	14735.66
803.161	14694.98
803.491	14721.65
803.822	14689.78
804.153	14598.03
804.483	14543.57
804.814	14497.7
805.145	14437.13
805.475	14380.64
805.805	14435.1
806.136	14387.64
806.466	14348.78
806.796	14433.29
807.126	14091.15
807.457	14177.25
807.787	14216.8
808.117	14121.21
808.447	14052.51
808.777	14067.43
809.107	14009.8
809.436	14001.89
809.766	13960.54
810.096	14000.99
810.426	13857.71
810.755	13842.8
811.085	13852.97
811.414	13793.31
811.744	13779.98
812.073	13685.52
812.403	13683.71
812.732	13564.62
813.061	13565.52
813.39	13516.25
813.719	13526.2
814.049	13577.04
814.378	13455.47
814.707	13477.39
815.036	13453.21
815.365	13363.94
815.693	13276.49
816.022	13308.35
816.351	13206.21
816.68	13163.95
817.008	13264.06
817.337	13109.94
817.665	13018.41
817.994	13166.89
818.322	13091.86
818.651	12987.91
818.979	13011.64
819.307	13011.86
819.636	13002.37
819.964	12893.9
820.292	12955.37
820.62	12950.39
820.948	12909.04
821.276	12901.58
821.604	12871.3
821.932	12868.81
822.259	12935.25
822.587	12840.57
822.915	12817.97
823.243	12860.45
823.57	12781.58
823.898	12808.25
824.225	12800.12
824.553	12809.61
824.88	12854.8
825.207	12867.91
825.535	12808.25
825.862	12785.43
826.189	12750.17
826.516	12865.2
826.843	12906.78
827.17	12835.14
827.497	12809.61
827.824	12812.77
828.151	12827.46
828.478	12765.31
828.805	12836.27
829.131	12834.92
829.458	12845.99
829.785	12706.56
830.111	12765.54
830.438	12799.89
830.764	12752.89
831.09	12809.38
831.417	12705.43
831.743	12804.18
832.069	12749.5
832.395	12698.42
832.722	12813.22
833.048	12701.36
833.374	12742.49
833.7	12639.22
834.026	12670.18
834.351	12675.82
834.677	12677.63
835.003	12671.76
835.329	12692.55
835.654	12650.06
835.98	12476.96
836.306	12552.21
836.631	12479.9
836.956	12622.04
837.282	12608.71
837.607	12406.45
837.932	12478.54
838.258	12453.91
838.583	12349.51
838.908	12458.2
839.233	12476.73
839.558	12373.69
839.883	12357.19
840.208	12327.59
840.533	12352.44
840.858	12293.01
841.182	12284.87
841.507	12188.38
841.832	12159.23
842.156	12074.94
842.481	12153.8
842.805	12143.41
843.13	12019.12
843.454	12054.15
843.778	11965.11
844.103	11938.22
844.427	11918.78
844.751	11991.78
845.075	11937.54
845.399	11931.66
845.723	11857.77
846.047	11847.82
846.371	11769.86
846.695	11768.5
847.019	11632.46
847.343	11594.27
847.666	11545.01
847.99	11530.09
848.313	11543.88
848.637	11425.69
848.96	11479.02
849.284	11358.57
849.607	11270.89
849.931	11277.9
850.254	11217.56
850.577	11147.96
850.9	11092.36
851.223	11095.3
851.546	11034.06
851.869	10912.26
852.192	10987.96
852.515	10900.28
852.838	10851.47
853.161	10890.79
853.483	10782.99
853.806	10735.31
854.129	10769.21
854.451	10692.83
854.774	10628.2
855.096	10617.35
855.419	10560.85
855.741	10589.55
856.063	10492.38
856.385	10489.22
856.708	10435.66
857.03	10373.96
857.352	10380.29
857.674	10300.29
857.996	10285.61
858.318	10259.84
858.64	10249.67
858.961	10265.27
859.283	10152.28
859.605	10174.2
859.926	10140.98
860.248	10156.12
860.57	10106.63
860.891	10069.34
861.212	10067.08
861.534	10059.17
861.855	9994.77
862.176	10008.78
862.498	9988.44
862.819	9971.04
863.14	9878.38
863.461	9916.35
863.782	9870.25
864.103	9909.8
864.424	9860.08
864.745	9860.31
865.065	9785.73
865.386	9813.75
865.707	9757.03
866.027	9737.6
866.348	9717.71
866.668	9766.52
866.989	9719.07
867.309	9652.85
867.63	9730.14
867.95	9688.11
868.27	9570.37
868.59	9625.96
868.91	9570.82
869.23	9556.36
869.55	9516.81
869.87	9548.9
870.19	9545.29
870.51	9563.82
870.83	9544.61
871.15	9538.96
871.469	9552.07
871.789	9523.82
872.109	9482.91
872.428	9378.51
872.748	9425.06
873.067	9376.25
873.386	9379.87
873.706	9381.45
874.025	9395.46
874.344	9349.58
874.663	9320.66
874.982	9276.82
875.301	9309.81
875.62	9306.65
875.939	9232.53
876.258	9261.68
876.577	9209.93
876.896	9206.31
877.214	9143.94
877.533	9150.95
877.852	9194.11
878.17	9183.49
878.489	9147.33
878.807	9149.59
879.125	9138.74
879.444	9039.76
879.762	9100.1
880.08	9045.19
880.398	9044.28
880.716	9030.95
881.034	9009.71
881.352	9034.79
881.67	8974
881.988	8937.84
882.306	8893.33
882.624	8923.61
882.941	8850.39
883.259	8913.44
883.577	8819.2
883.894	8787.11
884.212	8774.23
884.529	8836.15
884.846	8728.81
885.164	8802.71
885.481	8727.45
885.798	8750.28
886.115	8669.15
886.432	8645.65
886.75	8623.28
887.067	8651.52
887.383	8557.52
887.7	8596.38
888.017	8527.46
888.334	8521.36
888.651	8513.22
888.967	8500.12
889.284	8515.48
889.6	8452.43
889.917	8394.13
890.233	8418.99
890.55	8409.27
890.866	8400.68
891.182	8345.09
891.498	8343.51
891.815	8271.42
892.131	8242.5
892.447	8258.09
892.763	8169.95
893.079	8210.18
893.395	8115.04
893.71	8111.43
894.026	8193.23
894.342	8118.66
894.657	8062.84
894.973	8003.18
895.289	8026
895.604	8006.57
895.92	7980.58
896.235	7916.18
896.55	7929.51
896.865	7920.02
897.181	7827.82
897.496	7873.92
897.811	7858.1
898.126	7752.79
898.441	7759.57
898.756	7697.88
899.071	7715.5
899.386	7706.46
899.7	7718.89
900.015	7573.36
900.33	7559.8
900.644	7548.05
900.959	7587.82
901.273	7496.75
901.588	7502.85
901.902	7488.84
902.216	7372.91
902.531	7418.34
902.845	7348.96
903.159	7329.98
903.473	7289.07
903.787	7258.57
904.101	7214.95
904.415	7210.21
904.729	7217.44
905.042	7157.78
905.356	7156.42
905.67	7164.33
905.984	7146.25
906.297	7083.88
906.611	7045.46
906.924	6996.2
907.237	7029.65
907.551	6976.09
907.864	6998.23
908.177	6913.49
908.491	6894.73
908.804	6888.41
909.117	6799.82
909.43	6822.42
909.743	6729.54
910.056	6711.24
910.368	6759.6
910.681	6711.24
910.994	6677.11
911.307	6645.93
911.619	6614.06
911.932	6630.11
912.244	6550.79
912.557	6549.21
912.869	6518.02
913.181	6489.09
913.494	6493.39
913.806	6428.31
914.118	6401.64
914.43	6335.88
914.742	6370.23
915.054	6367.74
915.366	6306.27
915.678	6276.9
915.99	6255.88
916.302	6200.97
916.613	6184.47
916.925	6206.84
917.236	6185.15
917.548	6138.82
917.859	6141.53
918.171	6088.2
918.482	6026.96
918.794	6047.3
919.105	6013.18
919.416	5999.62
919.727	5923.91
920.038	5958.94
920.349	5919.17
920.66	5940.86
920.971	5904.7
921.282	5867.64
921.593	5818.83
921.903	5763.92
922.214	5786.29
922.525	5726.18
922.835	5708.1
923.146	5676.69
923.456	5670.13
923.767	5634.43
924.077	5619.29
924.387	5574.09
924.697	5567.54
925.008	5546.29
925.318	5513.75
925.628	5503.81
925.938	5462
926.248	5444.6
926.558	5419.97
926.867	5397.37
927.177	5387.43
927.487	5383.59
927.796	5285.74
928.106	5301.56
928.416	5294.32
928.725	5266.53
929.034	5285.74
929.344	5253.65
929.653	5195.57
929.962	5188.79
930.271	5168.68
930.581	5135.68
930.89	5118.96
931.199	5076.25
931.508	5068.79
931.817	5069.92
932.125	5066.31
932.434	5040.32
932.743	5016.14
933.051	4911.51
933.36	4979.08
933.669	4917.84
933.977	4915.8
934.286	4893.66
934.594	4883.94
934.902	4820.66
935.21	4803.72
935.519	4773.89
935.827	4815.24
936.135	4752.87
936.443	4717.16
936.751	4726.43
937.059	4712.64
937.367	4691.18
937.674	4636.04
937.982	4638.75
938.29	4633.55
938.597	4608.47
938.905	4597.85
939.213	4572.54
939.52	4512.42
939.827	4546.55
940.135	4544.29
940.442	4462.48
940.749	4461.13
941.056	4455.93
941.363	4422.93
941.67	4402.82
941.977	4404.4
942.284	4320.11
942.591	4364.18
942.898	4337.29
943.205	4374.8
943.511	4307.01
943.818	4304.52
944.125	4224.3
944.431	4237.18
944.738	4209.83
945.044	4201.7
945.35	4158.53
945.657	4168.25
945.963	4201.92
946.269	4133
946.575	4172.77
946.881	4095.49
947.187	4112.66
947.493	4057.75
947.799	4056.62
948.105	4012.32
948.41	4036.05
948.716	4035.15
949.022	4031.31
949.327	3969.84
949.633	3935.49
949.938	3902.27
950.244	3949.95
950.549	3895.72
950.854	3875.15
951.16	3835.15
951.465	3829.73
951.77	3851.65
952.075	3840.8
952.38	3823.63
952.685	3823.4
952.99	3777.75
953.294	3761.26
953.599	3773.69
953.904	3703.41
954.209	3705.89
954.513	3691.65
954.818	3699.79
955.122	3669.06
955.426	3631.77
955.731	3656.4
956.035	3622.73
956.339	3581.6
956.643	3572.56
956.948	3588.15
957.252	3576.86
957.556	3520.81
957.86	3504.99
958.163	3539.79
958.467	3535.73
958.771	3491.66
959.075	3448.72
959.378	3428.84
959.682	3432.9
959.985	3423.19
960.289	3422.73
960.592	3403.98
960.896	3373.7
961.199	3334.38
961.502	3310.65
961.805	3314.49
962.108	3319.46
962.411	3293.92
962.714	3256.19
963.017	3278.56
963.32	3263.87
963.623	3239.01
963.926	3206.47
964.228	3262.97
964.531	3209.41
964.833	3186.81
965.136	3143.42
965.438	3136.87
965.741	3155.4
966.043	3159.46
966.345	3133.93
966.648	3133.25
966.95	3097.09
967.252	3086.47
967.554	3082.18
967.856	3067.72
968.158	3077.21
968.46	3042.63
968.761	3022.75
969.063	2978.45
969.365	3014.61
969.666	3021.62
969.968	2938.91
970.269	2923.31
970.571	2967.38
970.872	2963.99
971.174	2926.25
971.475	2928.96
971.776	2896.87
972.077	2893.26
972.378	2892.81
972.679	2884.67
972.98	2833.15
973.281	2837.44
973.582	2838.8
973.883	2820.26
974.183	2808.51
974.484	2809.87
974.785	2743.2
975.085	2783.43
975.386	2754.5
975.686	2744.11
975.986	2782.3
976.287	2734.17
976.587	2731.45
976.887	2712.7
977.187	2691.91
977.487	2712.02
977.787	2635.18
978.087	2663.43
978.387	2664.11
978.687	2662.98
978.987	2633.6
979.286	2571.68
979.586	2615.52
979.885	2574.62
980.185	2538.46
980.484	2535.75
980.784	2530.55
981.083	2522.42
981.382	2525.81
981.682	2530.78
981.981	2482.87
982.28	2482.19
982.579	2462.53
982.878	2447.85
983.177	2458.24
983.475	2426.15
983.774	2407.39
984.073	2453.27
984.372	2371.24
984.67	2419.37
984.969	2379.6
985.267	2386.15
985.566	2394.51
985.864	2351.8
986.162	2358.36
986.461	2352.71
986.759	2371.24
987.057	2317.91
987.355	2312.03
987.653	2271.8
987.951	2281.07
988.249	2279.04
988.547	2272.71
988.844	2275.42
989.142	2260.73
989.44	2250.56
989.737	2220.05
990.035	2224.8
990.332	2211.69
990.63	2216.44
990.927	2185.03
991.224	2196.33
991.521	2179.38
991.819	2178.02
992.116	2141.86
992.413	2118.14
992.71	2152.03
993.006	2129.89
993.303	2110.23
993.6	2114.52
993.897	2077.23
994.193	2103.45
994.49	2064.8
994.787	2050.57
995.083	2013.05
995.379	2013.28
995.676	2023.22
995.972	2027.07
996.268	2006.05
996.565	1975.77
996.861	1966.5
997.157	1963.79
997.453	1995.43
997.749	1969.67
998.044	1932.6
998.34	1950.01
998.636	1949.55
998.932	1908.42
999.227	1923.34
999.523	1915.66
999.818	1885.37
1000.114	1888.76
1000.409	1882.21
1000.704	1881.08
1001	1873.85
1001.295	1839.5
1001.59	1873.4
1001.885	1843.57
1002.18	1828.43
1002.475	1801.08
1002.77	1811.03
1003.065	1809.67
1003.359	1782.1
1003.654	1780.52
1003.949	1750.69
1004.243	1755.89
1004.538	1745.94
1004.832	1752.04
1005.127	1732.61
1005.421	1715.44
1005.715	1703.46
1006.009	1712.05
1006.304	1661.88
1006.598	1651.26
1006.892	1659.62
1007.186	1677.92
1007.48	1647.41
1007.773	1662.56
1008.067	1632.95
1008.361	1637.02
1008.655	1636.79
1008.948	1611.71
1009.242	1590.47
1009.535	1588.88
1009.829	1613.52
1010.122	1593.86
1010.415	1556.8
1010.708	1560.64
1011.001	1541.43
1011.295	1561.09
1011.588	1529.68
1011.881	1507.53
1012.173	1504.37
1012.466	1512.5
1012.759	1505.27
1013.052	1482.67
1013.344	1504.59
1013.637	1514.76
1013.93	1492.62
1014.222	1457.36
1014.514	1437.02
1014.807	1453.52
1015.099	1419.17
1015.391	1421.43
1015.683	1412.84
1015.976	1420.08
1016.268	1395.67
1016.56	1392.28
1016.851	1365.39
1017.143	1380.3
1017.435	1378.04
1017.727	1341.66
1018.018	1340.76
1018.31	1367.65
1018.602	1339.85
1018.893	1329.68
1019.185	1337.37
1019.476	1326.07
1019.767	1312.28
1020.058	1327.87
1020.35	1274.99
1020.641	1298.27
1020.932	1274.99
1021.223	1257.59
1021.514	1271.6
1021.804	1277.93
1022.095	1261.89
1022.386	1233.41
1022.677	1223.92
1022.967	1225.05
1023.258	1220.31
1023.548	1200.87
1023.839	1182.57
1024.129	1196.13
1024.419	1159.07
1024.709	1153.87
1025	1187.77
1025.29	1185.28
1025.58	1145.73
1025.87	1133.76
1026.16	1157.71
1026.449	1134.89
1026.739	1131.27
1027.029	1133.98
1027.319	1096.47
1027.608	1098.5
1027.898	1105.51
1028.187	1095.34
1028.477	1088.56
1028.766	1077.71
1029.055	1078.16
1029.344	1049.69
1029.634	1055.79
1029.923	1051.72
1030.212	1053.08
1030.501	1067.32
1030.79	1020.76
1031.078	1009.46
1031.367	1008.56
1031.656	1013.31
1031.945	1003.82
1032.233	1000.88
1032.522	1005.17
1032.81	991.61
1033.099	964.27
1033.387	962.46
1033.675	972.18
1033.963	978.73
1034.251	955.46
1034.54	943.48
1034.828	935.12
1035.116	941.22
1035.403	933.31
1035.691	928.79
1035.979	933.08
1036.267	905.06
1036.554	915.91
1036.842	930.37
1037.129	894.67
1037.417	902.8
1037.704	872.75
1037.992	891.05
1038.279	882.91
1038.566	883.59
1038.853	883.59
1039.14	883.59
