Data from hue_120_FLMS001491_00052.txt Node
Date: Tue Feb 07 16:59:39 GMT 2017
User: dcchb
Spectrometer: FLMS00149
Trigger mode: 0
Integration Time (sec): 2.000000E-2
Scans to average: 10
Electric dark correction enabled: true
Nonlinearity correction enabled: false
Boxcar width: 0
XAxis mode: Wavelengths
Number of Pixels in Spectrum: 2048
>>>>>Begin Spectral Data<<<<<
341.393	-19.35
341.776	-19.35
342.16	-19.35
342.543	-47.82
342.927	-42.4
343.31	-62.96
343.693	-57.31
344.077	-68.84
344.46	-64.09
344.843	-68.39
345.226	-50.99
345.61	-31.33
345.993	-17.99
346.376	-18.9
346.759	18.39
347.142	25.62
347.525	64.94
347.908	49.57
348.291	74.21
348.674	91.16
349.057	116.92
349.44	116.92
349.823	145.39
350.206	165.5
350.588	211.15
350.971	206.86
351.354	227.65
351.737	228.33
352.119	259.29
352.502	262.68
352.884	277.59
353.267	277.14
353.65	272.62
354.032	289.79
354.414	292.96
354.797	296.8
355.179	317.59
355.562	309.23
355.944	328.21
356.326	327.53
356.709	316.46
357.091	322.11
357.473	344.26
357.855	331.38
358.238	348.78
358.62	329.57
359.002	343.13
359.384	348.78
359.766	336.8
360.148	346.06
360.53	340.64
360.912	350.81
361.294	333.86
361.676	332.28
362.057	335.67
362.439	337.03
362.821	316.23
363.203	329.12
363.584	325.95
363.966	323.01
364.348	314.2
364.729	330.25
365.111	329.79
365.493	324.14
365.874	299.96
366.256	324.82
366.637	322.56
367.019	333.64
367.4	305.39
367.781	322.11
368.163	317.59
368.544	327.76
368.925	318.49
369.306	317.14
369.688	300.87
370.069	317.82
370.45	312.84
370.831	326.18
371.212	309.23
371.593	329.12
371.974	311.94
372.355	304.48
372.736	336.57
373.117	298.38
373.498	308.55
373.879	326.18
374.26	314.88
374.641	330.25
375.021	318.27
375.402	318.72
375.783	299.96
376.163	331.6
376.544	328.21
376.925	311.04
377.305	320.75
377.686	334.77
378.066	331.38
378.447	313.75
378.827	311.49
379.208	333.41
379.588	345.16
379.968	338.83
380.349	332.73
380.729	347.65
381.109	335.44
381.489	335.67
381.87	335.22
382.25	332.96
382.63	337.7
383.01	351.04
383.39	354.88
383.77	358.49
384.15	349.68
384.53	338.15
384.91	364.59
385.29	367.53
385.67	348.32
386.049	356.23
386.429	355.56
386.809	373.41
387.189	328.21
387.568	358.95
387.948	328.21
388.328	349.45
388.707	346.74
389.087	360.3
389.466	366.18
389.846	365.27
390.225	375.67
390.605	377.48
390.984	355.33
391.363	364.59
391.743	379.28
392.122	382.22
392.501	363.69
392.881	378.15
393.26	382
393.639	376.57
394.018	377.93
394.397	389.68
394.776	386.52
395.155	360.3
395.534	368.66
395.913	374.76
396.292	389.45
396.671	376.35
397.05	408.89
397.429	387.19
397.808	403.01
398.186	403.46
398.565	411.15
398.944	375.89
399.323	399.4
399.701	384.71
400.08	393.52
400.458	406.4
400.837	404.37
401.215	399.62
401.594	396.01
401.972	410.47
402.351	414.09
402.729	414.76
403.107	406.63
403.486	413.86
403.864	403.69
404.242	412.05
404.62	429
404.999	440.98
405.377	433.52
405.755	436.46
406.133	398.49
406.511	432.39
406.889	446.85
407.267	449.11
407.645	440.07
408.023	460.19
408.401	451.82
408.779	435.33
409.156	439.4
409.534	464.25
409.912	434.65
410.29	451.15
410.667	450.02
411.045	471.48
411.422	467.42
411.8	470.13
412.178	476.46
412.555	478.04
412.933	461.09
413.31	457.93
413.687	459.73
414.065	486.4
414.442	494.31
414.819	490.92
415.197	505.61
415.574	503.8
415.951	525.49
416.328	504.48
416.705	516.91
417.082	508.09
417.46	493.41
417.837	505.38
418.214	504.93
418.591	503.35
418.967	523.91
419.344	551.03
419.721	523.69
420.098	516.23
420.475	528.21
420.852	551.93
421.228	548.09
421.605	530.47
421.982	557.36
422.358	542.22
422.735	536.57
423.111	545.83
423.488	562.78
423.864	547.64
424.241	558.71
424.617	570.47
424.994	577.47
425.37	573.18
425.746	576.79
426.123	579.5
426.499	581.54
426.875	601.42
427.251	582.44
427.627	581.09
428.003	603.68
428.379	610.46
428.756	607.53
429.132	617.02
429.507	637.36
429.883	599.17
430.259	628.54
430.635	626.28
431.011	642.33
431.387	631.93
431.763	654.08
432.138	654.08
432.514	655.89
432.89	660.63
433.265	671.03
433.641	688.65
434.016	687.3
434.392	702.89
434.767	699.73
435.143	685.26
435.518	710.57
435.894	714.87
436.269	711.25
436.644	731.59
437.02	744.92
437.395	743.12
437.77	715.09
438.145	738.14
438.52	744.47
438.895	763.91
439.271	754.42
439.646	761.19
440.021	750.35
440.395	769.1
440.77	760.06
441.145	779.73
441.52	791.48
441.895	798.26
442.27	799.39
442.645	777.92
443.019	808.65
443.394	829.44
443.769	813.85
444.143	792.83
444.518	809.1
444.892	800.06
445.267	831.7
445.641	838.48
446.016	832.61
446.39	859.5
446.764	835.09
447.139	838.71
447.513	851.36
447.887	884.81
448.262	880.29
448.636	861.98
449.01	871.02
449.384	909.21
449.758	881.42
450.132	907.18
450.506	910.34
450.88	907.41
451.254	904.24
451.628	912.6
452.002	936.11
452.376	935.43
452.75	958.03
453.123	970.45
453.497	957.57
453.871	978.36
454.244	991.92
454.618	973.17
454.992	999.83
455.365	987.18
455.739	1028.98
456.112	1022.2
456.486	1010.45
456.859	1035.54
457.232	1064.92
457.606	1067.4
457.979	1099.94
458.352	1090
458.725	1088.87
459.099	1120.06
459.472	1130
459.845	1141.07
460.218	1175.65
460.591	1168.19
460.964	1177.91
461.337	1193.5
461.71	1195.76
462.083	1243.67
462.456	1208.64
462.829	1232.14
463.201	1248.87
463.574	1271.92
463.947	1302.65
464.32	1305.36
464.692	1346.04
465.065	1332.93
465.438	1370.44
465.81	1358.92
466.183	1384.91
466.555	1425.13
466.928	1431.91
467.3	1453.61
467.672	1449.09
468.045	1499.71
468.417	1524.79
468.789	1498.8
469.161	1514.17
469.534	1597.33
469.906	1626.93
470.278	1623.09
470.65	1633.49
471.022	1720.72
471.394	1713.49
471.766	1764.33
472.138	1767.5
472.51	1828.51
472.882	1855.18
473.253	1855.63
473.625	1917.1
473.997	1978.79
474.369	1978.11
474.74	2026.92
475.112	2075.06
475.484	2124.55
475.855	2185.56
476.227	2223.98
476.598	2273.02
476.97	2327.48
477.341	2373.13
477.713	2460.59
478.084	2470.98
478.455	2578.77
478.827	2646.57
479.198	2709.62
479.569	2761.82
479.94	2912.55
480.311	2907.58
480.682	3002.49
481.053	3075.03
481.424	3167.69
481.795	3248.59
482.166	3347.79
482.537	3410.39
482.908	3542.82
483.279	3598.86
483.65	3718.63
484.021	3806.76
484.391	3869.81
484.762	4000.88
485.133	4082.92
485.503	4193.65
485.874	4312.51
486.244	4430.7
486.615	4526.75
486.985	4666.63
487.356	4816.46
487.726	4851.71
488.097	5018.26
488.467	5085.37
488.837	5293.5
489.207	5401.98
489.578	5542.09
489.948	5607.17
490.318	5772.14
490.688	5885.35
491.058	6019.14
491.428	6144.56
491.798	6266.36
492.168	6462.97
492.538	6563.98
492.908	6694.15
493.278	6869.73
493.648	6875.84
494.017	7072.89
494.387	7175.04
494.757	7212.78
495.126	7401.47
495.496	7518.08
495.866	7661.58
496.235	7774.57
496.605	7918.75
496.974	7999.42
497.344	8159.19
497.713	8235.8
498.082	8310.6
498.452	8491.39
498.821	8634.43
499.19	8736.58
499.559	8769.35
499.928	8941.09
500.298	8973.63
500.667	9109.68
501.036	9102.22
501.405	9298.15
501.774	9271.48
502.143	9398.03
502.512	9524.81
502.88	9654.52
503.249	9716.21
503.618	9816.55
503.987	9836.44
504.356	9951.46
504.724	10068.97
505.093	10113.72
505.462	10177.22
505.83	10229.42
506.199	10398
506.567	10517.55
506.936	10508.06
507.304	10603.65
507.672	10681.16
508.041	10694.94
508.409	10779.01
508.777	10874.6
509.145	10925.9
509.514	10946.01
509.882	11035.5
510.25	11107.59
510.618	11174.03
510.986	11220.13
511.354	11306.68
511.722	11357.53
512.09	11434.81
512.458	11451.08
512.826	11525.66
513.193	11630.06
513.561	11578.09
513.929	11693.56
514.297	11723.39
514.664	11768.14
515.032	11779.21
515.4	11884.74
515.767	11901.92
516.135	11943.73
516.502	11805.65
516.869	12040.67
517.237	12051.52
517.604	12050.39
517.972	12155.02
518.339	12276.15
518.706	12108.24
519.073	12210.84
519.44	12230.27
519.808	12291.06
520.175	12249.93
520.542	12438.63
520.909	12394.56
521.276	12387.78
521.643	12475.01
522.009	12562.01
522.376	12555.23
522.743	12585.06
523.11	12662.35
523.477	12772.86
523.843	12736.7
524.21	12831.16
524.577	12879.07
524.943	12860.99
525.31	12852.18
525.676	12906.86
526.043	12978.5
526.409	12917.49
526.776	13001.55
527.142	13068.67
527.508	13041.1
527.874	13095.79
528.241	13044.71
528.607	13059.85
528.973	13158.83
529.339	13148.44
529.705	13171.26
530.071	13164.03
530.437	13238.15
530.803	13206.07
531.169	13182.79
531.535	13201.55
531.901	13102.57
532.267	13105.73
532.632	13179.17
532.998	13149.34
533.364	13204.26
533.73	13100.31
534.095	13162.45
534.461	13094.43
534.826	13101.21
535.192	13090.81
535.557	13162.22
535.923	13168.55
536.288	13082
536.653	13069.12
537.019	13013.53
537.384	12993.64
537.749	12993.19
538.114	12936.24
538.479	12943.47
538.845	12929.24
539.21	12854.44
539.575	12858.28
539.94	12832.52
540.305	12850.37
540.67	12765.85
541.034	12803.82
541.399	12767.43
541.764	12762.69
542.129	12740.31
542.494	12657.15
542.858	12660.32
543.223	12621.67
543.587	12623.71
543.952	12643.59
544.316	12552.07
544.681	12579.87
545.045	12459.19
545.41	12417.84
545.774	12479.98
546.138	12365.18
546.503	12450.15
546.867	12385.3
547.231	12368.8
547.595	12369.93
547.959	12261.68
548.324	12207.9
548.688	12236.15
549.052	12184.17
549.416	12140.78
549.779	12111.63
550.143	12115.47
550.507	12078.64
550.871	12095.13
551.235	12101.01
551.599	12071.86
551.962	11977.4
552.326	12014.46
552.689	11994.57
553.053	11926.78
553.417	11935.82
553.78	11990.05
554.143	11829.6
554.507	11937.4
554.87	11927.91
555.234	11945.76
555.597	11857.85
555.96	11844.75
556.323	11822.37
556.686	11821.92
557.05	11935.59
557.413	11899.88
557.776	11824.86
558.139	11814.24
558.502	11744.86
558.865	11847.91
559.228	11767.68
559.59	11786.67
559.953	11822.6
560.316	11858.76
560.679	11829.15
561.041	11844.52
561.404	11757.74
561.767	11857.63
562.129	11733.79
562.492	11901.69
562.854	11776.05
563.217	11824.63
563.579	11842.26
563.941	11806.1
564.304	11859.43
564.666	11868.25
565.028	11878.87
565.39	11866.44
565.753	11933.78
566.115	11955.02
566.477	11965.19
566.839	11952.99
567.201	11968.36
567.563	11896.72
567.925	12013.1
568.287	11997.51
568.648	11957.51
569.01	12025.53
569.372	12096.04
569.734	12035.7
570.095	12128.35
570.457	12057.62
570.819	12081.12
571.18	12149.6
571.542	12180.1
571.903	12105.08
572.265	12094.46
572.626	12155.25
572.987	12166.32
573.349	12099.65
573.71	12195.7
574.071	12212.64
574.432	12267.33
574.794	12258.29
575.155	12324.28
575.516	12201.8
575.877	12193.89
576.238	12204.06
576.599	12255.58
576.96	12306.2
577.32	12197.5
577.681	12230.95
578.042	12305.75
578.403	12260.33
578.763	12242.47
579.124	12286.09
579.485	12374.22
579.845	12316.37
580.206	12313.21
580.566	12282.02
580.927	12312.98
581.287	12339.65
581.648	12225.75
582.008	12296.26
582.368	12306.43
582.728	12360.44
583.089	12301
583.449	12334.45
583.809	12308.91
584.169	12264.85
584.529	12212.87
584.889	12303.49
585.249	12262.81
585.609	12194.57
585.969	12216.03
586.329	12197.05
586.688	12247.9
587.048	12153.44
587.408	12155.02
587.768	12188.24
588.127	12146.43
588.487	12039.77
588.846	12211.74
589.206	12114.57
589.565	12181.01
589.925	12138.3
590.284	12103.72
590.643	12085.87
591.003	12118.18
591.362	12198.86
591.721	12131.52
592.08	12079.09
592.44	12147.79
592.799	12168.13
593.158	12053.1
593.517	12058.07
593.876	12072.08
594.235	12022.37
594.593	12082.7
594.952	12096.49
595.311	12030.73
595.67	12061.46
596.029	12153.44
596.387	12119.77
596.746	12097.17
597.104	12024.18
597.463	12064.85
597.822	12058.07
598.18	12004.51
598.538	12012.88
598.897	12068.92
599.255	12027.34
599.613	12098.52
599.972	11993.44
600.33	12077.28
600.688	11919.09
601.046	12155.7
601.404	12050.84
601.762	12062.59
602.12	12042.93
602.478	12071.18
602.836	12069.15
603.194	11988.92
603.552	11939.43
603.91	11973.78
604.268	11979.66
604.625	11958.87
604.983	12057.85
605.341	11989.83
605.698	11950.96
606.056	12000.67
606.413	11986.89
606.771	12041.12
607.128	12157.96
607.485	12012.88
607.843	11964.74
608.2	12141.69
608.557	12094.46
608.914	12016.27
609.272	12083.38
609.629	12148.01
609.986	12153.89
610.343	12086.77
610.7	12253.77
611.057	12141.23
611.414	12051.75
611.771	12147.34
612.127	12097.85
612.484	12158.18
612.841	12211.52
613.198	12189.59
613.554	12147.11
613.911	12212.64
614.267	12282.25
614.624	12282.25
614.98	12292.87
615.337	12344.17
615.693	12304.17
616.05	12252.19
616.406	12378.06
616.762	12335.81
617.118	12303.72
617.475	12345.52
617.831	12361.79
618.187	12342.36
618.543	12318.18
618.899	12414
619.255	12369.03
619.611	12400.21
619.967	12320.44
620.323	12409.7
620.678	12353.88
621.034	12395.47
621.39	12316.6
621.746	12307.56
622.101	12462.81
622.457	12416.26
622.812	12459.87
623.168	12519.3
623.523	12426.88
623.879	12449.7
624.234	12329.03
624.589	12509.36
624.945	12413.54
625.3	12423.49
625.655	12414.67
626.01	12445.86
626.365	12369.93
626.72	12446.31
627.075	12403.6
627.43	12390.72
627.785	12312.3
628.14	12362.47
628.495	12408.35
628.85	12423.49
629.205	12328.57
629.559	12370.38
629.914	12359.31
630.269	12354.56
630.623	12289.71
630.978	12277.95
631.332	12336.03
631.687	12330.61
632.041	12279.31
632.396	12288.58
632.75	12252.64
633.104	12246.32
633.459	12223.04
633.813	12195.92
634.167	12184.17
634.521	12201.57
634.875	12259.2
635.229	12258.07
635.583	12070.28
635.937	12081.35
636.291	12066.89
636.645	12055.14
636.999	12028.47
637.352	12023.5
637.706	12092.65
638.06	12045.42
638.413	11988.47
638.767	12022.59
639.121	12091.29
639.474	11906.66
639.828	12002.71
640.181	11948.47
640.534	11939.66
640.888	11951.63
641.241	11908.25
641.594	11988.92
641.947	11936.49
642.301	11897.17
642.654	11868.02
643.007	11835.25
643.36	11824.41
643.713	11761.13
644.066	11917.29
644.419	11818.98
644.771	11673.22
645.124	11668.7
645.477	11542.15
645.83	11541.48
646.182	11596.16
646.535	11430.07
646.888	11541.48
647.24	11456.73
647.593	11536.28
647.945	11520.01
648.298	11478.88
648.65	11482.04
649.002	11424.19
649.355	11451.76
649.707	11467.81
650.059	11463.74
650.411	11622.38
650.763	11548.93
651.115	11848.13
651.467	11724.07
651.819	11751.64
652.171	11724.75
652.523	11679.33
652.875	11742.83
653.227	11547.8
653.578	11662.6
653.93	11605.66
654.282	11602.27
654.633	11612.21
654.985	11672.55
655.337	11672.77
655.688	11740.34
656.039	11687.69
656.391	11586.45
656.742	11653.34
657.094	11725.65
657.445	11700.57
657.796	11714.13
658.147	11674.81
658.498	11682.49
658.849	11660.34
659.2	11723.84
659.551	11627.8
659.902	11676.84
660.253	11633.45
660.604	11727.69
660.955	11710.06
661.306	11781.7
661.656	11738.53
662.007	11771.53
662.358	11745.31
662.708	11661.93
663.059	11779.89
663.409	11714.13
663.76	11824.86
664.11	11709.38
664.461	11805.88
664.811	11723.39
665.161	11614.24
665.511	11690.17
665.862	11782.83
666.212	11783.5
666.562	11764.52
666.912	11724.07
667.262	11741.02
667.612	11792.77
667.962	11701.25
668.312	11660.12
668.662	11790.06
669.011	11722.49
669.361	11708.93
669.711	11690.4
670.06	11766.1
670.41	11667.57
670.76	11733.11
671.109	11759.55
671.459	11697.4
671.808	11694.47
672.157	11761.81
672.507	11603.4
672.856	11669.38
673.205	11667.35
673.554	11651.76
673.904	11630.06
674.253	11708.7
674.602	11567.92
674.951	11507.35
675.3	11387.81
675.649	11560.01
675.998	11528.6
676.346	11529.05
676.695	11659.67
677.044	11514.13
677.393	11517.52
677.741	11535.15
678.09	11508.93
678.438	11453.79
678.787	11419.9
679.135	11481.14
679.484	11412.67
679.832	11397.07
680.181	11365.44
680.529	11397.75
680.877	11321.59
681.225	11357.3
681.573	11379.9
681.922	11266.68
682.27	11282.5
682.618	11244.99
682.966	11230.75
683.314	11243.18
683.661	11143.07
684.009	11104.43
684.357	11111.66
684.705	11078.44
685.053	11155.95
685.4	11115.72
685.748	11047.48
686.095	10980.36
686.443	10993.92
686.79	10970.19
687.138	10973.58
687.485	10918.22
687.832	10946.46
688.18	10959.12
688.527	10890.87
688.874	10870.99
689.221	10873.02
689.568	10823.3
689.915	10751.89
690.262	10812.91
690.609	10713.93
690.956	10717.32
691.303	10653.82
691.65	10581.5
691.997	10563.2
692.344	10574.95
692.69	10529.3
693.037	10508.06
693.383	10392.13
693.73	10402.52
694.077	10377.21
694.423	10319.14
694.769	10305.58
695.116	10293.6
695.462	10246.14
695.808	10238.69
696.155	10263.77
696.501	10176.31
696.847	10209.08
697.193	10055.41
697.539	10143.55
697.885	10005.02
698.231	9980.16
698.577	10011.12
698.923	9912.82
699.269	9916.43
699.614	9825.59
699.96	9918.47
700.306	9814.97
700.651	9781.3
700.997	9736.33
701.342	9709.21
701.688	9681.19
702.033	9592.15
702.379	9599.83
702.724	9648.42
703.069	9621.07
703.415	9508.31
703.76	9471.7
704.105	9463.34
704.45	9406.84
704.795	9356.9
705.14	9290.69
705.485	9308.77
705.83	9240.07
706.175	9276
706.52	9243.01
706.865	9189.22
707.209	9219.73
707.554	9205.27
707.899	9162.78
708.243	9127.3
708.588	9149.9
708.932	9069.9
709.277	9052.5
709.621	9045.5
709.966	9031.49
710.31	9025.38
710.654	8895.9
710.998	8938.61
711.342	8910.81
711.687	8874.2
712.031	8865.39
712.375	8809.57
712.719	8857.93
713.063	8831.72
713.407	8809.34
713.75	8798.05
714.094	8828.78
714.438	8773.64
714.782	8723.47
715.125	8690.03
715.469	8774.09
715.812	8641.67
716.156	8586.98
716.499	8553.98
716.843	8646.19
717.186	8601.21
717.53	8584.49
717.873	8599.86
718.216	8624.26
718.559	8564.38
718.902	8541.78
719.246	8540.2
719.589	8532.06
719.932	8436.7
720.275	8451.16
720.617	8536.36
720.96	8520.54
721.303	8417.49
721.646	8459.52
721.989	8425.4
722.331	8476.02
722.674	8397.83
723.016	8391.5
723.359	8370.26
723.701	8408.23
724.044	8380.2
724.386	8353.99
724.729	8337.49
725.071	8355.57
725.413	8337.49
725.755	8338.62
726.097	8313.09
726.439	8271.05
726.782	8267.21
727.124	8263.37
727.465	8281
727.807	8290.26
728.149	8273.31
728.491	8242.58
728.833	8270.15
729.175	8234.67
729.516	8253.43
729.858	8265.63
730.199	8304.5
730.541	8255.91
730.882	8201.23
731.224	8298.85
731.565	8163.71
731.906	8178.17
732.248	8245.74
732.589	8202.81
732.93	8184.28
733.271	8254.78
733.612	8205.29
733.953	8183.15
734.294	8161
734.635	8205.29
734.976	8226.99
735.317	8159.19
735.658	8204.39
735.999	8198.06
736.339	8230.38
736.68	8277.38
737.021	8242.35
737.361	8224.28
737.702	8245.29
738.042	8188.34
738.383	8154.9
738.723	8317.15
739.063	8336.81
739.404	8292.52
739.744	8302.24
740.084	8205.97
740.424	8280.09
740.764	8316.02
741.104	8302.24
741.444	8294.1
741.784	8345.18
742.124	8304.73
742.464	8295.23
742.804	8340.88
743.143	8310.6
743.483	8453.87
743.823	8378.17
744.162	8442.35
744.502	8407.77
744.841	8439.18
745.181	8525.74
745.52	8535
745.86	8534.55
746.199	8556.02
746.538	8633.08
746.877	8702.23
747.216	8725.51
747.556	8759.63
747.895	8820.64
748.234	8773.64
748.573	8861.55
748.911	8876.01
749.25	8951.71
749.589	8973.41
749.928	9064.25
750.267	9180.41
750.605	9220.86
750.944	9285.94
751.283	9325.04
751.621	9331.36
751.96	9509.21
752.298	9607.29
752.636	9718.25
752.975	9784.23
753.313	9851.35
753.651	9993.72
753.989	10012.25
754.327	10231.91
754.666	10220.16
755.004	10320.49
755.342	10525.68
755.679	10578.79
756.017	10724.77
756.355	10918.67
756.693	11033.24
757.031	11103.52
757.368	11320.92
757.706	11372.22
758.044	11554.58
758.381	11625.54
758.719	11753.67
759.056	11984.85
759.394	12001.8
759.731	12142.59
760.068	12319.99
760.405	12483.82
760.743	12536.03
761.08	12807.88
761.417	12882.01
761.754	13075.22
762.091	13309.79
762.428	13322.9
762.765	13503.68
763.102	13739.38
763.438	13867.29
763.775	13926.5
764.112	14177.79
764.449	14366.49
764.785	14414.85
765.122	14549.98
765.458	14628.63
765.795	14774.61
766.131	15022.74
766.467	15127.6
766.804	15221.38
767.14	15280.13
767.476	15550.86
767.812	15563.07
768.148	15747.92
768.485	15789.5
768.821	15924.86
769.157	16013.45
769.492	16165.99
769.828	16320.11
770.164	16351.97
770.5	16428.58
770.836	16574.11
771.171	16591.74
771.507	16698.18
771.842	16665.86
772.178	16894.1
772.513	16992.63
772.849	17050.71
773.184	17057.49
773.519	17213.87
773.855	17180.42
774.19	17188.79
774.525	17290.48
774.86	17451.38
775.195	17442.11
775.53	17423.13
775.865	17511.71
776.2	17501.55
776.535	17505.61
776.87	17573.63
777.205	17549
777.539	17549.68
777.874	17796.45
778.209	17629.23
778.543	17670.13
778.878	17702.67
779.212	17787.87
779.547	17695.66
779.881	17741.09
780.215	17761.43
780.55	17825.6
780.884	17743.35
781.218	17784.7
781.552	17939.5
781.886	17758.71
782.22	17736.57
782.554	17807.53
782.888	17725.27
783.222	17684.14
783.556	17728.43
783.889	17792.61
784.223	17659.96
784.557	17676.23
784.89	17712.61
785.224	17648.66
785.557	17672.84
785.891	17655.67
786.224	17543.58
786.558	17667.19
786.891	17478.95
787.224	17518.49
787.557	17534.09
787.891	17535.44
788.224	17492.73
788.557	17497.48
788.89	17379.74
789.223	17456.12
789.556	17290.48
789.888	17335.45
790.221	17307.88
790.554	17156.92
790.887	17213.87
791.219	17209.35
791.552	17134.55
791.884	17092.06
792.217	17053.42
792.549	17100.88
792.882	16843.94
793.214	16903.82
793.546	16885.52
793.879	16935.68
794.211	16794.9
794.543	16918.06
794.875	16838.06
795.207	16818.4
795.539	16832.41
795.871	16768.68
796.203	16641.46
796.535	16624.96
796.867	16592.42
797.198	16525.07
797.53	16533.21
797.862	16452.08
798.193	16437.84
798.525	16327.57
798.856	16463.38
799.188	16298.87
799.519	16240.34
799.85	16180.9
800.182	16142.26
800.513	16176.61
800.844	16028.59
801.175	16131.86
801.506	16165.76
801.837	16057.74
802.168	15996.27
802.499	15965.99
802.83	15882.15
803.161	15918.31
803.491	15903.4
803.822	15852.55
804.153	15821.36
804.483	15738.88
804.814	15663.18
805.145	15612.33
805.475	15646
805.805	15570.07
806.136	15589.05
806.466	15621.37
806.796	15542.05
807.126	15395.61
807.457	15399.91
807.787	15470.19
808.117	15401.94
808.447	15258.67
808.777	15268.61
809.107	15286.46
809.436	15192.23
809.766	15222.51
810.096	15075.85
810.426	15094.38
810.755	15139.12
811.085	15118.33
811.414	15021.61
811.744	14935.51
812.073	14919.69
812.403	14908.17
812.732	14771.22
813.061	14894.83
813.39	14708.85
813.719	14763.54
814.049	14822.52
814.378	14734.39
814.707	14647.61
815.036	14781.39
815.365	14601.51
815.693	14561.51
816.022	14464.56
816.351	14469.31
816.68	14476.77
817.008	14446.48
817.337	14312.7
817.665	14299.82
817.994	14377.56
818.322	14322.19
818.651	14296.88
818.979	14195.87
819.307	14313.83
819.636	14404
819.964	14257.34
820.292	14195.64
820.62	14219.15
820.948	14245.81
821.276	14231.8
821.604	14196.32
821.932	14194.06
822.259	14215.98
822.587	14146.83
822.915	14134.85
823.243	14176.21
823.57	14094.18
823.898	14130.33
824.225	14085.82
824.553	14185.02
824.88	14135.31
825.207	14124.91
825.535	14027.96
825.862	14151.13
826.189	14123.33
826.516	14191.8
826.843	14207.85
827.17	14133.27
827.497	14225.25
827.824	14187.06
828.151	14271.8
828.478	14145.93
828.805	14231.12
829.131	14186.83
829.458	14138.7
829.785	14046.72
830.111	14105.25
830.438	14216.89
830.764	14146.61
831.09	14201.52
831.417	14102.09
831.743	14142.76
832.069	14082.2
832.395	14085.14
832.722	14039.49
833.048	14120.62
833.374	14166.94
833.7	14015.99
834.026	14154.29
834.351	14060.51
834.677	14132.82
835.003	14104.8
835.329	14118.58
835.654	14004.24
835.98	13956.33
836.306	13915.43
836.631	13977.8
836.956	13987.74
837.282	13929.66
837.607	13891.47
837.932	13911.36
838.258	13809.67
838.583	13981.41
838.908	13739.38
839.233	13822.32
839.558	13874.52
839.883	13790.46
840.208	13571.93
840.533	13658.26
840.858	13642.89
841.182	13665.26
841.507	13640.4
841.832	13603.79
842.156	13553.63
842.481	13548.2
842.805	13616.45
843.13	13495.78
843.454	13468.21
843.778	13387.3
844.103	13335.78
844.427	13340.3
844.751	13387.98
845.075	13296.68
845.399	13342.11
845.723	13199.51
846.047	13213.75
846.371	13129.46
846.695	13152.73
847.019	13092.4
847.343	13006.97
847.666	12922.68
847.99	12856.7
848.313	12815.57
848.637	12761.33
848.96	12777.6
849.284	12701.45
849.607	12647.21
849.931	12542.35
850.254	12511.62
850.577	12460.55
850.9	12319.08
851.223	12358.4
851.546	12282.93
851.869	12176.94
852.192	12308.01
852.515	12161.8
852.838	12131.52
853.161	12198.18
853.483	12047.68
853.806	12014.23
854.129	12007
854.451	11868.02
854.774	11853.11
855.096	11836.16
855.419	11784.63
855.741	11788.02
856.063	11732.43
856.385	11691.53
856.708	11742.15
857.03	11592.1
857.352	11619.44
857.674	11549.39
857.996	11496.05
858.318	11459.9
858.64	11442.72
858.961	11415.38
859.283	11398.66
859.605	11336.51
859.926	11418.54
860.248	11308.94
860.57	11292.44
860.891	11345.78
861.212	11217.64
861.534	11151.88
861.855	11137.87
862.176	11184.65
862.498	11157.76
862.819	11170.19
863.14	11049.29
863.461	11096.97
863.782	11013.58
864.103	11000.47
864.424	10901.49
864.745	10964.77
865.065	10932.68
865.386	10909.85
865.707	10963.19
866.027	10910.53
866.348	10953.02
866.668	10840.7
866.989	10798.22
867.309	10807.03
867.63	10770.87
867.95	10817.2
868.27	10745.34
868.59	10705.57
868.91	10711.44
869.23	10686.13
869.55	10627.83
869.87	10682.74
870.19	10694.94
870.51	10652.91
870.83	10615.85
871.15	10625.57
871.469	10590.99
871.789	10649.97
872.109	10647.71
872.428	10522.75
872.748	10540.82
873.067	10532.01
873.386	10529.98
873.706	10521.62
874.025	10480.26
874.344	10357.1
874.663	10470.32
874.982	10415.86
875.301	10348.74
875.62	10408.4
875.939	10375.63
876.258	10337.21
876.577	10361.17
876.896	10327.5
877.214	10286.37
877.533	10333.37
877.852	10219.7
878.17	10244.79
878.489	10200.27
878.807	10196.88
879.125	10213.38
879.444	10210.66
879.762	10171.12
880.08	10168.18
880.398	10114.85
880.716	10133.6
881.034	10074.4
881.352	10038.69
881.67	10021.97
881.988	10067.62
882.306	9964.57
882.624	9954.4
882.941	9887.06
883.259	9944.68
883.577	9894.51
883.894	9879.6
884.212	9831.69
884.529	9834.85
884.846	9804.57
885.164	9830.11
885.481	9767.06
885.798	9793.27
886.115	9734.97
886.432	9687.29
886.75	9645.71
887.067	9690.9
887.383	9620.85
887.7	9609.55
888.017	9604.35
888.334	9644.58
888.651	9513.28
888.967	9511.93
889.284	9426.05
889.6	9501.3
889.917	9394.19
890.233	9345.15
890.55	9365.26
890.866	9316.9
891.182	9312.16
891.498	9296.34
891.815	9333.85
892.131	9257.69
892.447	9242.1
892.763	9226.28
893.079	9156
893.395	9153.74
893.71	9087.3
894.026	9021.77
894.342	9018.83
894.657	9036.91
894.973	8944.03
895.289	8988.77
895.604	9038.72
895.92	8878.04
896.235	8832.39
896.55	8815.67
896.865	8745.17
897.181	8778.39
897.496	8801.44
897.811	8796.01
898.126	8678.95
898.441	8659.74
898.756	8568.45
899.071	8572.97
899.386	8519.41
899.7	8524.38
900.015	8449.81
900.33	8459.52
900.644	8413.87
900.959	8444.83
901.273	8326.65
901.588	8382.69
901.902	8296.14
902.216	8306.76
902.531	8248.23
902.845	8221.56
903.159	8182.69
903.473	8131.4
903.787	8105.41
904.101	8070.83
904.415	8081.68
904.729	8076.26
905.042	8018.63
905.356	7994.45
905.67	7940.21
905.984	7959.2
906.297	7888.69
906.611	7885.53
906.924	7833.1
907.237	7806.43
907.551	7844.85
907.864	7746.1
908.177	7751.07
908.491	7677.4
908.804	7646.21
909.117	7577.96
909.43	7491.41
909.743	7535.03
910.056	7515.37
910.368	7543.84
910.681	7404.41
910.994	7399.21
911.307	7398.53
911.619	7309.27
911.932	7385.2
912.244	7238.54
912.557	7263.4
912.869	7184.98
913.181	7206
913.494	7239.44
913.806	7134.13
914.118	7118.77
914.43	7107.02
914.742	7019.56
915.054	7019.56
915.366	6978.43
915.678	7026.57
915.99	6970.07
916.302	6862.73
916.613	6855.72
916.925	6832.45
917.236	6823.63
917.548	6767.14
917.859	6832.22
918.171	6750.19
918.482	6740.7
918.794	6671.77
919.105	6643.3
919.416	6697.76
919.727	6625.67
920.038	6624.32
920.349	6597.65
920.66	6524.21
920.971	6587.26
921.282	6516.3
921.593	6494.83
921.903	6433.36
922.214	6412.57
922.525	6366.92
922.835	6288.28
923.146	6346.81
923.456	6353.59
923.767	6260.71
924.077	6314.04
924.387	6203.09
924.697	6178.91
925.008	6173.48
925.318	6173.03
925.628	6134.84
925.938	6109.75
926.248	6064.78
926.558	6046.25
926.867	5998.35
927.177	5998.12
927.487	5990.89
927.796	5942.75
928.106	5922.41
928.416	5864.56
928.725	5922.64
929.034	5853.94
929.344	5848.29
929.653	5835.64
929.962	5817.33
930.271	5746.83
930.581	5771.01
930.89	5684
931.199	5705.92
931.508	5632.25
931.817	5638.13
932.125	5627.06
932.434	5599.03
932.743	5577.11
933.051	5524.46
933.36	5520.62
933.669	5495.99
933.977	5506.38
934.286	5444.46
934.594	5441.07
934.902	5406.5
935.21	5400.17
935.519	5397.46
935.827	5331.47
936.135	5328.53
936.443	5340.96
936.751	5256.67
937.059	5246.5
937.367	5239.95
937.674	5216.44
937.982	5205.82
938.29	5137.8
938.597	5181.42
938.905	5108.65
939.213	5139.38
939.52	5068.65
939.827	5155.88
940.135	5063.45
940.442	5025.04
940.749	5004.92
941.056	4980.29
941.363	4931.93
941.67	4932.16
941.977	4857.58
942.284	4913.85
942.591	4876.11
942.898	4837.92
943.205	4844.03
943.511	4821.65
943.818	4866.4
944.125	4823.01
944.431	4775.78
944.738	4724.71
945.044	4705.27
945.35	4670.24
945.657	4694.42
945.963	4632.28
946.269	4595.67
946.575	4647.65
946.881	4604.03
947.187	4535.11
947.493	4564.71
947.799	4539.4
948.105	4537.59
948.41	4487.88
948.716	4498.5
949.022	4475.67
949.327	4442.23
949.633	4431.15
949.938	4377.82
950.244	4372.4
950.549	4348.67
950.854	4359.29
951.16	4327.65
951.465	4299.63
951.77	4295.57
952.075	4221.44
952.38	4268.67
952.685	4246.75
952.99	4189.13
953.294	4203.36
953.599	4143.25
953.904	4141.22
954.209	4147.77
954.513	4084.72
954.818	4109.36
955.122	4086.53
955.426	4058.28
955.731	4066.64
956.035	4002.92
956.339	3998.85
956.643	3985.97
956.948	3970.15
957.252	4005.4
957.556	3983.48
957.86	3939.19
958.163	3949.36
958.467	3903.48
958.771	3893.99
959.075	3848.12
959.378	3845.18
959.682	3853.99
959.985	3796.6
960.289	3800.89
960.592	3790.95
960.896	3772.41
961.199	3774
961.502	3752.3
961.805	3724.28
962.108	3706.2
962.411	3696.71
962.714	3696.94
963.017	3672.76
963.32	3642.93
963.623	3583.72
963.926	3608.13
964.228	3594.11
964.531	3556.15
964.833	3580.33
965.136	3514.34
965.438	3502.14
965.741	3506.66
966.043	3473.21
966.345	3449.94
966.648	3474.12
966.95	3455.59
967.252	3430.95
967.554	3433.21
967.856	3405.19
968.158	3401.58
968.46	3385.76
968.761	3364.29
969.063	3395.48
969.365	3341.47
969.666	3333.1
969.968	3316.83
970.269	3294.91
970.571	3320.9
970.872	3270.73
971.174	3232.77
971.475	3257.4
971.776	3256.95
972.077	3195.93
972.378	3213.33
972.679	3176.27
972.98	3175.59
973.281	3180.79
973.582	3093.11
973.883	3132.88
974.183	3106.44
974.484	3070.74
974.785	3122.49
975.085	3073.68
975.386	3094.69
975.686	3073.9
975.986	3031.19
976.287	3027.12
976.587	2984.19
976.887	2979.67
977.187	3004.53
977.487	2998.65
977.787	2946.45
978.087	2983.06
978.387	2940.57
978.687	2929.73
978.987	2902.16
979.286	2913.45
979.586	2917.75
979.885	2877.52
980.185	2858.54
980.484	2838.88
980.784	2803.63
981.083	2784.19
981.382	2786.23
981.682	2787.81
981.981	2786.23
982.28	2754.81
982.579	2733.8
982.878	2753.01
983.177	2747.13
983.475	2777.19
983.774	2689.96
984.073	2707.58
984.372	2637.76
984.67	2675.27
984.969	2650.86
985.267	2670.07
985.566	2636.17
985.864	2632.11
986.162	2655.38
986.461	2575.84
986.759	2572.22
987.057	2571.77
987.355	2544.2
987.653	2513.92
987.951	2516.18
988.249	2536.74
988.547	2529.28
988.844	2511.21
989.142	2514.82
989.44	2494.03
989.737	2452.68
990.035	2484.31
990.332	2441.15
990.63	2438.89
990.927	2403.64
991.224	2412.68
991.521	2397.31
991.819	2385.56
992.116	2403.64
992.413	2342.17
992.71	2399.12
993.006	2329.52
993.303	2329.52
993.6	2348.27
993.897	2346.46
994.193	2346.01
994.49	2285.9
994.787	2340.81
995.083	2267.82
995.379	2247.03
995.676	2235.51
995.972	2215.85
996.268	2225.11
996.565	2232.34
996.861	2213.13
997.157	2207.03
997.453	2176.3
997.749	2181.04
998.044	2176.52
998.34	2153.47
998.636	2148.95
998.932	2106.02
999.227	2148.5
999.523	2101.5
999.818	2121.38
1000.114	2090.43
1000.409	2071.44
1000.704	2079.13
1001	2068.96
1001.295	2070.09
1001.59	2041.39
1001.885	2024.21
1002.18	2008.39
1002.475	2021.5
1002.77	1975.17
1003.065	1969.98
1003.359	1971.78
1003.654	1974.04
1003.949	1969.98
1004.243	1952.35
1004.538	1895.63
1004.832	1947.6
1005.127	1906.7
1005.421	1890.43
1005.715	1887.72
1006.009	1867.83
1006.304	1836.65
1006.598	1823.31
1006.892	1834.16
1007.186	1821.96
1007.48	1835.06
1007.773	1839.36
1008.067	1791.68
1008.361	1767.95
1008.655	1759.59
1008.948	1746.25
1009.242	1757.78
1009.535	1746.25
1009.829	1759.81
1010.122	1734.73
1010.415	1725.46
1010.708	1699.7
1011.001	1707.16
1011.295	1684.11
1011.588	1701.06
1011.881	1678.68
1012.173	1656.54
1012.466	1671.23
1012.759	1661.74
1013.052	1659.25
1013.344	1605.47
1013.637	1637.1
1013.93	1588.07
1014.222	1602.3
1014.514	1597.56
1014.807	1579.25
1015.099	1562.08
1015.391	1553.04
1015.683	1558.91
1015.976	1546.26
1016.268	1536.99
1016.56	1521.17
1016.851	1544.68
1017.143	1483.66
1017.435	1521.17
1017.727	1450.89
1018.018	1478.69
1018.31	1463.32
1018.602	1476.43
1018.893	1435.75
1019.185	1473.49
1019.476	1405.92
1019.767	1414.74
1020.058	1431.46
1020.35	1392.14
1020.641	1393.72
1020.932	1386.26
1021.223	1357.79
1021.514	1381.52
1021.804	1369.99
1022.095	1335.87
1022.386	1336.32
1022.677	1337.45
1022.967	1333.38
1023.258	1324.34
1023.548	1325.47
1023.839	1316.89
1024.129	1302.2
1024.419	1282.99
1024.709	1280.28
1025	1276.44
1025.29	1263.55
1025.58	1256.55
1025.87	1232.37
1026.16	1239.83
1026.449	1208.41
1026.739	1202.31
1027.029	1195.53
1027.319	1229.66
1027.608	1205.25
1027.898	1183.1
1028.187	1203.44
1028.477	1197.34
1028.766	1189.88
1029.055	1141.98
1029.344	1170.22
1029.634	1137.23
1029.923	1123.67
1030.212	1140.85
1030.501	1133.39
1030.79	1136.1
1031.078	1132.48
1031.367	1093.16
1031.656	1113.05
1031.945	1094.75
1032.233	1096.55
1032.522	1069.89
1032.81	1062.2
1033.099	1026.95
1033.387	1071.02
1033.675	1055.65
1033.963	1026.5
1034.251	1035.99
1034.54	1029.89
1034.828	990.34
1035.116	1000.96
1035.403	1005.48
1035.691	1034.86
1035.979	995.31
1036.267	995.76
1036.554	967.52
1036.842	969.1
1037.129	970.91
1037.417	961.42
1037.704	953.96
1037.992	948.53
1038.279	930.23
1038.566	965.48
1038.853	965.48
1039.14	965.48
