Data from hue_32_FLMS001491_00060.txt Node
Date: Tue Feb 07 17:23:37 GMT 2017
User: dcchb
Spectrometer: FLMS00149
Trigger mode: 0
Integration Time (sec): 2.000000E-2
Scans to average: 10
Electric dark correction enabled: true
Nonlinearity correction enabled: false
Boxcar width: 0
XAxis mode: Wavelengths
Number of Pixels in Spectrum: 2048
>>>>>Begin Spectral Data<<<<<
341.393	-24.97
341.776	-24.97
342.16	-24.97
342.543	-66.55
342.927	-74.24
343.31	-73.33
343.693	-85.99
344.077	-73.78
344.46	-60.9
344.843	-59.09
345.226	-41.24
345.61	-35.59
345.993	-12.99
346.376	7.12
346.759	20.45
347.142	22.49
347.525	42.15
347.908	45.76
348.291	71.75
348.674	101.58
349.057	131.63
349.44	109.49
349.823	149.94
350.206	150.84
350.588	177.51
350.971	226.1
351.354	240.11
351.737	242.59
352.119	251.86
352.502	278.52
352.884	274.23
353.267	264.29
353.65	289.37
354.032	307
354.414	302.48
354.797	316.49
355.179	322.36
355.562	339.77
355.944	318.97
356.326	353.1
356.709	346.77
357.091	336.15
357.473	361.23
357.855	375.92
358.238	325.08
358.62	362.82
359.002	327.11
359.384	351.52
359.766	340.22
360.148	349.03
360.53	330.05
360.912	319.2
361.294	346.77
361.676	330.27
362.057	354
362.439	338.86
362.821	318.97
363.203	329.14
363.584	339.54
363.966	330.27
364.348	335.25
364.729	293.89
365.111	338.41
365.493	325.98
365.874	337.73
366.256	331.18
366.637	304.06
367.019	309.03
367.4	313.78
367.781	314
368.163	339.09
368.544	311.74
368.925	316.26
369.306	320.33
369.688	314.68
370.069	301.35
370.45	310.61
370.831	302.7
371.212	330.95
371.593	334.12
371.974	312.65
372.355	333.66
372.736	332.53
373.117	329.14
373.498	329.14
373.879	323.49
374.26	318.3
374.641	326.43
375.021	316.26
375.402	323.49
375.783	337.51
376.163	348.58
376.544	329.37
376.925	344.74
377.305	336.38
377.686	321.69
378.066	299.54
378.447	333.66
378.827	339.77
379.208	316.71
379.588	337.96
379.968	331.86
380.349	331.86
380.729	331.86
381.109	332.99
381.489	346.54
381.87	344.96
382.25	351.29
382.63	335.47
383.01	364.85
383.39	343.15
383.77	360.56
384.15	360.1
384.53	359.2
384.91	354
385.29	353.55
385.67	339.54
386.049	342.25
386.429	370.72
386.809	363.49
387.189	356.71
387.568	339.09
387.948	365.53
388.328	355.58
388.707	349.26
389.087	359.2
389.466	373.66
389.846	371.4
390.225	374.79
390.605	375.02
390.984	346.54
391.363	377.05
391.743	376.15
392.122	384.96
392.501	361.46
392.881	386.77
393.26	361.01
393.639	388.58
394.018	397.62
394.397	396.03
394.776	386.09
395.155	386.54
395.534	382.02
395.913	401.46
396.292	414.79
396.671	390.39
397.05	396.26
397.429	404.17
397.808	385.19
398.186	390.61
398.565	379.99
398.944	400.55
399.323	393.77
399.701	397.84
400.08	412.53
400.458	401.91
400.837	401.23
401.215	406.66
401.594	406.88
401.972	401.46
402.351	406.43
402.729	430.61
403.107	420.21
403.486	416.6
403.864	423.15
404.242	415.47
404.62	432.87
404.999	407.56
405.377	432.42
405.755	439.2
406.133	421.57
406.511	445.07
406.889	438.29
407.267	434
407.645	443.49
408.023	452.3
408.401	430.16
408.779	467.45
409.156	445.98
409.534	429.03
409.912	456.6
410.29	457.28
410.667	488.91
411.045	485.3
411.422	457.73
411.8	467.22
412.178	450.5
412.555	483.04
412.933	470.61
413.31	479.87
413.687	497.05
414.065	508.12
414.442	474.22
414.819	497.28
415.197	497.28
415.574	521
415.951	492.08
416.328	520.33
416.705	509.7
417.082	518.97
417.46	505.41
417.837	498.4
418.214	512.19
418.591	515.81
418.967	503.83
419.344	518.29
419.721	531.62
420.098	527.56
420.475	532.53
420.852	538.86
421.228	563.49
421.605	545.64
421.982	539.31
422.358	557.39
422.735	541.34
423.111	555.8
423.488	549.25
423.864	545.86
424.241	542.25
424.617	571.4
424.994	566.43
425.37	575.69
425.746	564.62
426.123	565.52
426.499	591.28
426.875	578.18
427.251	591.74
427.627	569.36
428.003	615.24
428.379	615.01
428.756	612.75
429.132	630.15
429.507	622.24
429.883	621.57
430.259	611.62
430.635	622.24
431.011	627.67
431.387	640.32
431.763	658.17
432.138	659.08
432.514	667.67
432.89	641
433.265	664.28
433.641	683.94
434.016	671.73
434.392	678.06
434.767	699.53
435.143	664.05
435.518	713.77
435.894	699.53
436.269	713.31
436.644	695.01
437.02	715.57
437.395	714.22
437.77	732.3
438.145	741.11
438.52	730.94
438.895	747.21
439.271	752.41
439.646	782.24
440.021	772.3
440.395	756.48
440.77	773.2
441.145	755.8
441.52	770.49
441.895	766.65
442.27	768.45
442.645	811.62
443.019	789.47
443.394	777.04
443.769	803.71
444.143	815.01
444.518	821.33
444.892	800.77
445.267	815.68
445.641	829.92
446.016	831.96
446.39	826.98
446.764	841.67
447.139	844.38
447.513	838.06
447.887	831.96
448.262	838.28
448.636	849.36
449.01	870.15
449.384	866.76
449.758	855.68
450.132	891.16
450.506	884.16
450.88	890.49
451.254	894.78
451.628	894.55
452.002	918.73
452.376	911.05
452.75	913.54
453.123	916.02
453.497	935.46
453.871	955.57
454.244	943.82
454.618	981.78
454.992	972.74
455.365	993.31
455.739	1019.52
456.112	1019.07
456.486	1006.41
456.859	1022.01
457.232	1059.75
457.606	1041.44
457.979	1053.19
458.352	1040.76
458.725	1044.83
459.099	1070.82
459.472	1091.61
459.845	1099.29
460.218	1121.21
460.591	1122.34
460.964	1163.47
461.337	1152.17
461.71	1171.61
462.083	1172.96
462.456	1200.76
462.829	1184.49
463.201	1195.56
463.574	1207.54
463.947	1246.41
464.32	1222.91
464.692	1277.37
465.065	1260.87
465.438	1305.84
465.81	1314.65
466.183	1312.17
466.555	1334.77
466.928	1344.03
467.3	1374.54
467.672	1366.18
468.045	1403.24
468.417	1407.31
468.789	1433.75
469.161	1438.27
469.534	1490.47
469.906	1536.34
470.278	1498.38
470.65	1542.9
471.022	1571.82
471.394	1591.48
471.766	1596.46
472.138	1614.53
472.51	1682.55
472.882	1685.27
473.253	1718.94
473.625	1757.13
473.997	1798.71
474.369	1792.38
474.74	1855.88
475.112	1865.37
475.484	1881.65
475.855	1953.73
476.227	1966.61
476.598	1998.03
476.97	2072.15
477.341	2084.8
477.713	2143.33
478.084	2155.54
478.455	2259.94
478.827	2252.26
479.198	2356.89
479.569	2353.95
479.94	2447.28
480.311	2477.11
480.682	2541.29
481.053	2585.58
481.424	2710.55
481.795	2734.5
482.166	2775.18
482.537	2856.31
482.908	2910.54
483.279	2918.68
483.65	3007.72
484.021	3087.72
484.391	3189.18
484.762	3193.48
485.133	3292.23
485.503	3364.32
485.874	3444.77
486.244	3527.48
486.615	3607.02
486.985	3676.85
487.356	3753.46
487.726	3809.28
488.097	3947.81
488.467	4003.62
488.837	4057.18
489.207	4105.77
489.578	4225.76
489.948	4282.26
490.318	4397.51
490.688	4462.14
491.058	4535.81
491.428	4642.02
491.798	4734
492.168	4835.24
492.538	4899.19
492.908	4950.94
493.278	5078.17
493.648	5080.43
494.017	5204.5
494.387	5253.53
494.757	5357.26
495.126	5415.34
495.496	5456.24
495.866	5544.15
496.235	5597.48
496.605	5712.73
496.974	5750.7
497.344	5853.29
497.713	5926.51
498.082	5952.5
498.452	6047.19
498.821	6117.01
499.19	6126.05
499.559	6293.73
499.928	6351.36
500.298	6342.32
500.667	6507.96
501.036	6453.73
501.405	6487.4
501.774	6609.2
502.143	6675.64
502.512	6726.26
502.88	6802.42
503.249	6836.77
503.618	6877.9
503.987	6917.67
504.356	7059.36
504.724	7119.25
505.093	7097.78
505.462	7112.69
505.83	7281.28
506.199	7316.76
506.567	7334.16
506.936	7386.36
507.304	7453.93
507.672	7473.59
508.041	7570.76
508.409	7608.27
508.777	7661.38
509.145	7705
509.514	7763.07
509.882	7845.33
510.25	7873.35
510.618	7945.89
510.986	7961.71
511.354	8059.79
511.722	8163.74
512.09	8234.47
512.458	8181.82
512.826	8238.54
513.193	8332.32
513.561	8302.72
513.929	8369.84
514.297	8440.34
514.664	8497.97
515.032	8550.62
515.4	8621.58
515.767	8646.44
516.135	8682.82
516.502	8671.75
516.869	8812.76
517.237	8806.66
517.604	8774.35
517.972	8955.36
518.339	8948.35
518.706	9000.78
519.073	8973.21
519.44	9056.82
519.808	9151.06
520.175	9172.53
520.542	9281.68
520.909	9272.86
521.276	9304.05
521.643	9369.58
522.009	9440.09
522.376	9483.71
522.743	9530.71
523.11	9636.02
523.477	9646.86
523.843	9811.15
524.21	9835.11
524.577	9932.51
524.943	9908.55
525.31	10030.13
525.676	10045.5
526.043	10113.07
526.409	10177.25
526.776	10221.77
527.142	10282.1
527.508	10374.98
527.874	10466.96
528.241	10483
528.607	10502.21
528.973	10664.47
529.339	10589.21
529.705	10701.07
530.071	10716.22
530.437	10844.35
530.803	10841.64
531.169	10892.26
531.535	10897.45
531.901	10937
532.267	10995.3
532.632	11127.96
532.998	11104.68
533.364	11181.51
533.73	11221.51
534.095	11364.11
534.461	11440.04
534.826	11411.79
535.192	11394.62
535.557	11504.22
535.923	11547.61
536.288	11618.56
536.653	11641.61
537.019	11687.04
537.384	11708.73
537.749	11679.35
538.114	11819.24
538.479	11796.64
538.845	11950.99
539.21	11917.31
539.575	11981.04
539.94	11990.76
540.305	12095.61
540.67	12094.26
541.034	12196.85
541.399	12227.14
541.764	12152.56
542.129	12304.42
542.494	12361.37
542.858	12316.63
543.223	12419
543.587	12497.86
543.952	12533.34
544.316	12599.33
544.681	12587.35
545.045	12739.44
545.41	12770.17
545.774	12749.38
546.138	12813.56
546.503	12846.55
546.867	12939.89
547.231	13004.97
547.595	12935.82
547.959	13107.56
548.324	13046.32
548.688	13148.92
549.052	13134.23
549.416	13217.39
549.779	13248.58
550.143	13316.82
550.507	13390.04
550.871	13464.62
551.235	13437.27
551.599	13529.7
551.962	13567.44
552.326	13626.42
552.689	13625.52
553.053	13616.93
553.417	13664.39
553.78	13790.71
554.143	13757.94
554.507	13919.3
554.87	13881.1
555.234	14019.41
555.597	13925.85
555.96	13982.12
556.323	14045.17
556.686	14056.01
557.05	14205.84
557.413	14283.35
557.776	14307.76
558.139	14386.18
558.502	14480.64
558.865	14447.64
559.228	14533.29
559.59	14469.34
559.953	14543.23
560.316	14666.17
560.679	14691.25
561.041	14805.83
561.404	14825.49
561.767	14942.32
562.129	14900.96
562.492	15082.65
562.854	15000.4
563.217	15069.32
563.579	15182.31
563.941	15227.51
564.304	15271.12
564.666	15366.49
565.028	15300.95
565.39	15412.59
565.753	15549.53
566.115	15579.82
566.477	15612.13
566.839	15565.13
567.201	15651.9
567.563	15731.68
567.925	15921.28
568.287	15847.83
568.648	15876.76
569.01	15962.18
569.372	16091.67
569.734	16058.67
570.095	16253.92
570.457	16284.43
570.819	16306.35
571.18	16375.95
571.542	16452.79
571.903	16476.74
572.265	16626.34
572.626	16620.01
572.987	16694.59
573.349	16779.78
573.71	16882.83
574.071	16980.91
574.432	17012.32
574.794	17255.48
575.155	17214.35
575.516	17214.35
575.877	17348.81
576.238	17410.95
576.599	17586.54
576.96	17702.92
577.32	17795.58
577.681	17883.26
578.042	18045.06
578.403	18131.84
578.763	18210.26
579.124	18415.9
579.485	18483.47
579.845	18725.5
580.206	18757.13
580.566	19006.17
580.927	19013.4
581.287	19393.28
581.648	19411.81
582.008	19547.4
582.368	19706.49
582.728	19920.72
583.089	20114.61
583.449	20279.35
583.809	20441.84
584.169	20593.92
584.529	20771.77
584.889	21180.35
585.249	21207.24
585.609	21390.96
585.969	21629.83
586.329	21854
586.688	22035.01
587.048	22330.15
587.408	22467.32
587.768	22755.22
588.127	22906.63
588.487	23045.61
588.846	23429.55
589.206	23571.24
589.565	23895.3
589.925	24175.97
590.284	24496.19
590.643	24686.92
591.003	24997.87
591.362	25284.65
591.721	25434.02
592.08	25714.92
592.44	26143.38
592.799	26290.95
593.158	26525.52
593.517	26759.18
593.876	27135.9
594.235	27349.9
594.593	27577.24
594.952	27901.98
595.311	27998.02
595.67	28368.86
596.029	28816.3
596.387	29021.5
596.746	29158.22
597.104	29333.35
597.463	29701.93
597.822	29934.92
598.18	30121.58
598.538	30357.05
598.897	30667.56
599.255	30701.9
599.613	31307.76
599.972	31297.14
600.33	31618.72
600.688	31802.21
601.046	32090.79
601.404	32471.35
601.762	32637.22
602.12	32907.72
602.478	33207.38
602.836	33353.81
603.194	33379.57
603.552	33656.86
603.91	33710.41
604.268	34116.5
604.625	34241.7
604.983	34526.21
605.341	34670.16
605.698	35011.4
606.056	35278.28
606.413	35262.24
606.771	35538.61
607.128	35773.18
607.485	35771.15
607.843	36074.19
608.2	36244.36
608.557	36553.28
608.914	36600.73
609.272	36821.52
609.629	37122.98
609.986	37250.43
610.343	37202.07
610.7	37757.54
611.057	37743.3
611.414	37941.49
611.771	38049.28
612.127	38321.14
612.484	38401.36
612.841	38677.97
613.198	38674.8
613.554	38674.35
613.911	39187.33
614.267	39179.65
614.624	39236.82
614.98	39434.56
615.337	39695.79
615.693	39678.62
616.05	39657.6
616.406	40063.47
616.762	40033.86
617.118	40153.63
617.475	40307.08
617.831	40468.43
618.187	40571.7
618.543	40650.34
618.899	40965.59
619.255	40907.51
619.611	40931.24
619.967	41139.14
620.323	41307.73
620.678	41310.67
621.034	41284.23
621.39	41393.37
621.746	41422.75
622.101	41881.95
622.457	41681.5
622.812	41765.34
623.168	41892.8
623.523	41873.14
623.879	42090.98
624.234	41934.15
624.589	42204.65
624.945	42240.13
625.3	42387.25
625.655	42393.35
626.01	42461.37
626.365	42476.96
626.72	42506.11
627.075	42563.51
627.43	42594.02
627.785	42523.74
628.14	42486.45
628.495	42791.53
628.85	42683.28
629.205	42735.03
629.559	43018.19
629.914	42732.77
630.269	42812.32
630.623	42763.28
630.978	42775.94
631.332	42876.73
631.687	43155.36
632.041	42820.91
632.396	42937.52
632.75	42968.93
633.104	42899.1
633.459	42775.26
633.813	42734.13
634.167	42867.01
634.521	42841.25
634.875	43028.13
635.229	42967.57
635.583	42772.32
635.937	42853.9
636.291	42792.21
636.645	42858.2
636.999	42603.74
637.352	42844.41
637.706	42656.39
638.06	42793.11
638.413	42728.03
638.767	42733.23
639.121	42840.34
639.474	42520.35
639.828	42537.98
640.181	42703.4
640.534	42735.94
640.888	42641.25
641.241	42382.73
641.594	42461.14
641.947	42609.16
642.301	42493.46
642.654	42642.38
643.007	42709.72
643.36	42574.59
643.713	42570.07
644.066	42719.89
644.419	42418.43
644.771	42348.6
645.124	41979.35
645.477	41742.07
645.83	41450.77
646.182	41373.26
646.535	41414.17
646.888	41483.09
647.24	41211.01
647.593	41366.26
647.945	41365.35
648.298	41184.57
648.65	41109.77
649.002	41023.44
649.355	41217.56
649.707	41167.39
650.059	41450.77
650.411	41886.47
650.763	41895.28
651.115	42085.11
651.467	42114.71
651.819	42160.59
652.171	41974.83
652.523	41875.17
652.875	42017.31
653.227	41726.25
653.578	42152.9
653.93	41865.68
654.282	41852.35
654.633	41792.23
654.985	41895.96
655.337	41862.97
655.688	41897.99
656.039	41987.03
656.391	41675.18
656.742	41761.95
657.094	41914.49
657.445	41887.6
657.796	41754.72
658.147	41747.26
658.498	41806.25
658.849	41849.63
659.2	41668.17
659.551	41599.92
659.902	41809.18
660.253	41644.67
660.604	41824.55
660.955	41519.47
661.306	41766.02
661.656	41625.01
662.007	41664.1
662.358	41745
662.708	41674.95
663.059	41587.49
663.409	41309.31
663.76	41667.49
664.11	41637.21
664.461	41712.91
664.811	41587.04
665.161	41524.9
665.511	41589.53
665.862	41534.39
666.212	41610.77
666.562	41552.47
666.912	41454.84
667.262	41449.64
667.612	41531
667.962	41517.21
668.312	41427.72
668.662	41734.16
669.011	41424.33
669.361	41411.23
669.711	41493.71
670.06	41474.5
670.41	41274.28
670.76	41309.08
671.109	41451.68
671.459	41445.58
671.808	41380.72
672.157	41520.83
672.507	41198.58
672.856	41166.26
673.205	41210.78
673.554	41252.14
673.904	41165.13
674.253	41303.43
674.602	41355.86
674.951	40811.92
675.3	40552.95
675.649	41278.58
675.998	41198.35
676.346	41341.62
676.695	41216.43
677.044	40893.28
677.393	41157.45
677.741	41135.75
678.09	41037.23
678.438	41066.83
678.787	40997.23
679.135	40950.9
679.484	40731.92
679.832	40860.96
680.181	40608.99
680.529	40826.38
680.877	40666.61
681.225	40622.55
681.573	40784.35
681.922	40632.26
682.27	40422.33
682.618	40577.8
682.966	40460.74
683.314	40535.54
683.661	40336.68
684.009	40240.41
684.357	40137.59
684.705	40117.48
685.053	40133.07
685.4	40078.38
685.748	39906.63
686.095	40034.09
686.443	39804.04
686.79	39600.88
687.138	39747.32
687.485	39713.19
687.832	39572.18
688.18	39722.01
688.527	39407.44
688.874	39399.3
689.221	39315.24
689.568	39164.28
689.915	38999.77
690.262	39036.37
690.609	39066.43
690.956	38857.17
691.303	38854.46
691.65	38761.35
691.997	38550.29
692.344	38439.33
692.69	38432.77
693.037	38540.12
693.383	38203.63
693.73	38244.08
694.077	38019
694.423	38129.05
694.769	37856.07
695.116	37882.51
695.462	37848.38
695.808	37699.01
696.155	37806.8
696.501	37518
696.847	37499.24
697.193	37239.36
697.539	37422.86
697.885	37183.32
698.231	37011.8
698.577	37225.12
698.923	37076.43
699.269	36824.46
699.614	36625.59
699.96	36704.01
700.306	36642.77
700.651	36545.82
700.997	36326.62
701.342	36266.5
701.688	36244.13
702.033	36117.13
702.379	36060.41
702.724	35999.17
703.069	36147.41
703.415	35660.42
703.76	35767.08
704.105	35766.4
704.45	35508.78
704.795	35254.1
705.14	35371.16
705.485	35281.9
705.83	35099.08
706.175	35310.15
706.52	35133.88
706.865	34907.9
707.209	34896.14
707.554	34775.7
707.899	34922.58
708.243	34720.33
708.588	34635.59
708.932	34424.74
709.277	34511.97
709.621	34502.03
709.966	34270.4
710.31	34242.38
710.654	34009.16
710.998	34098.2
711.342	34086.67
711.687	34026.79
712.031	33792.9
712.375	33674.71
712.719	33799.22
713.063	33624.54
713.407	33730.3
713.75	33576.63
714.094	33539.34
714.438	33324.43
714.782	33477.2
715.125	33226.13
715.469	33279.92
715.812	33238.11
716.156	33061.84
716.499	33098.68
716.843	33017.55
717.186	32968.51
717.53	33119.92
717.873	33073.82
718.216	32821.17
718.559	32714.73
718.902	32497.11
719.246	32633.83
719.589	32402.2
719.932	32306.83
720.275	32449.2
720.617	32444.23
720.96	32351.8
721.303	32326.72
721.646	32250.79
721.989	32058.03
722.331	32122.21
722.674	31997.92
723.016	32002.66
723.359	31876.34
723.701	31981.87
724.044	31720.86
724.386	31608.77
724.729	31756.34
725.071	31669.79
725.413	31635.67
725.755	31615.55
726.097	31533.52
726.439	31375.56
726.782	31450.36
727.124	31610.36
727.465	31286.97
727.807	31397.93
728.149	31383.24
728.491	31284.04
728.833	31235
729.175	31104.38
729.516	31046.53
729.858	31045.4
730.199	31063.93
730.541	30865.97
730.882	30938.51
731.224	31039.07
731.565	30841.11
731.906	30864.84
732.248	30895.12
732.589	30551.63
732.93	30572.19
733.271	30530.16
733.612	30573.09
733.953	30632.75
734.294	30471.85
734.635	30364.06
734.976	30435.47
735.317	30267.34
735.658	30340.33
735.999	30328.58
736.339	30216.95
736.68	30254.23
737.021	30163.16
737.361	30045.2
737.702	30230.96
738.042	29974.24
738.383	29954.81
738.723	30040
739.063	29806.79
739.404	29896.28
739.744	29888.82
740.084	29755.04
740.424	29966.56
740.764	29672.78
741.104	29787.58
741.444	29632.78
741.784	29529.28
742.124	29678.65
742.464	29567.92
742.804	29533.57
743.143	29473.91
743.483	29457.64
743.823	29327.03
744.162	29256.52
744.502	29230.53
744.841	29195.28
745.181	29309.85
745.52	29110.76
745.86	29240.02
746.199	29203.64
746.538	29099.23
746.877	29201.83
747.216	29040.48
747.556	28981.72
747.895	29039.12
748.234	28841.84
748.573	28741.05
748.911	28832.12
749.25	28754.84
749.589	28633.48
749.928	28855.63
750.267	28770.66
750.605	28503.77
750.944	28656.99
751.283	28402.53
751.621	28609.08
751.96	28366.15
752.298	28314.17
752.636	28486.6
752.975	28239.82
753.313	28163.44
753.651	28296.32
753.989	28074.18
754.327	28059.71
754.666	27804.58
755.004	27970.9
755.342	27925.25
755.679	27936.78
756.017	27785.37
756.355	27798.25
756.693	27668.31
757.031	27723.68
757.368	27557.81
757.706	27671.7
758.044	27441.2
758.381	27460.41
758.719	27355.55
759.056	27419.05
759.394	27287.31
759.731	27110.13
760.068	27156.46
760.405	27037.82
760.743	26887.32
761.08	27021.78
761.417	26736.36
761.754	26755.79
762.091	26756.47
762.428	26561.9
762.765	26280.78
763.102	26466.99
763.438	26353.54
763.775	26280.55
764.112	26230.84
764.449	26167.33
764.785	26061.8
765.122	25965.31
765.458	25880.56
765.795	25778.64
766.131	25843.73
766.467	25731.87
766.804	25572.32
767.14	25461.14
767.476	25464.3
767.812	25286.23
768.148	25316.51
768.485	25241.03
768.821	25110.41
769.157	25015.95
769.492	25019.12
769.828	24997.87
770.164	24683.76
770.5	24731.44
770.836	24692.35
771.171	24597.66
771.507	24515.4
771.842	24289.64
772.178	24374.61
772.513	24188.18
772.849	24170.55
773.184	23983.44
773.519	24106.15
773.855	24023.89
774.19	23954.51
774.525	23733.5
774.86	23740.96
775.195	23699.83
775.53	23676.33
775.865	23472.49
776.2	23318.82
776.535	23063.01
776.87	23170.58
777.205	23023.24
777.539	22941.43
777.874	22969.23
778.209	22764.26
778.543	22778.5
778.878	22697.37
779.212	22632.74
779.547	22407.43
779.881	22494.44
780.215	22344.16
780.55	22395.68
780.884	22196.82
781.218	22149.36
781.552	22099.42
781.886	21938.29
782.22	21879.76
782.554	21877.73
782.888	21597.06
783.222	21659.2
783.556	21494.24
783.889	21392.09
784.223	21266.9
784.557	21247.01
784.89	21308.48
785.224	21043.4
785.557	21078.88
785.891	20995.49
786.224	20906.46
786.558	20854.71
786.891	20615.62
787.224	20575.84
787.557	20604.09
787.891	20473.7
788.224	20546.69
788.557	20494.49
788.89	20476.64
789.223	20367.49
789.556	20237.1
789.888	20126.36
790.221	20149.19
790.554	19911
790.887	20032.81
791.219	19766.15
791.552	19762.31
791.884	19745.58
792.217	19675.98
792.549	19654.96
792.882	19416.1
793.214	19413.61
793.546	19385.82
793.879	19285.93
794.211	19191.25
794.543	19243.67
794.875	19250
795.207	19210.91
795.539	18958.48
795.871	19081.42
796.203	18936.79
796.535	18756.91
796.867	18805.27
797.198	18676.68
797.53	18790.58
797.862	18491.6
798.193	18698.38
798.525	18484.37
798.856	18507.65
799.188	18251.16
799.519	18140.43
799.85	18186.53
800.182	18127.55
800.513	18102.01
800.844	18083.93
801.175	18183.59
801.506	18052.52
801.837	17899.53
802.168	17947.44
802.499	17801.45
802.83	17681.46
803.161	17725.75
803.491	17697.95
803.822	17669.25
804.153	17650.27
804.483	17470.61
804.814	17431.75
805.145	17297.74
805.475	17358.3
805.805	17329.6
806.136	17297.51
806.466	17269.04
806.796	17197.85
807.126	17064.3
807.457	17048.93
807.787	16965.99
808.117	16960.57
808.447	16870.18
808.777	16918.76
809.107	16764.87
809.436	16805.32
809.766	16676.51
810.096	16634.48
810.426	16553.12
810.755	16596.29
811.085	16582.73
811.414	16562.39
811.744	16432.22
812.073	16389.51
812.403	16363.98
812.732	16214.6
813.061	16250.53
813.39	16085.34
813.719	16144.1
814.049	16254.37
814.378	16128.95
814.707	16062.06
815.036	16036.75
815.365	16067.71
815.693	15815.06
816.022	15938.9
816.351	15796.31
816.68	15689.87
817.008	15705.01
817.337	15601.74
817.665	15650.32
817.994	15601.28
818.322	15540.27
818.651	15518.58
818.979	15436.09
819.307	15579.14
819.636	15500.27
819.964	15297.11
820.292	15377.11
820.62	15364.91
820.948	15348.41
821.276	15415.98
821.604	15250.11
821.932	15397.45
822.259	15305.7
822.587	15350.9
822.915	15265.47
823.243	15288.52
823.57	15289.88
823.898	15255.76
824.225	15149.32
824.553	15150.68
824.88	15235.64
825.207	15257.79
825.535	15223.22
825.862	15265.02
826.189	15207.17
826.516	15236.32
826.843	15280.39
827.17	15264.12
827.497	15195.19
827.824	15314.29
828.151	15223.89
828.478	15184.8
828.805	15277.9
829.131	15240.62
829.458	15193.84
829.785	15228.19
830.111	15291.91
830.438	15298.69
830.764	15259.82
831.09	15250.11
831.417	15061.86
831.743	15257.11
832.069	15146.61
832.395	15154.06
832.722	15153.39
833.048	15131.92
833.374	15152.26
833.7	15041.53
834.026	15092.6
834.351	15173.05
834.677	15023.9
835.003	15142.31
835.329	15084.01
835.654	15040.17
835.98	14960.4
836.306	14938.48
836.631	14895.54
836.956	14909.1
837.282	14921.08
837.607	14866.16
837.932	14862.55
838.258	14882.66
838.583	14734.64
838.908	14657.81
839.233	14745.04
839.558	14717.47
839.883	14616
840.208	14588.88
840.533	14613.97
840.858	14555.44
841.182	14613.51
841.507	14601.31
841.832	14478.38
842.156	14438.15
842.481	14434.08
842.805	14392.95
843.13	14431.6
843.454	14335.1
843.778	14402.45
844.103	14238.16
844.427	14206.97
844.751	14250.59
845.075	14251.94
845.399	14108.67
845.723	14001.1
846.047	14047.2
846.371	13915.45
846.695	13975.79
847.019	13899.18
847.343	13835.91
847.666	13725.85
847.99	13683.82
848.313	13717.04
848.637	13625.52
848.96	13549.81
849.284	13497.61
849.607	13346.2
849.931	13405.86
850.254	13238.41
850.577	13139.65
850.9	13169.94
851.223	13163.61
851.546	13110.95
851.869	13060.56
852.192	13143.95
852.515	12958.64
852.838	12958.87
853.161	12846.78
853.483	12814.01
853.806	12756.84
854.129	12674.36
854.451	12690.85
854.774	12652.89
855.096	12587.13
855.419	12555.72
855.741	12523.63
856.063	12468.26
856.385	12446.11
856.708	12389.84
857.03	12275.27
857.352	12376.96
857.674	12288.6
857.996	12256.06
858.318	12221.03
858.64	12214.71
858.961	12080.7
859.283	12149.17
859.605	12023.3
859.926	12088.38
860.248	12041.15
860.57	11996.18
860.891	11992.57
861.212	11911.44
861.534	11895.17
861.855	11892.68
862.176	11870.99
862.498	11814.49
862.819	11846.58
863.14	11741.73
863.461	11748.73
863.782	11729.52
864.103	11759.35
864.424	11681.16
864.745	11748.5
865.065	11638
865.386	11636.42
865.707	11522.3
866.027	11593.48
866.348	11555.52
866.668	11524.56
866.989	11471
867.309	11481.39
867.63	11428.51
867.95	11443.88
868.27	11376.99
868.59	11356.42
868.91	11360.27
869.23	11319.82
869.55	11306.71
869.87	11357.1
870.19	11329.98
870.51	11332.02
870.83	11350.77
871.15	11200.72
871.469	11238.46
871.789	11289.76
872.109	11211.8
872.428	11196.65
872.748	11161.63
873.067	11153.04
873.386	11153.72
873.706	11109.43
874.025	11083.21
874.344	11076.88
874.663	11018.35
874.982	11041.63
875.301	11071.46
875.62	11007.96
875.939	10973.38
876.258	10957.79
876.577	10963.44
876.896	10867.62
877.214	10923.89
877.533	10948.07
877.852	10848.19
878.17	10850.45
878.489	10799.83
878.807	10811.58
879.125	10816.33
879.444	10827.62
879.762	10698.36
880.08	10726.61
880.398	10644.35
880.716	10757.57
881.034	10555.54
881.352	10680.96
881.67	10617.01
881.988	10626.27
882.306	10543.56
882.624	10577.46
882.941	10449.56
883.259	10481.42
883.577	10446.62
883.894	10430.12
884.212	10403
884.529	10342.89
884.846	10367.75
885.164	10331.82
885.481	10301.31
885.798	10310.8
886.115	10291.14
886.432	10236
886.75	10290.69
887.067	10198.94
887.383	10177.25
887.7	10211.37
888.017	10192.61
888.334	10094.76
888.651	10205.95
888.967	10094.99
889.284	9977.25
889.6	10094.99
889.917	9954.2
890.233	9944.94
890.55	9938.61
890.866	9914.88
891.182	9902.9
891.498	9819.29
891.815	9763.47
892.131	9875.79
892.447	9782
892.763	9719.63
893.079	9759.86
893.395	9715.79
893.71	9679.63
894.026	9670.82
894.342	9597.15
894.657	9495.23
894.973	9545.17
895.289	9520.09
895.604	9550.14
895.92	9381.56
896.235	9416.81
896.55	9346.99
896.865	9304.5
897.181	9270.6
897.496	9329.13
897.811	9255.46
898.126	9270.38
898.441	9183.6
898.756	9170.95
899.071	9071.96
899.386	9074.9
899.7	9019.54
900.015	9011.18
900.33	9008.92
900.644	8881.01
900.959	8935.02
901.273	8903.16
901.588	8799.88
901.902	8783.16
902.216	8738.64
902.531	8808.69
902.845	8714.91
903.159	8706.55
903.473	8658.19
903.787	8662.71
904.101	8622.94
904.415	8608.47
904.729	8537.52
905.042	8468.36
905.356	8460.46
905.67	8433.79
905.984	8475.82
906.297	8397.86
906.611	8309.05
906.924	8299.78
907.237	8299.56
907.551	8196.28
907.864	8185.43
908.177	8216.85
908.491	8172.78
908.804	8114.25
909.117	8114.7
909.43	8008.26
909.743	8007.13
910.056	8024.76
910.368	7968.72
910.681	7975.72
910.994	8003.52
911.307	7869.74
911.619	7800.13
911.932	7937.98
912.244	7735.28
912.557	7754.26
912.869	7752.45
913.181	7716.75
913.494	7671.32
913.806	7610.53
914.118	7635.39
914.43	7588.84
914.742	7557.88
915.054	7467.04
915.366	7465.23
915.678	7407.6
915.99	7372.57
916.302	7332.35
916.613	7326.47
916.925	7271.79
917.236	7309.07
917.548	7291.9
917.859	7253.71
918.171	7164.67
918.482	7146.82
918.794	7150.21
919.105	7060.94
919.416	7052.36
919.727	6998.12
920.038	7009.19
920.349	6909.08
920.66	6906.6
920.971	6886.71
921.282	6888.29
921.593	6824.11
921.903	6819.59
922.214	6799.26
922.525	6757.68
922.835	6755.19
923.146	6667.06
923.456	6711.57
923.767	6724.46
924.077	6627.51
924.387	6580.05
924.697	6531.47
925.008	6544.35
925.318	6567.17
925.628	6433.39
925.938	6535.76
926.248	6394.52
926.558	6412.83
926.867	6385.26
927.177	6356.1
927.487	6332.83
927.796	6286.5
928.106	6274.3
928.416	6274.07
928.725	6239.27
929.034	6178.48
929.344	6181.19
929.653	6157.47
929.962	6083.79
930.271	6070.91
930.581	6082.21
930.89	6043.12
931.199	5953.4
931.508	6017.13
931.817	5956.11
932.125	5935.55
932.434	5907.75
932.743	5875.66
933.051	5862.56
933.36	5807.19
933.669	5722
933.977	5735.56
934.286	5754.09
934.594	5722.22
934.902	5695.33
935.21	5668.21
935.519	5672.05
935.827	5672.73
936.135	5603.81
936.443	5528.56
936.751	5547.76
937.059	5545.73
937.367	5503.02
937.674	5498.73
937.982	5479.74
938.29	5439.07
938.597	5467.31
938.905	5391.38
939.213	5390.71
939.52	5327.43
939.827	5373.76
940.135	5288.79
940.442	5271.84
940.749	5284.49
941.056	5236.81
941.363	5235.46
941.67	5185.06
941.977	5209.02
942.284	5110.04
942.591	5131.73
942.898	5098.06
943.205	5135.12
943.511	5092.18
943.818	5054.22
944.125	5010.83
944.431	5002.69
944.738	4941.45
945.044	4965.63
945.35	4911.85
945.657	4912.75
945.963	4875.01
946.269	4844.51
946.575	4832.53
946.881	4822.36
947.187	4811.74
947.493	4785.75
947.799	4780.1
948.105	4753.66
948.41	4695.58
948.716	4683.15
949.022	4669.59
949.327	4698.75
949.633	4666.88
949.938	4619.88
950.244	4594.57
950.549	4559.54
950.854	4532.42
951.16	4577.62
951.465	4519.54
951.77	4494.46
952.075	4453.33
952.38	4436.83
952.685	4453.56
952.99	4403.61
953.294	4400.68
953.599	4361.35
953.904	4336.95
954.209	4343.28
954.513	4313.45
954.818	4328.36
955.122	4305.76
955.426	4275.93
955.731	4249.04
956.035	4242.71
956.339	4237.29
956.643	4205.65
956.948	4159.78
957.252	4162.94
957.556	4150.29
957.86	4101.93
958.163	4103.28
958.467	4104.41
958.771	4064.64
959.075	4050.63
959.378	4036.39
959.682	4015.83
959.985	4041.59
960.289	3988.26
960.592	3954.59
960.896	3926.34
961.199	3943.51
961.502	3931.31
961.805	3880.24
962.108	3870.29
962.411	3877.3
962.714	3837.53
963.017	3811.76
963.32	3815.61
963.623	3756.17
963.926	3786
964.228	3759.34
964.531	3735.61
964.833	3760.47
965.136	3713.69
965.438	3712.33
965.741	3651.32
966.043	3698.77
966.345	3661.94
966.648	3675.95
966.95	3635.05
967.252	3591.66
967.554	3537.2
967.856	3550.3
968.158	3540.58
968.46	3529.96
968.761	3507.37
969.063	3503.07
969.365	3458.78
969.666	3488.61
969.968	3433.47
970.269	3426.92
970.571	3419.23
970.872	3385.11
971.174	3415.39
971.475	3418.55
971.776	3390.31
972.077	3384.66
972.378	3322.29
972.679	3328.84
972.98	3340.82
973.281	3284.77
973.582	3338.78
973.883	3276.64
974.183	3238.45
974.484	3226.47
974.785	3205
975.085	3242.97
975.386	3197.77
975.686	3169.3
975.986	3146.02
976.287	3165.91
976.587	3116.87
976.887	3121.16
977.187	3103.53
977.487	3094.72
977.787	3090.88
978.087	3058.34
978.387	3060.6
978.687	3100.14
978.987	3033.71
979.286	3037.32
979.586	3016.08
979.885	2995.29
980.185	2963.65
980.484	2943.31
980.784	2960.26
981.083	2929.53
981.382	2947.15
981.682	2898.57
981.981	2883.88
982.28	2909.42
982.579	2871.68
982.878	2855.41
983.177	2845.24
983.475	2871.9
983.774	2816.76
984.073	2820.38
984.372	2797.78
984.67	2793.71
984.969	2760.49
985.267	2756.42
985.566	2726.59
985.864	2739.25
986.162	2734.96
986.461	2676.65
986.759	2701.51
987.057	2687.95
987.355	2698.12
987.653	2649.76
987.951	2659.25
988.249	2616.32
988.547	2637.33
988.844	2620.84
989.142	2597.78
989.44	2589.42
989.737	2584.9
990.035	2589.2
990.332	2558.01
990.63	2584.45
990.927	2550.55
991.224	2527.96
991.521	2469.43
991.819	2530.44
992.116	2490.22
992.413	2458.81
992.71	2447.73
993.006	2464.45
993.303	2466.71
993.6	2450.22
993.897	2426.94
994.193	2418.81
994.49	2384.46
994.787	2375.19
995.083	2371.8
995.379	2390.56
995.676	2349.88
995.972	2348.98
996.268	2307.62
996.565	2348.98
996.861	2280.51
997.157	2300.62
997.453	2288.64
997.749	2264.69
998.044	2275.08
998.34	2254.29
998.636	2219.04
998.932	2210
999.227	2199.38
999.523	2189.89
999.818	2199.15
1000.114	2167.97
1000.409	2165.48
1000.704	2155.08
1001	2160.73
1001.295	2124.12
1001.59	2122.09
1001.885	2112.83
1002.18	2116.22
1002.475	2066.73
1002.77	2051.81
1003.065	2033.51
1003.359	2059.04
1003.654	2056.78
1003.949	2027.86
1004.243	2017.69
1004.538	2026.5
1004.832	1998.25
1005.127	1975.2
1005.421	1961.19
1005.715	1960.97
1006.009	1946.05
1006.304	1940.85
1006.598	1899.95
1006.892	1943.56
1007.186	1895.88
1007.48	1924.58
1007.773	1905.83
1008.067	1897.46
1008.361	1862.66
1008.655	1841.19
1008.948	1852.95
1009.242	1844.58
1009.535	1867.18
1009.829	1821.99
1010.122	1801.2
1010.415	1791.48
1010.708	1814.53
1011.001	1774.08
1011.295	1769.33
1011.588	1774.08
1011.881	1771.59
1012.173	1753.06
1012.466	1723.23
1012.759	1704.47
1013.052	1695.44
1013.344	1701.09
1013.637	1712.38
1013.93	1711.03
1014.222	1684.36
1014.514	1639.17
1014.807	1631.71
1015.099	1629.9
1015.391	1630.13
1015.683	1616.79
1015.976	1621.09
1016.268	1601.65
1016.56	1593.74
1016.851	1592.61
1017.143	1593.52
1017.435	1559.85
1017.727	1549.45
1018.018	1556
1018.31	1528.43
1018.602	1520.98
1018.893	1512.16
1019.185	1512.62
1019.476	1480.07
1019.767	1470.81
1020.058	1487.76
1020.35	1478.72
1020.641	1449.57
1020.932	1455.89
1021.223	1424.48
1021.514	1424.48
1021.804	1407.99
1022.095	1414.31
1022.386	1393.3
1022.677	1389.45
1022.967	1379.96
1023.258	1382.22
1023.548	1332.06
1023.839	1375.44
1024.129	1333.19
1024.419	1346.52
1024.709	1330.47
1025	1346.97
1025.29	1322.11
1025.58	1295.9
1025.87	1314.65
1026.16	1310.59
1026.449	1297.25
1026.739	1278.72
1027.029	1256.58
1027.319	1259.51
1027.608	1254.77
1027.898	1235.11
1028.187	1230.36
1028.477	1216.58
1028.766	1220.42
1029.055	1183.81
1029.344	1198.27
1029.634	1156.47
1029.923	1210.02
1030.212	1182.91
1030.501	1166.86
1030.79	1143.13
1031.078	1142.91
1031.367	1136.58
1031.656	1136.81
1031.945	1131.16
1032.233	1132.06
1032.522	1113.08
1032.81	1129.12
1033.099	1084.6
1033.387	1095.45
1033.675	1079.18
1033.963	1069.01
1034.251	1069.69
1034.54	1053.42
1034.828	1054.77
1035.116	1048
1035.403	1051.84
1035.691	1037.6
1035.979	1035.79
1036.267	1016.58
1036.554	1044.15
1036.842	1026.53
1037.129	995.34
1037.417	982.01
1037.704	989.01
1037.992	984.95
1038.279	984.04
1038.566	1011.16
1038.853	1011.16
1039.14	1011.16
