Data from hue_330_FLMS001491_20.txt Node
Date: Mon Feb 06 15:45:00 GMT 2017
User: dcchb
Spectrometer: FLMS00149
Trigger mode: 0
Integration Time (sec): 2.000000E-2
Scans to average: 10
Electric dark correction enabled: true
Nonlinearity correction enabled: false
Boxcar width: 0
XAxis mode: Wavelengths
Number of Pixels in Spectrum: 2048
>>>>>Begin Spectral Data<<<<<
341.393	-3.66
341.776	-3.66
342.16	-3.66
342.543	-54.96
342.927	-52.02
343.31	-68.29
343.693	-73.49
344.077	-76.2
344.46	-74.39
344.843	-50.21
345.226	-28.29
345.61	-17.44
345.993	-33.26
346.376	-3.21
346.759	11.71
347.142	48.32
347.525	38.15
347.908	56
348.291	76.34
348.674	84.7
349.057	109.56
349.44	121.31
349.823	131.48
350.206	171.48
350.588	190.91
350.971	225.26
351.354	219.61
351.737	225.71
352.119	245.37
352.502	261.87
352.884	283.57
353.267	302.1
353.65	314.07
354.032	323.56
354.414	310.23
354.797	319.27
355.179	318.37
355.562	323.79
355.944	322.44
356.326	324.47
356.709	348.88
357.091	341.64
357.473	356.33
357.855	357.24
358.238	358.14
358.62	347.52
359.002	346.62
359.384	326.05
359.766	321.98
360.148	333.51
360.53	347.29
360.912	342.32
361.294	314.98
361.676	320.18
362.057	347.75
362.439	327.86
362.821	338.93
363.203	327.41
363.584	326.5
363.966	333.96
364.348	343
364.729	307.52
365.111	297.12
365.493	309.33
365.874	331.47
366.256	309.33
366.637	297.12
367.019	325.15
367.4	298.03
367.781	310.46
368.163	303.9
368.544	333.51
368.925	317.69
369.306	319.5
369.688	314.53
370.069	330.34
370.45	292.38
370.831	311.14
371.212	317.01
371.593	325.82
371.974	310.46
372.355	324.47
372.736	302.55
373.117	316.33
373.498	320.63
373.879	328.31
374.26	328.08
374.641	322.21
375.021	306.39
375.402	319.95
375.783	336.22
376.163	321.98
376.544	302.77
376.925	327.41
377.305	345.26
377.686	331.47
378.066	343
378.447	316.33
378.827	337.12
379.208	322.44
379.588	323.34
379.968	337.58
380.349	327.41
380.729	335.54
381.109	337.8
381.489	338.48
381.87	337.8
382.25	342.55
382.63	351.59
383.01	338.25
383.39	346.84
383.77	357.91
384.15	338.48
384.53	374.41
384.91	347.07
385.29	352.72
385.67	340.51
386.049	345.49
386.429	356.78
386.809	359.72
387.189	350
387.568	350
387.948	370.8
388.328	371.93
388.707	368.76
389.087	354.75
389.466	350.46
389.846	364.92
390.225	346.62
390.605	350
390.984	342.1
391.363	351.13
391.743	372.15
392.122	355.2
392.501	382.55
392.881	361.98
393.26	356.11
393.639	368.08
394.018	392.72
394.397	361.76
394.776	369.21
395.155	393.85
395.534	377.8
395.913	385.94
396.292	386.16
396.671	401.98
397.05	387.52
397.429	390.68
397.808	380.29
398.186	376.67
398.565	394.07
398.944	391.36
399.323	375.77
399.701	390.91
400.08	401.3
400.458	385.94
400.837	412.83
401.215	391.59
401.594	387.74
401.972	390.46
402.351	415.31
402.729	398.37
403.107	406.95
403.486	426.84
403.864	408.31
404.242	419.83
404.62	429.32
404.999	415.09
405.377	430
405.755	417.12
406.133	428.42
406.511	434.3
406.889	436.78
407.267	448.99
407.645	445.14
408.023	459.15
408.401	460.06
408.779	453.51
409.156	471.58
409.534	469.78
409.912	481.75
410.29	489.21
410.667	470.23
411.045	468.87
411.422	494.63
411.8	481.07
412.178	497.57
412.555	490.57
412.933	480.17
413.31	511.58
413.687	537.12
414.065	513.84
414.442	551.13
414.819	532.15
415.197	528.08
415.574	543.9
415.951	530.57
416.328	566.95
416.705	543.9
417.082	568.3
417.46	562.88
417.837	566.5
418.214	561.98
418.591	596.1
418.967	587.51
419.344	593.16
419.721	627.74
420.098	592.48
420.475	602.65
420.852	609.66
421.228	634.97
421.605	625.93
421.982	652.6
422.358	651.47
422.735	657.79
423.111	657.12
423.488	657.79
423.864	676.55
424.241	666.83
424.617	678.36
424.994	689.21
425.37	680.39
425.746	701.41
426.123	706.38
426.499	708.19
426.875	698.92
427.251	731.46
427.627	728.98
428.003	738.02
428.379	752.48
428.756	748.86
429.132	742.09
429.507	788.64
429.883	785.7
430.259	782.31
430.635	788.86
431.011	790.67
431.387	790.9
431.763	827.96
432.138	825.02
432.514	835.87
432.89	821.86
433.265	853.72
433.641	860.5
434.016	879.48
434.392	873.61
434.767	874.74
435.143	899.14
435.518	905.47
435.894	924.68
436.269	899.59
436.644	937.56
437.02	915.19
437.395	922.42
437.77	923.78
438.145	946.6
438.52	953.15
438.895	952.93
439.271	965.36
439.646	969.42
440.021	1004.45
440.395	1002.87
440.77	971.91
441.145	1002.19
441.52	1046.48
441.895	1010.78
442.27	1022.98
442.645	1017.78
443.019	1026.15
443.394	1018.46
443.769	1039.25
444.143	1021.63
444.518	1038.57
444.892	1050.78
445.267	1065.24
445.641	1045.13
446.016	1087.61
446.39	1052.36
446.764	1070.21
447.139	1079.48
447.513	1073.15
447.887	1084.22
448.262	1101.85
448.636	1083.32
449.01	1094.84
449.384	1113.15
449.758	1140.49
450.132	1130.78
450.506	1123.54
450.88	1109.31
451.254	1125.35
451.628	1165.58
452.002	1140.04
452.376	1144.33
452.75	1162.19
453.123	1171.23
453.497	1186.59
453.871	1187.5
454.244	1187.5
454.618	1208.29
454.992	1191.11
455.365	1228.85
455.739	1244.22
456.112	1242.86
456.486	1248.06
456.859	1247.16
457.232	1271.11
457.606	1222.98
457.979	1272.47
458.352	1276.53
458.725	1297.55
459.099	1274.5
459.472	1323.76
459.845	1328.74
460.218	1318.34
460.591	1344.1
460.964	1341.62
461.337	1384.33
461.71	1361.5
462.083	1405.12
462.456	1382.52
462.829	1391.56
463.201	1412.35
463.574	1399.02
463.947	1459.58
464.32	1468.17
464.692	1460.94
465.065	1432.46
465.438	1472.69
465.81	1488.05
466.183	1531.22
466.555	1518.11
466.928	1546.13
467.3	1527.38
467.672	1564.44
468.045	1581.84
468.417	1581.84
468.789	1611.67
469.161	1610.99
469.534	1647.37
469.906	1664.77
470.278	1635.39
470.65	1650.08
471.022	1684.66
471.394	1739.12
471.766	1745.22
472.138	1757.43
472.51	1796.29
472.882	1791.55
473.253	1826.35
473.625	1827.25
473.997	1843.07
474.369	1876.29
474.74	1882.17
475.112	1898.89
475.484	1934.6
475.855	1955.84
476.227	1959.68
476.598	1985.22
476.97	2013.24
477.341	2062.95
477.713	2072.22
478.084	2103.18
478.455	2148.15
478.827	2154.93
479.198	2175.27
479.569	2201.71
479.94	2250.07
480.311	2237.64
480.682	2270.41
481.053	2333.23
481.424	2375.26
481.795	2368.03
482.166	2404.87
482.537	2428.59
482.908	2497.75
483.279	2456.16
483.65	2535.94
484.021	2590.17
484.391	2547.91
484.762	2587.46
485.133	2624.07
485.503	2646.44
485.874	2688.47
486.244	2706.33
486.615	2762.14
486.985	2772.77
487.356	2803.73
487.726	2805.08
488.097	2944.74
488.467	2924.17
488.837	2929.6
489.207	2943.16
489.578	3013.44
489.948	3038.97
490.318	3092.53
490.688	3113.55
491.058	3077.84
491.428	3122.36
491.798	3161.23
492.168	3175.24
492.538	3256.37
492.908	3248.23
493.278	3272.19
493.648	3274.9
494.017	3343.82
494.387	3336.37
494.757	3355.35
495.126	3409.36
495.496	3425.63
495.866	3426.31
496.235	3488
496.605	3486.65
496.974	3477.15
497.344	3523.25
497.713	3493.43
498.082	3513.09
498.452	3572.52
498.821	3591.05
499.19	3606.64
499.559	3623.37
499.928	3638.96
500.298	3650.26
500.667	3692.29
501.036	3674.21
501.405	3745.17
501.774	3761.21
502.143	3787.65
502.512	3759.86
502.88	3770.25
503.249	3786.52
503.618	3814.32
503.987	3764.83
504.356	3824.49
504.724	3838.5
505.093	3834.21
505.462	3896.35
505.83	3887.77
506.199	3909.23
506.567	3965.05
506.936	3953.3
507.304	3956.46
507.672	3998.72
508.041	4001.21
508.409	4029.46
508.777	4028.1
509.145	4043.24
509.514	4063.58
509.882	4087.31
510.25	4117.36
510.618	4097.25
510.986	4091.6
511.354	4121.21
511.722	4202.11
512.09	4170.7
512.458	4209.56
512.826	4198.94
513.193	4229.68
513.561	4184.25
513.929	4251.15
514.297	4226.74
514.664	4262.44
515.032	4278.26
515.4	4293.4
515.767	4265.38
516.135	4306.74
516.502	4324.59
516.869	4347.87
517.237	4366.4
517.604	4329.56
517.972	4404.36
518.339	4402.55
518.706	4433.51
519.073	4414.08
519.44	4392.38
519.808	4474.87
520.175	4445.94
520.542	4518.48
520.909	4491.59
521.276	4476.45
521.643	4571.59
522.009	4519.39
522.376	4562.78
522.743	4566.17
523.11	4608.2
523.477	4663.11
523.843	4647.75
524.21	4674.64
524.577	4727.52
524.943	4747.18
525.31	4737.01
525.676	4755.09
526.043	4798.93
526.409	4783.11
526.776	4857.23
527.142	4821.3
527.508	4821.75
527.874	4905.82
528.241	4884.12
528.607	4887.96
528.973	4926.83
529.339	4941.07
529.705	4960.96
530.071	5031.46
530.437	5128.86
530.803	5019.49
531.169	5076.66
531.535	5094.96
531.901	5054.51
532.267	5129.31
532.632	5187.84
532.998	5206.15
533.364	5185.36
533.73	5221.97
534.095	5280.04
534.461	5207.96
534.826	5341.29
535.192	5318.01
535.557	5264.68
535.923	5362.75
536.288	5407.73
536.653	5345.58
537.019	5433.26
537.384	5466.03
537.749	5415.63
538.114	5457.22
538.479	5440.04
538.845	5492.02
539.21	5424.45
539.575	5530.66
539.94	5555.29
540.305	5563.88
540.67	5560.72
541.034	5662.41
541.399	5667.15
541.764	5686.81
542.129	5699.92
542.494	5694.72
542.858	5691.11
543.223	5784.21
543.587	5816.08
543.952	5769.07
544.316	5839.58
544.681	5870.54
545.045	5909.41
545.41	5893.14
545.774	5941.04
546.138	5947.37
546.503	5915.06
546.867	5954.6
547.231	6055.62
547.595	6027.6
547.959	6087.03
548.324	6103.53
548.688	6076.86
549.052	6092
549.416	6184.88
549.779	6115.5
550.143	6148.95
550.507	6156.18
550.871	6211.09
551.235	6219.23
551.599	6253.58
551.962	6246.35
552.326	6312.79
552.689	6352.56
553.053	6334.48
553.417	6298.78
553.78	6398.43
554.143	6359.11
554.507	6388.26
554.87	6383.52
555.234	6503.97
555.597	6445.44
555.96	6425.55
556.323	6525.44
556.686	6537.64
557.05	6562.5
557.413	6537.19
557.776	6597.98
558.139	6581.03
558.502	6617.41
558.865	6633.23
559.228	6663.51
559.59	6690.18
559.953	6671.87
560.316	6717.07
560.679	6743.74
561.041	6813.79
561.404	6794.81
561.767	6827.57
562.129	6825.31
562.492	6893.79
562.854	6908.25
563.217	6936.5
563.579	6941.47
563.941	6889.27
564.304	6926.56
564.666	6984.18
565.028	6957.06
565.39	7073.67
565.753	7068.47
566.115	7110.73
566.477	7098.75
566.839	7174.01
567.201	7170.62
567.563	7211.97
567.925	7199.99
568.287	7186.44
568.648	7280.9
569.01	7334.91
569.372	7322.7
569.734	7325.19
570.095	7411.51
570.457	7417.16
570.819	7463.94
571.18	7471.85
571.542	7534
571.903	7552.75
572.265	7576.71
572.626	7655.12
572.987	7660.32
573.349	7703.48
573.71	7763.14
574.071	7855.12
574.432	7778.06
574.794	7948
575.155	7962.46
575.516	7944.38
575.877	8053.31
576.238	8084.26
576.599	8188.89
576.96	8290.59
577.32	8278.38
577.681	8437.7
578.042	8512.05
578.403	8572.84
578.763	8594.53
579.124	8782.78
579.485	8828.88
579.845	8946.84
580.206	9051.92
580.566	9088.98
580.927	9238.13
581.287	9335.08
581.648	9490.33
582.008	9651.23
582.368	9802.19
582.728	9943.2
583.089	10061.84
583.449	10181.38
583.809	10381.61
584.169	10489.4
584.529	10624.76
584.889	10947.01
585.249	10993.79
585.609	11217.97
585.969	11456.83
586.329	11676.71
586.688	11827.9
587.048	12086.87
587.408	12277.37
587.768	12522.34
588.127	12731.6
588.487	12972.5
588.846	13279.38
589.206	13406.84
589.565	13679.15
589.925	14022.19
590.284	14138.57
590.643	14468.28
591.003	14744.2
591.362	15026.91
591.721	15289.05
592.08	15547.12
592.44	15866.66
592.799	16118.86
593.158	16388.23
593.517	16624.83
593.876	17019.62
594.235	17365.83
594.593	17564.92
594.952	17900.5
595.311	18191.57
595.67	18516.31
596.029	18921.72
596.387	19211.2
596.746	19467.02
597.104	19731.42
597.463	19966.66
597.822	20426.31
598.18	20551.73
598.538	20828.79
598.897	21298.61
599.255	21377.7
599.613	21938.82
599.972	22156.89
600.33	22608.18
600.688	22731.11
601.046	22970.2
601.404	23393.47
601.762	23600.69
602.12	24040.46
602.478	24226.67
602.836	24499.65
603.194	24619.88
603.552	24867.55
603.91	25132.18
604.268	25531.94
604.625	25694.88
604.983	26051.93
605.341	26168.54
605.698	26539.6
606.056	26792.02
606.413	27027.72
606.771	27352.01
607.128	27727.82
607.485	27735.73
607.843	27911.54
608.2	28368.7
608.557	28705.19
608.914	28634.91
609.272	29049.36
609.629	29272.86
609.986	29591.04
610.343	29611.61
610.7	30056.57
611.057	30238.71
611.414	30372.94
611.771	30585.14
612.127	30943.78
612.484	31042.53
612.841	31373.6
613.198	31392.8
613.554	31430.54
613.911	31826.69
614.267	32078.66
614.624	32124.54
614.98	32295.83
615.337	32555.71
615.693	32782.82
616.05	32895.82
616.406	33035.93
616.762	33046.09
617.118	33211.29
617.475	33399.76
617.831	33719.52
618.187	33741.44
618.543	33933.08
618.899	34267.98
619.255	34269.11
619.611	34359.51
619.967	34693.73
620.323	34801.08
620.678	34688.54
621.034	34860.28
621.39	34832.71
621.746	35049.21
622.101	35501.62
622.457	35200.61
622.812	35518.57
623.168	35547.72
623.523	35575.75
623.879	35898.9
624.234	35647.16
624.589	35871.33
624.945	35993.59
625.3	36129.63
625.655	36035.17
626.01	36193.81
626.365	36343.86
626.72	36344.54
627.075	36447.59
627.43	36504.08
627.785	36476.29
628.14	36683.74
628.495	36660.24
628.85	36829.95
629.205	36705.89
629.559	36989.27
629.914	36910.17
630.269	37027.23
630.623	36889.16
630.978	36956.27
631.332	37190.39
631.687	37175.7
632.041	37097.74
632.396	37186.32
632.75	37133.22
633.104	37334.8
633.459	37166.21
633.813	37109.04
634.167	37240.56
634.521	37146.78
634.875	37199.21
635.229	37166.66
635.583	37186.55
635.937	37081.24
636.291	37121.47
636.645	37168.02
636.999	37208.47
637.352	37292.99
637.706	37235.81
638.06	37358.98
638.413	37136.83
638.767	37192.65
639.121	37252.76
639.474	37060.68
639.828	37088.7
640.181	37351.29
640.534	37226.1
640.888	37165.76
641.241	37039.21
641.594	37236.72
641.947	37270.16
642.301	37146.1
642.654	37292.31
643.007	37125.08
643.36	37222.93
643.713	37128.92
644.066	37288.47
644.419	37058.87
644.771	36804.19
645.124	36536.62
645.477	36514.7
645.83	36217.76
646.182	36132.11
646.535	36086.47
646.888	36104.77
647.24	35956.3
647.593	36256.63
647.945	36184.32
648.298	36059.12
648.65	36006.02
649.002	35930.09
649.355	36055.73
649.707	35889.18
650.059	36155.17
650.411	36581.59
650.763	36666.56
651.115	37008.25
651.467	36925.31
651.819	36820.01
652.171	36639.9
652.523	36681.25
652.875	36676.73
653.227	36624.53
653.578	36899.1
653.93	36794.92
654.282	36653.23
654.633	36581.14
654.985	36508.38
655.337	36672.21
655.688	36604.64
656.039	36729.16
656.391	36351.32
656.742	36512.22
657.094	36594.02
657.445	36699.78
657.796	36627.7
658.147	36491.43
658.498	36516.06
658.849	36414.14
659.2	36484.2
659.551	36397.42
659.902	36571.2
660.253	36588.83
660.604	36550.86
660.955	36358.32
661.306	36417.53
661.656	36464.31
662.007	36475.61
662.358	36467.93
662.708	36384.09
663.059	36416.18
663.409	36268.38
663.76	36425.89
664.11	36439.68
664.461	36488.72
664.811	36526
665.161	36344.31
665.511	36361.26
665.862	36344.76
666.212	36443.97
666.562	36438.55
666.912	36441.94
667.262	36417.31
667.612	36339.12
667.962	36482.39
668.312	36199.01
668.662	36405.33
669.011	36291.43
669.361	36231.1
669.711	36422.28
670.06	36147.93
670.41	36274.03
670.76	36276.29
671.109	36193.13
671.459	36383.41
671.808	36302.73
672.157	36187.71
672.507	36072.46
672.856	36020.71
673.205	36151.78
673.554	36362.39
673.904	36121.72
674.253	36205.11
674.602	36146.8
674.951	35683.99
675.3	35445.81
675.649	36156.97
675.998	36097.54
676.346	35941.39
676.695	36189.06
677.044	35720.6
677.393	35883.08
677.741	36084.66
678.09	35838.11
678.438	35791.11
678.787	35837.66
679.135	35986.81
679.484	35736.19
679.832	35855.74
680.181	35620.72
680.529	35754.5
680.877	35558.12
681.225	35610.09
681.573	35723.99
681.922	35541.62
682.27	35489.65
682.618	35508.4
682.966	35359.93
683.314	35643.54
683.661	35326.03
684.009	35236.32
684.357	35103.67
684.705	35135.76
685.053	35198.13
685.4	35046.72
685.748	34897.57
686.095	34804.69
686.443	34758.59
686.79	34858.25
687.138	34820.96
687.485	34746.61
687.832	34601.08
688.18	34644.24
688.527	34434.08
688.874	34439.5
689.221	34450.8
689.568	34329.22
689.915	34253.75
690.262	34232.73
690.609	34062.34
690.956	34218.94
691.303	33975.34
691.65	33828.9
691.997	33851.5
692.344	33588.68
692.69	33614.67
693.037	33572.86
693.383	33408.8
693.73	33697.38
694.077	33438.85
694.423	33309.36
694.769	33203.15
695.116	33035.7
695.462	33119.54
695.808	32932.43
696.155	33093.1
696.501	32852.2
696.847	32672.54
697.193	32564.98
697.539	32670.74
697.885	32416.05
698.231	32363.63
698.577	32354.36
698.923	32378.09
699.269	32242.95
699.614	32014.94
699.96	31894.94
700.306	32047.02
700.651	31928.38
700.997	31880.7
701.342	31775.39
701.688	31684.32
702.033	31709.86
702.379	31635.96
702.724	31295.41
703.069	31534.5
703.415	31152.13
703.76	31125.92
704.105	31248.18
704.45	31220.38
704.795	30972.48
705.14	30962.99
705.485	30850.9
705.83	30716.66
706.175	30645.93
706.52	30689.77
706.865	30670.34
707.209	30576.78
707.554	30531.58
707.899	30458.14
708.243	30364.13
708.588	30341.08
708.932	30037.59
709.277	30123.91
709.621	30059.28
709.966	29965.05
710.31	30068.09
710.654	29726.63
710.998	29851.6
711.342	29747.88
711.687	29679.86
712.031	29631.27
712.375	29407.32
712.719	29569.35
713.063	29325.06
713.407	29506.07
713.75	29322.35
714.094	29387.89
714.438	29263.14
714.782	29272.41
715.125	29163.03
715.469	29148.8
715.812	29035.8
716.156	28781.35
716.499	28939.99
716.843	28934.56
717.186	28776.83
717.53	28908.8
717.873	28841.46
718.216	28697.96
718.559	28646.89
718.902	28445.99
719.246	28491.19
719.589	28450.96
719.932	28306.78
720.275	28442.83
720.617	28283.28
720.96	28191.98
721.303	28181.59
721.646	28163.74
721.989	28035.6
722.331	28059.11
722.674	28059.56
723.016	28008.26
723.359	27943.4
723.701	28044.64
724.044	27686.01
724.386	27577.99
724.729	27794.48
725.071	27739.34
725.413	27629.06
725.755	27639.23
726.097	27621.15
726.439	27363.76
726.782	27437.65
727.124	27542.96
727.465	27428.39
727.807	27254.38
728.149	27200.6
728.491	27209.64
728.833	27286.92
729.175	27143.42
729.516	27003.54
729.858	27030.66
730.199	27132.13
730.541	27031.34
730.882	27050.09
731.224	27015.29
731.565	26869.31
731.906	26761.51
732.248	26765.58
732.589	26659.14
732.93	26687.62
733.271	26619.6
733.612	26614.63
733.953	26731.46
734.294	26570.11
734.635	26470.67
734.976	26569.65
735.317	26474.97
735.658	26416.21
735.999	26420.05
736.339	26316.55
736.68	26343.45
737.021	26228.87
737.361	26198.59
737.702	26333.73
738.042	26272.04
738.383	26152.04
738.723	26224.13
739.063	26131.47
739.404	26082.66
739.744	26054.19
740.084	25945.04
740.424	25974.19
740.764	25921.54
741.104	25996.79
741.444	25729
741.784	25778.49
742.124	25853.97
742.464	25700.98
742.804	25650.13
743.143	25679.96
743.483	25545.5
743.823	25552.51
744.162	25479.51
744.502	25476.8
744.841	25400.42
745.181	25566.97
745.52	25421.44
745.86	25460.98
746.199	25260.08
746.538	25302.34
746.877	25259.63
747.216	25214.21
747.556	25216.7
747.895	25123.82
748.234	25081.11
748.573	25091.95
748.911	24907.1
749.25	24926.08
749.589	24917.27
749.928	24856.71
750.267	24845.41
750.605	24763.6
750.944	24751.85
751.283	24745.52
751.621	24804.96
751.96	24529.03
752.298	24581.68
752.636	24622.81
752.975	24335.81
753.313	24341.92
753.651	24483.38
753.989	24286.1
754.327	24448.35
754.666	24231.86
755.004	24143.73
755.342	24099.89
755.679	24134.24
756.017	23983.96
756.355	24040.23
756.693	23983.06
757.031	23937.63
757.368	23892.89
757.706	23773.57
758.044	23724.53
758.381	23687.02
758.719	23573.58
759.056	23564.31
759.394	23455.16
759.731	23414.26
760.068	23336.29
760.405	23168.39
760.743	23211.78
761.08	23287.71
761.417	23095.85
761.754	23035.51
762.091	23019.69
762.428	22926.81
762.765	22739.25
763.102	22833.26
763.438	22783.77
763.775	22611.79
764.112	22582.19
764.449	22623.32
764.785	22541.74
765.122	22331.35
765.458	22363.89
765.795	22286.6
766.131	22281.63
766.467	22183.1
766.804	22012.49
767.14	21934.97
767.476	22051.58
767.812	21748.31
768.148	21857.01
768.485	21666.51
768.821	21632.61
769.157	21542.44
769.492	21583.12
769.828	21424.93
770.164	21248.44
770.5	21278.72
770.836	21191.04
771.171	21165.95
771.507	21045.51
771.842	20966.19
772.178	20981.55
772.513	20850.03
772.849	20770.48
773.184	20725.97
773.519	20702.24
773.855	20668.34
774.19	20572.3
774.525	20435.13
774.86	20421.12
775.195	20467.44
775.53	20213.89
775.865	20133.21
776.2	19992.65
776.535	19839.89
776.87	19931.41
777.205	19874.92
777.539	19801.24
777.874	19725.77
778.209	19664.75
778.543	19464.98
778.878	19465.21
779.212	19400.8
779.547	19345.44
779.881	19348.38
780.215	19277.19
780.55	19276.96
780.884	19070.19
781.218	19124.43
781.552	19093.24
781.886	18929.18
782.22	18843.3
782.554	18744.78
782.888	18624.33
783.222	18564.89
783.556	18421.39
783.889	18422.3
784.223	18231.57
784.557	18297.1
784.89	18287.61
785.224	18204.22
785.557	18029.77
785.891	18077.22
786.224	18053.49
786.558	17993.61
786.891	17843.33
787.224	17809.88
787.557	17738.02
787.891	17609.66
788.224	17673.84
788.557	17653.73
788.89	17612.83
789.223	17531.7
789.556	17416
789.888	17342.33
790.221	17245.83
790.554	17195.44
790.887	17148.66
791.219	17072.96
791.552	17174.87
791.884	16920.64
792.217	16866.41
792.549	16868.89
792.882	16784.83
793.214	16670.93
793.546	16748.67
793.879	16521.56
794.211	16584.61
794.543	16573.99
794.875	16463.93
795.207	16517.49
795.539	16373.76
795.871	16379.87
796.203	16200.21
796.535	16204.96
796.867	16127.44
797.198	16063.04
797.53	16058.07
797.862	15993.66
798.193	15956.83
798.525	15840.67
798.856	15954.57
799.188	15699.66
799.519	15664.18
799.85	15626.21
800.182	15625.99
800.513	15623.73
800.844	15448.59
801.175	15471.87
801.506	15455.37
801.837	15404.98
802.168	15372.43
802.499	15271.65
802.83	15228.94
803.161	15212.21
803.491	15225.32
803.822	15094.93
804.153	15091.76
804.483	15023.07
804.814	14908.94
805.145	14956.4
805.475	14918.89
805.805	14845.22
806.136	14820.58
806.466	14769.29
806.796	14747.37
807.126	14698.55
807.457	14604.32
807.787	14628.5
808.117	14564.09
808.447	14540.59
808.777	14469.86
809.107	14519.12
809.436	14409.07
809.766	14448.17
810.096	14360.03
810.426	14284.55
810.755	14254.27
811.085	14342.86
811.414	14201.84
811.744	14128.63
812.073	14032.36
812.403	14125.01
812.732	13957.33
813.061	14030.78
813.39	13871.01
813.719	13860.38
814.049	13921.17
814.378	13757.79
814.707	13732.03
815.036	13781.29
815.365	13718.69
815.693	13598.7
816.022	13595.53
816.351	13591.24
816.68	13546.72
817.008	13568.41
817.337	13406.16
817.665	13427.18
817.994	13435.08
818.322	13436.44
818.651	13377.23
818.979	13286.84
819.307	13325.71
819.636	13318.93
819.964	13207.75
820.292	13251.36
820.62	13151.7
820.948	13227.86
821.276	13190.8
821.604	13213.4
821.932	13188.76
822.259	13242.77
822.587	13157.8
822.915	13115.09
823.243	13206.84
823.57	13198.25
823.898	13146.73
824.225	13039.61
824.553	13160.06
824.88	13162.32
825.207	13209.1
825.535	13098.37
825.862	13157.35
826.189	13069.44
826.516	13173.85
826.843	13148.99
827.17	13160.74
827.497	13166.84
827.824	13071.7
828.151	13171.36
828.478	13107.86
828.805	13115.77
829.131	13096.34
829.458	13030.58
829.785	12965.49
830.111	13013.85
830.438	13087.3
830.764	13094.08
831.09	13102.89
831.417	13059.05
831.743	13071.48
832.069	13046.17
832.395	12974.08
832.722	12993.74
833.048	13008.43
833.374	12998.94
833.7	12891.82
834.026	12984.7
834.351	12932.5
834.677	12915.1
835.003	12992.16
835.329	12938.6
835.654	12957.58
835.98	12834.65
836.306	12883.23
836.631	12908.54
836.956	12893.86
837.282	12843.69
837.607	12768.21
837.932	12649.34
838.258	12755.78
838.583	12714.43
838.908	12657.25
839.233	12706.29
839.558	12677.14
839.883	12678.49
840.208	12605.95
840.533	12544.26
840.858	12631.72
841.182	12553.98
841.507	12521.66
841.832	12421.1
842.156	12427.43
842.481	12446.41
842.805	12406.41
843.13	12372.29
843.454	12328.9
843.778	12320.76
844.103	12312.4
844.427	12294.1
844.751	12233.99
845.075	12230.6
845.399	12106.08
845.723	12113.54
846.047	12160.77
846.371	12013.88
846.695	11956.03
847.019	11892.98
847.343	11833.32
847.666	11799.42
847.99	11806.43
848.313	11722.14
848.637	11733.43
848.96	11645.3
849.284	11662.93
849.607	11559.65
849.931	11462.48
850.254	11450.5
850.577	11379.09
850.9	11311.52
851.223	11310.17
851.546	11175.26
851.869	11069.05
852.192	11163.96
852.515	11038.76
852.838	11145.2
853.161	11113.56
853.483	10990.86
853.806	10930.07
854.129	10908.82
854.451	10940.01
854.774	10851.42
855.096	10855.49
855.419	10789.28
855.741	10810.07
856.063	10710.86
856.385	10634.25
856.708	10671.99
857.03	10679.68
857.352	10687.59
857.674	10494.82
857.996	10536.63
858.318	10438.78
858.64	10529.85
858.961	10416.18
859.283	10423.86
859.605	10351.32
859.926	10362.85
860.248	10330.76
860.57	10386.58
860.891	10330.99
861.212	10272.23
861.534	10257.54
861.855	10215.28
862.176	10159.24
862.498	10268.84
862.819	10188.39
863.14	10153.36
863.461	10070.65
863.782	10008.51
864.103	10098.68
864.424	10044.89
864.745	10107.71
865.065	10005.8
865.386	9941.17
865.707	9989.07
866.027	10044.67
866.348	9893.48
866.668	9947.72
866.989	9942.3
867.309	9826.59
867.63	9829.3
867.95	9850.32
868.27	9785.69
868.59	9847.16
868.91	9775.52
869.23	9709.53
869.55	9709.08
869.87	9821.85
870.19	9758.8
870.51	9747.27
870.83	9776.88
871.15	9679.25
871.469	9682.87
871.789	9624.79
872.109	9696.65
872.428	9588.18
872.748	9641.06
873.067	9586.6
873.386	9622.53
873.706	9635.64
874.025	9510.89
874.344	9525.58
874.663	9509.76
874.982	9465.25
875.301	9411.01
875.62	9487.39
875.939	9407.85
876.258	9457.11
876.577	9406.94
876.896	9423.66
877.214	9358.36
877.533	9372.59
877.852	9354.51
878.17	9443.33
878.489	9378.92
878.807	9290.33
879.125	9303.89
879.444	9346.38
879.762	9276.1
880.08	9284.01
880.398	9296.89
880.716	9255.31
881.034	9248.3
881.352	9215.76
881.67	9210.34
881.988	9180.28
882.306	9172.82
882.624	9093.73
882.941	9108.42
883.259	9004.92
883.577	8953.85
883.894	9058.25
884.212	9068.87
884.529	8995.88
884.846	8980.96
885.164	8999.5
885.481	8858.93
885.798	8893.28
886.115	8821.65
886.432	8851.7
886.75	8773.29
887.067	8899.16
887.383	8787.3
887.7	8798.37
888.017	8739.16
888.334	8730.8
888.651	8761.54
888.967	8627.75
889.284	8664.59
889.6	8552.05
889.917	8510.02
890.233	8570.81
890.55	8562.22
890.866	8550.24
891.182	8514.31
891.498	8476.57
891.815	8463.01
892.131	8373.75
892.447	8415.1
892.763	8289.01
893.079	8349.79
893.395	8360.87
893.71	8320.87
894.026	8235.45
894.342	8264.83
894.657	8195.22
894.973	8170.14
895.289	8205.39
895.604	8237.71
895.92	8083.13
896.235	8141.44
896.55	8070.48
896.865	8132.4
897.181	8008.11
897.496	8030.25
897.811	7947.32
898.126	7955.45
898.441	7962.01
898.756	7905.74
899.071	7849.69
899.386	7867.77
899.7	7808.57
900.015	7812.63
900.33	7710.49
900.644	7704.84
900.959	7768.79
901.273	7693.99
901.588	7576.71
901.902	7605.41
902.216	7575.13
902.531	7552.75
902.845	7504.17
903.159	7487.9
903.473	7437.05
903.787	7503.49
904.101	7391.85
904.415	7411.29
904.729	7351.4
905.042	7305.75
905.356	7325.41
905.67	7290.61
905.984	7293.78
906.297	7250.16
906.611	7225.08
906.924	7206.55
907.237	7071.41
907.551	7126.78
907.864	7094.01
908.177	7083.84
908.491	7090.17
908.804	7025.08
909.117	6964.75
909.43	6875.26
909.743	6896.95
910.056	6877.52
910.368	6820.12
910.681	6791.87
910.994	6823.96
911.307	6771.76
911.619	6724.07
911.932	6750.29
912.244	6667.35
912.557	6698.76
912.869	6663.96
913.181	6660.8
913.494	6558.43
913.806	6606.34
914.118	6532.44
914.43	6509.39
914.742	6475.27
915.054	6471.88
915.366	6466.23
915.678	6402.73
915.99	6432.56
916.302	6340.36
916.613	6260.81
916.925	6282.28
917.236	6318.89
917.548	6248.61
917.859	6251.32
918.171	6209.96
918.482	6234.37
918.794	6134.94
919.105	6161.15
919.416	6114.15
919.727	6086.58
920.038	6093.13
920.349	6007.26
920.66	6020.36
920.971	6002.51
921.282	5957.99
921.593	5905.79
921.903	5900.82
922.214	5878
922.525	5868.5
922.835	5817.66
923.146	5783.08
923.456	5762.97
923.767	5760.03
924.077	5768.62
924.387	5694.27
924.697	5701.28
925.008	5692.46
925.318	5681.84
925.628	5636.65
925.938	5607.95
926.248	5575.4
926.558	5574.05
926.867	5549.87
927.177	5544.44
927.487	5532.69
927.796	5399.82
928.106	5457.44
928.416	5442.75
928.725	5394.62
929.034	5392.36
929.344	5366.37
929.653	5348.97
929.962	5316.43
930.271	5280.04
930.581	5212.7
930.89	5219.26
931.199	5193.49
931.508	5143.78
931.817	5197.79
932.125	5123.21
932.434	5056.1
932.743	5089.09
933.051	5054.97
933.36	5060.39
933.669	4999.83
933.977	4982.65
934.286	4978.13
934.594	5028.53
934.902	4917.57
935.21	4905.59
935.519	4918.02
935.827	4944.01
936.135	4887.96
936.443	4841.41
936.751	4781.75
937.059	4763.67
937.367	4748.53
937.674	4744.24
937.982	4758.93
938.29	4695.65
938.597	4728.65
938.905	4676.67
939.213	4660.63
939.52	4650.91
939.827	4661.53
940.135	4623.34
940.442	4589.44
940.749	4550.8
941.056	4553.06
941.363	4504.92
941.67	4507.86
941.977	4476.9
942.284	4383.35
942.591	4463.8
942.898	4433.29
943.205	4393.74
943.511	4390.35
943.818	4367.75
944.125	4378.83
944.431	4295.44
944.738	4295.66
945.044	4288.66
945.35	4272.61
945.657	4243.91
945.963	4222.45
946.269	4209.56
946.575	4244.59
946.881	4170.92
947.187	4184.25
947.493	4161.66
947.799	4111.71
948.105	4117.36
948.41	4135.89
948.716	4072.84
949.022	4053.64
949.327	4077.82
949.633	4062
949.938	4045.5
950.244	4005.5
950.549	3976.8
950.854	3967.76
951.16	3969.57
951.465	3927.76
951.77	3899.74
952.075	3882.12
952.38	3879.86
952.685	3908.33
952.99	3870.36
953.294	3821.55
953.599	3800.54
953.904	3800.54
954.209	3759.18
954.513	3756.7
954.818	3736.81
955.122	3730.93
955.426	3688.9
955.731	3703.82
956.035	3673.31
956.339	3685.28
956.643	3698.39
956.948	3653.65
957.252	3621.78
957.556	3591.28
957.86	3604.61
958.163	3543.59
958.467	3519.19
958.771	3555.8
959.075	3573.2
959.378	3533.42
959.682	3462.01
959.985	3495.46
960.289	3464.5
960.592	3447.32
960.896	3485.52
961.199	3413.65
961.502	3415.91
961.805	3406.65
962.108	3320.55
962.411	3410.94
962.714	3319.42
963.017	3363.49
963.32	3361.68
963.623	3305.86
963.926	3320.32
964.228	3321
964.531	3268.35
964.833	3283.94
965.136	3251.62
965.438	3212.53
965.741	3218.18
966.043	3238.97
966.345	3183.83
966.648	3172.3
966.95	3165.75
967.252	3174.79
967.554	3132.53
967.856	3116.49
968.158	3123.27
968.46	3082.14
968.761	3049.37
969.063	3078.29
969.365	3009.6
969.666	3040.33
969.968	3058.41
970.269	3030.84
970.571	3000.78
970.872	2970.73
971.174	2988.35
971.475	2976.38
971.776	2959.2
972.077	2960.11
972.378	2905.87
972.679	2914.68
972.98	2890.05
973.281	2869.26
973.582	2878.98
973.883	2849.15
974.183	2827.45
974.484	2851.41
974.785	2833.78
975.085	2787.45
975.386	2815.48
975.686	2787
975.986	2755.37
976.287	2743.39
976.587	2736.61
976.887	2703.16
977.187	2725.99
977.487	2706.33
977.787	2726.21
978.087	2671.98
978.387	2636.95
978.687	2656.84
978.987	2648.02
979.286	2613
979.586	2657.06
979.885	2628.59
980.185	2602.83
980.484	2608.02
980.784	2603.05
981.083	2533.22
981.382	2580.68
981.682	2561.92
981.981	2555.14
982.28	2517.63
982.579	2502.04
982.878	2528.48
983.177	2490.06
983.475	2513.56
983.774	2465.66
984.073	2469.95
984.372	2426.11
984.67	2473.34
984.969	2424.07
985.267	2427.24
985.566	2438.76
985.864	2418.43
986.162	2411.42
986.461	2375.94
986.759	2362.61
987.057	2362.61
987.355	2369.39
987.653	2321.25
987.951	2317.86
988.249	2340.69
988.547	2343.62
988.844	2275.38
989.142	2312.89
989.44	2297.75
989.737	2270.63
990.035	2274.47
990.332	2269.28
990.63	2236.06
990.927	2242.38
991.224	2232.22
991.521	2211.65
991.819	2210.29
992.116	2175.95
992.413	2175.49
992.71	2183.86
993.006	2167.58
993.303	2173.23
993.6	2140.01
993.897	2128.49
994.193	2102.28
994.49	2098.43
994.787	2062.05
995.083	2107.25
995.379	2085.78
995.676	2075.16
995.972	2063.86
996.268	2028.15
996.565	2060.47
996.861	2038.77
997.157	2004.65
997.453	2027.93
997.749	2029.73
998.044	1995.39
998.34	1977.76
998.636	1963.97
998.932	1967.36
999.227	1947.25
999.523	1930.08
999.818	1921.72
1000.114	1900.02
1000.409	1930.53
1000.704	1904.99
1001	1896.86
1001.295	1893.24
1001.59	1881.49
1001.885	1851.21
1002.18	1850.76
1002.475	1844.43
1002.77	1827.48
1003.065	1834.71
1003.359	1836.52
1003.654	1806.46
1003.949	1776.63
1004.243	1751.78
1004.538	1787.26
1004.832	1780.7
1005.127	1761.04
1005.421	1746.35
1005.715	1736.18
1006.009	1744.09
1006.304	1733.7
1006.598	1705.9
1006.892	1706.13
1007.186	1710.2
1007.48	1702.51
1007.773	1667.94
1008.067	1631.55
1008.361	1624.32
1008.655	1683.53
1008.948	1653.25
1009.242	1651.67
1009.535	1647.6
1009.829	1633.59
1010.122	1640.37
1010.415	1590.2
1010.708	1579.8
1011.001	1568.5
1011.295	1561.95
1011.588	1574.38
1011.881	1536.41
1012.173	1525.12
1012.466	1517.88
1012.759	1513.59
1013.052	1523.53
1013.344	1507.26
1013.637	1497.77
1013.93	1490.31
1014.222	1494.38
1014.514	1457.55
1014.807	1490.09
1015.099	1495.74
1015.391	1465.68
1015.683	1400.82
1015.976	1447.38
1016.268	1424.33
1016.56	1379.36
1016.851	1401.05
1017.143	1410.54
1017.435	1366.25
1017.727	1359.7
1018.018	1393.82
1018.31	1368.96
1018.602	1385.01
1018.893	1355.85
1019.185	1326.7
1019.476	1313.14
1019.767	1326.25
1020.058	1310.66
1020.35	1295.06
1020.641	1286.93
1020.932	1283.54
1021.223	1282.86
1021.514	1271.79
1021.804	1253.26
1022.095	1264.33
1022.386	1259.13
1022.677	1212.81
1022.967	1252.13
1023.258	1203.32
1023.548	1226.82
1023.839	1211.68
1024.129	1230.43
1024.419	1211.68
1024.709	1179.59
1025	1169.64
1025.29	1190.89
1025.58	1157.67
1025.87	1164.67
1026.16	1154.05
1026.449	1182.07
1026.739	1147.05
1027.029	1142.53
1027.319	1119.48
1027.608	1111.34
1027.898	1098.91
1028.187	1119.02
1028.477	1092.81
1028.766	1101.4
1029.055	1071.79
1029.344	1077.44
1029.634	1096.65
1029.923	1058.91
1030.212	1068.63
1030.501	1053.04
1030.79	1029.31
1031.078	1041.74
1031.367	1042.87
1031.656	1013.72
1031.945	1018.91
1032.233	1018.69
1032.522	1015.3
1032.81	1006.48
1033.099	991.57
1033.387	1005.81
1033.675	948.41
1033.963	972.14
1034.251	971.46
1034.54	975.3
1034.828	968.07
1035.116	934.85
1035.403	929.42
1035.691	912.02
1035.979	936.2
1036.267	925.81
1036.554	900.5
1036.842	937.11
1037.129	923.55
1037.417	900.95
1037.704	912.7
1037.992	883.78
1038.279	899.59
1038.566	884.68
1038.853	884.68
1039.14	884.68
