Data from hue_50_FLMS001491_65.txt Node
Date: Mon Feb 06 15:10:45 GMT 2017
User: dcchb
Spectrometer: FLMS00149
Trigger mode: 0
Integration Time (sec): 2.000000E-2
Scans to average: 10
Electric dark correction enabled: true
Nonlinearity correction enabled: false
Boxcar width: 0
XAxis mode: Wavelengths
Number of Pixels in Spectrum: 2048
>>>>>Begin Spectral Data<<<<<
341.393	1.88
341.776	1.88
342.16	1.88
342.543	-58.91
342.927	-48.97
343.31	-66.59
343.693	-72.7
344.077	-56.2
344.46	-56.43
344.843	-60.49
345.226	-43.54
345.61	-16.65
345.993	-12.36
346.376	4.14
346.759	-4.9
347.142	36.91
347.525	36.68
347.908	61.09
348.291	74.64
348.674	75.1
349.057	101.31
349.44	124.59
349.823	129.78
350.206	164.36
350.588	188.09
350.971	226.28
351.354	239.39
351.737	229.9
352.119	253.85
352.502	270.35
352.884	288.65
353.267	289.33
353.65	296.11
354.032	288.42
354.414	330.68
354.797	326.62
355.179	323.23
355.562	337.24
355.944	336.78
356.326	324.58
356.709	322.55
357.091	347.63
357.473	350.8
357.855	354.19
358.238	348.54
358.62	334.3
359.002	355.09
359.384	364.13
359.766	354.41
360.148	346.5
360.53	330.46
360.912	336.11
361.294	363
361.676	330.68
362.057	354.86
362.439	331.14
362.821	337.46
363.203	344.24
363.584	340.85
363.966	327.07
364.348	314.41
364.729	330.46
365.111	312.15
365.493	338.59
365.874	328.65
366.256	325.49
366.637	310.57
367.019	318.48
367.4	319.61
367.781	306.28
368.163	313.06
368.544	326.84
368.925	299.5
369.306	355.99
369.688	319.84
370.069	329.78
370.45	331.14
370.831	308.54
371.212	333.62
371.593	318.03
371.974	318.48
372.355	307.86
372.736	319.16
373.117	344.02
373.498	315.99
373.879	316.22
374.26	301.98
374.641	300.4
375.021	334.98
375.402	342.89
375.783	325.03
376.163	334.3
376.544	310.57
376.925	329.55
377.305	333.62
377.686	322.32
378.066	340.63
378.447	323.23
378.827	327.29
379.208	354.41
379.588	337.91
379.968	334.53
380.349	353.96
380.729	346.28
381.109	342.43
381.489	361.42
381.87	343.11
382.25	338.37
382.63	329.55
383.01	332.49
383.39	358.71
383.77	333.4
384.15	343.79
384.53	349.21
384.91	362.77
385.29	340.4
385.67	357.35
386.049	358.93
386.429	345.15
386.809	356.67
387.189	364.35
387.568	354.19
387.948	369.55
388.328	359.38
388.707	353.51
389.087	379.95
389.466	364.13
389.846	372.72
390.225	372.94
390.605	368.42
390.984	370
391.363	360.06
391.743	372.04
392.122	349.21
392.501	371.13
392.881	369.78
393.26	377.46
393.639	378.14
394.018	347.18
394.397	359.16
394.776	379.95
395.155	365.03
395.534	366.61
395.913	354.41
396.292	367.29
396.671	387.41
397.05	388.53
397.429	381.53
397.808	398.03
398.186	377.24
398.565	378.14
398.944	393.05
399.323	404.13
399.701	374.52
400.08	387.41
400.458	380.63
400.837	385.37
401.215	402.77
401.594	381.3
401.972	385.82
402.351	408.2
402.729	387.18
403.107	393.28
403.486	422.88
403.864	398.93
404.242	391.25
404.62	399.61
404.999	414.52
405.377	396.22
405.755	414.75
406.133	400.29
406.511	391.02
406.889	405.26
407.267	418.14
407.645	423.79
408.023	422.21
408.401	435.99
408.779	437.12
409.156	426.27
409.534	423.11
409.912	436.9
410.29	466.5
410.667	441.19
411.045	445.26
411.422	426.5
411.8	425.6
412.178	433.05
412.555	451.36
412.933	464.01
413.31	452.26
413.687	470.11
414.065	440.06
414.442	453.62
414.819	485.26
415.197	452.04
415.574	466.73
415.951	486.16
416.328	456.78
416.705	483.9
417.082	474.41
417.46	473.28
417.837	497.01
418.214	497.01
418.591	483.67
418.967	463.34
419.344	494.75
419.721	506.05
420.098	492.94
420.475	489.1
420.852	513.96
421.228	507.18
421.605	508.76
421.982	514.18
422.358	518.48
422.735	523.9
423.111	512.37
423.488	521.86
423.864	521.19
424.241	518.48
424.617	525.48
424.994	517.12
425.37	541.53
425.746	542.66
426.123	549.21
426.499	537.46
426.875	557.8
427.251	539.04
427.627	537.01
428.003	560.28
428.379	567.06
428.756	558.47
429.132	562.54
429.507	568.87
429.883	567.97
430.259	591.02
430.635	571.36
431.011	573.84
431.387	587.63
431.763	595.08
432.138	602.09
432.514	598.25
432.89	596.21
433.265	617.46
433.641	597.12
434.016	611.13
434.392	616.1
434.767	599.83
435.143	623.56
435.518	636.21
435.894	645.03
436.269	633.05
436.644	653.16
437.02	669.66
437.395	644.57
437.77	650
438.145	645.48
438.52	674.86
438.895	679.6
439.271	677.11
439.646	686.38
440.021	689.09
440.395	689.09
440.77	703.1
441.145	706.27
441.52	689.32
441.895	697.23
442.27	688.41
442.645	698.36
443.019	709.2
443.394	725.7
443.769	728.87
444.143	700.62
444.518	714.63
444.892	750.11
445.267	747.4
445.641	748.3
446.016	732.71
446.39	745.14
446.764	745.81
447.139	760.5
447.513	748.07
447.887	747.4
448.262	747.62
448.636	779.03
449.01	761.63
449.384	767.96
449.758	777.23
450.132	777
450.506	797.56
450.88	801.86
451.254	795.76
451.628	778.58
452.002	812.48
452.376	801.86
452.75	821.07
453.123	804.57
453.497	825.59
453.871	849.99
454.244	865.36
454.618	849.31
454.992	887.96
455.365	871.23
455.739	880.73
456.112	885.25
456.486	893.83
456.859	897
457.232	910.1
457.606	932.93
457.979	927.05
458.352	927.5
458.725	940.84
459.099	931.8
459.472	943.1
459.845	989.88
460.218	999.14
460.591	1012.25
460.964	1004.79
461.337	1009.99
461.71	1016.77
462.083	1037.33
462.456	1058.8
462.829	1047.5
463.201	1054.51
463.574	1087.5
463.947	1068.29
464.32	1105.13
464.692	1117.78
465.065	1122.3
465.438	1152.13
465.81	1139.7
466.183	1187.16
466.555	1224.22
466.928	1206.14
467.3	1226.48
467.672	1249.98
468.045	1245.01
468.417	1253.37
468.789	1263.31
469.161	1326.59
469.534	1322.07
469.906	1377.66
470.278	1386.7
470.65	1414.27
471.022	1448.62
471.394	1472.12
471.766	1496.3
472.138	1509.64
472.51	1574.27
472.882	1571.1
473.253	1636.86
473.625	1670.54
473.997	1708.73
474.369	1695.17
474.74	1748.05
475.112	1813.81
475.484	1847.71
475.855	1892
476.227	1908.72
476.598	2025.1
476.97	2027.81
477.341	2097.42
477.713	2150.97
478.084	2179.9
478.455	2253.57
478.827	2342.61
479.198	2410.85
479.569	2454.24
479.94	2541.7
480.311	2566.33
480.682	2685.65
481.053	2761.35
481.424	2868.02
481.795	2932.42
482.166	3036.6
482.537	3066.66
482.908	3243.15
483.279	3267.56
483.65	3399.53
484.021	3515.23
484.391	3589.58
484.762	3663.48
485.133	3783.7
485.503	3845.62
485.874	4018.27
486.244	4142.56
486.615	4212.16
486.985	4398.6
487.356	4495.77
487.726	4585.26
488.097	4775.76
488.467	4835.2
488.837	5022.31
489.207	5175.98
489.578	5260.72
489.948	5411.91
490.318	5535.74
490.688	5598.79
491.058	5850.54
491.428	5999.91
491.798	6086.01
492.168	6265.22
492.538	6372.11
492.908	6525.55
493.278	6668.37
493.648	6784.3
494.017	6954.01
494.387	7050.73
494.757	7242.82
495.126	7397.62
495.496	7495.69
495.866	7644.84
496.235	7802.13
496.605	7986.75
496.974	8090.71
497.344	8266.29
497.713	8358.04
498.082	8514.2
498.452	8669.67
498.821	8797.58
499.19	8962.32
499.559	8997.8
499.928	9176.33
500.298	9365.02
500.667	9531.8
501.036	9628.97
501.405	9761.17
501.774	9778.8
502.143	9934.27
502.512	10084.33
502.88	10228.28
503.249	10329.06
503.618	10475.05
503.987	10623.75
504.356	10675.95
504.724	10776.96
505.093	10898.54
505.462	11033.45
505.83	11148.48
506.199	11353.9
506.567	11498.75
506.936	11539.88
507.304	11759.99
507.672	11853.32
508.041	11919.31
508.409	12044.05
508.777	12106.64
509.145	12383.25
509.514	12347.99
509.882	12481.78
510.25	12614.65
510.618	12756.35
510.986	12867.75
511.354	12974.42
511.722	13128.54
512.09	13230.46
512.458	13236.56
512.826	13480.39
513.193	13539.6
513.561	13663.89
513.929	13711.8
514.297	13943.43
514.664	14041.51
515.032	14087.84
515.4	14296.42
515.767	14337.55
516.135	14409.86
516.502	14426.13
516.869	14684.66
517.237	14807.14
517.604	14756.52
517.972	14990.86
518.339	15031.54
518.706	15096.4
519.073	15263.85
519.44	15453.22
519.808	15576.84
520.175	15542.94
520.542	15714.01
520.909	15809.15
521.276	15832.42
521.643	16031.51
522.009	16137.5
522.376	16224.5
522.743	16391.28
523.11	16653.19
523.477	16660.88
523.843	16900.42
524.21	16938.61
524.577	17054.99
524.943	17169.34
525.31	17288.66
525.676	17514.19
526.043	17551.02
526.409	17565.03
526.776	17864.01
527.142	17906.49
527.508	18066.49
527.874	18126.6
528.241	18263.32
528.607	18371.11
528.973	18580.37
529.339	18507.38
529.705	18701.73
530.071	18910.99
530.437	18932.68
530.803	19117.76
531.169	19102.39
531.535	19215.61
531.901	19321.37
532.267	19370.18
532.632	19519.11
532.998	19617.63
533.364	19725.43
533.73	19750.96
534.095	19960.45
534.461	20077.51
534.826	20110.73
535.192	20124.06
535.557	20336.49
535.923	20374.68
536.288	20462.13
536.653	20614.22
537.019	20594.33
537.384	20582.13
537.749	20667.78
538.114	20684.5
538.479	20802.69
538.845	21057.82
539.21	20876.58
539.575	21053.98
539.94	21074.09
540.305	21310.92
540.67	21258.04
541.034	21365.61
541.399	21450.81
541.764	21480.18
542.129	21569.9
542.494	21643.8
542.858	21742.32
543.223	21850.34
543.587	21978.7
543.952	21905.48
544.316	21974.18
544.681	22017.8
545.045	22201.52
545.41	22302.99
545.774	22388.86
546.138	22365.81
546.503	22457.79
546.867	22515.64
547.231	22739.81
547.595	22703.2
547.959	22829.3
548.324	22930.99
548.688	22880.15
549.052	23082.4
549.416	23054.15
549.779	23143.64
550.143	23146.13
550.507	23402.39
550.871	23439.45
551.235	23393.13
551.599	23561.03
551.962	23730.07
552.326	23785.21
552.689	23814.36
553.053	23804.64
553.417	23875.38
553.78	24230.85
554.143	24077.4
554.507	24157.4
554.87	24199.89
555.234	24647.33
555.597	24328.47
555.96	24535.92
556.323	24665.18
556.686	24626.99
557.05	24960.32
557.413	24918.06
557.776	24972.52
558.139	25161.44
558.502	25168.9
558.865	25223.14
559.228	25384.94
559.59	25466.97
559.953	25474.2
560.316	25772.27
560.679	25700.86
561.041	25953.74
561.404	25904.25
561.767	26119.84
562.129	26215.2
562.492	26464.46
562.854	26457.91
563.217	26440.96
563.579	26602.08
563.941	26781.06
564.304	26849.76
564.666	27099.25
565.028	27012.69
565.39	27149.87
565.753	27268.28
566.115	27400.93
566.477	27529.29
566.839	27563.87
567.201	27725.67
567.563	27673.24
567.925	27953.46
568.287	27992.1
568.648	28053.34
569.01	28215.83
569.372	28363.17
569.734	28283.17
570.095	28520.22
570.457	28749.37
570.819	28792.99
571.18	28799.99
571.542	28905.3
571.903	28886.99
572.265	29181.9
572.626	29144.16
572.987	29171.51
573.349	29362.91
573.71	29479.07
574.071	29592.06
574.432	29626.64
574.794	29972.16
575.155	29878.83
575.516	29870.7
575.877	30110.47
576.238	30230.01
576.599	30227.07
576.96	30314.53
577.32	30387.52
577.681	30645.37
578.042	30723.56
578.403	30787.74
578.763	30902.76
579.124	31011.23
579.485	31241.28
579.845	31344.78
580.206	31333.48
580.566	31442.18
580.927	31569.18
581.287	31669.97
581.648	31724.43
582.008	31975.95
582.368	31959.68
582.728	32213.46
583.089	32162.16
583.449	32384.3
583.809	32467.47
584.169	32630.17
584.529	32656.61
584.889	32940.45
585.249	32703.62
585.609	32991.52
585.969	33137.28
586.329	33218.41
586.688	33374.79
587.048	33391.96
587.408	33550.15
587.768	33553.54
588.127	33749.24
588.487	33730.94
588.846	34156.69
589.206	34105.61
589.565	34080.76
589.925	34416.34
590.284	34349
590.643	34598.48
591.003	34660.4
591.362	35013.16
591.721	34885.93
592.08	35140.16
592.44	35311.91
592.799	35350.78
593.158	35416.31
593.517	35402.08
593.876	35772.01
594.235	35776.76
594.593	35907.38
594.952	36038.22
595.311	35998.67
595.67	36204.09
596.029	36355.05
596.387	36501.71
596.746	36605.89
597.104	36596.85
597.463	36659.45
597.822	36858.08
598.18	36909.61
598.538	36826.9
598.897	37338.75
599.255	37024.86
599.613	37548.91
599.972	37484.06
600.33	37600.89
600.688	37506.2
601.046	37850.37
601.404	37878.17
601.762	38031.16
602.12	38243.81
602.478	38222.79
602.836	38324.03
603.194	38235.9
603.552	38307.09
603.91	38353.86
604.268	38482.22
604.625	38597.93
604.983	38773.74
605.341	38677.47
605.698	38823
606.056	38973.51
606.413	39066.39
606.771	39404.91
607.128	39319.71
607.485	39211.92
607.843	39224.12
608.2	39591.12
608.557	39751.12
608.914	39702.76
609.272	39815.29
609.629	39764.67
609.986	40062.97
610.343	39984.33
610.7	40220.03
611.057	40235.17
611.414	40260.03
611.771	40400.36
612.127	40567.14
612.484	40533.02
612.841	40730.3
613.198	40514.71
613.554	40664.31
613.911	40863.63
614.267	40905.89
614.624	40958.77
614.98	41139.78
615.337	41290.74
615.693	41176.39
616.05	41177.52
616.406	41519.43
616.762	41292.09
617.118	41501.35
617.475	41478.3
617.831	41646.89
618.187	41720.1
618.543	41716.26
618.899	41991.73
619.255	41874.68
619.611	41871.51
619.967	42109.02
620.323	42199.64
620.678	42015.69
621.034	42015.24
621.39	42045.29
621.746	42052.3
622.101	42470.59
622.457	42238.73
622.812	42318.51
623.168	42540.2
623.523	42446.64
623.879	42497.71
624.234	42346.53
624.589	42634.88
624.945	42586.75
625.3	42656.12
625.655	42731.15
626.01	42590.14
626.365	42800.08
626.72	42746.52
627.075	42789.91
627.43	42799.17
627.785	42617.03
628.14	42692.28
628.495	42808.89
628.85	42863.8
629.205	42599.4
629.559	42887.08
629.914	42646.86
630.269	42723.47
630.623	42527.77
630.978	42618.16
631.332	42775.44
631.687	42949.22
632.041	42814.99
632.396	42941.54
632.75	42664.71
633.104	42705.84
633.459	42526.86
633.813	42553.75
634.167	42503.59
634.521	42544.04
634.875	42778.15
635.229	42676.91
635.583	42408.67
635.937	42454.1
636.291	42411.38
636.645	42492.06
636.999	42354.44
637.352	42482.12
637.706	42184.72
638.06	42422.68
638.413	42439.18
638.767	42188.57
639.121	42385.4
639.474	41977.05
639.828	42139.3
640.181	42299.3
640.534	42167.32
640.888	42128.91
641.241	41854.56
641.594	42055.69
641.947	42112.18
642.301	41970.49
642.654	41987.44
643.007	42094.56
643.36	41941.79
643.713	41913.54
644.066	42106.31
644.419	41813.43
644.771	41544.51
645.124	41145.88
645.477	41088.26
645.83	40831.99
646.182	40841.03
646.535	40554.26
646.888	40744.54
647.24	40580.92
647.593	40727.14
647.945	40641.94
648.298	40432.45
648.65	40411.66
649.002	40380.03
649.355	40529.17
649.707	40430.65
650.059	40499.57
650.411	40996.96
650.763	40985.66
651.115	41445.53
651.467	41317.18
651.819	41351.75
652.171	41214.81
652.523	41249.38
652.875	41204.41
653.227	40987.24
653.578	41350.17
653.93	41136.39
654.282	41030.18
654.633	41002.61
654.985	41019.78
655.337	41168.03
655.688	40954.02
656.039	41154.47
656.391	40789.96
656.742	40843.97
657.094	40878.54
657.445	40921.93
657.796	40886
658.147	40795.38
658.498	40820.69
658.849	40888.49
659.2	40740.92
659.551	40722.62
659.902	40886.91
660.253	40920.12
660.604	40775.04
660.955	40634.26
661.306	40839.22
661.656	40759.45
662.007	40578.89
662.358	40675.61
662.708	40700.02
663.059	40513.36
663.409	40485.56
663.76	40833.8
664.11	40586.8
664.461	40724.65
664.811	40749.96
665.161	40625.44
665.511	40583.86
665.862	40561.72
666.212	40786.34
666.562	40857.53
666.912	40498.21
667.262	40541.38
667.612	40537.54
667.962	40507.25
668.312	40511.55
668.662	40736.17
669.011	40481.27
669.361	40499.12
669.711	40555.16
670.06	40512.9
670.41	40302.06
670.76	40264.77
671.109	40494.6
671.459	40453.24
671.808	40270.88
672.157	40385.45
672.507	40123.08
672.856	40197.66
673.205	40210.76
673.554	40404.21
673.904	40181.61
674.253	40418.22
674.602	40411.89
674.951	39676.77
675.3	39524
675.649	39995.86
675.998	40073.14
676.346	40167.83
676.695	40319.24
677.044	39858.23
677.393	40103.65
677.741	40197.88
678.09	39899.13
678.438	40018.68
678.787	40037.66
679.135	39967.61
679.484	39795.86
679.832	39848.29
680.181	39686.03
680.529	39940.26
680.877	39739.36
681.225	39559.71
681.573	39813.49
681.922	39494.17
682.27	39392.03
682.618	39485.59
682.966	39319.94
683.314	39453.72
683.661	39309.32
684.009	39093.96
684.357	39224.12
684.705	39012.15
685.053	39061.19
685.4	39068.2
685.748	38860.29
686.095	38908.43
686.443	38725.15
686.79	38726.06
687.138	38851.48
687.485	38697.81
687.832	38638.15
688.18	38760.86
688.527	38300.08
688.874	38375.78
689.221	38256.47
689.568	38220.31
689.915	38079.52
690.262	37986.19
690.609	37992.07
690.956	37862.8
691.303	37743.26
691.65	37722.47
691.997	37693.54
692.344	37500.78
692.69	37468.24
693.037	37479.31
693.383	37021.92
693.73	37224.85
694.077	37012.43
694.423	37045.42
694.769	36808.59
695.116	36771.31
695.462	36752.32
695.808	36508.26
696.155	36702.83
696.501	36439.56
696.847	36433.46
697.193	36121.83
697.539	36346.91
697.885	36006.81
698.231	36024.89
698.577	35988.5
698.923	35913.48
699.269	35699.24
699.614	35521.17
699.96	35612.02
700.306	35533.37
700.651	35388.52
700.997	35432.13
701.342	35188.52
701.688	35275.53
702.033	35125.02
702.379	34970.45
702.724	34920.96
703.069	35080.5
703.415	34718.93
703.76	34688.65
704.105	34643.23
704.45	34689.1
704.795	34373.18
705.14	34345.38
705.485	34265.84
705.83	34086.63
706.175	34151.94
706.52	34071.72
706.865	33994.43
707.209	33981.1
707.554	33729.35
707.899	33755.12
708.243	33678.96
708.588	33538.17
708.932	33397.61
709.277	33478.51
709.621	33421.79
709.966	33225.19
710.31	33333.66
710.654	33011.41
710.998	33030.84
711.342	33006.21
711.687	32867.23
712.031	32762.6
712.375	32662.26
712.719	32753.11
713.063	32507.01
713.407	32660
713.75	32471.08
714.094	32561.7
714.438	32375.26
714.782	32498.2
715.125	32261.14
715.469	32211.88
715.812	32268.37
716.156	32034.93
716.499	32130.75
716.843	32159
717.186	31830.87
717.53	32015.73
717.873	31940.7
718.216	31873.58
718.559	31684.66
718.902	31592.23
719.246	31767.82
719.589	31481.5
719.932	31376.87
720.275	31386.59
720.617	31236.54
720.96	31309.08
721.303	31329.87
721.646	31375.06
721.989	30995.41
722.331	31164.9
722.674	31040.16
723.016	31180.04
723.359	30946.83
723.701	31096.43
724.044	30760.17
724.386	30592.71
724.729	30723.56
725.071	30716.78
725.413	30499.16
725.755	30690.56
726.097	30551.36
726.439	30417.35
726.782	30452.6
727.124	30505.26
727.465	30361.98
727.807	30296
728.149	30273.17
728.491	30093.74
728.833	30160.86
729.175	30071.37
729.516	30130.35
729.858	29940.53
730.199	30040.41
730.541	29827.76
730.882	29867.53
731.224	29932.62
731.565	29757.48
731.906	29762.23
732.248	29659.86
732.589	29608.33
732.93	29469.58
733.271	29504.38
733.612	29507.09
733.953	29386.87
734.294	29352.75
734.635	29267.1
734.976	29342.35
735.317	29128.57
735.658	29230.26
735.999	29311.62
736.339	29155.91
736.68	29214.9
737.021	29039.31
737.361	29042.24
737.702	29144.39
738.042	29016.03
738.383	29018.29
738.723	28989.82
739.063	29007.9
739.404	28868.01
739.744	28746.21
740.084	28714.8
740.424	28767.45
740.764	28633.89
741.104	28696.27
741.444	28483.84
741.784	28522.48
742.124	28520.45
742.464	28329.5
742.804	28430.96
743.143	28288.37
743.483	28413.79
743.823	28294.69
744.162	28246.11
744.502	28205.2
744.841	28193.91
745.181	28280.46
745.52	27991.43
745.86	28046.34
746.199	27993.91
746.538	27931.54
746.877	28027.58
747.216	28073.46
747.556	27863.97
747.895	27809.28
748.234	27799.34
748.573	27662.17
748.911	27712.56
749.25	27706.69
749.589	27613.81
749.928	27598.67
750.267	27622.17
750.605	27475.28
750.944	27504.66
751.283	27415.62
751.621	27390.76
751.96	27315.74
752.298	27257.21
752.636	27230.54
752.975	26950.77
753.313	27068.06
753.651	27189.41
753.989	26911.68
754.327	26896.31
754.666	26721.18
755.004	26789.65
755.342	26879.36
755.679	26694.74
756.017	26657.67
756.355	26674.17
756.693	26561.63
757.031	26577.9
757.368	26311.7
757.706	26417.46
758.044	26246.39
758.381	26291.36
758.719	26119.16
759.056	26121.87
759.394	26130.01
759.731	25889.33
760.068	25968.88
760.405	25850.46
760.743	25599.17
761.08	25684.37
761.417	25615.89
761.754	25620.19
762.091	25493.19
762.428	25332.29
762.765	25362.34
763.102	25371.83
763.438	25231.05
763.775	25014.55
764.112	25021.11
764.449	25068.56
764.785	24910.6
765.122	24853.65
765.458	24730.04
765.795	24794.45
766.131	24643.94
766.467	24452.99
766.804	24510.16
767.14	24249.6
767.476	24253.67
767.812	24129.38
768.148	24181.13
768.485	24062.04
768.821	23933.45
769.157	23900.69
769.492	23805.55
769.828	23821.59
770.164	23645.78
770.5	23538.66
770.836	23524.88
771.171	23340.7
771.507	23415.5
771.842	23304.99
772.178	23216.18
772.513	23122.85
772.849	23019.58
773.184	22888.96
773.519	22891.22
773.855	22789.98
774.19	22754.73
774.525	22721.96
774.86	22680.6
775.195	22484.68
775.53	22448.07
775.865	22397.22
776.2	22140.28
776.535	22105.48
776.87	22123.56
777.205	21923.79
777.539	21847.63
777.874	21900.74
778.209	21701.87
778.543	21745.04
778.878	21565.38
779.212	21573.51
779.547	21520.18
779.881	21417.13
780.215	21254.43
780.55	21288.55
780.884	21134.66
781.218	21248.78
781.552	21150.7
781.886	21040.65
782.22	20944.15
782.554	20845.85
782.888	20605.18
783.222	20545.97
783.556	20443.83
783.889	20497.16
784.223	20403.83
784.557	20314.56
784.89	20335.13
785.224	20235.47
785.557	20072.31
785.891	20035.7
786.224	20017.17
786.558	19967
786.891	19788.25
787.224	19694.47
787.557	19598.2
787.891	19680.23
788.224	19564.75
788.557	19559.56
788.89	19411.54
789.223	19388.94
789.556	19306.68
789.888	19261.26
790.221	19189.4
790.554	19075.73
790.887	19077.76
791.219	18923.87
791.552	18861.72
791.884	18781.5
792.217	18821.95
792.549	18772.68
792.882	18536.98
793.214	18530.43
793.546	18530.2
793.879	18354.39
794.211	18358.23
794.543	18349.87
794.875	18212.02
795.207	18270.78
795.539	18281.62
795.871	18132.7
796.203	18054.51
796.535	17922.76
796.867	17922.54
797.198	17845.25
797.53	17810.45
797.862	17663.33
798.193	17710.34
798.525	17687.97
798.856	17552.38
799.188	17418.6
799.519	17353.51
799.85	17288.2
800.182	17289.56
800.513	17388.54
800.844	17151.94
801.175	17144.48
801.506	17216.79
801.837	17088.89
802.168	16964.6
802.499	17011.37
802.83	16896.35
803.161	16855.9
803.491	16907.42
803.822	16865.16
804.153	16657.26
804.483	16517.15
804.814	16482.12
805.145	16527.77
805.475	16600.99
805.805	16466.08
806.136	16503.82
806.466	16401.67
806.796	16461.11
807.126	16188.35
807.457	16198.74
807.787	16115.58
808.117	16163.94
808.447	16047.11
808.777	16091.85
809.107	16023.38
809.436	15966.66
809.766	16019.31
810.096	15890.27
810.426	15767.11
810.755	15810.28
811.085	15754.68
811.414	15742.71
811.744	15666.33
812.073	15580.9
812.403	15557.85
812.732	15611.64
813.061	15471.98
813.39	15414.81
813.719	15326.67
814.049	15416.16
814.378	15412.55
814.707	15296.84
815.036	15325.09
815.365	15201.93
815.693	15082.39
816.022	15105.44
816.351	15037.87
816.68	15009.39
817.008	14967.59
817.337	14869.51
817.665	14844.2
817.994	14821.15
818.322	14798.78
818.651	14678.1
818.979	14835.16
819.307	14738.44
819.636	14787.48
819.964	14687.59
820.292	14681.27
820.62	14640.36
820.948	14563.08
821.276	14610.99
821.604	14596.75
821.932	14565.56
822.259	14548.61
822.587	14510.88
822.915	14511.1
823.243	14631.55
823.57	14519.01
823.898	14562.63
824.225	14496.86
824.553	14493.93
824.88	14508.84
825.207	14475.17
825.535	14532.34
825.862	14567.6
826.189	14470.65
826.516	14563.08
826.843	14564.66
827.17	14488.05
827.497	14462.29
827.824	14476.75
828.151	14610.53
828.478	14527.37
828.805	14543.19
829.131	14422.52
829.458	14438.56
829.785	14358.11
830.111	14432.46
830.438	14504.77
830.764	14496.41
831.09	14439.46
831.417	14294.38
831.743	14361.95
832.069	14430.88
832.395	14423.65
832.722	14392.46
833.048	14386.13
833.374	14363.08
833.7	14323.31
834.026	14275.18
834.351	14394.95
834.677	14353.59
835.003	14264.78
835.329	14273.14
835.654	14199.02
835.98	14176.87
836.306	14248.28
836.631	14166.25
836.956	14148.63
837.282	14176.42
837.607	14073.6
837.932	14097.78
838.258	14089.42
838.583	14118.34
838.908	13984.11
839.233	14049.87
839.558	13992.92
839.883	13995.41
840.208	13940.04
840.533	13892.13
840.858	13830.22
841.182	13909.99
841.507	13899.59
841.832	13762.42
842.156	13722.2
842.481	13716.09
842.805	13681.52
843.13	13688.52
843.454	13665.25
843.778	13662.76
844.103	13593.61
844.427	13502.54
844.751	13595.19
845.075	13418.7
845.399	13505.93
845.723	13431.58
846.047	13451.24
846.371	13253.28
846.695	13253.73
847.019	13171.7
847.343	13117.92
847.666	13072.72
847.99	13007.86
848.313	12999.28
848.637	12886.29
848.96	12919.5
849.284	12859.62
849.607	12755.44
849.931	12697.14
850.254	12620.98
850.577	12590.25
850.9	12485.84
851.223	12493.3
851.546	12415.11
851.869	12380.08
852.192	12340.54
852.515	12295.57
852.838	12252.86
853.161	12282.69
853.483	12264.61
853.806	12112.52
854.129	12094.44
854.451	12069.13
854.774	11983.26
855.096	11940.32
855.419	11955.24
855.741	11924.5
856.063	11837.27
856.385	11813.55
856.708	11727.45
857.03	11715.02
857.352	11734
857.674	11693.1
857.996	11569.71
858.318	11609.48
858.64	11570.16
858.961	11535.59
859.283	11553.21
859.605	11430.5
859.926	11477.51
860.248	11416.27
860.57	11376.27
860.891	11343.73
861.212	11342.82
861.534	11301.24
861.855	11249.49
862.176	11272.09
862.498	11286.1
862.819	11270.73
863.14	11209.27
863.461	11151.64
863.782	11142.83
864.103	11193.67
864.424	11018.09
864.745	11079.1
865.065	11070.74
865.386	11029.61
865.707	11028.48
866.027	10945.55
866.348	10941.48
866.668	10908.71
866.989	10906.68
867.309	10844.53
867.63	10880.69
867.95	10842.27
868.27	10814.93
868.59	10858.99
868.91	10823.06
869.23	10842.5
869.55	10737.19
869.87	10832.33
870.19	10766.34
870.51	10697.87
870.83	10672.78
871.15	10596.18
871.469	10651.77
871.789	10683.63
872.109	10666.46
872.428	10561.37
872.748	10602.73
873.067	10581.49
873.386	10595.95
873.706	10606.35
874.025	10484.31
874.344	10470.98
874.663	10512.34
874.982	10506.24
875.301	10440.7
875.62	10462.17
875.939	10368.84
876.258	10390.31
876.577	10411.32
876.896	10303.75
877.214	10370.19
877.533	10331.1
877.852	10285.45
878.17	10308.27
878.489	10322.96
878.807	10274.15
879.125	10196.64
879.444	10241.61
879.762	10256.52
880.08	10164.78
880.398	10171.78
880.716	10172.46
881.034	10164.78
881.352	10116.64
881.67	10112.35
881.988	10085
882.306	10103.31
882.624	10023.31
882.941	10092.91
883.259	10021.73
883.577	10022.63
883.894	9931.11
884.212	9965.23
884.529	9938.57
884.846	9913.26
885.164	9854.73
885.481	9801.85
885.798	9809.08
886.115	9770.66
886.432	9780.15
886.75	9769.76
887.067	9726.14
887.383	9702.64
887.7	9706.93
888.017	9692.02
888.334	9650.44
888.651	9651.34
888.967	9530.44
889.284	9510.1
889.6	9519.82
889.917	9423.33
890.233	9487.05
890.55	9401.63
890.866	9377.9
891.182	9385.13
891.498	9314.18
891.815	9373.16
892.131	9344.23
892.447	9323.89
892.763	9207.29
893.079	9157.8
893.395	9184.01
893.71	9152.37
894.026	9139.94
894.342	9149.43
894.657	9068.76
894.973	9029.66
895.289	9080.74
895.604	8985.6
895.92	8918.93
896.235	8892.72
896.55	8923.68
896.865	8879.84
897.181	8846.39
897.496	8817.69
897.811	8833.96
898.126	8752.16
898.441	8720.97
898.756	8648.66
899.071	8738.15
899.386	8613.4
899.7	8596
900.015	8551.48
900.33	8506.29
900.644	8466.06
900.959	8520.75
901.273	8439.4
901.588	8393.52
901.902	8408.89
902.216	8338.83
902.531	8313.98
902.845	8314.43
903.159	8261.55
903.473	8178.84
903.787	8174.54
904.101	8119.86
904.415	8229.68
904.729	8066.53
905.042	8078.73
905.356	8035.11
905.67	7990.37
905.984	8085.28
906.297	7952.4
906.611	7902.91
906.924	7915.34
907.237	7903.14
907.551	7789.02
907.864	7785.63
908.177	7808.23
908.491	7737.04
908.804	7772.3
909.117	7642.13
909.43	7617.95
909.743	7644.16
910.056	7624.28
910.368	7581.34
910.681	7514.68
910.994	7491.17
911.307	7445.98
911.619	7409.59
911.932	7380.67
912.244	7330.73
912.557	7380.89
912.869	7289.14
913.181	7288.01
913.494	7243.04
913.806	7181.35
914.118	7194.91
914.43	7162.82
914.742	7117.62
915.054	7100.45
915.366	7066.1
915.678	7050.96
915.99	7070.39
916.302	6966.89
916.613	6950.62
916.925	6958.31
917.236	6879.89
917.548	6908.59
917.859	6861.13
918.171	6812.32
918.482	6776.16
918.794	6741.81
919.105	6699.56
919.416	6700.23
919.727	6688.93
920.038	6642.83
920.349	6606.9
920.66	6605.77
920.971	6575.72
921.282	6540.69
921.593	6521.93
921.903	6469.51
922.214	6509.28
922.525	6475.15
922.835	6423.63
923.146	6396.51
923.456	6363.75
923.767	6325.78
924.077	6326.91
924.387	6310.41
924.697	6242.62
925.008	6306.57
925.318	6189.29
925.628	6171.66
925.938	6168.72
926.248	6136.86
926.558	6107.03
926.867	6081.04
927.177	6072.91
927.487	6039.23
927.796	5966.69
928.106	5963.08
928.416	5973.92
928.725	5964.21
929.034	5869.97
929.344	5918.33
929.653	5868.62
929.962	5808.05
930.271	5770.54
930.581	5759.24
930.89	5721.5
931.199	5705.23
931.508	5653.26
931.817	5656.87
932.125	5700.71
932.434	5622.07
932.743	5583.2
933.051	5557.89
933.36	5547.95
933.669	5498.68
933.977	5441.96
934.286	5494.62
934.594	5427.72
934.902	5420.04
935.21	5410.32
935.519	5416.65
935.827	5292.13
936.135	5358.12
936.443	5308.63
936.751	5261.85
937.059	5248.29
937.367	5217.56
937.674	5247.16
937.982	5227.73
938.29	5163.55
938.597	5158.81
938.905	5126.26
939.213	5135.75
939.52	5128.98
939.827	5052.14
940.135	5067.06
940.442	5025.93
940.749	5020.28
941.056	5019.15
941.363	4955.42
941.67	4960.17
941.977	4928.53
942.284	4924.46
942.591	4888.08
942.898	4869.77
943.205	4869.55
943.511	4769.66
943.818	4799.94
944.125	4771.7
944.431	4764.47
944.738	4766.27
945.044	4702.55
945.35	4662.77
945.657	4724.24
945.963	4639.72
946.269	4611.47
946.575	4591.14
946.881	4623.23
947.187	4544.13
947.493	4575.09
947.799	4485.83
948.105	4517.92
948.41	4465.94
948.716	4521.76
949.022	4484.7
949.327	4440.86
949.633	4429.78
949.938	4373.51
950.244	4337.13
950.549	4351.37
950.854	4287.19
951.16	4311.14
951.465	4345.04
951.77	4291.94
952.075	4263.91
952.38	4225.5
952.685	4243.57
952.99	4186.4
953.294	4176.91
953.599	4131.71
953.904	4114.31
954.209	4144.37
954.513	4098.49
954.818	4094.43
955.122	4064.82
955.426	4087.87
955.731	4063.47
956.035	4028.67
956.339	4003.36
956.643	4026.63
956.948	3973.53
957.252	3956.35
957.556	3971.04
957.86	3921.1
958.163	3890.59
958.467	3902.11
958.771	3848.78
959.075	3890.36
959.378	3791.16
959.682	3814.43
959.985	3792.29
960.289	3801.78
960.592	3786.86
960.896	3791.16
961.199	3726.3
961.502	3748.67
961.805	3727.43
962.108	3674.78
962.411	3655.79
962.714	3646.98
963.017	3600.88
963.32	3635.46
963.623	3589.58
963.926	3596.36
964.228	3564.27
964.531	3592.29
964.833	3573.99
965.136	3511.16
965.438	3475.23
965.741	3501.67
966.043	3489.02
966.345	3484.72
966.648	3445.4
966.95	3436.14
967.252	3440.88
967.554	3423.03
967.856	3399.3
968.158	3363.37
968.46	3379.42
968.761	3309.81
969.063	3327.67
969.365	3301.23
969.666	3307.78
969.968	3274.56
970.269	3297.16
970.571	3270.04
970.872	3221
971.174	3225.75
971.475	3243.6
971.776	3188.91
972.077	3159.76
972.378	3186.88
972.679	3175.58
972.98	3152.98
973.281	3104.85
973.582	3139.88
973.883	3142.13
974.183	3095.36
974.484	3143.26
974.785	3059.65
975.085	3097.62
975.386	3027.34
975.686	3019.65
975.986	3052.19
976.287	3033.89
976.587	2977.85
976.887	2957.73
977.187	2937.17
977.487	2933.1
977.787	2927
978.087	2942.14
978.387	2912.54
978.687	2889.03
978.987	2854.01
979.286	2880.67
979.586	2865.08
979.885	2870.73
980.185	2809.49
980.484	2852.88
980.784	2810.39
981.083	2828.7
981.382	2750.05
981.682	2767.91
981.981	2777.62
982.28	2757.29
982.579	2735.14
982.878	2736.95
983.177	2748.7
983.475	2746.67
983.774	2677.97
984.073	2657.18
984.372	2672.54
984.67	2663.5
984.969	2666.89
985.267	2668.02
985.566	2634.13
985.864	2591.87
986.162	2618.31
986.461	2560.46
986.759	2602.26
987.057	2556.39
987.355	2532.66
987.653	2539.44
987.951	2504.19
988.249	2528.82
988.547	2538.31
988.844	2512.09
989.142	2450.85
989.44	2467.8
989.737	2426.67
990.035	2439.55
990.332	2411.08
990.63	2415.15
990.927	2411.76
991.224	2385.54
991.521	2402.04
991.819	2365.21
992.116	2362.49
992.413	2332.21
992.71	2327.24
993.006	2370.18
993.303	2349.39
993.6	2294.7
993.897	2316.62
994.193	2309.61
994.49	2278.65
994.787	2274.59
995.083	2258.32
995.379	2268.26
995.676	2247.47
995.972	2280.24
996.268	2234.14
996.565	2171.31
996.861	2216.28
997.157	2197.3
997.453	2179.22
997.749	2184.65
998.044	2188.04
998.34	2131.09
998.636	2144.2
998.932	2133.57
999.227	2105.33
999.523	2119.79
999.818	2131.99
1000.114	2098.55
1000.409	2084.76
1000.704	2070.98
1001	2053.12
1001.295	2054.25
1001.59	2063.07
1001.885	2033.46
1002.18	1970.64
1002.475	1984.88
1002.77	1993.46
1003.065	1962.28
1003.359	1952.79
1003.654	1985.33
1003.949	1925.22
1004.243	1926.8
1004.538	1936.06
1004.832	1938.78
1005.127	1914.82
1005.421	1891.77
1005.715	1894.26
1006.009	1866.24
1006.304	1868.72
1006.598	1842.73
1006.892	1835.73
1007.186	1814.26
1007.48	1807.25
1007.773	1817.2
1008.067	1795.96
1008.361	1778.33
1008.655	1792.57
1008.948	1760.02
1009.242	1792.79
1009.535	1763.87
1009.829	1734.71
1010.122	1733.81
1010.415	1719.35
1010.708	1715.51
1011.001	1713.47
1011.295	1717.99
1011.588	1668.05
1011.881	1673.25
1012.173	1684.77
1012.466	1682.06
1012.759	1642.97
1013.052	1666.02
1013.344	1639.58
1013.637	1611.55
1013.93	1618.79
1014.222	1607.26
1014.514	1597.99
1014.807	1563.42
1015.099	1579.01
1015.391	1549.63
1015.683	1553.02
1015.976	1550.54
1016.268	1537.21
1016.56	1530.65
1016.851	1489.97
1017.143	1514.38
1017.435	1518.22
1017.727	1498.79
1018.018	1478.9
1018.31	1481.16
1018.602	1460.15
1018.893	1442.74
1019.185	1446.81
1019.476	1402.75
1019.767	1418.79
1020.058	1427.15
1020.35	1403.65
1020.641	1412.24
1020.932	1391.22
1021.223	1374.27
1021.514	1398.68
1021.804	1358.68
1022.095	1368.17
1022.386	1347.83
1022.677	1353.03
1022.967	1326.36
1023.258	1343.76
1023.548	1318.23
1023.839	1304.22
1024.129	1306.02
1024.419	1278.91
1024.709	1268.29
1025	1270.77
1025.29	1256.08
1025.58	1241.17
1025.87	1226.71
1026.16	1228.51
1026.449	1215.63
1026.739	1226.25
1027.029	1230.09
1027.319	1222.86
1027.608	1201.39
1027.898	1183.32
1028.187	1184.22
1028.477	1184.45
1028.766	1156.42
1029.055	1202.52
1029.344	1158.68
1029.634	1129.98
1029.923	1112.36
1030.212	1141.28
1030.501	1116.2
1030.79	1095.18
1031.078	1098.12
1031.367	1079.82
1031.656	1095.41
1031.945	1091.57
1032.233	1093.15
1032.522	1103.32
1032.81	1063.32
1033.099	1064.9
1033.387	1073.26
1033.675	1053.15
1033.963	1044.11
1034.251	1053.38
1034.54	1033.49
1034.828	1009.08
1035.116	1037.11
1035.403	991.01
1035.691	989.88
1035.979	1016.32
1036.267	996.43
1036.554	977.9
1036.842	987.84
1037.129	974.51
1037.417	962.53
1037.704	951.23
1037.992	940.38
1038.279	935.41
1038.566	927.73
1038.853	927.73
1039.14	927.73
