Data from hue_310_FLMS001491_51.txt Node
Date: Mon Feb 06 15:49:52 GMT 2017
User: dcchb
Spectrometer: FLMS00149
Trigger mode: 0
Integration Time (sec): 2.000000E-2
Scans to average: 10
Electric dark correction enabled: true
Nonlinearity correction enabled: false
Boxcar width: 0
XAxis mode: Wavelengths
Number of Pixels in Spectrum: 2048
>>>>>Begin Spectral Data<<<<<
341.393	-20.66
341.776	-20.66
342.16	-20.66
342.543	-47.56
342.927	-66.99
343.31	-70.83
343.693	-56.14
344.077	-62.47
344.46	-60.44
344.843	-70.83
345.226	-45.97
345.61	-38.97
345.993	-17.73
346.376	14.14
346.759	1.26
347.142	36.96
347.525	38.77
347.908	61.82
348.291	79
348.674	93.23
349.057	98.2
349.44	137.3
349.823	145.89
350.206	158.09
350.588	209.84
350.971	204.19
351.354	219.56
351.737	248.03
352.119	258.2
352.502	269.95
352.884	274.02
353.267	258.43
353.65	297.75
354.032	298.65
354.414	295.03
354.797	340.46
355.179	328.25
355.562	318.76
355.944	326.67
356.326	345.43
356.709	332.77
357.091	328.03
357.473	332.55
357.855	356.28
358.238	340.23
358.62	343.85
359.002	347.91
359.384	335.03
359.766	357.63
360.148	348.82
360.53	335.26
360.912	329.38
361.294	319.89
361.676	333.9
362.057	323.06
362.439	329.38
362.821	320.57
363.203	348.82
363.584	342.49
363.966	299.1
364.348	321.7
364.729	339.55
365.111	330.06
365.493	324.19
365.874	342.49
366.256	311.98
366.637	331.42
367.019	305.66
367.4	321.25
367.781	309.95
368.163	304.07
368.544	311.98
368.925	311.76
369.306	307.24
369.688	311.98
370.069	341.36
370.45	301.59
370.831	315.15
371.212	325.32
371.593	304.3
371.974	328.25
372.355	327.58
372.736	330.51
373.117	321.25
373.498	331.64
373.879	323.96
374.26	321.25
374.641	295.26
375.021	327.35
375.402	321.7
375.783	327.12
376.163	331.19
376.544	328.93
376.925	335.71
377.305	330.51
377.686	327.35
378.066	352.66
378.447	333
378.827	343.39
379.208	335.03
379.588	319.44
379.968	348.14
380.349	332.32
380.729	331.87
381.109	352.21
381.489	328.48
381.87	343.17
382.25	331.19
382.63	345.88
383.01	373.68
383.39	361.93
383.77	313.79
384.15	328.93
384.53	342.94
384.91	345.88
385.29	348.14
385.67	365.54
386.049	357.41
386.429	349.72
386.809	368.25
387.189	368.7
387.568	334.58
387.948	347.69
388.328	350.63
388.707	356.28
389.087	366.45
389.466	344.52
389.846	350.63
390.225	375.71
390.605	357.41
390.984	384.52
391.363	386.78
391.743	377.07
392.122	383.39
392.501	390.63
392.881	386.11
393.26	377.52
393.639	380.91
394.018	373.9
394.397	382.26
394.776	393.11
395.155	388.37
395.534	392.89
395.913	401.25
396.292	389.5
396.671	393.79
397.05	400.12
397.429	407.12
397.808	420.23
398.186	402.15
398.565	392.21
398.944	408.48
399.323	397.86
399.701	391.76
400.08	410.29
400.458	415.71
400.837	408.48
401.215	413.68
401.594	428.14
401.972	441.47
402.351	411.87
402.729	412.09
403.107	455.26
403.486	433.11
403.864	424.3
404.242	433.56
404.62	453.22
404.999	453
405.377	460.45
405.755	460.23
406.133	453.67
406.511	483.05
406.889	479.21
407.267	479.21
407.645	488.93
408.023	475.59
408.401	461.58
408.779	498.87
409.156	457.52
409.534	495.71
409.912	489.38
410.29	501.36
410.667	510.85
411.045	532.32
411.422	522.37
411.8	536.61
412.178	521.7
412.555	539.77
412.933	543.62
413.31	562.6
413.687	592.43
414.065	584.29
414.442	579.77
414.819	595.82
415.197	613.44
415.574	612.77
415.951	610.28
416.328	617.96
416.705	615.7
417.082	631.07
417.46	650.05
417.837	639.43
418.214	663.61
418.591	682.6
418.967	684.63
419.344	678.08
419.721	686.44
420.098	710.16
420.475	727.57
420.852	712.65
421.228	737.51
421.605	737.06
421.982	747
422.358	758.98
422.735	761.24
423.111	766.89
423.488	794.46
423.864	772.99
424.241	790.61
424.617	829.94
424.994	804.85
425.37	839.43
425.746	852.53
426.123	848.69
426.499	808.69
426.875	859.31
427.251	882.82
427.627	858.41
428.003	892.53
428.379	917.39
428.756	893.44
429.132	888.69
429.507	916.04
429.883	937.96
430.259	958.29
430.635	984.73
431.011	970.72
431.387	976.82
431.763	996.03
432.138	1011.63
432.514	1037.16
432.89	1013.21
433.265	1044.85
433.641	1055.92
434.016	1071.74
434.392	1080.78
434.767	1096.6
435.143	1079.87
435.518	1088.23
435.894	1130.04
436.269	1150.15
436.644	1143.37
437.02	1143.83
437.395	1149.25
437.77	1185.18
438.145	1166.42
438.52	1205.97
438.895	1189.7
439.271	1188.12
439.646	1229.93
440.021	1261.56
440.395	1261.34
440.77	1251.39
441.145	1267.89
441.52	1275.35
441.895	1252.75
442.27	1303.82
442.645	1291.62
443.019	1309.92
443.394	1303.6
443.769	1312.86
444.143	1310.38
444.518	1323.26
444.892	1302.69
445.267	1339.07
445.641	1346.08
446.016	1354.89
446.39	1327.1
446.764	1344.95
447.139	1361.45
447.513	1358.28
447.887	1381.79
448.262	1371.84
448.636	1371.39
449.01	1364.84
449.384	1404.84
449.758	1384.05
450.132	1405.29
450.506	1402.35
450.88	1433.31
451.254	1426.76
451.628	1408.23
452.002	1455
452.376	1438.73
452.75	1468.34
453.123	1466.98
453.497	1483.25
453.871	1483.25
454.244	1524.83
454.618	1480.09
454.992	1534.32
455.365	1567.77
455.739	1560.76
456.112	1559.18
456.486	1579.75
456.859	1573.87
457.232	1628.33
457.606	1598.28
457.979	1624.04
458.352	1655.45
458.725	1636.92
459.099	1632.63
459.472	1690.25
459.845	1667.88
460.218	1698.61
460.591	1685.73
460.964	1695
461.337	1720.08
461.71	1779.74
462.083	1789.01
462.456	1762.34
462.829	1769.12
463.201	1790.81
463.574	1786.29
463.947	1860.64
464.32	1822.9
464.692	1844.37
465.065	1867.65
465.438	1892.96
465.81	1911.49
466.183	1934.09
466.555	1915.56
466.928	1959.62
467.3	1946.29
467.672	1972.05
468.045	1993.97
468.417	2006.85
468.789	2018.15
469.161	2040.75
469.534	2045.95
469.906	2059.28
470.278	2078.26
470.65	2096.57
471.022	2112.39
471.394	2174.08
471.766	2184.48
472.138	2185.15
472.51	2257.69
472.882	2229.9
473.253	2258.37
473.625	2308.32
473.997	2280.52
474.369	2332.72
474.74	2320.97
475.112	2366.39
475.484	2345.38
475.855	2427.63
476.227	2396
476.598	2460.18
476.97	2491.36
477.341	2541.3
477.713	2554.41
478.084	2556.44
478.455	2618.82
478.827	2613.84
479.198	2685.03
479.569	2687.06
479.94	2726.61
480.311	2792.82
480.682	2812.26
481.053	2869.43
481.424	2853.84
481.795	2906.72
482.166	2939.71
482.537	2915.53
482.908	2968.18
483.279	3055.41
483.65	3057.22
484.021	3101.51
484.391	3133.38
484.762	3130.44
485.133	3166.6
485.503	3210.21
485.874	3245.01
486.244	3279.59
486.615	3296.99
486.985	3370.66
487.356	3422.18
487.726	3383.54
488.097	3415.4
488.467	3455.63
488.837	3503.76
489.207	3559.36
489.578	3564.78
489.948	3603.65
490.318	3656.75
490.688	3659.47
491.058	3682.29
491.428	3730.65
491.798	3728.16
492.168	3800.25
492.538	3774.27
492.908	3839.12
493.278	3877.54
493.648	3830.08
494.017	3899.46
494.387	3985.56
494.757	4000.47
495.126	3990.08
495.496	4024.65
495.866	4080.25
496.235	4048.83
496.605	4088.61
496.974	4104.43
497.344	4106.91
497.713	4159.79
498.082	4191.66
498.452	4195.05
498.821	4181.49
499.19	4206.57
499.559	4240.24
499.928	4271.2
500.298	4282.95
500.667	4327.47
501.036	4282.73
501.405	4337.19
501.774	4334.25
502.143	4418.32
502.512	4377.41
502.88	4413.12
503.249	4378.54
503.618	4445.89
503.987	4478.43
504.356	4450.63
504.724	4476.17
505.093	4551.19
505.462	4505.09
505.83	4484.3
506.199	4568.14
506.567	4600.23
506.936	4560.91
507.304	4637.75
507.672	4663.06
508.041	4642.94
508.409	4690.63
508.777	4699.21
509.145	4712.55
509.514	4713.68
509.882	4753.45
510.25	4764.3
510.618	4792.77
510.986	4774.92
511.354	4808.59
511.722	4811.53
512.09	4854.46
512.458	4849.94
512.826	4892.2
513.193	4862.37
513.561	4881.58
513.929	4956.38
514.297	4972.43
514.664	4972.88
515.032	4980.11
515.4	5018.75
515.767	4958.19
516.135	5000.45
516.502	4972.65
516.869	5049.03
517.237	5034.57
517.604	5075.25
517.972	5064.4
518.339	5100.33
518.706	5097.85
519.073	5131.52
519.44	5158.41
519.808	5130.16
520.175	5167.45
520.542	5246.32
520.909	5202.93
521.276	5174.91
521.643	5236.6
522.009	5268.24
522.376	5247.67
522.743	5294.45
523.11	5364.73
523.477	5337.16
523.843	5422.13
524.21	5397.5
524.577	5447.22
524.943	5458.97
525.31	5513.43
525.676	5529.47
526.043	5545.29
526.409	5580.77
526.776	5620.77
527.142	5651.28
527.508	5646.76
527.874	5652.63
528.241	5669.81
528.607	5702.8
528.973	5757.72
529.339	5755.68
529.705	5797.71
530.071	5854.21
530.437	5851.72
530.803	5902.8
531.169	5940.54
531.535	5912.29
531.901	5933.3
532.267	5977.15
532.632	6008.78
532.998	6027.31
533.364	6085.16
533.73	6057.82
534.095	6128.33
534.461	6103.92
534.826	6147.76
535.192	6212.62
535.557	6247.65
535.923	6240.19
536.288	6322.22
536.653	6282.9
537.019	6288.1
537.384	6279.28
537.749	6330.81
538.114	6325.16
538.479	6404.25
538.845	6451.26
539.21	6419.85
539.575	6402.22
539.94	6482.89
540.305	6480.86
540.67	6452.61
541.034	6562.67
541.399	6580.75
541.764	6591.82
542.129	6594.08
542.494	6585.04
542.858	6718.59
543.223	6696.22
543.587	6757.46
543.952	6759.05
544.316	6772.15
544.681	6811.25
545.045	6856.9
545.41	6851.92
545.774	6914.75
546.138	6933.73
546.503	6930.79
546.867	6924.01
547.231	7065.93
547.595	7085.82
547.959	7066.16
548.324	7062.54
548.688	7082.65
549.052	7172.14
549.416	7161.52
549.779	7166.49
550.143	7190.67
550.507	7243.1
550.871	7228.19
551.235	7258.24
551.599	7296.43
551.962	7338.01
552.326	7325.58
552.689	7405.13
553.053	7380.05
553.417	7415.75
553.78	7528.06
554.143	7464.34
554.507	7488.97
554.87	7519.7
555.234	7581.62
555.597	7474.28
555.96	7568.52
556.323	7583.43
556.686	7608.51
557.05	7633.6
557.413	7639.25
557.776	7666.59
558.139	7702.98
558.502	7725.35
558.865	7709.53
559.228	7811.67
559.59	7730.55
559.953	7823.65
560.316	7879.24
560.679	7795.85
561.041	7905
561.404	7911.11
561.767	8032.91
562.129	7986.58
562.492	7999.01
562.854	7966.25
563.217	8041.72
563.579	8010.09
563.941	8080.82
564.304	8068.62
564.666	8204.21
565.028	8210.53
565.39	8181.38
565.753	8256.41
566.115	8280.81
566.477	8251.44
566.839	8305.9
567.201	8327.82
567.563	8346.8
567.925	8389.74
568.287	8395.61
568.648	8437.19
569.01	8518.77
569.372	8563.29
569.734	8508.15
570.095	8631.99
570.457	8621.14
570.819	8636.51
571.18	8653.91
571.542	8734.59
571.903	8792.89
572.265	8856.62
572.626	8899.1
572.987	8901.59
573.349	8951.98
573.71	9037.86
574.071	9056.39
574.432	9098.19
574.794	9294.57
575.155	9209.38
575.516	9251.86
575.877	9353.33
576.238	9447.56
576.599	9494.11
576.96	9547.22
577.32	9609.37
577.681	9728.68
578.042	9874.9
578.403	9928.91
578.763	9966.42
579.124	10078.73
579.485	10142.69
579.845	10368.67
580.206	10461.09
580.566	10580.19
580.927	10686.63
581.287	10815.66
581.648	10977.92
582.008	11158.03
582.368	11248.87
582.728	11418.13
583.089	11537.68
583.449	11678.01
583.809	11903.54
584.169	12143.54
584.529	12336.98
584.889	12532.68
585.249	12692.22
585.609	12941.26
585.969	13098.99
586.329	13291.98
586.688	13571.3
587.048	13776.04
587.408	14061.23
587.768	14262.35
588.127	14512.74
588.487	14677.71
588.846	15105.04
589.206	15244.7
589.565	15515.2
589.925	15876.32
590.284	16016.2
590.643	16420.03
591.003	16704.77
591.362	16958.1
591.721	17350.18
592.08	17565.54
592.44	17878.08
592.799	18214.79
593.158	18439.87
593.517	18739.07
593.876	19044.6
594.235	19420.18
594.593	19669.67
594.952	20082.31
595.311	20229.65
595.67	20598.91
596.029	21107.37
596.387	21334.71
596.746	21738.54
597.104	21937.86
597.463	22111.18
597.822	22619.87
598.18	22800.88
598.538	23133.98
598.897	23559.28
599.255	23713.85
599.613	24280.62
599.972	24382.08
600.33	24693.94
600.688	24995.18
601.046	25389.06
601.404	25747.25
601.762	25933
602.12	26389.94
602.478	26597.39
602.836	26842.36
603.194	27004.61
603.552	27394.21
603.91	27517.6
604.268	27791.94
604.625	28043.91
604.983	28366.16
605.341	28642.09
605.698	28931.8
606.056	29177.89
606.413	29499.46
606.771	29831.89
607.128	30026
607.485	30028.72
607.843	30456.95
608.2	30706.44
608.557	31143.26
608.914	31215.13
609.272	31615.79
609.629	31839.29
609.986	32117.02
610.343	32152.95
610.7	32613.05
611.057	32742.77
611.414	32806.5
611.771	33018.92
612.127	33301.4
612.484	33558.79
612.841	33848.5
613.198	33810.31
613.554	34100.25
613.911	34406.45
614.267	34503.63
614.624	34690.51
614.98	34859.1
615.337	35278.75
615.693	35352.42
616.05	35410.95
616.406	35624.5
616.762	35780.2
617.118	35799.41
617.475	35889.35
617.831	36256.57
618.187	36362.33
618.543	36586.28
618.899	36926.84
619.255	36848.42
619.611	36984.01
619.967	37178.81
620.323	37431.23
620.678	37290.67
621.034	37378.13
621.39	37581.96
621.746	37579.03
622.101	38223.75
622.457	37908.28
622.812	38015.17
623.168	38234.6
623.523	38272.34
623.879	38404.54
624.234	38388.72
624.589	38557.98
624.945	38536.74
625.3	38795.04
625.655	38790.52
626.01	38856.28
626.365	39008.82
626.72	39066.22
627.075	39047.01
627.43	39105.99
627.785	39097.18
628.14	39324.97
628.495	39500.78
628.85	39412.42
629.205	39264.86
629.559	39701.23
629.914	39458.52
630.269	39564.28
630.623	39551.63
630.978	39562.48
631.332	39782.81
631.687	39962.69
632.041	39725.18
632.396	39958.4
632.75	39673.89
633.104	39734.68
633.459	39807.67
633.813	39777.61
634.167	39809.7
634.521	39778.52
634.875	39888.34
635.229	39904.61
635.583	39699.2
635.937	39864.39
636.291	39753.43
636.645	39856.03
636.999	39869.81
637.352	40000.66
637.706	39738.74
638.06	39959.53
638.413	39835.92
638.767	39752.3
639.121	39864.16
639.474	39699.65
639.828	39759.08
640.181	39641.34
640.534	39785.3
640.888	39688.58
641.241	39522.93
641.594	39636.83
641.947	39760.89
642.301	39720.89
642.654	39649.71
643.007	39776.71
643.36	39699.2
643.713	39603.61
644.066	39892.19
644.419	39565.19
644.771	39298.98
645.124	39056.73
645.477	38973.79
645.83	38819.67
646.182	38636.63
646.535	38576.74
646.888	38608.83
647.24	38459.45
647.593	38719.11
647.945	38630.98
648.298	38314.83
648.65	38279.8
649.002	38336.29
649.355	38445.44
649.707	38423.98
650.059	38573.58
650.411	38901.93
650.763	39130.85
651.115	39495.13
651.467	39381.24
651.819	39334.46
652.171	39281.13
652.523	39190.96
652.875	39266.67
653.227	39098.99
653.578	39329.49
653.93	39340.79
654.282	39168.14
654.633	39045.65
654.985	39106.44
655.337	39074.35
655.688	39117.74
656.039	39148.93
656.391	38806.79
656.742	39096.05
657.094	39065.77
657.445	39176.5
657.796	39033.23
658.147	38917.97
658.498	39025.99
658.849	39101.02
659.2	38975.6
659.551	38911.42
659.902	38950.29
660.253	39020.12
660.604	39016.95
660.955	38819.9
661.306	39026.67
661.656	38905.32
662.007	38882.27
662.358	38752.1
662.708	38906.9
663.059	38871.2
663.409	38680.01
663.76	38995.26
664.11	38809.05
664.461	38965.88
664.811	38911.19
665.161	38912.1
665.511	38833.91
665.862	38856.51
666.212	38908.93
666.562	38964.98
666.912	38896.05
667.262	38785.32
667.612	38777.64
667.962	38848.15
668.312	38891.53
668.662	38883.85
669.011	38834.13
669.361	38753.91
669.711	38728.6
670.06	38829.16
670.41	38644.31
670.76	38604.99
671.109	38970.18
671.459	38788.94
671.808	38797.07
672.157	38754.14
672.507	38543.29
672.856	38589.39
673.205	38467.36
673.554	38806.34
673.904	38640.92
674.253	38700.13
674.602	38600.02
674.951	38125.9
675.3	37739.02
675.649	38480.02
675.998	38433.01
676.346	38388.72
676.695	38613.35
677.044	38214.04
677.393	38241.16
677.741	38376.07
678.09	38318.44
678.438	38237.09
678.787	38381.49
679.135	38395.05
679.484	38150.54
679.832	38192.57
680.181	38051.78
680.529	38130.88
680.877	37930.66
681.225	38051.56
681.573	38127.49
681.922	37966.59
682.27	37917.1
682.618	37851.56
682.966	37648.18
683.314	37746.25
683.661	37707.84
684.009	37477.79
684.357	37526.37
684.705	37463.77
685.053	37621.96
685.4	37434.62
685.748	37214.97
686.095	37258.81
686.443	37144.91
686.79	37056.1
687.138	37253.16
687.485	37111.02
687.832	37037.12
688.18	37089.1
688.527	36837.8
688.874	36804.81
689.221	36741.08
689.568	36659.73
689.915	36619.5
690.262	36634.87
690.609	36415.67
690.956	36390.13
691.303	36402.33
691.65	36217.03
691.997	36058.61
692.344	35961.67
692.69	35927.77
693.037	35962.12
693.383	35802.8
693.73	35861.56
694.077	35550.38
694.423	35584.95
694.769	35571.4
695.116	35332.08
695.462	35432.87
695.808	35248.47
696.155	35397.84
696.501	34987.23
696.847	35077.17
697.193	34837.18
697.539	35078.98
697.885	34711.53
698.231	34561.48
698.577	34503.4
698.923	34517.41
699.269	34390.41
699.614	34202.39
699.96	34229.74
700.306	34261.37
700.651	34064.09
700.997	33978.22
701.342	33965.56
701.688	33889.86
702.033	33750.65
702.379	33829.29
702.724	33539.58
703.069	33624.78
703.415	33216.2
703.76	33283.09
704.105	33401.73
704.45	33273.83
704.795	33104.57
705.14	33003.1
705.485	32980.5
705.83	32814.63
706.175	32830.22
706.52	32852.82
706.865	32599.72
707.209	32639.72
707.554	32591.59
707.899	32587.52
708.243	32394.76
708.588	32448.77
708.932	32233.63
709.277	32106.18
709.621	32157.25
709.966	32031.6
710.31	32088.32
710.654	31838.61
710.998	31905.95
711.342	31794.77
711.687	31771.72
712.031	31590.48
712.375	31525.63
712.719	31498.06
713.063	31493.08
713.407	31562.91
713.75	31427.32
714.094	31372.18
714.438	31216.26
714.782	31311.62
715.125	31134.22
715.469	31221.45
715.812	30974.23
716.156	30921.35
716.499	30871.18
716.843	30855.14
717.186	30705.76
717.53	30943.95
717.873	30713.67
718.216	30659.21
718.559	30538.08
718.902	30316.39
719.246	30491.08
719.589	30379.89
719.932	30202.5
720.275	30363.85
720.617	30207.02
720.96	30235.49
721.303	30141.03
721.646	30117.08
721.989	30148.49
722.331	29997.53
722.674	29966.12
723.016	29967.02
723.359	29858.55
723.701	29993.46
724.044	29680.7
724.386	29524.55
724.729	29776.07
725.071	29638.22
725.413	29560.48
725.755	29586.69
726.097	29460.14
726.439	29285.23
726.782	29294.72
727.124	29516.64
727.465	29252.24
727.807	29248.4
728.149	29242.07
728.491	29138.8
728.833	29027.61
729.175	28922.76
729.516	28882.31
729.858	29050.44
730.199	28937.67
730.541	28897.67
730.882	28791.01
731.224	28863.32
731.565	28707.39
731.906	28788.97
732.248	28645.7
732.589	28636.66
732.93	28442.54
733.271	28607.28
733.612	28543.11
733.953	28468.08
734.294	28234.41
734.635	28412.94
734.976	28469.89
735.317	28265.82
735.658	28256.33
735.999	28153.06
736.339	28137.01
736.68	28162.78
737.021	28094.98
737.361	27977.47
737.702	28050.01
738.042	28050.46
738.383	28032.38
738.723	27932.27
739.063	27889.56
739.404	27816.57
739.744	27865.38
740.084	27732.51
740.424	27824.71
740.764	27760.3
741.104	27799.62
741.444	27620.42
741.784	27617.03
742.124	27651.83
742.464	27541.1
742.804	27410.25
743.143	27394.44
743.483	27379.75
743.823	27271.73
744.162	27233.31
744.502	27320.31
744.841	27130.26
745.181	27195.12
745.52	27115.57
745.86	27069.92
746.199	27063.14
746.538	26953.99
746.877	26994.45
747.216	26963.94
747.556	26950.15
747.895	26878.06
748.234	26810.95
748.573	26793.77
748.911	26662.93
749.25	26672.42
749.589	26610.95
749.928	26590.84
750.267	26639.2
750.605	26419.55
750.944	26451.86
751.283	26361.24
751.621	26458.87
751.96	26276.27
752.298	26207.8
752.636	26314.24
752.975	26076.28
753.313	26018.65
753.651	26266.1
753.989	25994.7
754.327	25952.89
754.666	25799
755.004	25851.42
755.342	25844.65
755.679	25835.15
756.017	25648.72
756.355	25721.03
756.693	25648.04
757.031	25568.04
757.368	25407.14
757.706	25476.75
758.044	25418.44
758.381	25308.61
758.719	25267.71
759.056	25189.52
759.394	25098
759.731	24976.87
760.068	24922.41
760.405	24891.9
760.743	24779.81
761.08	24824.56
761.417	24655.98
761.754	24626.6
762.091	24596.77
762.428	24457.34
762.765	24281.75
763.102	24422.54
763.438	24298.92
763.775	24124.92
764.112	24128.76
764.449	24152.03
764.785	24026.39
765.122	23926.73
765.458	23806.05
765.795	23783
766.131	23752.5
766.467	23615.1
766.804	23568.77
767.14	23470.47
767.476	23411.04
767.812	23326.97
768.148	23337.82
768.485	23156.35
768.821	23084.27
769.157	23159.29
769.492	23082.91
769.828	22834.1
770.164	22738.96
770.5	22743.26
770.836	22813.76
771.171	22600.21
771.507	22464.17
771.842	22374.68
772.178	22342.14
772.513	22277.06
772.849	22185.53
773.184	22054.91
773.519	22021.02
773.855	21924.3
774.19	21959.78
774.525	21818.76
774.86	21852.89
775.195	21730.18
775.53	21598.43
775.865	21522.95
776.2	21344.65
776.535	21260.59
776.87	21183.98
777.205	21175.39
777.539	21146.24
777.874	21069.63
778.209	20870.09
778.543	20924.32
778.878	20701.73
779.212	20829.64
779.547	20645.46
779.881	20651.79
780.215	20539.47
780.55	20464.45
780.884	20352.81
781.218	20396.88
781.552	20384
781.886	20266.94
782.22	20090.45
782.554	20014.52
782.888	19808.65
783.222	19833.28
783.556	19681.87
783.889	19770.23
784.223	19501.54
784.557	19557.35
784.89	19682.32
785.224	19454.08
785.557	19342.22
785.891	19252.5
786.224	19196.91
786.558	19163.24
786.891	19097.93
787.224	18964.37
787.557	19026.52
787.891	18963.02
788.224	18897.48
788.557	18881.21
788.89	18734.55
789.223	18785.17
789.556	18650.94
789.888	18598.73
790.221	18468.79
790.554	18382.92
790.887	18338.63
791.219	18225.64
791.552	18276.71
791.884	18175.69
792.217	18170.27
792.549	18083.72
792.882	17965.3
793.214	17820.68
793.546	17868.13
793.879	17648.48
794.211	17627.23
794.543	17755.82
794.875	17583.17
795.207	17672.66
795.539	17532.77
795.871	17537.97
796.203	17306.56
796.535	17227.47
796.867	17279.45
797.198	17081.03
797.53	17144.99
797.862	17040.58
798.193	17078.32
798.525	16941.15
798.856	16918.55
799.188	16766.01
799.519	16685.56
799.85	16653.7
800.182	16741.61
800.513	16671.1
800.844	16486.02
801.175	16614.38
801.506	16491.9
801.837	16353.82
802.168	16390.88
802.499	16272.47
802.83	16176.2
803.161	16185.46
803.491	16169.65
803.822	16179.81
804.153	15997.9
804.483	15954.06
804.814	15950.22
805.145	15930.78
805.475	15799.94
805.805	15905.25
806.136	15761.52
806.466	15744.8
806.796	15712.93
807.126	15631.81
807.457	15613.73
807.787	15618.25
808.117	15467.29
808.447	15411.02
808.777	15487.4
809.107	15497.35
809.436	15400.63
809.766	15350.46
810.096	15258.48
810.426	15267.75
810.755	15190.91
811.085	15263
811.414	15189.78
811.744	15082.67
812.073	14986.4
812.403	14991.6
812.732	14952.5
813.061	14938.27
813.39	14792.28
813.719	14798.38
814.049	14945.04
814.378	14707.99
814.707	14743.69
815.036	14757.48
815.365	14634.32
815.693	14583.02
816.022	14509.35
816.351	14503.93
816.68	14388.9
817.008	14432.29
817.337	14343.03
817.665	14259.64
817.994	14249.24
818.322	14280.43
818.651	14163.14
818.979	14164.05
819.307	14228.45
819.636	14224.16
819.964	14071.17
820.292	14077.27
820.62	14091.96
820.948	14052.64
821.276	14081.56
821.604	13982.36
821.932	14105.07
822.259	14063.94
822.587	14050.38
822.915	13986.43
823.243	14023.26
823.57	13963.38
823.898	13984.17
824.225	13927.22
824.553	13974.9
824.88	13986.2
825.207	14030.04
825.535	14005.86
825.862	13957.95
826.189	13963.83
826.516	13983.94
826.843	14012.41
827.17	14046.54
827.497	14001.79
827.824	13965.18
828.151	14110.49
828.478	13996.37
828.805	13964.28
829.131	13921.12
829.458	13948.69
829.785	13910.5
830.111	13972.42
830.438	14006.54
830.764	14032.53
831.09	14027.78
831.417	13919.54
831.743	13898.74
832.069	13970.61
832.395	13809.26
832.722	13915.47
833.048	13847.67
833.374	13805.64
833.7	13745.98
834.026	13777.62
834.351	13894.9
834.677	13807.9
835.003	13856.71
835.329	13807.9
835.654	13789.6
835.98	13767.45
836.306	13706.43
836.631	13641.58
836.956	13710.5
837.282	13705.3
837.607	13621.92
837.932	13559.54
838.258	13595.48
838.583	13589.6
838.908	13545.99
839.233	13555.7
839.558	13535.14
839.883	13413.56
840.208	13405.88
840.533	13420.34
840.858	13404.52
841.182	13397.29
841.507	13303.05
841.832	13338.08
842.156	13278.87
842.481	13332.43
842.805	13222.15
843.13	13212.21
843.454	13183.28
843.778	13116.39
844.103	13154.13
844.427	13042.72
844.751	13049.95
845.075	13045.66
845.399	12977.41
845.723	12946.45
846.047	12909.62
846.371	12862.16
846.695	12768.38
847.019	12713.92
847.343	12673.01
847.666	12623.98
847.99	12552.57
848.313	12497.43
848.637	12448.84
848.96	12486.13
849.284	12402.06
849.607	12362.74
849.931	12319.58
850.254	12192.57
850.577	12165.68
850.9	12056.31
851.223	12049.3
851.546	11933.82
851.869	11941.51
852.192	11982.18
852.515	11804.79
852.838	11842.53
853.161	11730.89
853.483	11803.66
853.806	11681.18
854.129	11638.24
854.451	11615.87
854.774	11585.13
855.096	11503.55
855.419	11548.98
855.741	11497.9
856.063	11329.55
856.385	11337.23
856.708	11304.91
857.03	11271.92
857.352	11280.51
857.674	11190.79
857.996	11214.07
858.318	11127.07
858.64	11162.32
858.961	11119.83
859.283	11078.03
859.605	10994.41
859.926	11035.77
860.248	10993.28
860.57	10930.69
860.891	10967.97
861.212	10915.09
861.534	10918.48
861.855	10907.18
862.176	10880.74
862.498	10883
862.819	10800.3
863.14	10776.79
863.461	10743.57
863.782	10709
864.103	10753.06
864.424	10709.68
864.745	10696.57
865.065	10685.04
865.386	10563.69
865.707	10630.81
866.027	10617.93
866.348	10660.41
866.668	10490.02
866.989	10609.11
867.309	10431.27
867.63	10517.82
867.95	10515.1
868.27	10492.51
868.59	10487.53
868.91	10445.28
869.23	10380.87
869.55	10435.33
869.87	10414.09
870.19	10366.41
870.51	10331.83
870.83	10377.71
871.15	10335
871.469	10351.04
871.789	10280.31
872.109	10258.61
872.428	10214.1
872.748	10215.68
873.067	10217.94
873.386	10276.02
873.706	10268.56
874.025	10166.87
874.344	10100.65
874.663	10155.11
874.982	10050.03
875.301	10081.9
875.62	10125.96
875.939	10028.11
876.258	10054.1
876.577	9992.86
876.896	9986.31
877.214	9925.29
877.533	10004.84
877.852	9962.58
878.17	9947.21
878.489	9974.78
878.807	9911.05
879.125	9904.05
879.444	9925.29
879.762	9800.55
880.08	9825.41
880.398	9804.16
880.716	9772.53
881.034	9753.09
881.352	9801.9
881.67	9759.42
881.988	9793.54
882.306	9697.73
882.624	9680.1
882.941	9666.09
883.259	9594.23
883.577	9572.53
883.894	9565.3
884.212	9527.56
884.529	9582.47
884.846	9511.06
885.164	9531.85
885.481	9543.15
885.798	9535.24
886.115	9436.94
886.432	9464.51
886.75	9362.82
887.067	9409.6
887.383	9408.24
887.7	9344.97
888.017	9303.39
888.334	9333.22
888.651	9253.67
888.967	9324.4
889.284	9154.01
889.6	9173.45
889.917	9114.92
890.233	9117.63
890.55	9093.67
890.866	9132.99
891.182	9111.98
891.498	8968.93
891.815	9056.61
892.131	9013
892.447	8922.83
892.763	8828.6
893.079	8934.13
893.395	8851.87
893.71	8893.68
894.026	8855.26
894.342	8772.1
894.657	8757.64
894.973	8732.55
895.289	8771.87
895.604	8716.73
895.92	8637.41
896.235	8584.99
896.55	8592.22
896.865	8539.34
897.181	8533.91
897.496	8521.26
897.811	8434.71
898.126	8473.8
898.441	8419.79
898.756	8380.92
899.071	8372.79
899.386	8385.9
899.7	8319.68
900.015	8264.54
900.33	8211.89
900.644	8147.71
900.959	8217.54
901.273	8161.04
901.588	8167.6
901.902	8038.11
902.216	8081.95
902.531	8068.84
902.845	8040.82
903.159	7945.45
903.473	7972.12
903.787	7914.04
904.101	7909.07
904.415	7876.98
904.729	7801.73
905.042	7759.92
905.356	7730.32
905.67	7747.27
905.984	7729.87
906.297	7687.16
906.611	7605.12
906.924	7612.81
907.237	7581.85
907.551	7592.92
907.864	7571.45
908.177	7562.19
908.491	7479.25
908.804	7423.66
909.117	7374.85
909.43	7342.53
909.743	7308.41
910.056	7312.48
910.368	7304.79
910.681	7263.89
910.994	7221.86
911.307	7198.81
911.619	7123.78
911.932	7187.28
912.244	7103.44
912.557	7112.93
912.869	6993.62
913.181	7075.87
913.494	6990
913.806	6986.61
914.118	6933.28
914.43	6940.06
914.742	6828.2
915.054	6875.65
915.366	6852.6
915.678	6841.08
915.99	6805.6
916.302	6750.91
916.613	6711.36
916.925	6713.62
917.236	6631.59
917.548	6628.88
917.859	6622.55
918.171	6614.87
918.482	6554.98
918.794	6548.88
919.105	6554.98
919.416	6498.94
919.727	6488.77
920.038	6465.04
920.349	6424.36
920.66	6342.33
920.971	6351.82
921.282	6332.84
921.593	6296.23
921.903	6268.21
922.214	6248.78
922.525	6186.86
922.835	6179.85
923.146	6093.53
923.456	6173.07
923.767	6108.22
924.077	6068.22
924.387	6110.47
924.697	6064.37
925.008	6080.42
925.318	5967.65
925.628	5956.58
925.938	5920.65
926.248	5894.66
926.558	5899.63
926.867	5900.08
927.177	5842.69
927.487	5830.93
927.796	5759.75
928.106	5796.81
928.416	5754.1
928.725	5778.05
929.034	5708
929.344	5743.25
929.653	5662.58
929.962	5615.57
930.271	5578.51
930.581	5599.3
930.89	5560.66
931.199	5556.82
931.508	5503.26
931.817	5458.06
932.125	5505.07
932.434	5428.46
932.743	5393.66
933.051	5392.75
933.36	5353.21
933.669	5329.03
933.977	5286.32
934.286	5271.4
934.594	5260.78
934.902	5286.09
935.21	5214
935.519	5227.79
935.827	5233.21
936.135	5167
936.443	5099.88
936.751	5083.61
937.059	5120.22
937.367	5039.99
937.674	5030.73
937.982	5032.31
938.29	4995.93
938.597	5016.04
938.905	4930.84
939.213	4902.82
939.52	4874.8
939.827	4956.61
940.135	4866.67
940.442	4869.15
940.749	4844.52
941.056	4816.72
941.363	4773.33
941.67	4786.22
941.977	4751.64
942.284	4767.01
942.591	4697.86
942.898	4645.43
943.205	4648.59
943.511	4644.07
943.818	4618.08
944.125	4607.24
944.431	4620.57
944.738	4600.91
945.044	4532.21
945.35	4522.72
945.657	4510.07
945.963	4522.49
946.269	4489.73
946.575	4454.25
946.881	4425.32
947.187	4440.01
947.493	4390.07
947.799	4414.7
948.105	4389.16
948.41	4356.62
948.716	4342.16
949.022	4320.92
949.327	4306.68
949.633	4242.28
949.938	4264.42
950.244	4231.88
950.549	4205.89
950.854	4209.96
951.16	4210.64
951.465	4186.68
951.77	4125.67
952.075	4117.31
952.38	4111.21
952.685	4087.93
952.99	4059.23
953.294	4082.96
953.599	4035.73
953.904	4007.71
954.209	4014.94
954.513	3990.76
954.818	3983.98
955.122	3950.76
955.426	3958.67
955.731	3905.11
956.035	3915.73
956.339	3851.33
956.643	3853.13
956.948	3855.62
957.252	3805.45
957.556	3837.54
957.86	3767.26
958.163	3835.28
958.467	3795.96
958.771	3735.85
959.075	3764.1
959.378	3712.35
959.682	3742.18
959.985	3674.83
960.289	3699.24
960.592	3623.99
960.896	3614.72
961.199	3627.38
961.502	3607.04
961.805	3598.68
962.108	3562.52
962.411	3546.02
962.714	3511.22
963.017	3532.01
963.32	3557.1
963.623	3493.37
963.926	3485.46
964.228	3496.76
964.531	3448.4
964.833	3476.65
965.136	3412.01
965.438	3388.74
965.741	3412.69
966.043	3391.22
966.345	3363.2
966.648	3406.37
966.95	3340.6
967.252	3327.72
967.554	3286.37
967.856	3334.73
968.158	3248.18
968.46	3278.46
968.761	3276.65
969.063	3260.15
969.365	3219.7
969.666	3203.43
969.968	3187.61
970.269	3171.8
970.571	3221.74
970.872	3180.83
971.174	3139.25
971.475	3121.63
971.776	3108.07
972.077	3096.99
972.378	3075.53
972.679	3092.48
972.98	3068.75
973.281	3064.45
973.582	3027.39
973.883	3055.19
974.183	3028.52
974.484	3032.82
974.785	2981.29
975.085	2974.74
975.386	2972.03
975.686	2959.37
975.986	2913.95
976.287	2958.24
976.587	2895.64
976.887	2920.28
977.187	2854.06
977.487	2874.18
977.787	2893.61
978.087	2855.87
978.387	2837.11
978.687	2827.85
978.987	2768.87
979.286	2780.39
979.586	2793.05
979.885	2809.32
980.185	2745.37
980.484	2735.42
980.784	2755.08
981.083	2737.68
981.382	2705.37
981.682	2668.98
981.981	2720.73
982.28	2645.26
982.579	2673.28
982.878	2648.87
983.177	2670.79
983.475	2648.65
983.774	2636.22
984.073	2596.44
984.372	2584.47
984.67	2619.27
984.969	2568.65
985.267	2534.52
985.566	2557.57
985.864	2529.55
986.162	2508.99
986.461	2509.21
986.759	2521.42
987.057	2503.34
987.355	2452.94
987.653	2486.39
987.951	2436.45
988.249	2456.33
988.547	2434.19
988.844	2424.92
989.142	2430.12
989.44	2375.66
989.737	2382.66
990.035	2370.01
990.332	2373.85
990.63	2364.58
990.927	2377.47
991.224	2329.78
991.521	2338.37
991.819	2318.03
992.116	2322.55
992.413	2285.04
992.71	2270.58
993.006	2287.98
993.303	2256.79
993.6	2269.67
993.897	2240.29
994.193	2229.45
994.49	2217.92
994.787	2234.87
995.083	2193.29
995.379	2172.05
995.676	2190.8
995.972	2192.84
996.268	2145.83
996.565	2141.99
996.861	2160.07
997.157	2132.05
997.453	2113.29
997.749	2116.46
998.044	2082.33
998.34	2073.97
998.636	2090.47
998.932	2062.9
999.227	2047.08
999.523	2051.37
999.818	2044.59
1000.114	2010.47
1000.409	1981.32
1000.704	2008.44
1001	2021.99
1001.295	1997.81
1001.59	1988.32
1001.885	1952.84
1002.18	1943.8
1002.475	1936.8
1002.77	1917.36
1003.065	1922.79
1003.359	1909.46
1003.654	1904.03
1003.949	1883.24
1004.243	1894.54
1004.538	1870.81
1004.832	1856.8
1005.127	1853.41
1005.421	1828.33
1005.715	1823.58
1006.009	1805.05
1006.304	1818.16
1006.598	1796.24
1006.892	1805.28
1007.186	1797.59
1007.48	1781.1
1007.773	1780.19
1008.067	1771.15
1008.361	1753.75
1008.655	1742.68
1008.948	1731.61
1009.242	1736.8
1009.535	1729.57
1009.829	1667.2
1010.122	1670.82
1010.415	1666.3
1010.708	1655.22
1011.001	1647.32
1011.295	1659.52
1011.588	1643.47
1011.881	1617.71
1012.173	1612.51
1012.466	1601.44
1012.759	1603.93
1013.052	1625.62
1013.344	1588.56
1013.637	1587.66
1013.93	1565.51
1014.222	1528.9
1014.514	1552.4
1014.807	1541.1
1015.099	1536.81
1015.391	1538.84
1015.683	1504.49
1015.976	1528.22
1016.268	1506.75
1016.56	1490.26
1016.851	1436.47
1017.143	1499.07
1017.435	1467.66
1017.727	1477.15
1018.018	1455.46
1018.31	1466.98
1018.602	1441.9
1018.893	1425.63
1019.185	1391.5
1019.476	1382.24
1019.767	1364.84
1020.058	1381.33
1020.35	1361.45
1020.641	1349.7
1020.932	1338.85
1021.223	1356.48
1021.514	1332.3
1021.804	1323.03
1022.095	1325.29
1022.386	1309.47
1022.677	1340.2
1022.967	1321.45
1023.258	1267.44
1023.548	1276.93
1023.839	1279.19
1024.129	1253.43
1024.419	1264.95
1024.709	1245.07
1025	1246.2
1025.29	1237.16
1025.58	1226.31
1025.87	1207.33
1026.16	1204.84
1026.449	1206.2
1026.739	1163.94
1027.029	1182.24
1027.319	1172.07
1027.608	1183.37
1027.898	1171.4
1028.187	1167.55
1028.477	1154
1028.766	1145.63
1029.055	1135.01
1029.344	1146.54
1029.634	1127.33
1029.923	1098.86
1030.212	1098.63
1030.501	1105.18
1030.79	1130.27
1031.078	1075.58
1031.367	1082.13
1031.656	1104.05
1031.945	1066.99
1032.233	1055.01
1032.522	1038.97
1032.81	1034.45
1033.099	1043.72
1033.387	1028.35
1033.675	1028.12
1033.963	1013.43
1034.251	1015.69
1034.54	994
1034.828	991.29
1035.116	1000.78
1035.403	991.74
1035.691	992.87
1035.979	988.35
1036.267	992.64
1036.554	982.7
1036.842	955.13
1037.129	939.99
1037.417	932.98
1037.704	939.76
1037.992	935.24
1038.279	931.18
1038.566	904.51
1038.853	904.51
1039.14	904.51
