Data from hue_28_FLMS001491_00079.txt Node
Date: Tue Feb 07 17:17:48 GMT 2017
User: dcchb
Spectrometer: FLMS00149
Trigger mode: 0
Integration Time (sec): 2.000000E-2
Scans to average: 10
Electric dark correction enabled: true
Nonlinearity correction enabled: false
Boxcar width: 0
XAxis mode: Wavelengths
Number of Pixels in Spectrum: 2048
>>>>>Begin Spectral Data<<<<<
341.393	-7.08
341.776	-7.08
342.16	-7.08
342.543	-54.08
342.927	-61.76
343.31	-68.77
343.693	-55.89
344.077	-66.51
344.46	-72.16
344.843	-50.24
345.226	-45.27
345.61	-28.54
345.993	-16.12
346.376	-14.99
346.759	8.74
347.142	41.74
347.525	33.6
347.908	57.33
348.291	71.79
348.674	88.97
349.057	116.31
349.44	154.73
349.823	157.67
350.206	195.4
350.588	225.46
350.971	224.56
351.354	226.36
351.737	229.08
352.119	259.81
352.502	265.01
352.884	299.81
353.267	289.41
353.65	310.88
354.032	309.75
354.414	324.21
354.797	322.63
355.179	330.09
355.562	325.8
355.944	350.88
356.326	326.47
356.709	346.36
357.091	357.66
357.473	357.66
357.855	344.55
358.238	378.68
358.62	349.75
359.002	341.39
359.384	346.59
359.766	342.75
360.148	321.28
360.53	342.07
360.912	347.72
361.294	338.68
361.676	333.25
362.057	340.03
362.439	327.15
362.821	335.74
363.203	337.55
363.584	333.93
363.966	336.87
364.348	310.66
364.729	342.07
365.111	329.64
365.493	309.98
365.874	318.57
366.256	313.59
366.637	333.71
367.019	326.93
367.4	308.17
367.781	318.57
368.163	314.27
368.544	331.9
368.925	340.26
369.306	324.89
369.688	326.93
370.069	331.45
370.45	318.11
370.831	307.94
371.212	329.64
371.593	312.01
371.974	327.15
372.355	317.89
372.736	319.69
373.117	337.1
373.498	330.32
373.879	306.14
374.26	326.7
374.641	329.64
375.021	305.23
375.402	332.8
375.783	320.37
376.163	333.71
376.544	333.93
376.925	320.6
377.305	315.4
377.686	335.06
378.066	343.88
378.447	335.97
378.827	333.03
379.208	340.26
379.588	334.84
379.968	321.95
380.349	346.36
380.729	359.69
381.109	368.73
381.489	344.33
381.87	345.01
382.25	340.71
382.63	338
383.01	357.21
383.39	333.93
383.77	348.62
384.15	345.46
384.53	354.27
384.91	365.34
385.29	362.63
385.67	334.61
386.049	348.62
386.429	354.04
386.809	371.67
387.189	341.84
387.568	364.21
387.948	362.18
388.328	361.28
388.707	365.34
389.087	371.45
389.466	350.43
389.846	369.41
390.225	392.46
390.605	384.55
390.984	366.47
391.363	368.28
391.743	365.57
392.122	383.42
392.501	370.99
392.881	378.68
393.26	381.84
393.639	391.78
394.018	401.95
394.397	393.14
394.776	386.36
395.155	368.73
395.534	383.65
395.913	357.66
396.292	389.07
396.671	371.9
397.05	394.27
397.429	397.43
397.808	402.63
398.186	376.42
398.565	373.03
398.944	403.31
399.323	397.43
399.701	415.51
400.08	414.38
400.458	405.12
400.837	387.72
401.215	410.77
401.594	410.54
401.972	420.71
402.351	427.26
402.729	398.11
403.107	428.84
403.486	419.13
403.864	408.96
404.242	414.61
404.62	417.55
404.999	419.81
405.377	427.94
405.755	422.74
406.133	438.34
406.511	427.26
406.889	451.44
407.267	432.23
407.645	418.22
408.023	439.24
408.401	443.99
408.779	458.22
409.156	452.57
409.534	460.48
409.912	442.86
410.29	475.4
410.667	463.87
411.045	467.04
411.422	483.08
411.8	473.14
412.178	481.72
412.555	475.62
412.933	471.56
413.31	475.4
413.687	487.37
414.065	484.21
414.442	505.68
414.819	509.97
415.197	490.99
415.574	499.58
415.951	486.7
416.328	503.42
416.705	473.59
417.082	486.92
417.46	501.39
417.837	517.2
418.214	524.66
418.591	514.49
418.967	520.82
419.344	525.34
419.721	524.66
420.098	538.9
420.475	536.19
420.852	519.92
421.228	514.04
421.605	533.7
421.982	535.06
422.358	562.17
422.735	552.23
423.111	560.37
423.488	535.96
423.864	549.29
424.241	586.81
424.617	558.78
424.994	560.14
425.37	555.62
425.746	570.54
426.123	578.22
426.499	566.47
426.875	577.99
427.251	611.44
427.627	601.72
428.003	589.97
428.379	613.7
428.756	608.27
429.132	602.63
429.507	616.86
429.883	617.09
430.259	617.54
430.635	632
431.011	644.88
431.387	623.64
431.763	633.59
432.138	634.71
432.514	652.79
432.89	665.9
433.265	660.7
433.641	676.07
434.016	683.3
434.392	672.91
434.767	682.85
435.143	688.95
435.518	703.87
435.894	718.55
436.269	703.87
436.644	720.36
437.02	735.05
437.395	718.1
437.77	735.28
438.145	728.72
438.52	752.9
438.895	757.2
439.271	742.73
439.646	759.01
440.021	772.11
440.395	751.32
440.77	772.56
441.145	757.65
441.52	767.14
441.895	768.5
442.27	792.45
442.645	796.29
443.019	800.81
443.394	788.84
443.769	785.67
444.143	788.61
444.518	787.71
444.892	812.79
445.267	827.25
445.641	833.58
446.016	833.81
446.39	833.81
446.764	822.05
447.139	834.94
447.513	834.26
447.887	886.01
448.262	821.6
448.636	869.96
449.01	852.34
449.384	875.39
449.758	860.92
450.132	871.77
450.506	890.75
450.88	908.61
451.254	868.83
451.628	908.83
452.002	919.91
452.376	932.79
452.75	899.57
453.123	916.97
453.497	939.79
453.871	935.27
454.244	955.16
454.618	970.98
454.992	959.68
455.365	944.76
455.739	981.6
456.112	975.95
456.486	1000.36
456.859	1015.04
457.232	1041.48
457.606	1034.93
457.979	1048.04
458.352	1047.59
458.725	1048.49
459.099	1067.7
459.472	1090.75
459.845	1078.32
460.218	1105.89
460.591	1129.62
460.964	1137.3
461.337	1140.46
461.71	1118.32
462.083	1170.52
462.456	1187.02
462.829	1180.46
463.201	1184.08
463.574	1205.77
463.947	1235.83
464.32	1231.08
464.692	1267.69
465.065	1271.76
465.438	1288.48
465.81	1269.73
466.183	1289.84
466.555	1320.35
466.928	1372.1
467.3	1340.69
467.672	1358.31
468.045	1379.78
468.417	1404.41
468.789	1413.68
469.161	1414.81
469.534	1438.31
469.906	1487.8
470.278	1480.34
470.65	1530.28
471.022	1531.87
471.394	1571.87
471.766	1567.57
472.138	1599.21
472.51	1621.13
472.882	1686.66
473.253	1687.34
473.625	1714.69
473.997	1721.24
474.369	1767.57
474.74	1745.19
475.112	1816.15
475.484	1845.98
475.855	1883.27
476.227	1898.64
476.598	1935.7
476.97	1979.31
477.341	2001.46
477.713	2051.85
478.084	2061.34
478.455	2125.98
478.827	2172.75
479.198	2200.32
479.569	2217.5
479.94	2264.5
480.311	2344.73
480.682	2398.06
481.053	2450.71
481.424	2494.78
481.795	2527.77
482.166	2568.22
482.537	2597.15
482.908	2716.92
483.279	2733.87
483.65	2770.7
484.021	2795.56
484.391	2847.54
484.762	2882.34
485.133	2954.2
485.503	3052.28
485.874	3076.91
486.244	3134.99
486.615	3183.8
486.985	3248.88
487.356	3276.91
487.726	3310.8
488.097	3445.71
488.467	3491.59
488.837	3515.54
489.207	3577.69
489.578	3617.91
489.948	3690.23
490.318	3799.6
490.688	3804.8
491.058	3895.19
491.428	3880.28
491.798	3996.21
492.168	4061.29
492.538	4089.09
492.908	4174.73
493.278	4245.69
493.648	4230.33
494.017	4299.7
494.387	4322.98
494.757	4456.31
495.126	4462.86
495.496	4479.81
495.866	4576.53
496.235	4610.2
496.605	4681.39
496.974	4688.62
497.344	4723.42
497.713	4830.31
498.082	4818.11
498.452	4901.95
498.821	4946.01
499.19	4898.56
499.559	4969.06
499.928	5035.96
500.298	5033.7
500.667	5103.52
501.036	5121.6
501.405	5187.14
501.774	5209.96
502.143	5290.86
502.512	5282.05
502.88	5331.77
503.249	5366.57
503.618	5448.37
503.987	5368.38
504.356	5410.86
504.724	5452.89
505.093	5479.11
505.462	5612.66
505.83	5621.25
506.199	5653.34
506.567	5700.57
506.936	5695.15
507.304	5752.09
507.672	5779.89
508.041	5777.86
508.409	5851.07
508.777	5939.43
509.145	5948.93
509.514	5915.93
509.882	6000.9
510.25	6022.14
510.618	6019.21
510.986	6044.29
511.354	6093.1
511.722	6094.23
512.09	6183.27
512.458	6183.72
512.826	6269.6
513.193	6271.85
513.561	6247.67
513.929	6336.26
514.297	6376.48
514.664	6419.42
515.032	6434.79
515.4	6428.46
515.767	6483.15
516.135	6524.96
516.502	6498.74
516.869	6610.83
517.237	6592.07
517.604	6550.04
517.972	6675.01
518.339	6685.86
518.706	6638.62
519.073	6694.89
519.44	6766.31
519.808	6743.25
520.175	6798.62
520.542	6923.82
520.909	6881.56
521.276	6933.98
521.643	6950.03
522.009	6977.15
522.376	7039.52
522.743	7067.77
523.11	7046.07
523.477	7186.63
523.843	7141.89
524.21	7251.49
524.577	7269.57
524.943	7324.71
525.31	7379.4
525.676	7415.55
526.043	7429.34
526.409	7489.22
526.776	7559.5
527.142	7552.73
527.508	7652.16
527.874	7650.12
528.241	7758.14
528.607	7713.4
528.973	7802.66
529.339	7761.31
529.705	7882.21
530.071	7883.34
530.437	7990.91
530.803	7952.94
531.169	8050.11
531.535	8029.32
531.901	8018.25
532.267	8092.15
532.632	8147.74
532.998	8226.38
533.364	8212.59
533.73	8289.43
534.095	8315.87
534.461	8350.44
534.826	8441.52
535.192	8457.56
535.557	8472.7
535.923	8509.76
536.288	8516.09
536.653	8516.54
537.019	8525.13
537.384	8614.39
537.749	8625.01
538.114	8681.06
538.479	8685.35
538.845	8756.54
539.21	8765.35
539.575	8807.38
539.94	8810.77
540.305	8908.17
540.67	8961.95
541.034	8899.36
541.399	8944.55
541.764	8958.11
542.129	8963.76
542.494	9071.33
542.858	9085.11
543.223	9094.61
543.587	9238.78
543.952	9172.57
544.316	9193.59
544.681	9236.3
545.045	9315.39
545.41	9413.24
545.774	9388.61
546.138	9434.26
546.503	9433.81
546.867	9505.67
547.231	9515.84
547.595	9593.35
547.959	9661.14
548.324	9631.77
548.688	9639.9
549.052	9661.6
549.416	9663.63
549.779	9745.44
550.143	9737.75
550.507	9815.04
550.871	9904.3
551.235	9881.48
551.599	9935.71
551.962	9961.02
552.326	9967.58
552.689	10014.81
553.053	9999.67
553.417	10088.7
553.78	10193.11
554.143	10115.37
554.507	10155.82
554.87	10136.61
555.234	10295.93
555.597	10248.25
555.96	10313.33
556.323	10391.75
556.686	10321.92
557.05	10398.75
557.413	10371.41
557.776	10477.17
558.139	10539.99
558.502	10577.73
558.865	10492.08
559.228	10636.03
559.59	10695.24
559.953	10720.78
560.316	10813.43
560.679	10782.02
561.041	10845.07
561.404	10837.16
561.767	10895.24
562.129	10890.49
562.492	11009.58
562.854	10967.32
563.217	10966.19
563.579	10999.64
563.941	11082.12
564.304	11064.5
564.666	11172.52
565.028	11214.1
565.39	11235.34
565.753	11336.35
566.115	11400.99
566.477	11378.84
566.839	11408.44
567.201	11542
567.563	11512.85
567.925	11501.1
568.287	11531.6
568.648	11578.83
569.01	11752.39
569.372	11746.29
569.734	11756.23
570.095	11864.7
570.457	11880.07
570.819	11844.82
571.18	12021.99
571.542	12036.22
571.903	11999.61
572.265	12120.97
572.626	12157.12
572.987	12232.38
573.349	12273.05
573.71	12345.59
574.071	12401.19
574.432	12468.98
574.794	12635.76
575.155	12568.64
575.516	12647.05
575.877	12717.79
576.238	12837.56
576.599	12937.44
576.96	13011.56
577.32	13089.3
577.681	13189.41
578.042	13295.17
578.403	13378.11
578.763	13546.69
579.124	13595.5
579.485	13746.69
579.845	13908.49
580.206	13946.68
580.566	14087.47
580.927	14280.68
581.287	14410.62
581.648	14456.95
582.008	14736.94
582.368	14828.69
582.728	15093.77
583.089	15167.21
583.449	15285.4
583.809	15501.67
584.169	15674.55
584.529	15936.46
584.889	16169.9
585.249	16239.5
585.609	16397.46
585.969	16673.16
586.329	16851.01
586.688	17164.9
587.048	17248.97
587.408	17559.02
587.768	17770.08
588.127	18030.64
588.487	18290.97
588.846	18680.34
589.206	18773.9
589.565	19012.08
589.925	19366.43
590.284	19544.73
590.643	19850.25
591.003	20156.24
591.362	20518.94
591.721	20682.55
592.08	21068.08
592.44	21301.29
592.799	21702.18
593.158	21875.96
593.517	22136.75
593.876	22567.25
594.235	22755.04
594.593	22983.28
594.952	23390.95
595.311	23609.93
595.67	23956.36
596.029	24294.21
596.387	24512.05
596.746	24743.23
597.104	24994.75
597.463	25267.74
597.822	25715.86
598.18	25784.79
598.538	26103.42
598.897	26664.76
599.255	26658.44
599.613	27381.13
599.972	27393.79
600.33	27765.98
600.688	27838.75
601.046	28309.47
601.404	28655.22
601.762	28892.73
602.12	29264.7
602.478	29670.56
602.836	29869.2
603.194	29981.74
603.552	30216.08
603.91	30406.14
604.268	30769.74
604.625	30914.82
604.983	31322.5
605.341	31272.78
605.698	31706.67
606.056	31936.72
606.413	32244.96
606.771	32456.25
607.128	32901.21
607.485	32952.28
607.843	33127.19
608.2	33439.73
608.557	33642.21
608.914	33789.78
609.272	34126.26
609.629	34282.42
609.986	34665.91
610.343	34725.57
610.7	35155.84
611.057	35170.76
611.414	35369.39
611.771	35550.63
612.127	35937.74
612.484	35934.35
612.841	36397.84
613.198	36328.92
613.554	36622.7
613.911	36756.03
614.267	36945.4
614.624	37200.99
614.98	37276.24
615.337	37598.49
615.693	37662.89
616.05	37880.74
616.406	38111.7
616.762	37997.12
617.118	38233.05
617.475	38379.26
617.831	38597.11
618.187	38706.71
618.543	38754.84
618.899	39174.04
619.255	39040.03
619.611	39074.83
619.967	39576.74
620.323	39552.79
620.678	39651.99
621.034	39635.27
621.39	39721.82
621.746	39692.67
622.101	40212.66
622.457	39977.41
622.812	40132.21
623.168	40416.49
623.523	40423.27
623.879	40598.86
624.234	40467.34
624.589	40654
624.945	40805.41
625.3	40938.06
625.655	40882.7
626.01	41047.89
626.365	41034.33
626.72	41101.9
627.075	41035.46
627.43	41104.39
627.785	41166.76
628.14	41313.87
628.495	41342.57
628.85	41427.77
629.205	41247.66
629.559	41631.38
629.914	41308.9
630.269	41527.65
630.623	41480.65
630.978	41530.14
631.332	41638.38
631.687	41844.48
632.041	41566.52
632.396	41818.72
632.75	41623.24
633.104	41711.6
633.459	41596.58
633.813	41694.43
634.167	41724.48
634.521	41750.24
634.875	41905.49
635.229	41757.02
635.583	41546.63
635.937	41608.33
636.291	41693.3
636.645	41830.92
636.999	41664.14
637.352	41718.15
637.706	41552.28
638.06	41821.88
638.413	41687.65
638.767	41794.31
639.121	41821.2
639.474	41494.43
639.828	41509.57
640.181	41584.37
640.534	41620.76
640.888	41509.8
641.241	41330.59
641.594	41495.11
641.947	41676.8
642.301	41573.07
642.654	41560.87
643.007	41632.73
643.36	41547.09
643.713	41416.47
644.066	41619.63
644.419	41391.38
644.771	41226.64
645.124	40857.16
645.477	40770.61
645.83	40539.43
646.182	40514.34
646.535	40381.92
646.888	40459.66
647.24	40202.04
647.593	40472.99
647.945	40352.31
648.298	40128.82
648.65	40158.2
649.002	40072.77
649.355	40293.56
649.707	40170.85
650.059	40264.41
650.411	40762.47
650.763	40889.48
651.115	41162.91
651.467	41167.43
651.819	41010.38
652.171	41074.78
652.523	41041.11
652.875	40956.59
653.227	40647.67
653.578	41176.02
653.93	40997.95
654.282	40882.92
654.633	40700.1
654.985	40882.47
655.337	40862.81
655.688	40898.97
656.039	40949.81
656.391	40664.4
656.742	40870.95
657.094	40926.99
657.445	41051.96
657.796	40805.18
658.147	40820.32
658.498	40781.68
658.849	40894.22
659.2	40747.78
659.551	40772.87
659.902	40851.74
660.253	40806.77
660.604	40902.81
660.955	40527.23
661.306	40847.89
661.656	40665.75
662.007	40799.08
662.358	40741.46
662.708	40802.25
663.059	40601.12
663.409	40464.85
663.76	40834.11
664.11	40767.67
664.461	40646.54
664.811	40657.62
665.161	40823.04
665.511	40509.37
665.862	40560.67
666.212	40691.29
666.562	40654.23
666.912	40697.84
667.262	40494.91
667.612	40548.47
667.962	40642.25
668.312	40601.12
668.662	40876.59
669.011	40633.89
669.361	40521.58
669.711	40640.44
670.06	40555.47
670.41	40626.66
670.76	40444.06
671.109	40573.33
671.459	40457.85
671.808	40445.65
672.157	40479.77
672.507	40329.49
672.856	40341.24
673.205	40393.67
673.554	40447.91
673.904	40358.42
674.253	40494.01
674.602	40415.36
674.951	39808.37
675.3	39549.62
675.649	40344.63
675.998	40248.81
676.346	40345.99
676.695	40387.34
677.044	40039.55
677.393	40110.29
677.741	40167.69
678.09	40029.39
678.438	39888.37
678.787	40141.47
679.135	40088.59
679.484	39936.28
679.832	40093.34
680.181	39859.67
680.529	39880.46
680.877	39779.9
681.225	39761.6
681.573	39862.38
681.922	39665.78
682.27	39609.28
682.618	39536.06
682.966	39410.64
683.314	39668.72
683.661	39516.86
684.009	39119.35
684.357	39235.28
684.705	39228.28
685.053	39243.87
685.4	39138.79
685.748	39025.12
686.095	39043.42
686.443	38963.88
686.79	39019.02
687.138	38896.08
687.485	38888.17
687.832	38695.64
688.18	38856.08
688.527	38520.27
688.874	38508.3
689.221	38570.67
689.568	38520.72
689.915	38264.69
690.262	38267.4
690.609	38172.26
690.956	38096.78
691.303	37969.33
691.65	37942.66
691.997	37847.07
692.344	37646.62
692.69	37721.65
693.037	37577.47
693.383	37267.88
693.73	37468.1
694.077	37263.13
694.423	37252.51
694.769	37191.72
695.116	37028.33
695.462	36938.39
695.808	36836.25
696.155	36920.09
696.501	36654.56
696.847	36620.21
697.193	36507.44
697.539	36592.87
697.885	36419.31
698.231	36191.07
698.577	36165.98
698.923	36175.93
699.269	36040.11
699.614	35868.14
699.96	35812.32
700.306	35908.14
700.651	35768.25
700.997	35499.11
701.342	35512.22
701.688	35278.32
702.033	35366.68
702.379	35337.53
702.724	35240.36
703.069	35256.4
703.415	34867.94
703.76	34828.62
704.105	34972.12
704.45	34836.08
704.795	34635.85
705.14	34584.56
705.485	34481.51
705.83	34412.58
706.175	34362.19
706.52	34420.49
706.865	34291.91
707.209	34144.12
707.554	34031.35
707.899	34051.01
708.243	33884.69
708.588	33939.38
708.932	33676.33
709.277	33635.2
709.621	33709.33
709.966	33486.28
710.31	33514.98
710.654	33149.79
710.998	33403.8
711.342	33402.89
711.687	33196.34
712.031	33109.79
712.375	33017.14
712.719	33095.33
713.063	32907.76
713.407	33000.64
713.75	32991.6
714.094	32802.68
714.438	32635.91
714.782	32603.14
715.125	32486.31
715.469	32598.85
715.812	32582.12
716.156	32442.69
716.499	32393.65
716.843	32468.68
717.186	32078.18
717.53	32392.07
717.873	32104.4
718.216	32168.12
718.559	32028.24
718.902	31787.57
719.246	31879.77
719.589	31800.45
719.932	31754.35
720.275	31837.06
720.617	31614.47
720.96	31517.52
721.303	31489.95
721.646	31498.08
721.989	31382.16
722.331	31391.42
722.674	31322.5
723.016	31363.62
723.359	31290.63
723.701	31275.27
724.044	31046.8
724.386	31049.06
724.729	31192.1
725.071	31009.96
725.413	31072.56
725.755	30896.29
726.097	30858.33
726.439	30714.15
726.782	30753.92
727.124	30779.69
727.465	30689.97
727.807	30523.19
728.149	30534.95
728.491	30484.55
728.833	30615.62
729.175	30469.41
729.516	30334.72
729.858	30363.88
730.199	30463.54
730.541	30360.26
730.882	30273.03
731.224	30400.26
731.565	30220.6
731.906	30114.17
732.248	30218.34
732.589	30088.86
732.93	29959.37
733.271	30036.43
733.612	30023.32
733.953	29998.24
734.294	29862.2
734.635	29608.19
734.976	29805.93
735.317	29640.96
735.658	29577.23
735.999	29627.85
736.339	29557.34
736.68	29647.06
737.021	29528.42
737.361	29369.55
737.702	29523.22
738.042	29321.42
738.383	29362.32
738.723	29368.2
739.063	29210.01
739.404	29242.78
739.744	29328.2
740.084	29111.71
740.424	29155.09
740.764	29005.49
741.104	29173.4
741.444	28906.74
741.784	28914.65
742.124	29057.92
742.464	28881.2
742.804	28790.81
743.143	28646.18
743.483	28675.79
743.823	28551.95
744.162	28598.73
744.502	28702
744.841	28591.04
745.181	28653.19
745.52	28517.6
745.86	28562.34
746.199	28480.99
746.538	28444.61
746.877	28395.34
747.216	28427.43
747.556	28395.34
747.895	28294.78
748.234	28218.85
748.573	28219.07
748.911	28111.96
749.25	28262.69
749.589	28005.29
749.928	27996.26
750.267	28185.85
750.605	27972.08
750.944	27871.96
751.283	27827.22
751.621	27917.84
751.96	27766.43
752.298	27782.93
752.636	27636.94
752.975	27623.16
753.313	27600.33
753.651	27670.61
753.989	27470.17
754.327	27475.59
754.666	27220.23
755.004	27316.27
755.342	27273.56
755.679	27248.25
756.017	27106.56
756.355	27241.92
756.693	27011.65
757.031	27139.1
757.368	26834.93
757.706	26862.95
758.044	26813.46
758.381	26824.53
758.719	26673.8
759.056	26715.16
759.394	26624.54
759.731	26484.66
760.068	26471.78
760.405	26312.91
760.743	26281.72
761.08	26218.68
761.417	26192.91
761.754	26080.15
762.091	26105.68
762.428	26000.38
762.765	25765.13
763.102	25862.3
763.438	25779.14
763.775	25690.55
764.112	25612.59
764.449	25481.75
764.785	25429.54
765.122	25300.96
765.458	25225.71
765.795	25297.34
766.131	25157.01
766.467	25059.38
766.804	25089.21
767.14	24907.98
767.476	24793.18
767.812	24745.72
768.148	24793.4
768.485	24631.15
768.821	24479.51
769.157	24486.97
769.492	24398.38
769.828	24289.91
770.164	24141.67
770.5	24077.26
770.836	24036.13
771.171	23888.57
771.507	23921.79
771.842	23692.87
772.178	23655.58
772.513	23635.24
772.849	23585.52
773.184	23383.95
773.519	23542.59
773.855	23312.76
774.19	23272.31
774.525	23166.33
774.86	23124.29
775.195	23044.3
775.53	22934.24
775.865	22879.1
776.2	22729.73
776.535	22560.24
776.87	22580.58
777.205	22554.59
777.539	22377.65
777.874	22455.16
778.209	22284.32
778.543	22167.93
778.878	22033.25
779.212	21951.22
779.547	21833.71
779.881	21810.43
780.215	21816.08
780.55	21795.97
780.884	21686.14
781.218	21616.31
781.552	21521.62
781.886	21491.57
782.22	21361.18
782.554	21222.2
782.888	21038.25
783.222	21041.41
783.556	20911.92
783.889	20814.07
784.223	20636.9
784.557	20739.95
784.89	20812.04
785.224	20609.33
785.557	20573.4
785.891	20465.38
786.224	20410.92
786.558	20458.15
786.891	20283.01
787.224	20086.63
787.557	20188.33
787.891	20154.2
788.224	20071.27
788.557	19972.74
788.89	19941.1
789.223	19888.9
789.556	19731.16
789.888	19784.49
790.221	19572.3
790.554	19554.44
790.887	19498.85
791.219	19388.35
791.552	19269.93
791.884	19206.43
792.217	19253.43
792.549	19147.9
792.882	18959.66
793.214	18934.57
793.546	18954.91
793.879	18859.09
794.211	18785.65
794.543	18821.81
794.875	18761.92
795.207	18757.85
795.539	18581.14
795.871	18641.7
796.203	18453
796.535	18425.89
796.867	18337.75
797.198	18287.58
797.53	18274.03
797.862	18048.27
798.193	18216.85
798.525	18100.24
798.856	18097.76
799.188	17934.83
799.519	17920.14
799.85	17735.06
800.182	17779.35
800.513	17768.28
800.844	17562.86
801.175	17684.21
801.506	17585.23
801.837	17562.63
802.168	17482.41
802.499	17389.98
802.83	17367.38
803.161	17252.81
803.491	17290.1
803.822	17315.41
804.153	17165.35
804.483	16990.22
804.814	16838.36
805.145	16986.83
805.475	16882.88
805.805	16853.05
806.136	16890.56
806.466	16752.48
806.796	16780.28
807.126	16532.15
807.457	16526.05
807.787	16539.16
808.117	16545.94
808.447	16541.64
808.777	16523.79
809.107	16353.62
809.436	16339.61
809.766	16191.14
810.096	16272.5
810.426	16216.9
810.755	16169.9
811.085	16134.65
811.414	16056.68
811.744	16015.1
812.073	16040.41
812.403	15955.22
812.732	15859.63
813.061	15857.37
813.39	15889.68
813.719	15738.5
814.049	15849.46
814.378	15744.15
814.707	15662.79
815.036	15649.01
815.365	15545.96
815.693	15454.66
816.022	15506.87
816.351	15364.72
816.68	15284.95
817.008	15368.11
817.337	15275.23
817.665	15244.95
817.994	15240.21
818.322	15229.81
818.651	15165.41
818.979	15068.69
819.307	15063.71
819.636	15108.01
819.964	14930.16
820.292	14988.46
820.62	15058.52
820.948	14976.26
821.276	14952.98
821.604	14890.84
821.932	15016.26
822.259	14982.81
822.587	14960.67
822.915	14951.63
823.243	14938.52
823.57	14917.5
823.898	14965.19
824.225	14887.22
824.553	14869.14
824.88	14856.26
825.207	14911.63
825.535	14869.82
825.862	14898.07
826.189	14816.49
826.516	14893.32
826.843	14952.76
827.17	14852.19
827.497	14954.79
827.824	14913.21
828.151	14875.47
828.478	14884.28
828.805	14925.19
829.131	14803.83
829.458	14867.79
829.785	14768.58
830.111	14775.59
830.438	14824.85
830.764	14764.96
831.09	14798.64
831.417	14765.87
831.743	14891.74
832.069	14778.3
832.395	14695.59
832.722	14838.64
833.048	14717.96
833.374	14745.98
833.7	14645.87
834.026	14755.25
834.351	14709.6
834.677	14641.35
835.003	14719.32
835.329	14621.24
835.654	14590.28
835.98	14555.25
836.306	14598.19
836.631	14537.17
836.956	14628.47
837.282	14525.88
837.607	14434.8
837.932	14492.66
838.258	14412.21
838.583	14491.07
838.908	14298.54
839.233	14330.4
839.558	14301.7
839.883	14312.1
840.208	14252.44
840.533	14337.41
840.858	14280.91
841.182	14186.45
841.507	14152.55
841.832	14126.11
842.156	14179.22
842.481	14128.6
842.805	14060.12
843.13	14029.39
843.454	14029.84
843.778	13908.94
844.103	14011.76
844.427	13906.91
844.751	13889.51
845.075	13901.26
845.399	13798.66
845.723	13786.46
846.047	13745.33
846.371	13637.08
846.695	13586.92
847.019	13583.75
847.343	13518.9
847.666	13473.47
847.99	13358.22
848.313	13390.76
848.637	13284.1
848.96	13238.68
849.284	13242.07
849.607	13134.5
849.931	13121.84
850.254	12965.69
850.577	12922.75
850.9	12787.16
851.223	12856.09
851.546	12740.39
851.869	12688.41
852.192	12779.48
852.515	12666.04
852.838	12558.24
853.161	12569.09
853.483	12464.46
853.806	12364.12
854.129	12427.85
854.451	12331.13
854.774	12296.1
855.096	12279.83
855.419	12323.9
855.741	12191.25
856.063	12109.67
856.385	12162.32
856.708	12039.84
857.03	12017.92
857.352	12063.57
857.674	11997.13
857.996	11945.15
858.318	11907.19
858.64	11941.99
858.961	11887.75
859.283	11775.66
859.605	11731.82
859.926	11845.49
860.248	11732.73
860.57	11657.93
860.891	11767.08
861.212	11606.18
861.534	11572.51
861.855	11571.83
862.176	11538.84
862.498	11564.37
862.819	11516.01
863.14	11522.56
863.461	11542.45
863.782	11362.34
864.103	11425.17
864.424	11440.31
864.745	11462.45
865.065	11329.35
865.386	11276.92
865.707	11286.41
866.027	11328.9
866.348	11253.87
866.668	11251.16
866.989	11226.07
867.309	11198.73
867.63	11165.96
867.95	11185.4
868.27	11151.73
868.59	11069.47
868.91	11090.71
869.23	11022.92
869.55	11014.78
869.87	11130.71
870.19	11019.3
870.51	11095.91
870.83	11039.19
871.15	10998.28
871.469	10952.41
871.789	11013.65
872.109	10947.89
872.428	10874.45
872.748	10897.95
873.067	10872.86
873.386	10849.81
873.706	10863.82
874.025	10778.63
874.344	10786.99
874.663	10805.75
874.982	10699.31
875.301	10740.89
875.62	10822.02
875.939	10644.85
876.258	10698.41
876.577	10591.29
876.896	10683.72
877.214	10617.05
877.533	10631.74
877.852	10546.77
878.17	10582.02
878.489	10640.33
878.807	10589.26
879.125	10517.39
879.444	10554.45
879.762	10487.34
880.08	10495.92
880.398	10389.49
880.716	10471.74
881.034	10419.32
881.352	10405.53
881.67	10368.24
881.988	10392.65
882.306	10385.65
882.624	10311.52
882.941	10189.27
883.259	10201.7
883.577	10176.16
883.894	10143.84
884.212	10239.66
884.529	10201.02
884.846	10136.16
885.164	10109.72
885.481	10132.54
885.798	10125.76
886.115	10023.62
886.432	9979.78
886.75	10007.58
887.067	9970.97
887.383	9971.64
887.7	9908.6
888.017	9917.63
888.334	9884.64
888.651	9837.41
888.967	9780.46
889.284	9782.72
889.6	9749.96
889.917	9719.45
890.233	9749.73
890.55	9619.34
890.866	9689.84
891.182	9681.03
891.498	9636.74
891.815	9562.62
892.131	9572.79
892.447	9563.75
892.763	9548.15
893.079	9423.18
893.395	9417.08
893.71	9385.67
894.026	9364.43
894.342	9362.4
894.657	9389.96
894.973	9267.03
895.289	9341.83
895.604	9272.23
895.92	9156.07
896.235	9162.4
896.55	9178.67
896.865	9117.43
897.181	9111.1
897.496	9108.39
897.811	9034.04
898.126	8935.29
898.441	8913.82
898.756	8965.34
899.071	8930.99
899.386	8907.49
899.7	8828.62
900.015	8834.05
900.33	8681.96
900.644	8680.61
900.959	8741.39
901.273	8724.22
901.588	8615.97
901.902	8623.66
902.216	8567.61
902.531	8599.25
902.845	8535.98
903.159	8453.49
903.473	8482.42
903.787	8371.91
904.101	8360.61
904.415	8383.21
904.729	8403.1
905.042	8287.17
905.356	8298.69
905.67	8251.01
905.984	8235.42
906.297	8255.53
906.611	8222.76
906.924	8102.54
907.237	8074.75
907.551	8123.33
907.864	8033.16
908.177	8057.8
908.491	7999.72
908.804	7926.27
909.117	7898.7
909.43	7808.99
909.743	7896.22
910.056	7869.33
910.368	7741.42
910.681	7775.09
910.994	7733.74
911.307	7674.53
911.619	7616.9
911.932	7658.71
912.244	7550.92
912.557	7594.53
912.869	7524.03
913.181	7508.66
913.494	7443.12
913.806	7454.2
914.118	7465.04
914.43	7334.43
914.742	7378.04
915.054	7327.87
915.366	7305.73
915.678	7231.6
915.99	7230.02
916.302	7162.23
916.613	7146.18
916.925	7100.31
917.236	7074.77
917.548	7063.25
917.859	7086.75
918.171	7014.43
918.482	6968.33
918.794	6956.13
919.105	6971.27
919.416	6946.41
919.727	6924.95
920.038	6856.47
920.349	6762.24
920.66	6808.11
920.971	6726.76
921.282	6715.46
921.593	6674.33
921.903	6588.91
922.214	6598.4
922.525	6622.13
922.835	6587.55
923.146	6513.43
923.456	6509.59
923.767	6445.86
924.077	6496.26
924.387	6441.57
924.697	6376.26
925.008	6356.15
925.318	6360.89
925.628	6361.34
925.938	6305.98
926.248	6291.52
926.558	6203.61
926.867	6262.36
927.177	6183.5
927.487	6214.23
927.796	6134.01
928.106	6111.18
928.416	6090.62
928.725	6113.67
929.034	6002.48
929.344	6057.4
929.653	6032.77
929.962	5992.54
930.271	5932.43
930.581	5920.45
930.89	5877.29
931.199	5843.17
931.508	5839.32
931.817	5779.21
932.125	5744.19
932.434	5752.09
932.743	5725.43
933.051	5725.65
933.36	5726.78
933.669	5683.62
933.977	5618.76
934.286	5630.29
934.594	5618.76
934.902	5522.95
935.21	5574.25
935.519	5537.41
935.827	5524.08
936.135	5450.86
936.443	5461.48
936.751	5448.83
937.059	5435.94
937.367	5372.67
937.674	5378.32
937.982	5308.49
938.29	5320.69
938.597	5311.43
938.905	5277.98
939.213	5218.78
939.52	5231.43
939.827	5235.95
940.135	5185.78
940.442	5171.09
940.749	5136.29
941.056	5140.81
941.363	5089.29
941.67	5059.68
941.977	5027.14
942.284	4970.65
942.591	5021.04
942.898	5003.64
943.205	4920.03
943.511	4919.35
943.818	4929.52
944.125	4875.06
944.431	4891.1
944.738	4891.55
945.044	4835.96
945.35	4829.63
945.657	4765.68
945.963	4738.11
946.269	4781.72
946.575	4769.97
946.881	4701.73
947.187	4693.37
947.493	4656.76
947.799	4664.44
948.105	4622.63
948.41	4630.99
948.716	4679.35
949.022	4582.18
949.327	4621.95
949.633	4514.16
949.938	4532.24
950.244	4525.01
950.549	4469.42
950.854	4474.16
951.16	4456.08
951.465	4408.85
951.77	4405.01
952.075	4383.54
952.38	4386.93
952.685	4353.94
952.99	4301.29
953.294	4254.51
953.599	4291.57
953.904	4281.17
954.209	4203.43
954.513	4238.24
954.818	4198.92
955.122	4201.4
955.426	4238.01
955.731	4136.54
956.035	4142.65
956.339	4112.14
956.643	4100.84
956.948	4061.07
957.252	4043.66
957.556	4054.29
957.86	4053.38
958.163	4000.73
958.467	3992.14
958.771	3980.16
959.075	3952.14
959.378	3947.85
959.682	3931.58
959.985	3918.47
960.289	3910.34
960.592	3862.65
960.896	3855.65
961.199	3836.21
961.502	3819.04
961.805	3803.45
962.108	3809.32
962.411	3777.46
962.714	3730.45
963.017	3770.9
963.32	3750.34
963.623	3755.54
963.926	3694.07
964.228	3715.54
964.531	3694.75
964.833	3648.65
965.136	3641.64
965.438	3624.69
965.741	3630.34
966.043	3576.33
966.345	3570.23
966.648	3567.52
966.95	3548.31
967.252	3506.05
967.554	3494.07
967.856	3511.25
968.158	3463.57
968.46	3471.25
968.761	3477.58
969.063	3428.54
969.365	3413.85
969.666	3411.37
969.968	3324.59
970.269	3391.7
970.571	3368.43
970.872	3358.03
971.174	3366.39
971.475	3342.89
971.776	3320.75
972.077	3293.85
972.378	3269.67
972.679	3255.66
972.98	3259.28
973.281	3250.47
973.582	3222.44
973.883	3179.96
974.183	3219.96
974.484	3171.82
974.785	3150.58
975.085	3120.98
975.386	3156.68
975.686	3072.16
975.986	3084.14
976.287	3073.07
976.587	3081.43
976.887	3060.64
977.187	3044.37
977.487	3012.28
977.787	3040.75
978.087	2994.43
978.387	2993.97
978.687	3010.25
978.987	2976.57
979.286	2963.92
979.586	2937.03
979.885	2915.78
980.185	2952.85
980.484	2912.17
980.784	2913.53
981.083	2879.85
981.382	2871.72
981.682	2829.69
981.981	2833.53
982.28	2830.36
982.579	2784.26
982.878	2846.41
983.177	2790.59
983.475	2771.83
983.774	2745.85
984.073	2742.46
984.372	2756.92
984.67	2734.09
984.969	2737.71
985.267	2708.33
985.566	2707.88
985.864	2689.35
986.162	2674.21
986.461	2669.46
986.759	2669.92
987.057	2602.35
987.355	2590.6
987.653	2599.41
987.951	2587.21
988.249	2604.83
988.547	2604.83
988.844	2551.05
989.142	2583.14
989.44	2533.42
989.737	2509.69
990.035	2477.38
990.332	2522.57
990.63	2475.57
990.927	2485.29
991.224	2485.74
991.521	2451.16
991.819	2471.95
992.116	2474.44
992.413	2411.17
992.71	2417.72
993.006	2403.03
993.303	2415.69
993.6	2368.68
993.897	2378.85
994.193	2406.19
994.49	2367.55
994.787	2347.21
995.083	2352.41
995.379	2348.34
995.676	2308.57
995.972	2305.41
996.268	2288
996.565	2292.3
996.861	2271.06
997.157	2239.19
997.453	2248.23
997.749	2180.44
998.044	2219.53
998.34	2214.79
998.636	2216.37
998.932	2184.96
999.227	2145.41
999.523	2178.86
999.818	2151.29
1000.114	2123.94
1000.409	2142.47
1000.704	2117.39
1001	2079.65
1001.295	2087.11
1001.59	2097.95
1001.885	2105.41
1002.18	2058.86
1002.475	2031.06
1002.77	2036.26
1003.065	2007.11
1003.359	2015.7
1003.654	2029.25
1003.949	1998.75
1004.243	1971.18
1004.538	2004.62
1004.832	1966.43
1005.127	1947.22
1005.421	1973.89
1005.715	1961.23
1006.009	1936.15
1006.304	1912.87
1006.598	1888.47
1006.892	1858.64
1007.186	1872.42
1007.48	1856.6
1007.773	1858.19
1008.067	1848.47
1008.361	1818.64
1008.655	1837.85
1008.948	1807.79
1009.242	1827.68
1009.535	1794.46
1009.829	1798.3
1010.122	1778.19
1010.415	1794.91
1010.708	1772.31
1011.001	1765.08
1011.295	1739.77
1011.588	1725.99
1011.881	1701.58
1012.173	1705.87
1012.466	1709.49
1012.759	1645.54
1013.052	1677.17
1013.344	1679.66
1013.637	1650.73
1013.93	1648.47
1014.222	1625.2
1014.514	1637.4
1014.807	1623.84
1015.099	1599.89
1015.391	1616.61
1015.683	1571.87
1015.976	1578.64
1016.268	1588.14
1016.56	1552.66
1016.851	1582.71
1017.143	1553.56
1017.435	1550.17
1017.727	1527.12
1018.018	1501.13
1018.31	1516.5
1018.602	1476.95
1018.893	1485.31
1019.185	1485.54
1019.476	1473.11
1019.767	1467.91
1020.058	1442.83
1020.35	1449.16
1020.641	1420.23
1020.932	1441.02
1021.223	1415.71
1021.514	1410.97
1021.804	1376.62
1022.095	1361.25
1022.386	1367.58
1022.677	1361.7
1022.967	1346.11
1023.258	1360.35
1023.548	1351.08
1023.839	1308.14
1024.129	1331.42
1024.419	1319.67
1024.709	1288.71
1025	1321.48
1025.29	1293.91
1025.58	1275.6
1025.87	1283.29
1026.16	1252.55
1026.449	1271.53
1026.739	1262.27
1027.029	1241.7
1027.319	1234.25
1027.608	1228.82
1027.898	1220.91
1028.187	1219.11
1028.477	1183.85
1028.766	1184.08
1029.055	1187.69
1029.344	1200.58
1029.634	1182.27
1029.923	1152.22
1030.212	1179.56
1030.501	1183.18
1030.79	1142.72
1031.078	1125.78
1031.367	1129.39
1031.656	1117.64
1031.945	1146.11
1032.233	1111.99
1032.522	1089.39
1032.81	1121.71
1033.099	1103.4
1033.387	1081.03
1033.675	1080.35
1033.963	1077.42
1034.251	1053.01
1034.54	1054.59
1034.828	1033.8
1035.116	1036.06
1035.403	1062.27
1035.691	1016.85
1035.979	1018.21
1036.267	1022.5
1036.554	1011.2
1036.842	999.68
1037.129	998.77
1037.417	963.52
1037.704	1004.65
1037.992	972.33
1038.279	978.43
1038.566	964.2
1038.853	964.2
1039.14	964.2
