Data from hue_250_FLMS001491_00054.txt Node
Date: Tue Feb 07 16:01:10 GMT 2017
User: dcchb
Spectrometer: FLMS00149
Trigger mode: 0
Integration Time (sec): 2.000000E-2
Scans to average: 10
Electric dark correction enabled: true
Nonlinearity correction enabled: false
Boxcar width: 0
XAxis mode: Wavelengths
Number of Pixels in Spectrum: 2048
>>>>>Begin Spectral Data<<<<<
341.393	4.49
341.776	4.49
342.16	4.49
342.543	-40.93
342.927	-56.98
343.31	-74.6
343.693	-75.73
344.077	-67.6
344.46	-53.59
344.843	-61.04
345.226	-45.68
345.61	-46.58
345.993	-15.4
346.376	-20.37
346.759	12.85
347.142	50.14
347.525	48.56
347.908	59.41
348.291	81.78
348.674	83.36
349.057	124.49
349.44	121.32
349.823	150.93
350.206	151.15
350.588	173.98
350.971	228.67
351.354	205.39
351.737	219.4
352.119	239.29
352.502	251.72
352.884	263.47
353.267	266.63
353.65	270.7
354.032	286.97
354.414	304.37
354.797	298.49
355.179	296.01
355.562	306.18
355.944	318.16
356.326	313.41
356.709	327.42
357.091	307.99
357.473	326.52
357.855	343.01
358.238	337.59
358.62	320.19
359.002	322.68
359.384	335.56
359.766	341.88
360.148	324.03
360.53	335.78
360.912	352.96
361.294	339.85
361.676	329
362.057	318.83
362.439	319.74
362.821	304.14
363.203	312.28
363.584	327.87
363.966	337.36
364.348	323.13
364.729	320.42
365.111	307.53
365.493	326.29
365.874	311.6
366.256	313.18
366.637	299.17
367.019	303.01
367.4	320.64
367.781	316.35
368.163	293.98
368.544	313.41
368.925	311.83
369.306	327.19
369.688	331.04
370.069	309.34
370.45	296.91
370.831	297.37
371.212	304.82
371.593	316.8
371.974	310.7
372.355	304.6
372.736	306.63
373.117	294.2
373.498	322
373.879	325.61
374.26	329
374.641	292.39
375.021	295.78
375.402	289.46
375.783	305.95
376.163	306.18
376.544	312.05
376.925	320.19
377.305	330.58
377.686	332.17
378.066	322
378.447	331.26
378.827	341.88
379.208	311.38
379.588	341.88
379.968	318.38
380.349	334.88
380.729	326.29
381.109	327.19
381.489	357.02
381.87	315.44
382.25	334.65
382.63	327.87
383.01	333.07
383.39	349.57
383.77	338.04
384.15	333.75
384.53	340.53
384.91	348.21
385.29	335.78
385.67	336.01
386.049	344.82
386.429	354.99
386.809	355.22
387.189	376.46
387.568	340.75
387.948	346.63
388.328	363.13
388.707	329.23
389.087	367.42
389.466	348.89
389.846	356.8
390.225	376.69
390.605	362.9
390.984	357.93
391.363	348.21
391.743	365.39
392.122	363.8
392.501	371.49
392.881	375.33
393.26	392.73
393.639	381.88
394.018	400.19
394.397	376.91
394.776	391.37
395.155	411.71
395.534	403.8
395.913	400.41
396.292	403.35
396.671	410.36
397.05	383.24
397.429	378.04
397.808	412.62
398.186	395.22
398.565	398.15
398.944	399.74
399.323	399.96
399.701	411.03
400.08	418.49
400.458	422.79
400.837	409.45
401.215	440.86
401.594	415.55
401.972	440.41
402.351	433.18
402.729	440.41
403.107	449
403.486	434.76
403.864	446.51
404.242	444.03
404.62	453.29
404.999	442.45
405.377	447.19
405.755	447.64
406.133	477.47
406.511	476.34
406.889	460.52
407.267	459.17
407.645	484.93
408.023	487.64
408.401	493.52
408.779	503.91
409.156	486.29
409.534	491.71
409.912	505.04
410.29	506.17
410.667	521.31
411.045	504.59
411.422	556.12
411.8	533.74
412.178	534.19
412.555	546.62
412.933	561.09
413.31	582.33
413.687	557.02
414.065	570.35
414.442	589.79
414.819	589.79
415.197	602.44
415.574	601.54
415.951	602.67
416.328	598.6
416.705	614.42
417.082	620.75
417.46	620.29
417.837	633.4
418.214	641.76
418.591	643.8
418.967	634.98
419.344	675.43
419.721	691.03
420.098	642.21
420.475	682.44
420.852	702.55
421.228	688.32
421.605	727.64
421.982	710.69
422.358	714.53
422.735	708.65
423.111	745.71
423.488	775.32
423.864	774.87
424.241	785.94
424.617	776
424.994	813.96
425.37	797.01
425.746	812.38
426.123	813.28
426.499	809.89
426.875	829.1
427.251	860.51
427.627	844.24
428.003	851.02
428.379	882.43
428.756	872.72
429.132	898.93
429.507	900.51
429.883	908.65
430.259	945.71
430.635	957.01
431.011	948.42
431.387	961.3
431.763	994.3
432.138	973.05
432.514	1020.74
432.89	1011.02
433.265	1009.21
433.641	1046.72
434.016	1065.71
434.392	1080.62
434.767	1095.08
435.143	1096.21
435.518	1097.34
435.894	1157.68
436.269	1157
436.644	1161.52
437.02	1177.12
437.395	1202.88
437.77	1242.65
438.145	1244.68
438.52	1276.32
438.895	1252.14
439.271	1277
439.646	1280.84
440.021	1287.62
440.395	1324.68
440.77	1345.47
441.145	1324.91
441.52	1369.2
441.895	1367.17
442.27	1392.25
442.645	1366.94
443.019	1403.55
443.394	1417.34
443.769	1427.96
444.143	1429.09
444.518	1434.51
444.892	1432.93
445.267	1440.61
445.641	1465.7
446.016	1482.87
446.39	1495.07
446.764	1500.5
447.139	1507.5
447.513	1532.59
447.887	1553.6
448.262	1571
448.636	1547.5
449.01	1588.86
449.384	1569.65
449.758	1589.08
450.132	1620.49
450.506	1620.49
450.88	1627.73
451.254	1633.38
451.628	1646.48
452.002	1666.59
452.376	1675.86
452.75	1707.27
453.123	1720.38
453.497	1739.14
453.871	1702.75
454.244	1785.24
454.618	1784.33
454.992	1818.91
455.365	1823.2
455.739	1858.68
456.112	1853.48
456.486	1896.42
456.859	1939.58
457.232	1951.33
457.606	1923.76
457.979	1959.92
458.352	1981.61
458.725	2058.22
459.099	2006.25
459.472	2046.47
459.845	2065
460.218	2069.75
460.591	2098.67
460.964	2134.15
461.337	2124.44
461.71	2169.18
462.083	2202.17
462.456	2215.05
462.829	2197.65
463.201	2269.06
463.574	2277.65
463.947	2320.81
464.32	2347.48
464.692	2336.86
465.065	2350.42
465.438	2417.54
465.81	2488.95
466.183	2476.06
466.555	2498.21
466.928	2542.28
467.3	2503.86
467.672	2554.48
468.045	2593.12
468.417	2648.04
468.789	2639
469.161	2654.59
469.534	2682.61
469.906	2771.2
470.278	2769.16
470.65	2797.64
471.022	2851.2
471.394	2888.71
471.766	2930.97
472.138	2919.67
472.51	3025.88
472.882	3027.46
473.253	3071.98
473.625	3121.92
473.997	3167.8
474.369	3196.05
474.74	3199.44
475.112	3264.74
475.484	3298.42
475.855	3345.42
476.227	3368.02
476.598	3477.17
476.97	3481.69
477.341	3545.42
477.713	3617.5
478.084	3639.2
478.455	3736.37
478.827	3743.15
479.198	3807.1
479.569	3833.09
479.94	3886.2
480.311	3963.26
480.682	4059.53
481.053	4078.51
481.424	4154.66
481.795	4172.97
482.166	4229.92
482.537	4288.67
482.908	4394.88
483.279	4388.56
483.65	4478.05
484.021	4546.52
484.391	4600.08
484.762	4613.64
485.133	4673.75
485.503	4760.07
485.874	4840.07
486.244	4848.66
486.615	4949.45
486.985	4934.31
487.356	5046.62
487.726	5073.51
488.097	5149.21
488.467	5208.42
488.837	5343.33
489.207	5343.11
489.578	5393.28
489.948	5405.71
490.318	5510.11
490.688	5496.78
491.058	5589.2
491.428	5638.47
491.798	5701.29
492.168	5842.53
492.538	5764.57
492.908	5899.7
493.278	5981.74
493.648	5936.76
494.017	5996.88
494.387	6050.66
494.757	6122.97
495.126	6158.91
495.496	6150.09
495.866	6214.95
496.235	6303.99
496.605	6316.87
496.974	6387.37
497.344	6404.1
497.713	6395.51
498.082	6469.18
498.452	6549.4
498.821	6533.81
499.19	6533.36
499.559	6574.04
499.928	6584.66
500.298	6606.35
500.667	6664.43
501.036	6687.48
501.405	6734.94
501.774	6695.61
502.143	6828.49
502.512	6802.5
502.88	6883.18
503.249	6867.59
503.618	6947.36
503.987	6918.21
504.356	6905.78
504.724	6952.33
505.093	7000.47
505.462	7017.19
505.83	7066.68
506.199	7089.73
506.567	7136.06
506.936	7169.27
507.304	7264.19
507.672	7171.76
508.041	7218.76
508.409	7301.02
508.777	7376.73
509.145	7365.65
509.514	7330.85
509.882	7410.62
510.25	7421.47
510.618	7409.49
510.986	7450.4
511.354	7521.13
511.722	7533.78
512.09	7614.69
512.458	7566.78
512.826	7697.17
513.193	7628.47
513.561	7635.03
513.929	7757.73
514.297	7685.19
514.664	7744.17
515.032	7744.63
515.4	7788.47
515.767	7763.61
516.135	7829.37
516.502	7774.23
516.869	7846.55
517.237	7836.38
517.604	7894.68
517.972	7910.5
518.339	7938.29
518.706	7872.99
519.073	7948.92
519.44	7999.76
519.808	8049.7
520.175	7982.13
520.542	8050.16
520.909	8087.89
521.276	8021.91
521.643	8102.13
522.009	8068.23
522.376	8097.84
522.743	8145.75
523.11	8226.42
523.477	8217.61
523.843	8244.95
524.21	8381.67
524.577	8277.27
524.943	8385.29
525.31	8434.55
525.676	8420.54
526.043	8456.7
526.409	8492.4
526.776	8447.89
527.142	8498.51
527.508	8535.11
527.874	8504.38
528.241	8599.07
528.607	8587.32
528.973	8637.03
529.339	8565.85
529.705	8657.15
530.071	8687.2
530.437	8678.39
530.803	8706.64
531.169	8661.21
531.535	8676.13
531.901	8668.22
532.267	8740.53
532.632	8741.66
532.998	8721.1
533.364	8743.92
533.73	8752.51
534.095	8783.7
534.461	8864.15
534.826	8830.02
535.192	8794.32
535.557	8843.13
535.923	8785.96
536.288	8744.6
536.653	8792.06
537.019	8748.67
537.384	8777.59
537.749	8790.25
538.114	8812.62
538.479	8730.36
538.845	8792.06
539.21	8752.74
539.575	8820.3
539.94	8809.46
540.305	8827.31
540.67	8818.95
541.034	8796.35
541.399	8749.12
541.764	8793.19
542.129	8811.94
542.494	8821.21
542.858	8810.59
543.223	8775.79
543.587	8803.36
543.952	8745.05
544.316	8789.12
544.681	8811.72
545.045	8825.5
545.41	8833.41
545.774	8789.12
546.138	8759.52
546.503	8758.16
546.867	8733.53
547.231	8825.05
547.595	8782.34
547.959	8806.97
548.324	8813.07
548.688	8730.36
549.052	8781.44
549.416	8749.35
549.779	8728.56
550.143	8715.22
550.507	8783.02
550.871	8751.83
551.235	8711.38
551.599	8771.27
551.962	8800.87
552.326	8801.55
552.689	8763.13
553.053	8697.37
553.417	8712.74
553.78	8880.87
554.143	8781.89
554.507	8803.81
554.87	8890.36
555.234	8828.89
555.597	8750.48
555.96	8794.77
556.323	8775.79
556.686	8803.13
557.05	8844.03
557.413	8839.74
557.776	8823.47
558.139	8846.29
558.502	8866.63
558.865	8914.54
559.228	8950.7
559.59	8910.25
559.953	8948.44
560.316	9037.93
560.679	9022.33
561.041	8971.71
561.404	8992.28
561.767	9076.8
562.129	9022.33
562.492	9127.87
562.854	9023.69
563.217	9147.08
563.579	9089.22
563.941	9100.75
564.304	9171.26
564.666	9270.69
565.028	9208.54
565.39	9189.79
565.753	9223.91
566.115	9262.33
566.477	9356.56
566.839	9295.55
567.201	9380.74
567.563	9356.56
567.925	9407.86
568.287	9378.93
568.648	9369.89
569.01	9425.26
569.372	9504.58
569.734	9498.03
570.095	9524.47
570.457	9584.13
570.819	9570.79
571.18	9536.67
571.542	9563.56
571.903	9652.15
572.265	9682.43
572.626	9685.14
572.987	9673.84
573.349	9661.86
573.71	9797.23
574.071	9803.33
574.432	9823.22
574.794	9805.82
575.155	9772.14
575.516	9816.44
575.877	9841.07
576.238	9926.26
576.599	9898.92
576.96	9954.96
577.32	9911.35
577.681	10064.79
578.042	9983.44
578.403	10045.58
578.763	10065.92
579.124	10104.79
579.485	10014.62
579.845	10106.15
580.206	10105.02
580.566	10136.43
580.927	10127.39
581.287	10179.59
581.648	10122.87
582.008	10229.76
582.368	10194.28
582.728	10256.65
583.089	10209.65
583.449	10173.94
583.809	10300.49
584.169	10360.15
584.529	10241.96
584.889	10372.81
585.249	10400.83
585.609	10240.38
585.969	10375.52
586.329	10399.47
586.688	10407.38
587.048	10393.37
587.408	10356.76
587.768	10369.19
588.127	10326.93
588.487	10488.28
588.846	10497.55
589.206	10487.61
589.565	10483.54
589.925	10446.7
590.284	10475.18
590.643	10520.6
591.003	10486.02
591.362	10597.89
591.721	10528.73
592.08	10531.45
592.44	10600.82
592.799	10545.46
593.158	10549.52
593.517	10606.7
593.876	10551.33
594.235	10593.82
594.593	10599.02
594.952	10551.11
595.311	10543.88
595.67	10585
596.029	10691.89
596.387	10695.51
596.746	10744.32
597.104	10667.26
597.463	10705.68
597.822	10757.65
598.18	10654.61
598.538	10678.34
598.897	10739.8
599.255	10684.44
599.613	10823.87
599.972	10706.58
600.33	10716.98
600.688	10690.09
601.046	10788.16
601.404	10754.27
601.762	10788.16
602.12	10825.22
602.478	10785.9
602.836	10828.16
603.194	10760.37
603.552	10809.86
603.91	10763.53
604.268	10841.72
604.625	10777.09
604.983	10857.09
605.341	10778.9
605.698	10850.76
606.056	10883.98
606.413	10906.8
606.771	10820.03
607.128	10882.17
607.485	10854.6
607.843	10878.33
608.2	10899.8
608.557	11022.28
608.914	10935.73
609.272	10979.12
609.629	10994.26
609.986	10974.37
610.343	10995.61
610.7	11059.12
611.057	11021.6
611.414	10975.73
611.771	11052.56
612.127	11106.8
612.484	11050.98
612.841	11066.57
613.198	11073.8
613.554	11026.8
613.911	11152.22
614.267	11067.03
614.624	11089.62
614.98	11074.71
615.337	11139.11
615.693	11123.52
616.05	11089.17
616.406	11145.67
616.762	11124.88
617.118	11134.59
617.475	11166.01
617.831	11170.75
618.187	11234.93
618.543	11215.04
618.899	11264.76
619.255	11334.14
619.611	11193.35
619.967	11291.88
620.323	11233.57
620.678	11315.61
621.034	11214.82
621.39	11204.65
621.746	11262.95
622.101	11374.81
622.457	11294.36
622.812	11264.31
623.168	11335.27
623.523	11291.65
623.879	11254.59
624.234	11163.07
624.589	11225.21
624.945	11331.65
625.3	11284.87
625.655	11362.84
626.01	11242.39
626.365	11305.89
626.72	11345.89
627.075	11268.38
627.43	11172.79
627.785	11228.83
628.14	11241.71
628.495	11173.92
628.85	11248.49
629.205	11182.73
629.559	11292.78
629.914	11170.53
630.269	11227.7
630.623	11091.43
630.978	11113.8
631.332	11134.82
631.687	11162.16
632.041	11145.67
632.396	11120.81
632.75	11068.61
633.104	11109.28
633.459	11029.74
633.813	11069.51
634.167	11064.99
634.521	11039.68
634.875	11013.02
635.229	11039.23
635.583	10953.58
635.937	10994.26
636.291	10973.24
636.645	10925.79
636.999	10908.16
637.352	10965.79
637.706	10895.5
638.06	10937.99
638.413	10902.74
638.767	10869.29
639.121	10933.47
639.474	10811.89
639.828	10862.06
640.181	10908.84
640.534	10865
640.888	10824.09
641.241	10798.33
641.594	10784.09
641.947	10791.33
642.301	10810.76
642.654	10786.81
643.007	10752.46
643.36	10759.91
643.713	10799.69
644.066	10783.64
644.419	10716.53
644.771	10567.83
645.124	10473.82
645.477	10535.51
645.83	10449.64
646.182	10400.15
646.535	10411.68
646.888	10385.91
647.24	10323.99
647.593	10414.39
647.945	10312.92
648.298	10321.51
648.65	10326.71
649.002	10236.54
649.355	10361.06
649.707	10318.34
650.059	10418.68
650.411	10572.58
650.763	10464.1
651.115	10602.18
651.467	10533.93
651.819	10528.28
652.171	10564.44
652.523	10549.07
652.875	10505.91
653.227	10544.78
653.578	10533.48
653.93	10592.01
654.282	10444.22
654.633	10481.73
654.985	10491.45
655.337	10503.42
655.688	10511.33
656.039	10543.88
656.391	10547.27
656.742	10455.52
657.094	10528.06
657.445	10545.68
657.796	10544.1
658.147	10516.53
658.498	10425.91
658.849	10540.49
659.2	10519.02
659.551	10515.18
659.902	10500.94
660.253	10538.9
660.604	10492.35
660.955	10466.14
661.306	10465.23
661.656	10531.67
662.007	10497.32
662.358	10452.58
662.708	10529.41
663.059	10545.01
663.409	10435.4
663.76	10519.24
664.11	10539.58
664.461	10582.74
664.811	10488.96
665.161	10482.41
665.511	10515.63
665.862	10467.04
666.212	10530.09
666.562	10494.84
666.912	10516.31
667.262	10508.62
667.612	10507.72
667.962	10507.04
668.312	10526.25
668.662	10564.44
669.011	10494.39
669.361	10512.92
669.711	10490.77
670.06	10427.49
670.41	10372.81
670.76	10405.12
671.109	10545.01
671.459	10463.88
671.808	10399.02
672.157	10414.39
672.507	10426.14
672.856	10410.09
673.205	10446.25
673.554	10461.17
673.904	10376.2
674.253	10438.79
674.602	10384.56
674.951	10185.92
675.3	10184.11
675.649	10359.47
675.998	10329.42
676.346	10288.06
676.695	10399.02
677.044	10274.96
677.393	10354.73
677.741	10319.02
678.09	10297.33
678.438	10253.71
678.787	10267.5
679.135	10295.75
679.484	10248.74
679.832	10229.53
680.181	10217.56
680.529	10238.35
680.877	10175.07
681.225	10164.22
681.573	10272.92
681.922	10055.75
682.27	9989.31
682.618	10145.47
682.966	10006.49
683.314	10115.41
683.661	10059.82
684.009	9973.72
684.357	10011.91
684.705	9950.9
685.053	9960.39
685.4	10001.74
685.748	9901.63
686.095	9821.63
686.443	9814.63
686.79	9830.22
687.138	9844.46
687.485	9774.86
687.832	9844.01
688.18	9813.27
688.527	9705.48
688.874	9794.74
689.221	9682.88
689.568	9701.19
689.915	9642.88
690.262	9607.18
690.609	9511.36
690.956	9561.98
691.303	9648.08
691.65	9502.55
691.997	9492.38
692.344	9386.62
692.69	9427.07
693.037	9431.59
693.383	9345.94
693.73	9342.78
694.077	9327.86
694.423	9263.68
694.769	9222.33
695.116	9216.68
695.462	9221.88
695.808	9179.62
696.155	9178.94
696.501	9114.99
696.847	9121.54
697.193	9047.87
697.539	9083.35
697.885	8981.88
698.231	8930.58
698.577	8923.35
698.923	8928.1
699.269	8942.11
699.614	8860.53
699.96	8866.18
700.306	8778.27
700.651	8726.97
700.997	8716.8
701.342	8719.29
701.688	8802.9
702.033	8686.97
702.379	8606.3
702.724	8572.18
703.069	8685.39
703.415	8533.98
703.76	8526.75
704.105	8492.86
704.45	8449.47
704.795	8469.13
705.14	8383.25
705.485	8414.44
705.83	8338.28
706.175	8391.84
706.52	8284.27
706.865	8340.09
707.209	8310.49
707.554	8230.49
707.899	8224.39
708.243	8274.1
708.588	8194.11
708.932	8139.42
709.277	8194.78
709.621	8103.49
709.966	8126.54
710.31	8076.6
710.654	8022.36
710.998	8049.7
711.342	8077.5
711.687	8022.13
712.031	7961.57
712.375	7910.27
712.719	7965.41
713.063	7884.06
713.407	7931.97
713.75	7890.61
714.094	7889.71
714.438	7831.4
714.782	7930.84
715.125	7873.44
715.469	7843.61
715.812	7850.61
716.156	7773.78
716.499	7830.05
716.843	7825.75
717.186	7696.04
717.53	7774.23
717.873	7758.86
718.216	7761.58
718.559	7746.89
718.902	7707.11
719.246	7668.47
719.589	7683.61
719.932	7598.19
720.275	7678.41
720.617	7677.96
720.96	7605.87
721.303	7655.82
721.646	7649.04
721.989	7530.17
722.331	7579.21
722.674	7550.73
723.016	7584.63
723.359	7518.42
723.701	7578.08
724.044	7515.93
724.386	7448.59
724.729	7501.47
725.071	7439.32
725.413	7508.7
725.755	7478.87
726.097	7501.7
726.439	7419.89
726.782	7465.76
727.124	7525.88
727.465	7504.63
727.807	7475.26
728.149	7420.34
728.491	7396.16
728.833	7358.2
729.175	7456.72
729.516	7375.6
729.858	7397.29
730.199	7396.84
730.541	7356.16
730.882	7386.44
731.224	7395.94
731.565	7331.53
731.906	7377.86
732.248	7413.56
732.589	7338.54
732.93	7289.95
733.271	7320.68
733.612	7336.5
733.953	7327.69
734.294	7319.33
734.635	7324.98
734.976	7336.28
735.317	7292.66
735.658	7372.89
735.999	7361.81
736.339	7308.48
736.68	7323.62
737.021	7349.38
737.361	7310.97
737.702	7381.47
738.042	7325.65
738.383	7353.68
738.723	7336.05
739.063	7348.48
739.404	7360
739.744	7296.28
740.084	7299.21
740.424	7299.21
740.764	7336.73
741.104	7398.65
741.444	7328.59
741.784	7331.08
742.124	7371.98
742.464	7360.46
742.804	7312.1
743.143	7375.37
743.483	7415.82
743.823	7312.1
744.162	7394.81
744.502	7452.88
744.841	7404.97
745.181	7447.23
745.52	7471.41
745.86	7511.19
746.199	7494.01
746.538	7560.9
746.877	7582.82
747.216	7577.4
747.556	7652.43
747.895	7609.26
748.234	7671.18
748.573	7689.94
748.911	7745.08
749.25	7741.69
749.589	7806.55
749.928	7877.73
750.267	7904.62
750.605	7996.15
750.944	8016.94
751.283	7966.99
751.621	8087.67
751.96	8029.37
752.298	8170.6
752.636	8227.33
752.975	8274.78
753.313	8363.82
753.651	8431.39
753.989	8442.91
754.327	8499.18
754.666	8566.07
755.004	8649.69
755.342	8786.18
755.679	8880.19
756.017	8869.57
756.355	9017.59
756.693	9116.34
757.031	9185.94
757.368	9240.86
757.706	9374.19
758.044	9416.67
758.381	9508.2
758.719	9647.4
759.056	9775.99
759.394	9881.75
759.731	9888.98
760.068	10059.14
760.405	10125.58
760.743	10129.87
761.08	10381.17
761.417	10440.15
761.754	10521.73
762.091	10615.51
762.428	10714.27
762.765	10766.02
763.102	10977.08
763.438	11076.74
763.775	11062.51
764.112	11251.65
764.449	11316.51
764.785	11385.21
765.122	11472.66
765.458	11553.11
765.795	11682.83
766.131	11845.54
766.467	11827.23
766.804	11876.27
767.14	12002.82
767.476	12149.26
767.812	12193.1
768.148	12248.01
768.485	12315.58
768.821	12379.08
769.157	12520.09
769.492	12566.42
769.828	12616.59
770.164	12575.46
770.5	12681.9
770.836	12723.03
771.171	12829.69
771.507	12802.35
771.842	12879.63
772.178	12901.1
772.513	12994.66
772.849	13058.16
773.184	13010.25
773.519	12994.21
773.855	13094.32
774.19	13085.5
774.525	13198.95
774.86	13272.84
775.195	13282.56
775.53	13244.37
775.865	13347.19
776.2	13219.96
776.535	13117.59
776.87	13320.53
777.205	13318.49
777.539	13246.18
777.874	13346.51
778.209	13281.43
778.543	13298.61
778.878	13235.78
779.212	13338.83
779.547	13251.83
779.881	13324.82
780.215	13345.84
780.55	13448.66
780.884	13384.7
781.218	13248.21
781.552	13392.61
781.886	13363.91
782.22	13229.68
782.554	13252.28
782.888	13199.17
783.222	13271.94
783.556	13163.47
783.889	13164.37
784.223	13082.79
784.557	13142
784.89	13185.61
785.224	13085.28
785.557	13137.93
785.891	13119.4
786.224	13065.62
786.558	13144.71
786.891	12996.69
787.224	13017.71
787.557	12885.96
787.891	12965.96
788.224	12957.37
788.557	13011.83
788.89	12989.69
789.223	13043.47
789.556	12866.75
789.888	12891.38
790.221	12846.19
790.554	12865.17
790.887	12761.22
791.219	12822.91
791.552	12716.02
791.884	12742.69
792.217	12640.77
792.549	12600.32
792.882	12638.51
793.214	12597.61
793.546	12509.02
793.879	12464.95
794.211	12428.12
794.543	12494.33
794.875	12479.64
795.207	12511.51
795.539	12433.54
795.871	12436.71
796.203	12406.88
796.535	12272.64
796.867	12246.66
797.198	12221.57
797.53	12205.3
797.862	12160.1
798.193	12156.26
798.525	12131.18
798.856	12116.49
799.188	12051.86
799.519	11961.92
799.85	11938.41
800.182	11980.67
800.513	11928.25
800.844	11877.4
801.175	11937.51
801.506	11932.54
801.837	11925.08
802.168	11878.53
802.499	11824.29
802.83	11737.06
803.161	11726.9
803.491	11708.59
803.822	11717.86
804.153	11660.23
804.483	11637.86
804.814	11579.55
805.145	11532.78
805.475	11517.86
805.805	11424.53
806.136	11469.95
806.466	11405.55
806.796	11423.4
807.126	11365.77
807.457	11365.1
807.787	11371.88
808.117	11349.96
808.447	11253.91
808.777	11296.85
809.107	11257.53
809.436	11217.3
809.766	11220.47
810.096	11185.44
810.426	11150.86
810.755	11148.83
811.085	11075.39
811.414	11081.26
811.744	10963.75
812.073	11058.44
812.403	11047.14
812.732	10998.55
813.061	10967.59
813.39	10847.37
813.719	10876.52
814.049	10929.4
814.378	10900.48
814.707	10815.51
815.036	10772.34
815.365	10762.4
815.693	10728.96
816.022	10672.91
816.351	10743.19
816.68	10660.26
817.008	10657.54
817.337	10564.67
817.665	10622.29
817.994	10613.03
818.322	10615.74
818.651	10546.36
818.979	10535.74
819.307	10535.29
819.636	10483.31
819.964	10478.11
820.292	10483.99
820.62	10459.13
820.948	10469.08
821.276	10425.91
821.604	10537.55
821.932	10404.9
822.259	10433.6
822.587	10400.15
822.915	10329.64
823.243	10434.27
823.57	10448.06
823.898	10452.35
824.225	10381.85
824.553	10388.63
824.88	10441.51
825.207	10524.44
825.535	10409.87
825.862	10459.13
826.189	10406.25
826.516	10487.61
826.843	10494.16
827.17	10501.39
827.497	10523.54
827.824	10470.66
828.151	10497.55
828.478	10469.75
828.805	10562.41
829.131	10468.62
829.458	10469.98
829.785	10465.46
830.111	10377.55
830.438	10512.24
830.764	10440.6
831.09	10438.12
831.417	10421.62
831.743	10410.55
832.069	10441.96
832.395	10350.43
832.722	10469.98
833.048	10389.08
833.374	10355.86
833.7	10385.46
834.026	10338.68
834.351	10357.67
834.677	10392.47
835.003	10384.56
835.329	10320.6
835.654	10382.3
835.98	10253.94
836.306	10254.39
836.631	10307.95
836.956	10338.23
837.282	10367.61
837.607	10260.04
837.932	10249.42
838.258	10244
838.583	10235.18
838.908	10162.42
839.233	10161.51
839.558	10139.37
839.883	10128.52
840.208	10115.19
840.533	10072.7
840.858	10117.45
841.182	10081.97
841.507	10030.67
841.832	10060.27
842.156	10023.66
842.481	10053.72
842.805	9987.96
843.13	9943.44
843.454	9908.41
843.778	9911.58
844.103	9913.84
844.427	9864.57
844.751	9845.36
845.075	9842.42
845.399	9817.57
845.723	9778.92
846.047	9801.75
846.371	9698.25
846.695	9702.09
847.019	9616.22
847.343	9631.36
847.666	9521.08
847.99	9469.1
848.313	9450.57
848.637	9391.59
848.96	9414.41
849.284	9418.26
849.607	9289.45
849.931	9347.3
850.254	9281.54
850.577	9199.28
850.9	9053.97
851.223	9131.03
851.546	9083.35
851.869	9059.62
852.192	9062.11
852.515	8998.83
852.838	8933.3
853.161	8967.19
853.483	8922.45
853.806	8901.66
854.129	8933.97
854.451	8864.6
854.774	8790.25
855.096	8786.18
855.419	8762.45
855.741	8704.38
856.063	8743.02
856.385	8627.54
856.708	8648.56
857.03	8638.39
857.352	8585.06
857.674	8548.45
857.996	8537.37
858.318	8503.93
858.64	8507.77
858.961	8443.14
859.283	8495.12
859.605	8430.71
859.926	8392.07
860.248	8466.42
860.57	8393.65
860.891	8367.89
861.212	8275.46
861.534	8285.63
861.855	8168.8
862.176	8257.16
862.498	8274.78
862.819	8236.37
863.14	8216.25
863.461	8181.45
863.782	8153.88
864.103	8189.13
864.424	8210.6
864.745	8183.71
865.065	8060.32
865.386	8037.73
865.707	8078.18
866.027	8113.66
866.348	8081.12
866.668	8084.73
866.989	8081.34
867.309	8018.29
867.63	8012.64
867.95	8057.16
868.27	8028.24
868.59	7990.95
868.91	8003.38
869.23	7980.78
869.55	7967.9
869.87	8014.22
870.19	7962.25
870.51	7933.77
870.83	7920.22
871.15	7912.31
871.469	7904.85
871.789	7918.63
872.109	7895.13
872.428	7864.17
872.748	7866.43
873.067	7851.29
873.386	7797.96
873.706	7846.55
874.025	7790.95
874.344	7769.48
874.663	7776.49
874.982	7728.58
875.301	7751.86
875.62	7712.09
875.939	7733.78
876.258	7682.71
876.577	7736.04
876.896	7670.05
877.214	7666.44
877.533	7641.35
877.852	7637.51
878.17	7670.28
878.489	7609.04
878.807	7636.38
879.125	7615.36
879.444	7594.12
879.762	7586.66
880.08	7590.51
880.398	7595.25
880.716	7596.83
881.034	7491.3
881.352	7485.65
881.67	7481.13
881.988	7472.09
882.306	7392.55
882.624	7398.65
882.941	7394.58
883.259	7346.45
883.577	7365.43
883.894	7366.33
884.212	7337.86
884.529	7346.22
884.846	7298.99
885.164	7228.71
885.481	7219.67
885.798	7280.68
886.115	7216.96
886.432	7190.07
886.75	7223.51
887.067	7256.05
887.383	7183.51
887.7	7147.35
888.017	7099.45
888.334	7124.3
888.651	7131.76
888.967	7081.37
889.284	7040.46
889.6	7027.13
889.917	7023.97
890.233	7046.34
890.55	6967.47
890.866	6947.59
891.182	6964.99
891.498	6943.52
891.815	6918.89
892.131	6903.75
892.447	6867.36
892.763	6842.73
893.079	6824.43
893.395	6832.79
893.71	6764.54
894.026	6803.86
894.342	6734.71
894.657	6684.09
894.973	6726.12
895.289	6709.63
895.604	6696.74
895.92	6639.12
896.235	6555.28
896.55	6553.02
896.865	6584.88
897.181	6585.79
897.496	6606.58
897.811	6497.65
898.126	6542.4
898.441	6486.81
898.756	6546.24
899.071	6416.07
899.386	6461.27
899.7	6367.26
900.015	6356.87
900.33	6332.91
900.644	6336.75
900.959	6299.92
901.273	6314.16
901.588	6263.54
901.902	6249.98
902.216	6190.09
902.531	6149.64
902.845	6141.28
903.159	6093.37
903.473	6123.88
903.787	6073.71
904.101	6102.86
904.415	6038.23
904.729	5998.23
905.042	5986.93
905.356	5968.85
905.67	5878.24
905.984	5897.67
906.297	5907.61
906.611	5859.03
906.924	5860.83
907.237	5867.61
907.551	5858.8
907.864	5811.12
908.177	5805.92
908.491	5746.94
908.804	5749.43
909.117	5645.02
909.43	5719.82
909.743	5649.99
910.056	5615.42
910.368	5599.6
910.681	5621.52
910.994	5567.51
911.307	5576.77
911.619	5565.25
911.932	5524.35
912.244	5509.88
912.557	5505.82
912.869	5433.95
913.181	5468.3
913.494	5410.9
913.806	5313.28
914.118	5351.24
914.43	5309.66
914.742	5326.16
915.054	5376.1
915.366	5275.31
915.678	5245.94
915.99	5251.13
916.302	5261.53
916.613	5181.53
916.925	5206.16
917.236	5234.86
917.548	5163
917.859	5178.82
918.171	5072.83
918.482	5075.54
918.794	5024.47
919.105	5048.2
919.416	5019.05
919.727	4982.67
920.038	5013.4
920.349	5015.66
920.66	4956.45
920.971	4959.16
921.282	4894.08
921.593	4889.79
921.903	4871.48
922.214	4820.41
922.525	4819.28
922.835	4813.86
923.146	4793.52
923.456	4764.14
923.767	4713.07
924.077	4766.17
924.387	4692.96
924.697	4673.75
925.008	4671.04
925.318	4648.89
925.628	4665.61
925.938	4601.43
926.248	4590.36
926.558	4599.62
926.867	4584.48
927.177	4536.35
927.487	4521.66
927.796	4486.41
928.106	4466.97
928.416	4475.33
928.725	4483.7
929.034	4412.74
929.344	4410.03
929.653	4414.77
929.962	4368.67
930.271	4365.28
930.581	4412.29
930.89	4323.47
931.199	4280.54
931.508	4302.01
931.817	4319.86
932.125	4254.32
932.434	4239.18
932.743	4219.75
933.051	4179.75
933.36	4206.19
933.669	4170.71
933.977	4111.95
934.286	4124.61
934.594	4143.82
934.902	4081.22
935.21	4100.65
935.519	4117.15
935.827	4079.64
936.135	4036.02
936.443	4036.48
936.751	4008.91
937.059	4008.68
937.367	3953.77
937.674	3983.82
937.982	3963.26
938.29	3944.5
938.597	3950.38
938.905	3871.28
939.213	3895.69
939.52	3854.33
939.827	3854.11
940.135	3831.06
940.442	3804.17
940.749	3822.47
941.056	3849.36
941.363	3752.19
941.67	3758.74
941.977	3753.32
942.284	3695.47
942.591	3722.81
942.898	3709.03
943.205	3675.81
943.511	3664.96
943.818	3659.08
944.125	3647.11
944.431	3592.19
944.738	3623.38
945.044	3594
945.35	3585.64
945.657	3554.23
945.963	3557.62
946.269	3534.34
946.575	3554.45
946.881	3496.15
947.187	3474
947.493	3425.19
947.799	3451.63
948.105	3454.12
948.41	3427.45
948.716	3402.82
949.022	3414.12
949.327	3359.88
949.633	3319.88
949.938	3344.97
950.244	3370.5
950.549	3301.58
950.854	3282.15
951.16	3337.51
951.465	3297.74
951.77	3265.42
952.075	3281.24
952.38	3232.66
952.685	3211.64
952.99	3235.14
953.294	3194.92
953.599	3170.28
953.904	3178.65
954.209	3195.59
954.513	3155.59
954.818	3134.13
955.122	3116.5
955.426	3104.75
955.731	3117.63
956.035	3090.96
956.339	3117.18
956.643	3051.42
956.948	3043.96
957.252	3020.91
957.556	3022.94
957.86	3020.68
958.163	3032.21
958.467	3002.6
958.771	2970.29
959.075	2972.77
959.378	2922.61
959.682	2951.53
959.985	2925.54
960.289	2917.41
960.592	2872.89
960.896	2881.25
961.199	2878.54
961.502	2894.81
961.805	2864.3
962.108	2874.92
962.411	2839.22
962.714	2829.28
963.017	2833.34
963.32	2794.02
963.623	2779.33
963.926	2753.57
964.228	2767.13
964.531	2737.07
964.833	2735.95
965.136	2721.93
965.438	2714.48
965.741	2704.08
966.043	2710.63
966.345	2690.07
966.648	2673.8
966.95	2678.77
967.252	2680.35
967.554	2662.27
967.856	2649.17
968.158	2590.64
968.46	2592.9
968.761	2598.55
969.063	2574.59
969.365	2598.32
969.666	2557.87
969.968	2540.24
970.269	2543.18
970.571	2520.13
970.872	2574.37
971.174	2503.41
971.475	2472.45
971.776	2513.58
972.077	2472.9
972.378	2471.77
972.679	2490.53
972.98	2451.21
973.281	2433.58
973.582	2457.31
973.883	2394.49
974.183	2409.85
974.484	2435.61
974.785	2361.94
975.085	2338.44
975.386	2414.6
975.686	2408.04
975.986	2332.34
976.287	2338.22
976.587	2323.3
976.887	2288.5
977.187	2300.02
977.487	2318.55
977.787	2293.47
978.087	2258.44
978.387	2259.8
978.687	2276.52
978.987	2262.51
979.286	2253.25
979.586	2217.99
979.885	2245.34
980.185	2193.36
980.484	2192
980.784	2182.51
981.083	2174.15
981.382	2154.72
981.682	2183.19
981.981	2165.34
982.28	2177.32
982.579	2122.85
982.878	2120.37
983.177	2112.91
983.475	2103.65
983.774	2119.69
984.073	2088.96
984.372	2120.82
984.67	2046.7
984.969	2058
985.267	2068.62
985.566	2058
985.864	2051.9
986.162	2040.14
986.461	2014.16
986.759	2003.08
987.057	1994.5
987.355	2009.64
987.653	2000.37
987.951	1980.94
988.249	1947.49
988.547	1953.82
988.844	1968.51
989.142	1970.09
989.44	1926.7
989.737	1932.58
990.035	1923.99
990.332	1914.05
990.63	1888.96
990.927	1924.21
991.224	1891.9
991.521	1891
991.819	1854.84
992.116	1868.62
992.413	1878.79
992.71	1878.11
993.006	1855.06
993.303	1829.75
993.6	1835.18
993.897	1813.94
994.193	1815.74
994.49	1813.94
994.787	1799.25
995.083	1771.45
995.379	1783.43
995.676	1775.52
995.972	1743.88
996.268	1733.71
996.565	1738.01
996.861	1728.51
997.157	1749.98
997.453	1734.16
997.749	1728.51
998.044	1705.69
998.34	1693.94
998.636	1707.05
998.932	1658.01
999.227	1679.02
999.523	1653.94
999.818	1648.74
1000.114	1661.62
1000.409	1613.26
1000.704	1631.34
1001	1624.11
1001.295	1628.86
1001.59	1594.28
1001.885	1610.78
1002.18	1568.74
1002.475	1573.49
1002.77	1563.09
1003.065	1557.22
1003.359	1547.73
1003.654	1554.06
1003.949	1557.44
1004.243	1521.51
1004.538	1482.19
1004.832	1524.23
1005.127	1532.59
1005.421	1500.5
1005.715	1512.93
1006.009	1481.06
1006.304	1450.78
1006.598	1472.48
1006.892	1458.24
1007.186	1455.3
1007.48	1458.24
1007.773	1424.57
1008.067	1435.19
1008.361	1406.04
1008.655	1394.51
1008.948	1405.36
1009.242	1411.46
1009.535	1387.96
1009.829	1398.13
1010.122	1378.24
1010.415	1370.33
1010.708	1377.79
1011.001	1338.02
1011.295	1332.82
1011.588	1339.6
1011.881	1335.08
1012.173	1328.98
1012.466	1329.43
1012.759	1312.71
1013.052	1320.61
1013.344	1307.51
1013.637	1272.48
1013.93	1295.3
1014.222	1258.24
1014.514	1274.97
1014.807	1255.08
1015.099	1245.14
1015.391	1272.48
1015.683	1245.81
1015.976	1218.47
1016.268	1207.85
1016.56	1234.29
1016.851	1215.98
1017.143	1210.11
1017.435	1226.38
1017.727	1187.51
1018.018	1222.09
1018.31	1160.17
1018.602	1151.13
1018.893	1142.54
1019.185	1170.11
1019.476	1142.99
1019.767	1117.23
1020.058	1135.54
1020.35	1129.66
1020.641	1125.59
1020.932	1107.29
1021.223	1074.52
1021.514	1117.91
1021.804	1100.51
1022.095	1093.73
1022.386	1062.77
1022.677	1093.95
1022.967	1091.92
1023.258	1057.57
1023.548	1044.24
1023.839	1064.35
1024.129	1059.6
1024.419	1028.65
1024.709	1019.61
1025	1021.87
1025.29	1012.6
1025.58	1023
1025.87	1015.31
1026.16	1008.08
1026.449	1003.79
1026.739	1000.17
1027.029	997.46
1027.319	989.32
1027.608	962.88
1027.898	983.22
1028.187	967.4
1028.477	955.43
1028.766	966.95
1029.055	939.61
1029.344	930.79
1029.634	942.32
1029.923	923.11
1030.212	941.19
1030.501	899.84
1030.79	913.39
1031.078	928.08
1031.367	911.13
1031.656	910.23
1031.945	874.98
1032.233	897.58
1032.522	873.85
1032.81	856.9
1033.099	901.64
1033.387	870.01
1033.675	874.3
1033.963	858.71
1034.251	846.5
1034.54	844.24
1034.828	844.7
1035.116	843.57
1035.403	822.55
1035.691	825.71
1035.979	839.27
1036.267	837.46
1036.554	813.74
1036.842	798.82
1037.129	808.54
1037.417	787.07
1037.704	806.96
1037.992	805.15
1038.279	751.14
1038.566	799.72
1038.853	799.72
1039.14	799.72
