Data from hue_00_FLMS001491_3.txt Node
Date: Mon Feb 06 15:29:11 GMT 2017
User: dcchb
Spectrometer: FLMS00149
Trigger mode: 0
Integration Time (sec): 2.000000E-2
Scans to average: 10
Electric dark correction enabled: true
Nonlinearity correction enabled: false
Boxcar width: 0
XAxis mode: Wavelengths
Number of Pixels in Spectrum: 2048
>>>>>Begin Spectral Data<<<<<
341.393	-21.06
341.776	-21.06
342.16	-21.06
342.543	-51.57
342.927	-48.85
343.31	-77.55
343.693	-71.45
344.077	-76.2
344.46	-57.89
344.843	-43.88
345.226	-42.53
345.61	-47.95
345.993	-21.51
346.376	23.01
346.759	10.58
347.142	42.67
347.525	33.4
347.908	53.06
348.291	74.08
348.674	91.48
349.057	110.69
349.44	123.12
349.823	110.46
350.206	161.76
350.588	192.95
350.971	181.65
351.354	232.04
351.737	246.96
352.119	233.4
352.502	258.48
352.884	259.84
353.267	270.91
353.65	287.86
354.032	293.06
354.414	287.41
354.797	306.62
355.179	304.58
355.562	311.14
355.944	335.09
356.326	339.16
356.709	343.45
357.091	317.24
357.473	331.7
357.855	324.47
358.238	327.86
358.62	322.44
359.002	338.03
359.384	322.21
359.766	315.43
360.148	332.6
360.53	318.14
360.912	319.5
361.294	328.99
361.676	324.24
362.057	315.66
362.439	312.27
362.821	318.59
363.203	318.14
363.584	330.34
363.966	303.68
364.348	316.11
364.729	312.72
365.111	320.85
365.493	326.73
365.874	313.62
366.256	286.28
366.637	312.27
367.019	319.5
367.4	291.7
367.781	308.65
368.163	323.11
368.544	299.38
368.925	314.3
369.306	302.1
369.688	307.07
370.069	313.17
370.45	320.4
370.831	306.16
371.212	334.86
371.593	317.69
371.974	311.14
372.355	314.75
372.736	303.68
373.117	308.88
373.498	308.88
373.879	295.09
374.26	308.88
374.641	297.8
375.021	307.07
375.402	316.56
375.783	318.37
376.163	315.2
376.544	334.19
376.925	333.28
377.305	312.72
377.686	321.76
378.066	317.92
378.447	343.45
378.827	330.34
379.208	328.76
379.588	312.04
379.968	315.2
380.349	345.03
380.729	312.27
381.109	325.15
381.489	318.37
381.87	313.4
382.25	314.75
382.63	341.87
383.01	349.33
383.39	331.25
383.77	350.46
384.15	333.06
384.53	330.57
384.91	367.18
385.29	359.95
385.67	356.11
386.049	363.34
386.429	331.47
386.809	338.71
387.189	353.62
387.568	343.68
387.948	335.32
388.328	346.16
388.707	358.59
389.087	337.12
389.466	341.87
389.846	329.21
390.225	363.79
390.605	347.75
390.984	357.24
391.363	367.86
391.743	353.39
392.122	360.4
392.501	362.21
392.881	342.1
393.26	359.04
393.639	349.78
394.018	338.03
394.397	381.87
394.776	379.38
395.155	383.22
395.534	375.99
395.913	384.35
396.292	367.41
396.671	370.57
397.05	373.06
397.429	369.89
397.808	360.63
398.186	360.4
398.565	367.63
398.944	395.2
399.323	371.7
399.701	377.12
400.08	388.2
400.458	367.63
400.837	392.26
401.215	394.75
401.594	388.87
401.972	407.18
402.351	394.3
402.729	393.62
403.107	422.09
403.486	399.27
403.864	399.27
404.242	406.95
404.62	407.86
404.999	412.38
405.377	411.47
405.755	418.48
406.133	382.09
406.511	427.74
406.889	405.6
407.267	430.23
407.645	424.58
408.023	417.8
408.401	420.74
408.779	423.68
409.156	435.2
409.534	438.82
409.912	433.17
410.29	434.52
410.667	453.96
411.045	442.88
411.422	431.36
411.8	442.21
412.178	447.86
412.555	461.41
412.933	446.73
413.31	453.05
413.687	454.41
414.065	451.47
414.442	475.65
414.819	451.7
415.197	478.59
415.574	468.19
415.951	497.8
416.328	497.8
416.705	475.65
417.082	492.37
417.46	477.69
417.837	479.27
418.214	496.44
418.591	509.77
418.967	496.22
419.344	503
419.721	529.89
420.098	494.63
420.475	499.61
420.852	514.29
421.228	519.94
421.605	516.55
421.982	506.61
422.358	515.65
422.735	531.24
423.111	535.76
423.488	540.28
423.864	544.58
424.241	535.31
424.617	556.78
424.994	562.2
425.37	539.38
425.746	548.19
426.123	565.14
426.499	568.3
426.875	573.28
427.251	578.02
427.627	593.39
428.003	589.32
428.379	610.56
428.756	578.02
429.132	596.1
429.507	607.17
429.883	622.31
430.259	618.02
430.635	632.26
431.011	618.25
431.387	616.89
431.763	645.82
432.138	616.44
432.514	646.49
432.89	655.76
433.265	623.9
433.641	655.99
434.016	688.98
434.392	669.32
434.767	651.92
435.143	669.32
435.518	670.22
435.894	691.46
436.269	708.64
436.644	702.99
437.02	687.17
437.395	709.32
437.77	693.27
438.145	688.08
438.52	709.54
438.895	724.01
439.271	733.27
439.646	736.21
440.021	757.23
440.395	757.68
440.77	744.8
441.145	728.3
441.52	761.97
441.895	758.58
442.27	755.19
442.645	771.91
443.019	757.23
443.394	771.91
443.769	786.6
444.143	784.57
444.518	784.8
444.892	804
445.267	776.43
445.641	831.57
446.016	806.72
446.39	786.15
446.764	792.25
447.139	811.01
447.513	829.54
447.887	839.48
448.262	827.51
448.636	815.53
449.01	843.1
449.384	830.9
449.758	850.56
450.132	861.4
450.506	860.95
450.88	841.29
451.254	855.75
451.628	871.12
452.002	876.32
452.376	911.12
452.75	900.27
453.123	879.93
453.497	907.73
453.871	900.27
454.244	896.43
454.618	931.01
454.992	906.83
455.365	925.13
455.739	935.75
456.112	976.66
456.486	958.58
456.859	978.69
457.232	973.72
457.606	985.69
457.979	996.09
458.352	1014.17
458.725	1010.1
459.099	1024.11
459.472	1041.74
459.845	1048.07
460.218	1058.91
460.591	1068.4
460.964	1065.69
461.337	1087.16
461.71	1104.11
462.083	1119.7
462.456	1119.02
462.829	1102.75
463.201	1146.59
463.574	1124.9
463.947	1149.31
464.32	1156.99
464.692	1160.38
465.065	1189.76
465.438	1183.66
465.81	1248.06
466.183	1226.14
466.555	1246.03
466.928	1253.94
467.3	1237.67
467.672	1289.64
468.045	1302.75
468.417	1317.66
468.789	1297.32
469.161	1334.39
469.534	1355.4
469.906	1389.53
470.278	1382.52
470.65	1378.9
471.022	1436.08
471.394	1450.31
471.766	1426.59
472.138	1458.22
472.51	1495.29
472.882	1519.47
473.253	1564.21
473.625	1584.32
473.997	1571.67
474.369	1590.42
474.74	1621.38
475.112	1648.05
475.484	1674.49
475.855	1673.59
476.227	1701.83
476.598	1752
476.97	1784.09
477.341	1788.16
477.713	1822.73
478.084	1841.49
478.455	1891.43
478.827	1929.17
479.198	1953.58
479.569	1984.76
479.94	2028.38
480.311	2018.66
480.682	2086.68
481.053	2111.99
481.424	2175.27
481.795	2177.75
482.166	2216.85
482.537	2245.55
482.908	2292.1
483.279	2341.36
483.65	2366.22
484.021	2405.32
484.391	2432.66
484.762	2474.02
485.133	2493.9
485.503	2538.87
485.874	2585.2
486.244	2616.16
486.615	2628.59
486.985	2704.07
487.356	2760.79
487.726	2743.84
488.097	2792.65
488.467	2847.57
488.837	2882.59
489.207	2920.78
489.578	2979.31
489.948	3030.84
490.318	3050.05
490.688	3036.71
491.058	3102.93
491.428	3142.02
491.798	3180.21
492.168	3264.05
492.538	3258.4
492.908	3322.36
493.278	3342.47
493.648	3369.13
494.017	3384.95
494.387	3447.1
494.757	3456.14
495.126	3518.28
495.496	3499.75
495.866	3520.09
496.235	3597.38
496.605	3587.43
496.974	3658.39
497.344	3673.53
497.713	3683.02
498.082	3773.19
498.452	3728.9
498.821	3798.5
499.19	3767.54
499.559	3871.49
499.928	3851.61
500.298	3903.58
500.667	3890.48
501.036	3917.14
501.405	4010.25
501.774	3960.76
502.143	4026.52
502.512	3974.09
502.88	4036.46
503.249	4060.64
503.618	4117.82
503.987	4129.57
504.356	4120.3
504.724	4137.93
505.093	4145.61
505.462	4196.91
505.83	4229
506.199	4255.89
506.567	4278.72
506.936	4286.4
507.304	4370.46
507.672	4338.83
508.041	4363.68
508.409	4381.54
508.777	4447.07
509.145	4478.26
509.514	4452.04
509.882	4501.53
510.25	4471.48
510.618	4494.08
510.986	4518.71
511.354	4565.71
511.722	4566.84
512.09	4662.21
512.458	4589.89
512.826	4676.9
513.193	4642.1
513.561	4724.81
513.929	4716.22
514.297	4744.01
514.664	4750.34
515.032	4782.88
515.4	4792.15
515.767	4830.34
516.135	4851.13
516.502	4817.01
516.869	4898.36
517.237	4890.68
517.604	4900.39
517.972	4957.57
518.339	4974.97
518.706	4962.31
519.073	4978.13
519.44	5028.07
519.808	5071.69
520.175	5036.21
520.542	5109.43
520.909	5146.49
521.276	5097.68
521.643	5157.34
522.009	5188.75
522.376	5212.93
522.743	5239.14
523.11	5266.26
523.477	5305.13
523.843	5310.78
524.21	5401.17
524.577	5404.79
524.943	5383.32
525.31	5488.17
525.676	5506.25
526.043	5536.31
526.409	5569.98
526.776	5615.4
527.142	5618.34
527.508	5657.21
527.874	5679.13
528.241	5680.26
528.607	5708.51
528.973	5800.94
529.339	5757.32
529.705	5802.97
530.071	5872.35
530.437	5863.53
530.803	5943.98
531.169	5966.81
531.535	5971.1
531.901	5949.63
532.267	6054.04
532.632	6065.79
532.998	6074.37
533.364	6134.94
533.73	6069.4
534.095	6122.73
534.461	6134.26
534.826	6214.48
535.192	6202.73
535.557	6274.82
535.923	6305.55
536.288	6330.86
536.653	6372.22
537.019	6296.29
537.384	6340.58
537.749	6414.93
538.114	6376.97
538.479	6409.51
538.845	6450.64
539.21	6461.03
539.575	6501.26
539.94	6447.25
540.305	6541.03
540.67	6521.37
541.034	6578.09
541.399	6604.76
541.764	6635.49
542.129	6645.88
542.494	6708.48
542.858	6750.29
543.223	6802.26
543.587	6764.3
543.952	6842.26
544.316	6758.65
544.681	6797.97
545.045	6887.01
545.41	6904.63
545.774	6905.54
546.138	6924.97
546.503	6984.18
546.867	6960.9
547.231	7059.88
547.595	7039.09
547.959	7056.95
548.324	7062.14
548.688	7130.17
549.052	7141.01
549.416	7157.06
549.779	7216.49
550.143	7215.36
550.507	7206.55
550.871	7302.59
551.235	7291.74
551.599	7338.97
551.962	7314.57
552.326	7385.98
552.689	7471.4
553.053	7391.63
553.417	7463.49
553.78	7501.46
554.143	7457.16
554.507	7524.05
554.87	7545.07
555.234	7621.45
555.597	7569.93
555.96	7605.18
556.323	7680.43
556.686	7641.79
557.05	7727.44
557.413	7675.46
557.776	7740.55
558.139	7700.09
558.502	7786.42
558.865	7841.56
559.228	7891.05
559.59	7885.63
559.953	7927.88
560.316	8015.11
560.679	7970.6
561.041	8035.45
561.404	8049.92
561.767	8126.75
562.129	8103.47
562.492	8187.54
562.854	8155.68
563.217	8170.14
563.579	8248.78
563.941	8233.19
564.304	8344.15
564.666	8370.13
565.028	8307.54
565.39	8342.56
565.753	8384.37
566.115	8381.66
566.477	8507.3
566.839	8381.66
567.201	8504.14
567.563	8472.05
567.925	8573.52
568.287	8596.79
568.648	8584.82
569.01	8669.33
569.372	8728.54
569.734	8745.49
570.095	8802.89
570.457	8839.5
570.819	8860.06
571.18	8901.87
571.542	8876.56
571.903	8985.03
572.265	9014.18
572.626	9008.99
572.987	9047.4
573.349	9129.66
573.71	9249.43
574.071	9214.4
574.432	9242.2
574.794	9325.14
575.155	9320.62
575.516	9405.59
575.877	9429.77
576.238	9513.15
576.599	9618.24
576.96	9632.47
577.32	9739.81
577.681	9773.26
578.042	9834.73
578.403	9905.69
578.763	9973.48
579.124	10041.5
579.485	10230.88
579.845	10285.34
580.206	10361.27
580.566	10389.06
580.927	10538.66
581.287	10675.84
581.648	10762.39
582.008	10741.82
582.368	10966.22
582.728	11097.07
583.089	11245.09
583.449	11361.01
583.809	11445.98
584.169	11615.25
584.529	11730.72
584.889	11975.69
585.249	12043.03
585.609	12168
585.969	12391.95
586.329	12583.81
586.688	12723.92
587.048	12972.72
587.408	13091.14
587.768	13285.26
588.127	13462.2
588.487	13580.39
588.846	13904.68
589.206	14058.12
589.565	14192.8
589.925	14561.38
590.284	14702.85
590.643	14874.14
591.003	15206.79
591.362	15412.43
591.721	15568.14
592.08	15830.28
592.44	16145.75
592.799	16372.18
593.158	16552.29
593.517	16802.23
593.876	17126.51
594.235	17294.87
594.593	17618.7
594.952	17850.11
595.311	18128.75
595.67	18422.3
596.029	18710.2
596.387	19022.73
596.746	19166.91
597.104	19336.85
597.463	19714.92
597.822	19949.04
598.18	20149.03
598.538	20490.72
598.897	20895.45
599.255	20909.46
599.613	21480.52
599.972	21560.97
600.33	21811.36
600.688	21995.99
601.046	22340.16
601.404	22677.78
601.762	22903.08
602.12	23185.11
602.478	23365.22
602.836	23637.53
603.194	23641.14
603.552	24080.91
603.91	24214.24
604.268	24493.55
604.625	24614
604.983	25046.53
605.341	25105.29
605.698	25526.07
606.056	25720.19
606.413	25927.41
606.771	26230.91
607.128	26510.9
607.485	26457.79
607.843	26815.98
608.2	27072.24
608.557	27342.06
608.914	27355.85
609.272	27714.71
609.629	27900.47
609.986	28129.39
610.343	28308.59
610.7	28481.24
611.057	28686.43
611.414	28855.24
611.771	29047.1
612.127	29281.67
612.484	29354.21
612.841	29638.95
613.198	29823.35
613.554	30009.79
613.911	30328.2
614.267	30429.21
614.624	30527.52
614.98	30680.28
615.337	31087.95
615.693	30966.38
616.05	31065.13
616.406	31342.86
616.762	31421.96
617.118	31615.85
617.475	31667.37
617.831	31947.59
618.187	32030.98
618.543	32118.66
618.899	32411.76
619.255	32450.18
619.611	32612.66
619.967	32724.75
620.323	32844.07
620.678	32800.9
621.034	32910.73
621.39	33011.07
621.746	33195.24
622.101	33437.27
622.457	33284.05
622.812	33359.76
623.168	33657.38
623.523	33640.88
623.879	33893.76
624.234	33730.37
624.589	33890.37
624.945	33955.22
625.3	34027.31
625.655	34110.93
626.01	34192.96
626.365	34271.15
626.72	34290.36
627.075	34392.27
627.43	34427.3
627.785	34416.23
628.14	34729.89
628.495	34697.8
628.85	34619.16
629.205	34574.42
629.559	35010.56
629.914	34763.56
630.269	34828.19
630.623	34819.61
630.978	34891.47
631.332	35002.88
631.687	35012.37
632.041	34974.86
632.396	35117
632.75	34934.86
633.104	35088.07
633.459	34960.17
633.813	34953.84
634.167	34877.23
634.521	35046.04
634.875	35126.49
635.229	34977.12
635.583	34962.65
635.937	35053.27
636.291	34963.11
636.645	35034.29
636.999	34964.69
637.352	35150.9
637.706	34935.99
638.06	35089.66
638.413	35011.92
638.767	34973.28
639.121	35065.7
639.474	34857.8
639.828	34932.82
640.181	35084.68
640.534	35072.03
640.888	34966.27
641.241	34984.57
641.594	34980.51
641.947	34895.31
642.301	34899.15
642.654	34940.28
643.007	34902.32
643.36	34833.39
643.713	34727.86
644.066	34973.28
644.419	34818.93
644.771	34627.52
645.124	34286.06
645.477	34349.34
645.83	34018.05
646.182	33908.67
646.535	33844.94
646.888	34020.53
647.24	33717.26
647.593	33905.05
647.945	33933.75
648.298	33807.2
648.65	33827.99
649.002	33661.45
649.355	33867.99
649.707	33687.89
650.059	33909.8
650.411	34303.46
650.763	34508.88
651.115	34774.18
651.467	34666.39
651.819	34652.38
652.171	34471.14
652.523	34568.77
652.875	34501.65
653.227	34367.64
653.578	34541.87
653.93	34541.65
654.282	34369.45
654.633	34239.06
654.985	34305.5
655.337	34444.48
655.688	34521.76
656.039	34446.28
656.391	34183.92
656.742	34141.43
657.094	34327.64
657.445	34352.73
657.796	34375.1
658.147	34268.89
658.498	34221.88
658.849	34411.71
659.2	34316.12
659.551	34281.54
659.902	34378.71
660.253	34190.47
660.604	34243.58
660.955	34091.04
661.306	34254.42
661.656	34238.61
662.007	34123.58
662.358	34073.41
662.708	34187.08
663.059	34033.19
663.409	33989.12
663.76	34164.48
664.11	34136.91
664.461	34198.83
664.811	34168.1
665.161	34094.88
665.511	34048.55
665.862	34121.32
666.212	34264.37
666.562	34211.71
666.912	34129.23
667.262	34020.53
667.612	34179.17
667.962	34104.6
668.312	34095.56
668.662	34312.73
669.011	34089.91
669.361	34124.48
669.711	33940.08
670.06	34057.82
670.41	34039.51
670.76	33993.87
671.109	34176.23
671.459	33959.52
671.808	33889.24
672.157	33934.21
672.507	33924.72
672.856	33830.71
673.205	33837.71
673.554	33897.82
673.904	33779.63
674.253	33941.89
674.602	33921.78
674.951	33355.46
675.3	33212.87
675.649	33840.88
675.998	33738.05
676.346	33816.02
676.695	33936.24
677.044	33496.7
677.393	33647.89
677.741	33707.32
678.09	33663.48
678.438	33462.81
678.787	33691.5
679.135	33675.23
679.484	33416.48
679.832	33525.4
680.181	33413.09
680.529	33558.85
680.877	33382.58
681.225	33424.62
681.573	33475.46
681.922	33244.28
682.27	33115.25
682.618	33265.07
682.966	33191.18
683.314	33168.13
683.661	33193.66
684.009	32893.1
684.357	32810.62
684.705	32888.36
685.053	32844.97
685.4	32706.89
685.748	32736.5
686.095	32641.36
686.443	32566.11
686.79	32519.55
687.138	32555.94
687.485	32600.68
687.832	32364.98
688.18	32538.99
688.527	32201.82
688.874	32271.65
689.221	32132.45
689.568	32087.48
689.915	31874.83
690.262	32027.14
690.609	31835.5
690.956	31981.72
691.303	31809.97
691.65	31655.17
691.997	31582.18
692.344	31510.99
692.69	31436.42
693.037	31532.24
693.383	31283.88
693.73	31327.04
694.077	31108.29
694.423	31213.37
694.769	31113.04
695.116	30985.81
695.462	30977
695.808	30851.12
696.155	30889.99
696.501	30622.43
696.847	30750.34
697.193	30443.22
697.539	30544.47
697.885	30279.61
698.231	30302.89
698.577	30357.58
698.923	30242.33
699.269	30171.59
699.614	29997.13
699.96	29921.43
700.306	29991.26
700.651	29830.13
700.997	29645.28
701.342	29720.98
701.688	29641.89
702.033	29466.98
702.379	29473.08
702.724	29331.39
703.069	29505.85
703.415	29125.07
703.76	29281.67
704.105	29193.31
704.45	29141.56
704.795	28900.89
705.14	28834.91
705.485	28947.45
705.83	28788.81
706.175	28821.8
706.52	28674.01
706.865	28510.39
707.209	28520.34
707.554	28368.25
707.899	28485.76
708.243	28465.2
708.588	28260.68
708.932	28089.39
709.277	28063.4
709.621	28122.16
709.966	28029.96
710.31	27948.38
710.654	27733.24
710.998	27807.81
711.342	27876.51
711.687	27742.05
712.031	27660.25
712.375	27619.12
712.719	27563.3
713.063	27451.89
713.407	27584.09
713.75	27367.6
714.094	27410.99
714.438	27303.42
714.782	27365.34
715.125	27135.52
715.469	27234.5
715.812	27073.37
716.156	26947.72
716.499	27022.3
716.843	26994.73
717.186	26851.68
717.53	26885.13
717.873	26967.38
718.216	26873.83
718.559	26637.45
718.902	26596.09
719.246	26554.74
719.589	26527.17
719.932	26325.59
720.275	26308.42
720.617	26416.21
720.96	26326.95
721.303	26285.59
721.646	26260.51
721.989	26052.83
722.331	26238.14
722.674	26118.14
723.016	26154.75
723.359	26143.68
723.701	26131.7
724.044	25921.08
724.386	25861.65
724.729	26053.51
725.071	25812.61
725.413	25870.46
725.755	25896.45
726.097	25726.06
726.439	25596.57
726.782	25603.58
727.124	25617.59
727.465	25552.28
727.807	25571.94
728.149	25482.23
728.491	25473.41
728.833	25456.01
729.175	25292.85
729.516	25333.53
729.858	25197.71
730.199	25378.95
730.541	25190.71
730.882	25222.57
731.224	25244.72
731.565	25099.18
731.906	25157.94
732.248	25067.1
732.589	24989.36
732.93	24950.26
733.271	24886.08
733.612	24952.97
733.953	24874.56
734.294	24884.5
734.635	24762.47
734.976	24838.85
735.317	24671.17
735.658	24618.52
735.999	24749.14
736.339	24626.65
736.68	24729.48
737.021	24513.66
737.361	24416.04
737.702	24613.1
738.042	24446.09
738.383	24427.11
738.723	24450.61
739.063	24320.67
739.404	24544.62
739.744	24322.26
740.084	24195.71
740.424	24281.35
740.764	24179.66
741.104	24095.14
741.444	24108.7
741.784	24029.16
742.124	24093.79
742.464	24096.27
742.804	24036.61
743.143	23950.06
743.483	23925.66
743.823	23795.04
744.162	23780.12
744.502	23921.81
744.841	23706.23
745.181	23762.04
745.52	23771.99
745.86	23770.18
746.199	23681.14
746.538	23705.1
746.877	23593.69
747.216	23689.05
747.556	23535.16
747.895	23633.69
748.234	23381.49
748.573	23481.37
748.911	23388.95
749.25	23432.34
749.589	23384.43
749.928	23322.28
750.267	23348.5
750.605	23369.06
750.944	23218.33
751.283	23126.13
751.621	23154.83
751.96	22973.82
752.298	23012.23
752.636	23017.88
752.975	22918.68
753.313	22894.27
753.651	22956.87
753.989	22843.88
754.327	22782.64
754.666	22707.61
755.004	22682.53
755.342	22778.57
755.679	22588.29
756.017	22549.2
756.355	22529.08
756.693	22452.7
757.031	22460.38
757.368	22428.29
757.706	22349.65
758.044	22241.86
758.381	22235.98
758.719	22207.51
759.056	22160.96
759.394	22127.06
759.731	21973.39
760.068	22039.38
760.405	21947.63
760.743	21820.63
761.08	21801.64
761.417	21702.89
761.754	21676
762.091	21767.97
762.428	21624.47
762.765	21499.28
763.102	21477.58
763.438	21321.2
763.775	21189.23
764.112	21229.46
764.449	21283.47
764.785	21179.29
765.122	21064.04
765.458	20955.79
765.795	20949.92
766.131	20859.97
766.467	20762.12
766.804	20760.77
767.14	20715.12
767.476	20621.56
767.812	20506.76
768.148	20560.55
768.485	20331.4
768.821	20380.89
769.157	20311.51
769.492	20338.41
769.828	20228.58
770.164	20063.38
770.5	19968.25
770.836	19991.07
771.171	19924.63
771.507	19847.8
771.842	19768.03
772.178	19780.45
772.513	19613.23
772.849	19643.06
773.184	19561.03
773.519	19595.83
773.855	19329.17
774.19	19387.47
774.525	19222.96
774.86	19097.53
775.195	19132.79
775.53	19081.26
775.865	18866.58
776.2	18940.02
776.535	18675.85
776.87	18784.1
777.205	18740.93
777.539	18647.83
777.874	18707.49
778.209	18394.95
778.543	18444.9
778.878	18322.64
779.212	18369.64
779.547	18166.03
779.881	18119.48
780.215	17989.54
780.55	18104.34
780.884	17889.2
781.218	18068.64
781.552	18037.68
781.886	17951.8
782.22	17797.46
782.554	17741.86
782.888	17560.17
783.222	17490.35
783.556	17519.5
783.889	17336.68
784.223	17226.62
784.557	17231.14
784.89	17240.86
785.224	17175.1
785.557	17109.56
785.891	17031.15
786.224	16997.48
786.558	16878.84
786.891	16740.53
787.224	16757.48
787.557	16688.11
787.891	16683.36
788.224	16577.6
788.557	16582.8
788.89	16515.23
789.223	16490.37
789.556	16370.83
789.888	16357.04
790.221	16282.47
790.554	16201.11
790.887	16179.19
791.219	16104.39
791.552	16081.79
791.884	16009.25
792.217	15922.93
792.549	15861.01
792.882	15796.38
793.214	15715.48
793.546	15860.56
793.879	15697.62
794.211	15545.99
794.543	15584.41
794.875	15567.23
795.207	15548.02
795.539	15414.02
795.871	15450.17
796.203	15258.54
796.535	15192.1
796.867	15228.26
797.198	15167.24
797.53	15131.54
797.862	15050.86
798.193	15016.51
798.525	14906.91
798.856	15028.94
799.188	14819.23
799.519	14783.75
799.85	14780.59
800.182	14672.34
800.513	14715.28
800.844	14652.91
801.175	14684.32
801.506	14621.27
801.837	14462.63
802.168	14469.63
802.499	14459.69
802.83	14276.87
803.161	14286.81
803.491	14303.76
803.822	14290.88
804.153	14175.63
804.483	14128.63
804.814	14022.41
805.145	14039.36
805.475	14071.9
805.805	14013.37
806.136	13926.37
806.466	13998.23
806.796	13911
807.126	13809.76
807.457	13767.51
807.787	13778.13
808.117	13715.3
808.447	13666.04
808.777	13781.52
809.107	13626.04
809.436	13557.79
809.766	13583.33
810.096	13501.3
810.426	13381.3
810.755	13435.76
811.085	13456.1
811.414	13321.42
811.744	13340.17
812.073	13271.7
812.403	13275.99
812.732	13222.21
813.061	13205.71
813.39	13076.9
813.719	13121.65
814.049	13210.01
814.378	12999.16
814.707	13076.68
815.036	13057.02
815.365	12916.91
815.693	12801.88
816.022	12825.84
816.351	12798.72
816.68	12695.22
817.008	12753.52
817.337	12663.35
817.665	12655.44
817.994	12777.93
818.322	12674.2
818.651	12590.81
818.979	12576.8
819.307	12624.94
819.636	12521.21
819.964	12464.49
820.292	12498.39
820.62	12496.35
820.948	12449.35
821.276	12500.87
821.604	12453.64
821.932	12368.9
822.259	12495.45
822.587	12430.59
822.915	12362.34
823.243	12527.54
823.57	12385.17
823.898	12363.7
824.225	12291.84
824.553	12429.46
824.88	12377.26
825.207	12408.44
825.535	12321.22
825.862	12389.01
826.189	12318.96
826.516	12350.59
826.843	12450.03
827.17	12353.53
827.497	12428.33
827.824	12344.27
828.151	12414.09
828.478	12344.04
828.805	12371.61
829.131	12319.41
829.458	12350.59
829.785	12301.33
830.111	12358.95
830.438	12403.93
830.764	12373.87
831.09	12251.61
831.417	12278.96
831.743	12363.7
832.069	12248.45
832.395	12287.32
832.722	12248.22
833.048	12270.6
833.374	12294.55
833.7	12185.17
834.026	12206.87
834.351	12208
834.677	12215.91
835.003	12257.94
835.329	12231.27
835.654	12170.49
835.98	12170.49
836.306	12175.46
836.631	12122.12
836.956	12106.76
837.282	12071.05
837.607	12064.05
837.932	11968
838.258	12071.5
838.583	11994.67
838.908	11888.91
839.233	12002.13
839.558	11905.63
839.883	11904.28
840.208	11868.35
840.533	11809.59
840.858	11817.5
841.182	11819.99
841.507	11799.42
841.832	11729.14
842.156	11734.11
842.481	11756.94
842.805	11668.35
843.13	11665.19
843.454	11648.46
843.778	11650.5
844.103	11518.07
844.427	11566.89
844.751	11573.89
845.075	11545.64
845.399	11481.46
845.723	11452.76
846.047	11395.59
846.371	11383.16
846.695	11325.99
847.019	11253.67
847.343	11224.3
847.666	11110.17
847.99	11079.67
848.313	11084.19
848.637	11008.03
848.96	11065.43
849.284	10897.98
849.607	10860.91
849.931	10882.84
850.254	10824.53
850.577	10747.47
850.9	10650.53
851.223	10718.77
851.546	10578.21
851.869	10494.14
852.192	10617.76
852.515	10460.47
852.838	10489.4
853.161	10499.34
853.483	10379.35
853.806	10352.68
854.129	10368.72
854.451	10280.82
854.774	10239.69
855.096	10229.52
855.419	10178
855.741	10179.8
856.063	10119.01
856.385	10142.29
856.708	10070.65
857.03	10012.12
857.352	10036.76
857.674	10036.98
857.996	9955.18
858.318	9903.2
858.64	9986.14
858.961	9860.72
859.283	9796.31
859.605	9784.11
859.926	9789.53
860.248	9838.12
860.57	9743.43
860.891	9757.89
861.212	9669.08
861.534	9617.11
861.855	9640.61
862.176	9590.89
862.498	9630.44
862.819	9680.61
863.14	9579.82
863.461	9542.98
863.782	9495.75
864.103	9555.41
864.424	9489.88
864.745	9469.09
865.065	9459.82
865.386	9429.77
865.707	9404
866.027	9431.8
866.348	9405.36
866.668	9365.36
866.989	9335.76
867.309	9226.38
867.63	9323.33
867.95	9310.22
868.27	9277.68
868.59	9336.66
868.91	9192.03
869.23	9235.2
869.55	9222.31
869.87	9243.1
870.19	9147.74
870.51	9171.24
870.83	9210.79
871.15	9049.89
871.469	9125.59
871.789	9078.81
872.109	9168.53
872.428	9097.8
872.748	9143.9
873.067	9038.14
873.386	9054.41
873.706	9017.12
874.025	8997.24
874.344	8981.19
874.663	8940.51
874.982	8980.96
875.301	8956.56
875.62	8924.47
875.939	8930.8
876.258	8899.84
876.577	8878.14
876.896	8860.52
877.214	8849.89
877.533	8807.64
877.852	8918.59
878.17	8780.74
878.489	8817.58
878.807	8804.92
879.125	8823.68
879.444	8846.73
879.762	8778.26
880.08	8746.85
880.398	8798.6
880.716	8650.58
881.034	8677.24
881.352	8721.76
881.67	8624.82
881.988	8657.58
882.306	8648.77
882.624	8583.23
882.941	8544.59
883.259	8558.38
883.577	8485.16
883.894	8495.55
884.212	8499.17
884.529	8411.26
884.846	8505.95
885.164	8492.16
885.481	8397.7
885.798	8419.17
886.115	8368.78
886.432	8292.17
886.75	8339.4
887.067	8338.04
887.383	8269.57
887.7	8292.62
888.017	8269.8
888.334	8269.34
888.651	8210.14
888.967	8195.45
889.284	8177.37
889.6	8135.56
889.917	8119.74
890.233	8065.96
890.55	8066.41
890.866	8110.93
891.182	8001.33
891.498	8054.89
891.815	8038.39
892.131	8000.65
892.447	7917.72
892.763	7948
893.079	7896.93
893.395	7884.95
893.71	7843.37
894.026	7794.33
894.342	7832.29
894.657	7820.77
894.973	7707.1
895.289	7759.75
895.604	7708.23
895.92	7686.99
896.235	7590.27
896.55	7656.03
896.865	7584.39
897.181	7516.14
897.496	7533.54
897.811	7543.71
898.126	7524.96
898.441	7515.24
898.756	7437.5
899.071	7382.81
899.386	7462.36
899.7	7377.16
900.015	7350.27
900.33	7302.82
900.644	7234.12
900.959	7269.6
901.273	7249.94
901.588	7236.15
901.902	7200.45
902.216	7141.46
902.531	7180.11
902.845	7129.26
903.159	7065.76
903.473	7075.48
903.787	7079.32
904.101	7021.92
904.415	7025.99
904.729	6987.12
905.042	6982.82
905.356	6919.1
905.67	6861.02
905.984	6907.35
906.297	6829.83
906.611	6780.8
906.924	6774.69
907.237	6791.87
907.551	6727.46
907.864	6773.11
908.177	6747.12
908.491	6716.62
908.804	6584.87
909.117	6637.75
909.43	6626.45
909.743	6548.94
910.056	6516.4
910.368	6486.11
910.681	6510.07
910.994	6474.59
911.307	6442.27
911.619	6417.19
911.932	6348.72
912.244	6296.29
912.557	6339.45
912.869	6330.86
913.181	6273.24
913.494	6316.18
913.806	6250.64
914.118	6203.86
914.43	6205.67
914.742	6144.88
915.054	6125.22
915.366	6143.75
915.678	6105.11
915.99	6044.32
916.302	6031.44
916.613	5979.01
916.925	5985.34
917.236	5966.81
917.548	5941.72
917.859	5994.83
918.171	5855.4
918.482	5847.04
918.794	5821.27
919.105	5849.52
919.416	5781.27
919.727	5813.14
920.038	5730.2
920.349	5678.9
920.66	5656.31
920.971	5665.8
921.282	5642.3
921.593	5585.57
921.903	5572.01
922.214	5530.89
922.525	5547.61
922.835	5506.48
923.146	5468.29
923.456	5473.03
923.767	5441.17
924.077	5488.4
924.387	5438.91
924.697	5400.27
925.008	5376.09
925.318	5345.35
925.628	5357.78
925.938	5327.5
926.248	5262.19
926.558	5264.68
926.867	5206.83
927.177	5212.02
927.487	5150.78
927.796	5149.65
928.106	5136.32
928.416	5080.5
928.725	5122.99
929.034	5071.01
929.344	5082.08
929.653	5099.71
929.962	4993.27
930.271	5007.51
930.581	4979.26
930.89	4920.51
931.199	4911.01
931.508	4931.81
931.817	4886.16
932.125	4854.75
932.434	4886.38
932.743	4775.88
933.051	4833.5
933.36	4768.42
933.669	4787.4
933.977	4740.4
934.286	4736.33
934.594	4739.72
934.902	4694.98
935.21	4699.04
935.519	4632.38
935.827	4641.19
936.135	4657.46
936.443	4570.23
936.751	4587.18
937.059	4546.05
937.367	4577.92
937.674	4531.59
937.982	4490.69
938.29	4518.03
938.597	4499.95
938.905	4452.27
939.213	4384.02
939.52	4373.85
939.827	4392.38
940.135	4339.5
940.442	4300.41
940.749	4324.59
941.056	4338.15
941.363	4257.47
941.67	4264.7
941.977	4273.29
942.284	4199.17
942.591	4253.18
942.898	4193.52
943.205	4219.06
943.511	4148.55
943.818	4171.15
944.125	4133.41
944.431	4150.13
944.738	4100.64
945.044	4072.62
945.35	4031.26
945.657	4032.17
945.963	4040.98
946.269	4008.21
946.575	4020.64
946.881	4007.99
947.187	3927.09
947.493	3968.44
947.799	3935
948.105	3886.18
948.41	3856.58
948.716	3893.19
949.022	3846.86
949.327	3856.13
949.633	3817.71
949.938	3822.46
950.244	3800.54
950.549	3764.38
950.854	3758.05
951.16	3770.25
951.465	3697.26
951.77	3716.47
952.075	3708.11
952.38	3675.34
952.685	3671.05
952.99	3652.97
953.294	3634.66
953.599	3622.69
953.904	3600.77
954.209	3572.29
954.513	3566.87
954.818	3559.64
955.122	3521.67
955.426	3526.64
955.731	3496.59
956.035	3480.77
956.339	3513.76
956.643	3488.45
956.948	3444.16
957.252	3446.42
957.556	3439.42
957.86	3413.43
958.163	3406.42
958.467	3379.98
958.771	3408.23
959.075	3360.32
959.378	3340.43
959.682	3308.12
959.985	3285.97
960.289	3250.27
960.592	3271.28
960.896	3268.35
961.199	3250.95
961.502	3244.39
961.805	3239.87
962.108	3211.85
962.411	3202.59
962.714	3195.81
963.017	3180.44
963.32	3204.62
963.623	3180.21
963.926	3167.11
964.228	3124.85
964.531	3108.35
964.833	3076.94
965.136	3064.28
965.438	3047.56
965.741	3068.58
966.043	3046.66
966.345	3015.92
966.648	3029.93
966.95	3043.95
967.252	2994.68
967.554	2987.22
967.856	2962.59
968.158	2938.19
968.46	2971.86
968.761	2912.42
969.063	2898.41
969.365	2911.52
969.666	2883.05
969.968	2878.53
970.269	2850.5
970.571	2849.6
970.872	2862.26
971.174	2777.96
971.475	2833.33
971.776	2781.13
972.077	2791.75
972.378	2791.3
972.679	2742.26
972.98	2769.38
973.281	2723.95
973.582	2699.32
973.883	2717.85
974.183	2697.29
974.484	2685.31
974.785	2660.45
975.085	2676.72
975.386	2666.33
975.686	2671.75
975.986	2629.94
976.287	2617.52
976.587	2598.08
976.887	2622.04
977.187	2608.48
977.487	2597.63
977.787	2560.79
978.087	2543.85
978.387	2527.8
978.687	2558.99
978.987	2553.34
979.286	2502.26
979.586	2520.57
979.885	2495.94
980.185	2483.73
980.484	2461.14
980.784	2429.5
981.083	2443.96
981.382	2396.05
981.682	2420.68
981.981	2427.69
982.28	2402.83
982.579	2375.49
982.878	2393.79
983.177	2351.76
983.475	2370.52
983.774	2351.31
984.073	2389.27
984.372	2338.88
984.67	2314.7
984.969	2314.93
985.267	2300.24
985.566	2333.23
985.864	2290.07
986.162	2274.02
986.461	2261.37
986.759	2263.17
987.057	2248.49
987.355	2257.75
987.653	2212.55
987.951	2222.5
988.249	2229.96
988.547	2236.96
988.844	2156.51
989.142	2175.49
989.44	2211.2
989.737	2153.35
990.035	2143.4
990.332	2115.38
990.63	2126.68
990.927	2147.47
991.224	2085.55
991.521	2085.78
991.819	2064.99
992.116	2071.99
992.413	2057.08
992.71	2052.56
993.006	2072.9
993.303	2045.55
993.6	2016.18
993.897	2042.62
994.193	2029.96
994.49	2024.76
994.787	2007.59
995.083	1982.96
995.379	2018.21
995.676	1978.66
995.972	1985.67
996.268	1968.04
996.565	1963.52
996.861	1947.7
997.157	1894.37
997.453	1906.12
997.749	1882.17
998.044	1886.46
998.34	1921.26
998.636	1877.65
998.932	1888.27
999.227	1858.89
999.523	1883.07
999.818	1862.96
1000.114	1855.28
1000.409	1803.07
1000.704	1801.04
1001	1797.2
1001.295	1799.23
1001.59	1789.52
1001.885	1780.7
1002.18	1753.36
1002.475	1749.29
1002.77	1766.92
1003.065	1738.22
1003.359	1733.02
1003.654	1752.45
1003.949	1722.62
1004.243	1718.1
1004.538	1678.11
1004.832	1681.27
1005.127	1675.62
1005.421	1671.1
1005.715	1662.51
1006.009	1658.9
1006.304	1677.43
1006.598	1645.34
1006.892	1631.78
1007.186	1615.51
1007.48	1621.61
1007.773	1598.11
1008.067	1599.92
1008.361	1618.45
1008.655	1565.57
1008.948	1559.01
1009.242	1572.35
1009.535	1567.83
1009.829	1558.56
1010.122	1529.18
1010.415	1528.96
1010.708	1527.83
1011.001	1533.48
1011.295	1476.98
1011.588	1473.59
1011.881	1453.48
1012.173	1456.19
1012.466	1436.08
1012.759	1450.09
1013.052	1465.46
1013.344	1448.28
1013.637	1437.43
1013.93	1434.04
1014.222	1423.65
1014.514	1414.61
1014.807	1375.97
1015.099	1412.58
1015.391	1389.75
1015.683	1390.88
1015.976	1386.81
1016.268	1357.44
1016.56	1317.89
1016.851	1338.91
1017.143	1334.39
1017.435	1323.31
1017.727	1330.32
1018.018	1317.21
1018.31	1344.78
1018.602	1305.91
1018.893	1289.64
1019.185	1300.26
1019.476	1269.53
1019.767	1263.88
1020.058	1270.66
1020.35	1265.01
1020.641	1269.53
1020.932	1220.72
1021.223	1230.66
1021.514	1222.07
1021.804	1223.2
1022.095	1218.68
1022.386	1210.1
1022.677	1191.79
1022.967	1158.8
1023.258	1182.98
1023.548	1158.12
1023.839	1141.4
1024.129	1154.96
1024.419	1152.7
1024.709	1133.94
1025	1140.04
1025.29	1119.25
1025.58	1134.39
1025.87	1111.34
1026.16	1119.25
1026.449	1082.87
1026.739	1093.49
1027.029	1100.95
1027.319	1111.34
1027.608	1086.71
1027.898	1069.08
1028.187	1068.86
1028.477	1052.13
1028.766	1029.08
1029.055	1019.59
1029.344	1062.98
1029.634	1003.1
1029.923	1045.35
1030.212	1002.42
1030.501	1032.92
1030.79	1004
1031.078	1005.58
1031.367	982.3
1031.656	955.64
1031.945	1003.1
1032.233	983.43
1032.522	948.86
1032.81	961.06
1033.099	965.36
1033.387	955.41
1033.675	949.31
1033.963	943.44
1034.251	916.09
1034.54	898.69
1034.828	938.24
1035.116	900.72
1035.403	888.75
1035.691	892.82
1035.979	888.97
1036.267	868.86
1036.554	877.45
1036.842	874.28
1037.129	862.76
1037.417	868.86
1037.704	853.49
1037.992	872.03
1038.279	844.23
1038.566	858.24
1038.853	858.24
1039.14	858.24
