Data from hue_280_FLMS001491_00080.txt Node
Date: Tue Feb 07 15:55:46 GMT 2017
User: dcchb
Spectrometer: FLMS00149
Trigger mode: 0
Integration Time (sec): 2.000000E-2
Scans to average: 10
Electric dark correction enabled: true
Nonlinearity correction enabled: false
Boxcar width: 0
XAxis mode: Wavelengths
Number of Pixels in Spectrum: 2048
>>>>>Begin Spectral Data<<<<<
341.393	-16.03
341.776	-16.03
342.16	-16.03
342.543	-60.55
342.927	-61
343.31	-57.39
343.693	-75.46
344.077	-62.81
344.46	-68.68
344.843	-46.76
345.226	-36.37
345.61	-18.97
345.993	-32.08
346.376	-8.57
346.759	16.28
347.142	21.93
347.525	52.89
347.908	38.88
348.291	83.63
348.674	89.96
349.057	103.51
349.44	129.28
349.823	141.03
350.206	172.44
350.588	194.59
350.971	209.05
351.354	229.61
351.737	241.82
352.119	250.85
352.502	264.87
352.884	251.31
353.267	286.33
353.65	299.89
354.032	274.81
354.414	298.99
354.797	306.22
355.179	307.8
355.562	316.62
355.944	322.27
356.326	314.13
356.709	348.25
357.091	325.88
357.473	338.54
357.855	338.99
358.238	331.76
358.62	328.82
359.002	353.23
359.384	336.95
359.766	341.47
360.148	322.94
360.53	337.41
360.912	328.59
361.294	327.24
361.676	335.6
362.057	339.21
362.439	331.76
362.821	321.36
363.203	333.56
363.584	338.08
363.966	305.54
364.348	317.52
364.729	310.06
365.111	309.16
365.493	303.73
365.874	328.14
366.256	329.27
366.637	321.36
367.019	320.23
367.4	300.8
367.781	310.29
368.163	298.76
368.544	302.38
368.925	314.58
369.306	304.41
369.688	286.33
370.069	324.53
370.45	322.94
370.831	300.57
371.212	322.49
371.593	319.33
371.974	318.2
372.355	310.97
372.736	295.37
373.117	324.98
373.498	325.88
373.879	318.88
374.26	319.1
374.641	311.19
375.021	332.21
375.402	317.97
375.783	294.7
376.163	324.75
376.544	323.85
376.925	332.43
377.305	304.86
377.686	320.68
378.066	325.2
378.447	322.72
378.827	324.07
379.208	341.47
379.588	338.31
379.968	343.51
380.349	319.55
380.729	342.83
381.109	343.51
381.489	336.73
381.87	326.79
382.25	346.67
382.63	326.79
383.01	348.25
383.39	337.41
383.77	339.21
384.15	355.03
384.53	330.63
384.91	363.85
385.29	360.91
385.67	348.03
386.049	342.6
386.429	349.38
386.809	327.46
387.189	338.31
387.568	349.84
387.948	370.85
388.328	343.96
388.707	352.77
389.087	353
389.466	342.15
389.846	359.33
390.225	382.6
390.605	377.41
390.984	371.08
391.363	374.92
391.743	391.64
392.122	373.11
392.501	376.95
392.881	354.81
393.26	395.71
393.639	384.18
394.018	373.56
394.397	395.94
394.776	404.3
395.155	397.97
395.534	396.61
395.913	395.48
396.292	392.77
396.671	397.97
397.05	385.77
397.429	403.85
397.808	404.98
398.186	379.44
398.565	407.91
398.944	423.05
399.323	416.27
399.701	400.46
400.08	397.07
400.458	427.8
400.837	441.81
401.215	421.92
401.594	414.01
401.972	413.11
402.351	426.44
402.729	404.3
403.107	439.1
403.486	441.58
403.864	421.92
404.242	434.13
404.62	447.69
404.999	434.35
405.377	435.03
405.755	452.66
406.133	456.27
406.511	452.43
406.889	472.32
407.267	467.35
407.645	485.2
408.023	463.5
408.401	491.53
408.779	506.44
409.156	500.57
409.534	494.46
409.912	497.85
410.29	544.86
410.667	518.87
411.045	524.52
411.422	532.66
411.8	556.61
412.178	532.88
412.555	560.45
412.933	558.87
413.31	550.73
413.687	550.06
414.065	581.69
414.442	583.73
414.819	596.83
415.197	578.76
415.574	606.33
415.951	610.39
416.328	611.75
416.705	621.69
417.082	615.59
417.46	636.38
417.837	645.19
418.214	647.23
418.591	661.69
418.967	655.36
419.344	679.77
419.721	670.28
420.098	690.84
420.475	681.8
420.852	704.4
421.228	709.15
421.605	711.18
421.982	732.2
422.358	721.13
422.735	740.33
423.111	754.57
423.488	770.39
423.864	792.76
424.241	797.28
424.617	804.06
424.994	807.22
425.37	812.87
425.746	809.71
426.123	821.69
426.499	828.92
426.875	860.1
427.251	877.05
427.627	866.88
428.003	864.17
428.379	860.78
428.756	892.42
429.132	900.1
429.507	921.8
429.883	925.64
430.259	932.64
430.635	955.7
431.011	952.53
431.387	976.94
431.763	968.58
432.138	988.46
432.514	1031.17
432.89	1007.22
433.265	1052.19
433.641	1052.42
434.016	1055.58
434.392	1073.88
434.767	1110.27
435.143	1117.05
435.518	1102.58
435.894	1148.91
436.269	1143.03
436.644	1141.68
437.02	1192.07
437.395	1188.91
437.77	1177.38
438.145	1205.18
438.52	1237.5
438.895	1212.19
439.271	1257.16
439.646	1253.31
440.021	1297.83
440.395	1282.47
440.77	1297.16
441.145	1290.6
441.52	1289.92
441.895	1319.3
442.27	1331.5
442.645	1341.45
443.019	1354.1
443.394	1353.2
443.769	1380.54
444.143	1364.27
444.518	1377.38
444.892	1404.05
445.267	1412.63
445.641	1398.62
446.016	1431.39
446.39	1441.33
446.764	1396.36
447.139	1414.21
447.513	1458.05
447.887	1435
448.262	1447.43
448.636	1450.37
449.01	1482.01
449.384	1489.69
449.758	1471.39
450.132	1500.54
450.506	1503.48
450.88	1529.47
451.254	1525.4
451.628	1554.32
452.002	1576.7
452.376	1550.48
452.75	1583.02
453.123	1561.1
453.497	1609.46
453.871	1618.95
454.244	1637.26
454.618	1654.89
454.992	1650.14
455.365	1655.56
455.739	1673.19
456.112	1719.52
456.486	1715
456.859	1712.06
457.232	1719.74
457.606	1725.84
457.979	1771.04
458.352	1813.75
458.725	1792.74
459.099	1807.2
459.472	1811.04
459.845	1825.28
460.218	1850.59
460.591	1855.56
460.964	1845.62
461.337	1890.36
461.71	1944.14
462.083	1955.44
462.456	1932.84
462.829	1953.64
463.201	2009.9
463.574	1964.93
463.947	2012.84
464.32	2046.74
464.692	2050.36
465.065	2074.54
465.438	2088.77
465.81	2119.73
466.183	2117.7
466.555	2164.93
466.928	2165.83
467.3	2167.64
467.672	2216
468.045	2243.57
468.417	2267.98
468.789	2256.9
469.161	2283.34
469.534	2289.67
469.906	2316.34
470.278	2350.23
470.65	2378.26
471.022	2402.66
471.394	2463.45
471.766	2425.71
472.138	2483.56
472.51	2530.8
472.882	2518.37
473.253	2554.75
473.625	2570.79
473.997	2627.06
474.369	2639.27
474.74	2643.33
475.112	2703.22
475.484	2719.72
475.855	2770.11
476.227	2752.48
476.598	2822.09
476.97	2865.7
477.341	2924.23
477.713	2952.7
478.084	2906.38
478.455	3024.57
478.827	3009.2
479.198	3037.22
479.569	3060.05
479.94	3134.39
480.311	3166.94
480.682	3195.41
481.053	3276.31
481.424	3308.63
481.795	3333.03
482.166	3373.71
482.537	3382.52
482.908	3425.23
483.279	3473.6
483.65	3517.66
484.021	3535.97
484.391	3635.17
484.762	3628.62
485.133	3628.62
485.503	3688.96
485.874	3711.55
486.244	3765.34
486.615	3799.69
486.985	3846.24
487.356	3913.36
487.726	3908.84
488.097	3975.5
488.467	3999.01
488.837	4065.22
489.207	4093.47
489.578	4142.96
489.948	4196.29
490.318	4214.37
490.688	4176.85
491.058	4275.61
491.428	4300.01
491.798	4323.97
492.168	4384.53
492.538	4385.66
492.908	4467.02
493.278	4501.14
493.648	4495.72
494.017	4584.98
494.387	4569.61
494.757	4615.03
495.126	4661.59
495.496	4651.42
495.866	4613.9
496.235	4648.03
496.605	4749.49
496.974	4732.09
497.344	4815.25
497.713	4773.9
498.082	4857.29
498.452	4876.95
498.821	4870.85
499.19	4916.27
499.559	4922.14
499.928	4958.3
500.298	4954.01
500.667	5078.07
501.036	5007.11
501.405	5092.76
501.774	5048.24
502.143	5036.27
502.512	5064.97
502.88	5082.37
503.249	5100.67
503.618	5131.18
503.987	5125.08
504.356	5184.51
504.724	5162.82
505.093	5209.14
505.462	5232.87
505.83	5193.1
506.199	5263.6
506.567	5344.73
506.936	5311.29
507.304	5368.69
507.672	5330.5
508.041	5373.66
508.409	5388.12
508.777	5386.54
509.145	5421.79
509.514	5436.26
509.882	5451.62
510.25	5455.46
510.618	5488.91
510.986	5519.19
511.354	5486.65
511.722	5604.61
512.09	5553.99
512.458	5558.96
512.826	5576.82
513.193	5648.68
513.561	5665.4
513.929	5684.38
514.297	5703.14
514.664	5735.23
515.032	5736.13
515.4	5777.72
515.767	5770.48
516.135	5750.82
516.502	5730.48
516.869	5789.24
517.237	5838.73
517.604	5796.7
517.972	5804.16
518.339	5845.96
518.706	5846.87
519.073	5809.35
519.44	5879.18
519.808	5941.1
520.175	5902.68
520.542	5992.17
520.909	5927.77
521.276	6006.41
521.643	6036.24
522.009	6040.99
522.376	6050.7
522.743	6072.4
523.11	6170.02
523.477	6139.97
523.843	6145.84
524.21	6159.17
524.577	6215.67
524.943	6269.45
525.31	6248.66
525.676	6310.13
526.043	6354.65
526.409	6386.29
526.776	6387.64
527.142	6393.74
527.508	6408.66
527.874	6490.01
528.241	6447.53
528.607	6490.24
528.973	6499.05
529.339	6480.07
529.705	6593.51
530.071	6573.17
530.437	6613.63
530.803	6648.88
531.169	6642.78
531.535	6599.84
531.901	6677.13
532.267	6686.84
532.632	6678.48
532.998	6716.9
533.364	6788.08
533.73	6768.2
534.095	6823.11
534.461	6799.61
534.826	6847.97
535.192	6885.48
535.557	6851.13
535.923	6864.24
536.288	6886.16
536.653	6938.36
537.019	6885.26
537.384	6875.77
537.749	6851.59
538.114	6994.18
538.479	6959.15
538.845	6969.1
539.21	6967.51
539.575	7036.89
539.94	6989.89
540.305	7021.52
540.67	7019.49
541.034	7060.17
541.399	7112.14
541.764	7080.28
542.129	7147.85
542.494	7120.05
542.858	7109.21
543.223	7198.92
543.587	7187.62
543.952	7214.74
544.316	7187.85
544.681	7137.91
545.045	7196.89
545.41	7271.24
545.774	7212.93
546.138	7268.52
546.503	7281.86
546.867	7306.49
547.231	7275.3
547.595	7336.77
547.959	7304.68
548.324	7381.29
548.688	7369.09
549.052	7340.16
549.416	7394.85
549.779	7360.05
550.143	7376.09
550.507	7446.82
550.871	7481.4
551.235	7434.39
551.599	7469.87
551.962	7476.2
552.326	7488.4
552.689	7526.6
553.053	7464
553.417	7551.68
553.78	7561.85
554.143	7594.16
554.507	7559.82
554.87	7603.43
555.234	7704.22
555.597	7694.95
555.96	7627.38
556.323	7689.08
556.686	7679.13
557.05	7695.41
557.413	7714.16
557.776	7715.97
558.139	7783.09
558.502	7795.97
558.865	7827.83
559.228	7868.73
559.59	7854.27
559.953	7802.52
560.316	7925.46
560.679	7894.72
561.041	7979.47
561.404	7987.15
561.767	8023.31
562.129	8014.72
562.492	8066.24
562.854	8051.33
563.217	8041.16
563.579	8092.46
563.941	8087.94
564.304	8165.9
564.666	8204.09
565.028	8246.35
565.39	8193.02
565.753	8249.97
566.115	8313.02
566.477	8327.48
566.839	8351.21
567.201	8370.64
567.563	8388.95
567.925	8421.94
568.287	8404.09
568.648	8522.95
569.01	8500.36
569.372	8546.91
569.734	8537.87
570.095	8597.3
570.457	8676.4
570.819	8703.51
571.18	8673.46
571.542	8707.13
571.903	8728.82
572.265	8769.05
572.626	8788.48
572.987	8830.74
573.349	8886.56
573.71	8869.61
574.071	8907.12
574.432	8970.4
574.794	9028.93
575.155	8999.33
575.516	9010.85
575.877	9073
576.238	9162.71
576.599	9157.06
576.96	9221.69
577.32	9185.31
577.681	9276.61
578.042	9338.75
578.403	9341.01
578.763	9355.47
579.124	9443.16
579.485	9456.49
579.845	9506.66
580.206	9530.39
580.566	9571.29
580.927	9650.16
581.287	9672.08
581.648	9691.74
582.008	9750.27
582.368	9863.03
582.728	9872.52
583.089	9860.09
583.449	9921.34
583.809	10069.58
584.169	9966.08
584.529	10094.44
584.889	10284.04
585.249	10183.25
585.609	10238.61
585.969	10330.59
586.329	10351.15
586.688	10430.7
587.048	10513.18
587.408	10518.83
587.768	10610.58
588.127	10675.89
588.487	10677.7
588.846	10893.06
589.206	10818.03
589.565	10894.42
589.925	10997.47
590.284	11040.4
590.643	11247.63
591.003	11302.32
591.362	11332.6
591.721	11436.1
592.08	11486.94
592.44	11526.49
592.799	11584.57
593.158	11588.64
593.517	11703.21
593.876	11790.44
594.235	11829.99
594.593	11859.14
594.952	12034.05
595.311	12065.23
595.67	12031.34
596.029	12247.83
596.387	12301.39
596.746	12392
597.104	12317.2
597.463	12435.62
597.822	12523.53
598.18	12448.5
598.538	12574.82
598.897	12710.87
599.255	12607.37
599.613	12875.61
599.972	12846.91
600.33	12940.69
600.688	12909.73
601.046	13022.04
601.404	13092.55
601.762	13130.74
602.12	13246.22
602.478	13304.98
602.836	13341.13
603.194	13329.16
603.552	13350.17
603.91	13311.3
604.268	13453.9
604.625	13410.73
604.983	13542.03
605.341	13500.68
605.698	13596.94
606.056	13720.11
606.413	13667
606.771	13722.82
607.128	13815.02
607.485	13771.63
607.843	13887.56
608.2	13997.61
608.557	14003.04
608.914	14014.79
609.272	14042.13
609.629	14118.96
609.986	14161.45
610.343	14114.9
610.7	14220.43
611.057	14290.94
611.414	14295.23
611.771	14374.78
612.127	14368
612.484	14423.14
612.841	14480.76
613.198	14433.31
613.554	14491.38
613.911	14530.25
614.267	14570.93
614.624	14545.39
614.98	14570.48
615.337	14679.18
615.693	14665.17
616.05	14640.99
616.406	14820.42
616.762	14752.39
617.118	14732.06
617.475	14773.19
617.831	14805.73
618.187	14891.37
618.543	14929.11
618.899	14977.47
619.255	15012.95
619.611	14849.12
619.967	15050.69
620.323	15057.7
620.678	14928.21
621.034	14954.88
621.39	14994.42
621.746	15019.05
622.101	15125.72
622.457	15003.69
622.812	15129.11
623.168	15148.32
623.523	15167.98
623.879	15204.59
624.234	15086.85
624.589	15085.27
624.945	15177.24
625.3	15221.99
625.655	15183.34
626.01	15196.68
626.365	15318.03
626.72	15177.47
627.075	15112.39
627.43	15194.64
627.785	15113.74
628.14	15198.71
628.495	15204.59
628.85	15228.54
629.205	15191.48
629.559	15224.92
629.914	15206.39
630.269	15254.98
630.623	15189.45
630.978	15185.6
631.332	15165.94
631.687	15186.06
632.041	15143.57
632.396	15263.79
632.75	15114.87
633.104	15181.08
633.459	15106.51
633.813	15125.94
634.167	15056.57
634.521	15103.35
634.875	15074.19
635.229	15097.92
635.583	15042.78
635.937	15091.59
636.291	14957.81
636.645	14992.61
636.999	14976.34
637.352	15096.11
637.706	14922.56
638.06	14938.6
638.413	14956.23
638.767	14953.75
639.121	14913.97
639.474	14813.86
639.828	14901.32
640.181	14925.5
640.534	14952.16
640.888	14849.79
641.241	14836.23
641.594	14920.07
641.947	14876.23
642.301	14823.58
642.654	14847.31
643.007	14785.39
643.36	14821.77
643.713	14732.96
644.066	14786.07
644.419	14732.73
644.771	14662.68
645.124	14550.14
645.477	14554.66
645.83	14300.88
646.182	14396.7
646.535	14337.72
646.888	14382.23
647.24	14286.64
647.593	14429.47
647.945	14295.91
648.298	14230.6
648.65	14244.16
649.002	14216.82
649.355	14259.98
649.707	14315.8
650.059	14252.75
650.411	14430.37
650.763	14548.78
651.115	14649.12
651.467	14676.24
651.819	14576.58
652.171	14596.69
652.523	14660.65
652.875	14583.59
653.227	14579.52
653.578	14770.02
653.93	14710.81
654.282	14568.22
654.633	14530.71
654.985	14686.41
655.337	14545.17
655.688	14658.61
656.039	14649.57
656.391	14553.3
656.742	14624.71
657.094	14525.28
657.445	14713.07
657.796	14631.27
658.147	14626.07
658.498	14647.09
658.849	14607.54
659.2	14632.85
659.551	14682.79
659.902	14701.1
660.253	14553.08
660.604	14709.01
660.955	14642.34
661.306	14729.57
661.656	14617.26
662.007	14660.87
662.358	14662
662.708	14604.38
663.059	14711.94
663.409	14684.83
663.76	14756.01
664.11	14688.89
664.461	14762.56
664.811	14633.3
665.161	14679.18
665.511	14674.66
665.862	14751.26
666.212	14789.23
666.562	14814.31
666.912	14678.95
667.262	14725.5
667.612	14738.61
667.962	14784.94
668.312	14632.85
668.662	14854.76
669.011	14741.55
669.361	14741.77
669.711	14686.18
670.06	14661.55
670.41	14586.07
670.76	14671.27
671.109	14733.41
671.459	14698.16
671.808	14645.05
672.157	14697.48
672.507	14556.24
672.856	14541.33
673.205	14657.93
673.554	14639.18
673.904	14537.71
674.253	14646.41
674.602	14659.52
674.951	14448.9
675.3	14357.83
675.649	14528.67
675.998	14606.64
676.346	14512.17
676.695	14551.5
677.044	14363.48
677.393	14486.41
677.741	14592.62
678.09	14440.99
678.438	14341.78
678.787	14543.81
679.135	14482.8
679.484	14318.73
679.832	14376.81
680.181	14225.63
680.529	14313.08
680.877	14257.94
681.225	14290.94
681.573	14295.23
681.922	14261.11
682.27	14220.21
682.618	14151.28
682.966	14136.37
683.314	14244.39
683.661	14091.85
684.009	14051.4
684.357	13932.08
684.705	14061.11
685.053	14072.86
685.4	14032.64
685.748	13882.81
686.095	13912.42
686.443	13845.98
686.79	13771.63
687.138	13865.86
687.485	13772.99
687.832	13715.36
688.18	13802.82
688.527	13645.31
688.874	13688.47
689.221	13611.63
689.568	13532.31
689.915	13557.85
690.262	13510.39
690.609	13429.72
690.956	13463.84
691.303	13410.06
691.65	13297.29
691.997	13346.56
692.344	13224.98
692.69	13268.14
693.037	13203.51
693.383	13053
693.73	13164.41
694.077	13081.7
694.423	13158.99
694.769	13081.25
695.116	12951.31
695.462	12949.96
695.808	12905.66
696.155	12957.64
696.501	12825.21
696.847	12774.82
697.193	12658.66
697.539	12801.03
697.885	12641.04
698.231	12559.23
698.577	12537.99
698.923	12547.93
699.269	12432.23
699.614	12339.35
699.96	12313.14
700.306	12333.48
700.651	12287.37
700.997	12178
701.342	12167.15
701.688	12173.03
702.033	12152.69
702.379	12119.47
702.724	12068.62
703.069	12065.46
703.415	11901.4
703.76	11881.74
704.105	11940.94
704.45	11898.68
704.795	11877.44
705.14	11781.17
705.485	11752.02
705.83	11670.67
706.175	11718.58
706.52	11593.38
706.865	11693.72
707.209	11605.36
707.554	11543.89
707.899	11570.56
708.243	11514.74
708.588	11474.97
708.932	11414.86
709.277	11315.42
709.621	11390.9
709.966	11327.4
710.31	11288.76
710.654	11162.21
710.998	11247.85
711.342	11147.52
711.687	11137.12
712.031	11125.15
712.375	11059.38
712.719	11053.51
713.063	11077.01
713.407	11157.46
713.75	11006.5
714.094	11029.78
714.438	10956.11
714.782	11020.52
715.125	10924.7
715.469	10922.89
715.812	10900.74
716.156	10766.96
716.499	10847.41
716.843	10858.03
717.186	10788.43
717.53	10855.55
717.873	10845.83
718.216	10781.2
718.559	10794.76
718.902	10720.41
719.246	10703.24
719.589	10714.08
719.932	10681.77
720.275	10705.72
720.617	10628.66
720.96	10653.75
721.303	10642.45
721.646	10613.29
721.989	10588.44
722.331	10656.91
722.674	10564.48
723.016	10554.09
723.359	10532.17
723.701	10592.73
724.044	10576.91
724.386	10459.17
724.729	10560.41
725.071	10474.77
725.413	10491.49
725.755	10484.71
726.097	10421.66
726.439	10416.24
726.782	10388.67
727.124	10467.31
727.465	10414.43
727.807	10409.91
728.149	10333.3
728.491	10343.7
728.833	10416.01
729.175	10310.7
729.516	10370.59
729.858	10311.61
730.199	10355
730.541	10362.23
730.882	10276.35
731.224	10343.47
731.565	10296.92
731.906	10304.15
732.248	10382.34
732.589	10299.86
732.93	10331.72
733.271	10332.17
733.612	10359.74
733.953	10432.96
734.294	10305.51
734.635	10300.31
734.976	10310.7
735.317	10304.83
735.658	10248.11
735.999	10280.65
736.339	10282.46
736.68	10343.7
737.021	10331.72
737.361	10276.35
737.702	10309.8
738.042	10381.89
738.383	10365.84
738.723	10300.99
739.063	10317.71
739.404	10361.1
739.744	10345.5
740.084	10352.06
740.424	10392.51
740.764	10411.04
741.104	10382.34
741.444	10411.94
741.784	10405.62
742.124	10489.91
742.464	10455.11
742.804	10469.12
743.143	10498.04
743.483	10490.81
743.823	10432.51
744.162	10488.1
744.502	10571.49
744.841	10595.22
745.181	10609
745.52	10547.08
745.86	10646.97
746.199	10711.82
746.538	10736
746.877	10799.5
747.216	10860.97
747.556	10853.97
747.895	10932.83
748.234	10941.2
748.573	11024.36
748.911	11062.32
749.25	11174.86
749.589	11182.09
749.928	11290.34
750.267	11462.09
750.605	11460.5
750.944	11461.86
751.283	11468.64
751.621	11681.97
751.96	11712.93
752.298	11813.49
752.636	11901.4
752.975	11967.61
753.313	12053.71
753.651	12250.77
753.989	12261.39
754.327	12389.07
754.666	12490.53
755.004	12575.95
755.342	12729.17
755.679	12878.09
756.017	12983.63
756.355	13071.53
756.693	13209.61
757.031	13390.4
757.368	13468.36
757.706	13508.13
758.044	13629.49
758.381	13762.14
758.719	13991.74
759.056	14136.14
759.394	14293.65
759.731	14387.88
760.068	14463.14
760.405	14669.23
760.743	14750.13
761.08	14977.7
761.417	14990.81
761.754	15250.69
762.091	15311.02
762.428	15449.1
762.765	15629.21
763.102	15802.76
763.438	15866.72
763.775	16003.44
764.112	16197.33
764.449	16289.3
764.785	16419.47
765.122	16473.48
765.458	16600.71
765.795	16756.64
766.131	16962.28
766.467	16979.91
766.804	16974.94
767.14	17096.29
767.476	17309.62
767.812	17386.22
768.148	17567.69
768.485	17491.76
768.821	17561.81
769.157	17655.37
769.492	17809.04
769.828	17968.36
770.164	17839.77
770.5	17969.26
770.836	18055.58
771.171	18074.57
771.507	18200.21
771.842	18188.01
772.178	18348.23
772.513	18327.67
772.849	18308.69
773.184	18423.03
773.519	18392.52
773.855	18480.88
774.19	18592.97
774.525	18581.9
774.86	18566.53
775.195	18620.99
775.53	18728.56
775.865	18558.62
776.2	18558.85
776.535	18598.85
776.87	18710.48
777.205	18501.9
777.539	18564.05
777.874	18756.81
778.209	18652.63
778.543	18593.2
778.878	18542.35
779.212	18602.46
779.547	18604.95
779.881	18767.43
780.215	18646.3
780.55	18767.2
780.884	18632.07
781.218	18598.85
781.552	18578.96
781.886	18561.79
782.22	18568.34
782.554	18562.24
782.888	18458.51
783.222	18397.5
783.556	18371.73
783.889	18456.03
784.223	18338.97
784.557	18355.24
784.89	18434.78
785.224	18262.81
785.557	18247.9
785.891	18285.41
786.224	18207.22
786.558	18320.44
786.891	18028.01
787.224	18040.67
787.557	18063.72
787.891	18024.4
788.224	17991.18
788.557	18066.43
788.89	18050.39
789.223	17999.77
789.556	17916.61
789.888	17830.51
790.221	17868.7
790.554	17715.25
790.887	17724.97
791.219	17609.72
791.552	17622.38
791.884	17586.22
792.217	17625.31
792.549	17529.72
792.882	17443.4
793.214	17348.94
793.546	17471.19
793.879	17376.51
794.211	17215.15
794.543	17328.6
794.875	17213.12
795.207	17233.91
795.539	17189.39
795.871	17190.97
796.203	17043.41
796.535	17020.13
796.867	16985.1
797.198	16966.12
797.53	16938.33
797.862	16868.05
798.193	16867.14
798.525	16800.93
798.856	16835.96
799.188	16565
799.519	16651.55
799.85	16525.23
800.182	16494.5
800.513	16482.07
800.844	16472.58
801.175	16470.09
801.506	16404.55
801.837	16336.08
802.168	16291.34
802.499	16242.52
802.83	16186.71
803.161	16137.89
803.491	16082.98
803.822	16165.24
804.153	15974.96
804.483	15953.49
804.814	15897.45
805.145	15957.11
805.475	15968.41
805.805	15835.53
806.136	15925.47
806.466	15790.11
806.796	15828.98
807.126	15721.41
807.457	15671.92
807.787	15633.5
808.117	15508.53
808.447	15548.08
808.777	15552.83
809.107	15513.28
809.436	15492.26
809.766	15535.65
810.096	15427.18
810.426	15287.97
810.755	15378.59
811.085	15346.73
811.414	15327.75
811.744	15183.12
812.073	15124.36
812.403	15260.86
812.732	15124.59
813.061	15059.05
813.39	15023.35
813.719	14995.55
814.049	15073.29
814.378	14989.68
814.707	14935.89
815.036	14886.63
815.365	14829.45
815.693	14695.22
816.022	14789.91
816.351	14692.74
816.68	14664.71
817.008	14725.5
817.337	14592.85
817.665	14553.76
817.994	14537.71
818.322	14581.33
818.651	14507.66
818.979	14445.06
819.307	14489.12
819.636	14407.32
819.964	14428.34
820.292	14438.73
820.62	14355.57
820.948	14335.68
821.276	14414.78
821.604	14377.72
821.932	14417.26
822.259	14384.72
822.587	14318.51
822.915	14332.52
823.243	14363.93
823.57	14297.72
823.898	14298.62
824.225	14329.35
824.553	14353.54
824.88	14317.15
825.207	14341.11
825.535	14307.66
825.862	14316.47
826.189	14305.63
826.516	14353.54
826.843	14345.4
827.17	14428.11
827.497	14299.53
827.824	14276.02
828.151	14370.26
828.478	14334.1
828.805	14340.88
829.131	14279.19
829.458	14137.72
829.785	14188.12
830.111	14341.56
830.438	14363.48
830.764	14331.39
831.09	14335.91
831.417	14305.4
831.743	14397.15
832.069	14329.13
832.395	14266.31
832.722	14250.26
833.048	14219.08
833.374	14211.39
833.7	14097.5
834.026	14287.55
834.351	14231.5
834.677	14221.79
835.003	14195.12
835.329	14174.56
835.654	14128.68
835.98	14086.65
836.306	14101.11
836.631	14048.23
836.956	14166.42
837.282	14050.72
837.607	14024.28
837.932	14054.33
838.258	14022.47
838.583	13956.48
838.908	13885.07
839.233	13937.73
839.558	13888.69
839.883	13808.01
840.208	13824.51
840.533	13733.66
840.858	13811.63
841.182	13817.73
841.507	13810.05
841.832	13764.17
842.156	13716.49
842.481	13634.46
842.805	13643.5
843.13	13533.22
843.454	13532.99
843.778	13534.12
844.103	13518.53
844.427	13471.07
844.751	13404.41
845.075	13410.28
845.399	13329.16
845.723	13233.56
846.047	13311.98
846.371	13197.18
846.695	13229.04
847.019	13110.86
847.343	13053.91
847.666	12963.74
847.99	12832.67
848.313	12969.62
848.637	12871.54
848.96	12863.4
849.284	12673.58
849.607	12690.08
849.931	12578.67
850.254	12576.63
850.577	12551.77
850.9	12472
851.223	12446.92
851.546	12353.14
851.869	12268.17
852.192	12368.73
852.515	12221.16
852.838	12148.4
853.161	12226.36
853.483	12071.56
853.806	12019.13
854.129	12086.02
854.451	12002.86
854.774	11914.73
855.096	11980.04
855.419	11927.16
855.741	11823.88
856.063	11794.96
856.385	11728.07
856.708	11763.09
857.03	11660.27
857.352	11694.4
857.674	11632.7
857.996	11564.46
858.318	11516.55
858.64	11587.28
858.961	11537.34
859.283	11443.33
859.605	11460.05
859.926	11425.7
860.248	11412.14
860.57	11350.68
860.891	11338.47
861.212	11260.51
861.534	11272.49
861.855	11203.34
862.176	11233.84
862.498	11164.69
862.819	11253.05
863.14	11157.46
863.461	11136.22
863.782	11146.16
864.103	11132.38
864.424	11066.62
864.745	11102.32
865.065	11018.48
865.386	10985.26
865.707	11012.38
866.027	11051.47
866.348	10970.12
866.668	10997.92
866.989	10887.41
867.309	10883.8
867.63	10882.89
867.95	10860.75
868.27	10821.2
868.59	10840.86
868.91	10775.78
869.23	10769
869.55	10720.86
869.87	10784.36
870.19	10731.48
870.51	10737.36
870.83	10702.33
871.15	10640.41
871.469	10666.4
871.789	10723.8
872.109	10650.13
872.428	10612.62
872.748	10610.36
873.067	10605.38
873.386	10618.72
873.706	10571.49
874.025	10431.83
874.344	10437.25
874.663	10467.31
874.982	10384.83
875.301	10421.21
875.62	10458.95
875.939	10382.57
876.258	10402.23
876.577	10406.75
876.896	10341.44
877.214	10319.74
877.533	10399.06
877.852	10446.07
878.17	10389.12
878.489	10292.62
878.807	10302.34
879.125	10298.27
879.444	10271.83
879.762	10195.9
880.08	10207.2
880.398	10246.75
880.716	10190.03
881.034	10115.45
881.352	10107.54
881.67	10126.08
881.988	10153.42
882.306	10082.23
882.624	10011.73
882.941	10070.71
883.259	10007.43
883.577	9996.36
883.894	9942.35
884.212	9925.4
884.529	9903.03
884.846	9866.65
885.164	9864.39
885.481	9896.48
885.798	9836.14
886.115	9755.24
886.432	9748.46
886.75	9747.78
887.067	9723.83
887.383	9689.93
887.7	9759.76
888.017	9641.34
888.334	9672.53
888.651	9624.85
888.967	9633.21
889.284	9490.84
889.6	9527.45
889.917	9494.45
890.233	9481.57
890.55	9452.87
890.866	9395.47
891.182	9294.46
891.498	9330.16
891.815	9279.09
892.131	9363.84
892.447	9314.8
892.763	9208.59
893.079	9232.09
893.395	9186.89
893.71	9178.76
894.026	9131.75
894.342	9111.86
894.657	9044.07
894.973	9099.66
895.289	9026.9
895.604	9058.98
895.92	8969.72
896.235	8840.46
896.55	8875.49
896.865	8910.97
897.181	8837.52
897.496	8827.8
897.811	8735.6
898.126	8751.42
898.441	8715.04
898.756	8692.44
899.071	8696.06
899.386	8670.52
899.7	8627.58
900.015	8500.36
900.33	8491.54
900.644	8453.13
900.959	8507.81
901.273	8438.66
901.588	8409.28
901.902	8360.02
902.216	8323.41
902.531	8334.71
902.845	8289.74
903.159	8229.63
903.473	8173.81
903.787	8119.12
904.101	8126.58
904.415	8136.98
904.729	8071.67
905.042	8047.94
905.356	8020.37
905.67	8056.98
905.984	7953.48
906.297	7971.56
906.611	7886.13
906.924	7900.82
907.237	7878.23
907.551	7845.68
907.864	7825.57
908.177	7828.96
908.491	7730.88
908.804	7680.72
909.117	7617.89
909.43	7630.1
909.743	7586.48
910.056	7595.52
910.368	7511.23
910.681	7536.31
910.994	7486.82
911.307	7358.69
911.619	7353.95
911.932	7431.68
912.244	7288.41
912.557	7332.48
912.869	7304.68
913.181	7234.17
913.494	7276.21
913.806	7173.84
914.118	7203.21
914.43	7092.48
914.742	7147.62
915.054	7081.86
915.366	7099.49
915.678	7030.56
915.99	7038.47
916.302	6931.36
916.613	6971.81
916.925	6906.27
917.236	6919.61
917.548	6828.31
917.859	6852.94
918.171	6801.42
918.482	6744.02
918.794	6743.34
919.105	6757.58
919.416	6656.34
919.727	6678.71
920.038	6677.8
920.349	6598.94
920.66	6533.4
920.971	6572.72
921.282	6562.33
921.593	6488.43
921.903	6386.51
922.214	6414.99
922.525	6370.92
922.835	6341.54
923.146	6357.36
923.456	6343.35
923.767	6258.61
924.077	6285.5
924.387	6281.66
924.697	6223.13
925.008	6194.43
925.318	6187.65
925.628	6156.01
925.938	6170.7
926.248	6103.36
926.558	6011.61
926.867	6078.27
927.177	6074.88
927.487	6015.9
927.796	5931.38
928.106	5958.28
928.416	5926.41
928.725	5853.42
929.034	5879.18
929.344	5874.66
929.653	5834.66
929.962	5795.34
930.271	5770.26
930.581	5767.32
930.89	5749.92
931.199	5698.62
931.508	5706.3
931.817	5659.75
932.125	5665.4
932.434	5666.53
932.743	5624.5
933.051	5604.61
933.36	5557.61
933.669	5524.16
933.977	5464.73
934.286	5522.35
934.594	5449.81
934.902	5434.9
935.21	5368.91
935.519	5383.15
935.827	5423.15
936.135	5341.57
936.443	5292.3
936.751	5265.19
937.059	5256.37
937.367	5200.78
937.674	5220.44
937.982	5212.31
938.29	5181.35
938.597	5192.42
938.905	5133.21
939.213	5141.57
939.52	5073.78
939.827	5096.15
940.135	5081.46
940.442	5051.18
940.749	5021.58
941.056	4992.88
941.363	4996.72
941.67	4978.87
941.977	4918.53
942.284	4919.43
942.591	4901.13
942.898	4865.65
943.205	4854.12
943.511	4853.9
943.818	4809.15
944.125	4782.04
944.431	4744.3
944.738	4675.82
945.044	4736.16
945.35	4686.9
945.657	4653
945.963	4637.18
946.269	4624.75
946.575	4624.98
946.881	4605.09
947.187	4602.83
947.493	4553.11
947.799	4521.03
948.105	4518.09
948.41	4490.97
948.716	4491.42
949.022	4493.46
949.327	4433.8
949.633	4450.07
949.938	4438.54
950.244	4404.64
950.549	4373.68
950.854	4346.79
951.16	4336.85
951.465	4322.16
951.77	4287.13
952.075	4236.74
952.38	4287.59
952.685	4258.89
952.99	4206.23
953.294	4180.24
953.599	4159.9
953.904	4149.74
954.209	4132.79
954.513	4099.34
954.818	4099.57
955.122	4033.13
955.426	4071.55
955.731	4062.05
956.035	4025.45
956.339	4006.01
956.643	3976.18
956.948	3945.9
957.252	3956.97
957.556	3937.99
957.86	3923.98
958.163	3890.08
958.467	3910.42
958.771	3886.24
959.075	3831.55
959.378	3848.73
959.682	3838.78
959.985	3843.3
960.289	3798.78
960.592	3758.56
960.896	3777.09
961.199	3760.37
961.502	3740.48
961.805	3700.48
962.108	3709.52
962.411	3692.57
962.714	3669.97
963.017	3641.05
963.32	3636.53
963.623	3638.79
963.926	3604.67
964.228	3589.3
964.531	3606.92
964.833	3593.14
965.136	3516.76
965.438	3516.53
965.741	3484.89
966.043	3531.45
966.345	3505.01
966.648	3488.28
966.95	3457.32
967.252	3463.2
967.554	3427.49
967.856	3428.17
968.158	3407.83
968.46	3373.26
968.761	3348.85
969.063	3321.06
969.365	3348.85
969.666	3312.7
969.968	3290.78
970.269	3285.8
970.571	3309.08
970.872	3257.56
971.174	3253.04
971.475	3253.49
971.776	3226.82
972.077	3222.53
972.378	3200.16
972.679	3210.55
972.98	3175.3
973.281	3138.24
973.582	3146.6
973.883	3132.36
974.183	3105.24
974.484	3141.85
974.785	3110.67
975.085	3057.56
975.386	3057.79
975.686	3054.4
975.986	3045.81
976.287	2992.93
976.587	3013.27
976.887	3000.84
977.187	2952.7
977.487	2962.87
977.787	3003.55
978.087	2931.01
978.387	2894.4
978.687	2921.75
978.987	2891.69
979.286	2900.28
979.586	2880.16
979.885	2857.34
980.185	2838.13
980.484	2817.57
980.784	2818.47
981.083	2818.7
981.382	2822.09
981.682	2765.37
981.981	2769.66
982.28	2750
982.579	2757.91
982.878	2717.91
983.177	2733.95
983.475	2713.39
983.774	2691.92
984.073	2686.72
984.372	2640.4
984.67	2664.8
984.969	2614.86
985.267	2646.27
985.566	2681.53
985.864	2571.25
986.162	2636.33
986.461	2589.32
986.759	2572.83
987.057	2510.46
987.355	2555.43
987.653	2552.72
987.951	2567.18
988.249	2517.24
988.547	2503.23
988.844	2479.27
989.142	2497.35
989.44	2454.86
989.737	2467.07
990.035	2457.58
990.332	2440.85
990.63	2430.01
990.927	2428.2
991.224	2390.91
991.521	2396.34
991.819	2379.61
992.116	2385.94
992.413	2367.18
992.71	2338.03
993.006	2347.97
993.303	2352.72
993.6	2300.74
993.897	2324.02
994.193	2291.71
994.49	2307.98
994.787	2251.03
995.083	2293.06
995.379	2238.37
995.676	2251.71
995.972	2197.47
996.268	2220.97
996.565	2190.24
996.861	2197.92
997.157	2158.15
997.453	2183.91
997.749	2122.22
998.044	2137.13
998.34	2167.87
998.636	2114.76
998.932	2150.24
999.227	2116.57
999.523	2086.74
999.818	2091.26
1000.114	2078.38
1000.409	2073.18
1000.704	2062.33
1001	2060.07
1001.295	2037.25
1001.59	2035.67
1001.885	2025.72
1002.18	1969
1002.475	1983.46
1002.77	1978.04
1003.065	1965.61
1003.359	1954.76
1003.654	1963.8
1003.949	1926.29
1004.243	1913.86
1004.538	1889.91
1004.832	1913.41
1005.127	1917.48
1005.421	1860.76
1005.715	1898.95
1006.009	1893.3
1006.304	1826.18
1006.598	1853.75
1006.892	1826.86
1007.186	1820.08
1007.48	1837.03
1007.773	1791.83
1008.067	1786.18
1008.361	1801.55
1008.655	1796.13
1008.948	1738.05
1009.242	1759.29
1009.535	1746.18
1009.829	1720.42
1010.122	1721.32
1010.415	1713.87
1010.708	1719.52
1011.001	1662.57
1011.295	1675.22
1011.588	1683.13
1011.881	1647.2
1012.173	1644.72
1012.466	1633.64
1012.759	1625.06
1013.052	1644.72
1013.344	1604.49
1013.637	1604.72
1013.93	1598.16
1014.222	1585.74
1014.514	1566.53
1014.807	1570.37
1015.099	1553.65
1015.391	1542.8
1015.683	1534.66
1015.976	1531.05
1016.268	1532.63
1016.56	1492.4
1016.851	1519.3
1017.143	1478.85
1017.435	1499.64
1017.727	1504.38
1018.018	1469.13
1018.31	1453.99
1018.602	1458.73
1018.893	1431.16
1019.185	1441.78
1019.476	1436.81
1019.767	1430.26
1020.058	1388.9
1020.35	1397.94
1020.641	1397.72
1020.932	1353.42
1021.223	1344.39
1021.514	1388.9
1021.804	1343.48
1022.095	1322.47
1022.386	1318.4
1022.677	1315.46
1022.967	1308.68
1023.258	1290.38
1023.548	1303.48
1023.839	1289.02
1024.129	1281.34
1024.419	1283.37
1024.709	1263.26
1025	1267.33
1025.29	1220.32
1025.58	1225.74
1025.87	1239.98
1026.16	1215.8
1026.449	1231.17
1026.739	1210.38
1027.029	1197.27
1027.319	1225.52
1027.608	1185.29
1027.898	1166.31
1028.187	1154.33
1028.477	1188.46
1028.766	1160.21
1029.055	1164.73
1029.344	1136.93
1029.634	1142.58
1029.923	1123.83
1030.212	1116.59
1030.501	1121.79
1030.79	1090.83
1031.078	1100.1
1031.367	1092.87
1031.656	1086.77
1031.945	1088.35
1032.233	1087.67
1032.522	1053.09
1032.81	1042.7
1033.099	1038.86
1033.387	1052.64
1033.675	1038.4
1033.963	1040.21
1034.251	1016.26
1034.54	1001.8
1034.828	1034.11
1035.116	1000.89
1035.403	1008.35
1035.691	1000.67
1035.979	979.42
1036.267	965.19
1036.554	966.77
1036.842	964.96
1037.129	959.54
1037.417	945.75
1037.704	948.69
1037.992	933.77
1038.279	945.07
1038.566	949.82
1038.853	949.82
1039.14	949.82
