Data from hue_60_FLMS001491_100.txt Node
Date: Mon Feb 06 15:18:14 GMT 2017
User: dcchb
Spectrometer: FLMS00149
Trigger mode: 0
Integration Time (sec): 2.000000E-2
Scans to average: 10
Electric dark correction enabled: true
Nonlinearity correction enabled: false
Boxcar width: 0
XAxis mode: Wavelengths
Number of Pixels in Spectrum: 2048
>>>>>Begin Spectral Data<<<<<
341.393	11.93
341.776	11.93
342.16	11.93
342.543	-64
342.927	-71.9
343.31	-73.26
343.693	-73.71
344.077	-56.76
344.46	-60.38
344.843	-67.16
345.226	-31.23
345.61	-31.91
345.993	-19.48
346.376	0.41
346.759	11.71
347.142	20.07
347.525	67.53
347.908	53.29
348.291	63.46
348.674	87.41
349.057	110.01
349.44	122.21
349.823	140.29
350.206	169.9
350.588	186.39
350.971	211.93
351.354	242.44
351.737	244.02
352.119	246.05
352.502	278.14
352.884	266.84
353.267	289.89
353.65	317.46
354.032	314.07
354.414	340.06
354.797	327.18
355.179	328.76
355.562	322.44
355.944	312.04
356.326	351.59
356.709	347.97
357.091	343.45
357.473	354.07
357.855	337.12
358.238	338.93
358.62	353.62
359.002	348.42
359.384	361.3
359.766	340.97
360.148	357.69
360.53	338.71
360.912	347.97
361.294	331.93
361.676	344.81
362.057	348.88
362.439	349.1
362.821	338.03
363.203	318.82
363.584	333.73
363.966	345.71
364.348	351.81
364.729	331.93
365.111	335.54
365.493	318.37
365.874	334.19
366.256	334.86
366.637	345.71
367.019	337.12
367.4	340.74
367.781	317.46
368.163	342.55
368.544	316.11
368.925	320.85
369.306	345.49
369.688	340.29
370.069	333.73
370.45	322.21
370.831	338.03
371.212	317.24
371.593	327.41
371.974	331.25
372.355	339.38
372.736	314.98
373.117	311.81
373.498	314.3
373.879	324.47
374.26	324.47
374.641	321.98
375.021	340.06
375.402	341.87
375.783	331.7
376.163	313.85
376.544	356.11
376.925	345.03
377.305	333.73
377.686	332.38
378.066	331.93
378.447	322.89
378.827	330.57
379.208	352.49
379.588	351.36
379.968	340.97
380.349	338.48
380.729	336.22
381.109	346.84
381.489	347.97
381.87	355.88
382.25	352.04
382.63	360.63
383.01	366.95
383.39	351.81
383.77	341.42
384.15	350.46
384.53	350.23
384.91	362.66
385.29	380.29
385.67	332.15
386.049	373.06
386.429	371.02
386.809	339.38
387.189	352.94
387.568	375.31
387.948	357.01
388.328	355.2
388.707	367.86
389.087	372.15
389.466	387.29
389.846	386.39
390.225	370.34
390.605	366.28
390.984	365.6
391.363	401.98
391.743	388.87
392.122	365.82
392.501	403.34
392.881	364.92
393.26	391.81
393.639	390.46
394.018	384.13
394.397	387.74
394.776	400.63
395.155	399.5
395.534	382.55
395.913	398.37
396.292	398.14
396.671	402.21
397.05	398.37
397.429	404.24
397.808	396.33
398.186	411.7
398.565	385.03
398.944	395.2
399.323	406.27
399.701	419.38
400.08	399.04
400.458	406.95
400.837	420.29
401.215	419.38
401.594	408.76
401.972	441.3
402.351	405.14
402.729	428.42
403.107	421.42
403.486	424.35
403.864	414.18
404.242	418.93
404.62	436.1
404.999	420.51
405.377	422.09
405.755	459.38
406.133	454.18
406.511	428.65
406.889	433.62
407.267	452.15
407.645	436.1
408.023	455.09
408.401	458.02
408.779	463.45
409.156	469.55
409.534	465.03
409.912	440.17
410.29	488.31
410.667	452.6
411.045	459.38
411.422	486.27
411.8	482.43
412.178	458.48
412.555	487.85
412.933	458.7
413.31	465.48
413.687	496.67
414.065	487.85
414.442	514.97
414.819	513.16
415.197	494.41
415.574	503.67
415.951	500.96
416.328	519.49
416.705	505.71
417.082	518.14
417.46	525.14
417.837	521.75
418.214	518.59
418.591	521.75
418.967	520.4
419.344	549.77
419.721	546.16
420.098	526.5
420.475	532.37
420.852	546.16
421.228	529.89
421.605	556.55
421.982	557.01
422.358	550.23
422.735	571.47
423.111	575.54
423.488	551.58
423.864	551.36
424.241	584.35
424.617	580.51
424.994	594.52
425.37	585.7
425.746	608.53
426.123	571.02
426.499	619.6
426.875	603.11
427.251	620.96
427.627	623.67
428.003	619.6
428.379	636.1
428.756	644.69
429.132	636.78
429.507	632.48
429.883	651.01
430.259	643.1
430.635	629.09
431.011	661.64
431.387	667.96
431.763	676.55
432.138	684.01
432.514	668.19
432.89	689.21
433.265	683.56
433.641	682.88
434.016	699.6
434.392	720.39
434.767	722.65
435.143	700.05
435.518	709.77
435.894	712.71
436.269	712.03
436.644	725.59
437.02	746.38
437.395	748.86
437.77	753.84
438.145	760.16
438.52	764.23
438.895	769.43
439.271	773.04
439.646	771.46
440.021	795.87
440.395	790.22
440.77	797.45
441.145	787.28
441.52	823.44
441.895	801.52
442.27	820.73
442.645	831.35
443.019	834.74
443.394	798.13
443.769	834.96
444.143	833.83
444.518	847.62
444.892	846.94
445.267	847.62
445.641	847.17
446.016	855.3
446.39	850.78
446.764	874.96
447.139	880.61
447.513	879.71
447.887	878.58
448.262	897.34
448.636	900.72
449.01	883.32
449.384	893.49
449.758	905.02
450.132	935.07
450.506	937.33
450.88	927.62
451.254	926.71
451.628	947.73
452.002	957.67
452.376	949.54
452.75	967.84
453.123	961.06
453.497	989.54
453.871	1000.16
454.244	985.92
454.618	1009.2
454.992	1012.13
455.365	1028.63
455.739	1043.55
456.112	1044.9
456.486	1063.88
456.859	1078.12
457.232	1066.37
457.606	1105.24
457.979	1084.45
458.352	1128.74
458.725	1133.04
459.099	1153.37
459.472	1154.96
459.845	1169.64
460.218	1165.8
460.591	1171.68
460.964	1216.87
461.337	1203.77
461.71	1221.39
462.083	1257.55
462.456	1278.57
462.829	1277.89
463.201	1279.7
463.574	1293.71
463.947	1315.63
464.32	1368.74
464.692	1342.75
465.065	1365.57
465.438	1394.05
465.81	1384.1
466.183	1408.28
466.555	1441.28
466.928	1482.18
467.3	1473.14
467.672	1528.96
468.045	1543.42
468.417	1547.71
468.789	1570.99
469.161	1582.97
469.534	1617.09
469.906	1680.82
470.278	1703.87
470.65	1690.08
471.022	1759.01
471.394	1773.02
471.766	1798.55
472.138	1822.96
472.51	1884.2
472.882	1908.83
473.253	1973.92
473.625	1975.05
473.997	2014.14
474.369	2087.36
474.74	2125.78
475.112	2177.98
475.484	2208.49
475.855	2265.66
476.227	2307.02
476.598	2399.89
476.97	2428.82
477.341	2487.35
477.713	2556.5
478.084	2624.52
478.455	2758.98
478.827	2780.22
479.198	2847.34
479.569	2889.83
479.94	3014.12
480.311	3113.32
480.682	3156.03
481.053	3313.32
481.424	3386.54
481.795	3444.39
482.166	3553.76
482.537	3593.08
482.908	3767.32
483.279	3862.23
483.65	3932.51
484.021	4077.82
484.391	4199.4
484.762	4292.5
485.133	4421.54
485.503	4544.47
485.874	4626.05
486.244	4768.65
486.615	4972.03
486.985	5065.59
487.356	5191.69
487.726	5333.83
488.097	5544.44
488.467	5639.81
488.837	5793.25
489.207	5908.5
489.578	6099.91
489.948	6220.36
490.318	6429.62
490.688	6547.58
491.058	6687.01
491.428	6868.7
491.798	7023.95
492.168	7249.48
492.538	7338.07
492.908	7583.26
493.278	7706.65
493.648	7852.63
494.017	8065.73
494.387	8265.5
494.757	8377.59
495.126	8548.21
495.496	8637.92
495.866	8865.94
496.235	9014.64
496.605	9212.6
496.974	9401.97
497.344	9536.2
497.713	9741.17
498.082	9903.43
498.452	10073.82
498.821	10166.7
499.19	10320.82
499.559	10508.38
499.928	10693.91
500.298	10856.85
500.667	11052.1
501.036	11115.82
501.405	11371.64
501.774	11467.45
502.143	11704.73
502.512	11780.21
502.88	11960.55
503.249	12137.72
503.618	12286.64
503.987	12486.63
504.356	12649.12
504.724	12756.91
505.093	12793.75
505.462	13015.66
505.83	13153.74
506.199	13378.81
506.567	13583.56
506.936	13648.19
507.304	13891.34
507.672	13993.49
508.041	14111
508.409	14315.06
508.777	14461.05
509.145	14690.87
509.514	14704.66
509.882	14955.95
510.25	14956.4
510.618	15194.59
510.986	15341.48
511.354	15566.1
511.722	15672.54
512.09	15886.09
512.458	15988.46
512.826	16119.99
513.193	16324.73
513.561	16393.65
513.929	16508
514.297	16844.49
514.664	16842.23
515.032	16978.95
515.4	17184.59
515.767	17339.16
516.135	17480.18
516.502	17490.8
516.869	17779.15
517.237	17885.14
517.604	17874.74
517.972	18239.93
518.339	18324.22
518.706	18368.29
519.073	18516.53
519.44	18723.08
519.808	18973.7
520.175	18897.54
520.542	19312.22
520.909	19338.66
521.276	19373.23
521.643	19602.38
522.009	19883.5
522.376	19923.05
522.743	20073.78
523.11	20365.07
523.477	20478.74
523.843	20680.32
524.21	20945.85
524.577	21092.06
524.943	21175.67
525.31	21261.77
525.676	21516.91
526.043	21736.11
526.409	21732.49
526.776	22075.76
527.142	22178.81
527.508	22366.6
527.874	22420.39
528.241	22611.34
528.607	22580.83
528.973	22867.83
529.339	22962.29
529.705	23171.78
530.071	23426.91
530.437	23533.12
530.803	23620.13
531.169	23713.01
531.535	23836.39
531.901	23922.49
532.267	23954.58
532.632	24172.43
532.998	24281.81
533.364	24405.19
533.73	24424.63
534.095	24671.85
534.461	24894.44
534.826	25003.37
535.192	24997.04
535.557	25184.38
535.923	25235.23
536.288	25306.41
536.653	25426.18
537.019	25357.93
537.384	25582.79
537.749	25717.47
538.114	25776.46
538.479	25753.4
538.845	25906.17
539.21	26039.05
539.575	26037.69
539.94	26117.69
540.305	26410.79
540.67	26406.72
541.034	26499.15
541.399	26607.17
541.764	26631.12
542.129	26704.79
542.494	26816.65
542.858	26994.73
543.223	26962.64
543.587	27222.52
543.952	27167.6
544.316	27351.33
544.681	27239.92
545.045	27387.49
545.41	27655.95
545.774	27570.08
546.138	27708.16
546.503	27755.39
546.867	27780.7
547.231	28175.49
547.595	28012.33
547.959	28184.08
548.324	28217.29
548.688	28360.57
549.052	28432.66
549.416	28409.38
549.779	28593.78
550.143	28604.4
550.507	28759.2
550.871	28765.53
551.235	29003.26
551.599	29019.31
551.962	29236.93
552.326	29276.93
552.689	29412.74
553.053	29267.21
553.417	29436.47
553.78	29828.1
554.143	29639.63
554.507	29787.65
554.87	29896.57
555.234	30167.3
555.597	30088.43
555.96	30119.17
556.323	30397.12
556.686	30464.92
557.05	30605.71
557.413	30617.01
557.776	30764.8
558.139	31003.89
558.502	31069.42
558.865	31242.53
559.228	31303.32
559.59	31458.34
559.953	31541.73
560.316	31895.39
560.679	31806.35
561.041	31952.11
561.404	32099
561.767	32217.87
562.129	32302.39
562.492	32695.6
562.854	32671.87
563.217	32622.15
563.579	32760.45
563.941	33050.16
564.304	33091.29
564.666	33317.95
565.028	33446.54
565.39	33520.21
565.753	33719.97
566.115	33857.15
566.477	34001.32
566.839	34045.16
567.201	34260.98
567.563	34372.61
567.925	34500.75
568.287	34575.32
568.648	34713.17
569.01	34938.7
569.372	35066.83
569.734	35030.22
570.095	35315.64
570.457	35393.38
570.819	35526.93
571.18	35413.04
571.542	35719.47
571.903	35693.93
572.265	35957.88
572.626	36121.72
572.987	35962.4
573.349	36183.86
573.71	36171.44
574.071	36412.79
574.432	36566.45
574.794	36712.89
575.155	36758.09
575.516	36697.52
575.877	36897.52
576.238	36797.86
576.599	37075.37
576.96	37081.02
577.32	37018.87
577.681	37396.26
578.042	37368.01
578.403	37381.8
578.763	37490.5
579.124	37561.23
579.485	37671.96
579.845	37630.83
580.206	37661.11
580.566	37551.96
580.927	37842.58
581.287	37953.31
581.648	37712.86
582.008	37985.17
582.368	37873.99
582.728	37923.93
583.089	37836.25
583.449	37902.69
583.809	37996.47
584.169	38004.38
584.529	38133.19
584.889	38348.78
585.249	38172.06
585.609	38033.76
585.969	38200.99
586.329	38093.87
586.688	38294.77
587.048	38200.31
587.408	38202.79
587.768	38238.73
588.127	38267.43
588.487	38121.67
588.846	38357.59
589.206	38318.27
589.565	38241.21
589.925	38319.63
590.284	38315.11
590.643	38327.99
591.003	38523.92
591.362	38576.8
591.721	38504.48
592.08	38538.15
592.44	38533.63
592.799	38543.35
593.158	38492.05
593.517	38612.28
593.876	38569.79
594.235	38594.65
594.593	38555.1
594.952	38741.31
595.311	38497.93
595.67	38646.63
596.029	38874.64
596.387	38995.77
596.746	38926.39
597.104	38930.69
597.463	38721.88
597.822	38992.83
598.18	38835.55
598.538	38809.78
598.897	39110.34
599.255	38879.84
599.613	39362.76
599.972	39229.43
600.33	39167.06
600.688	39200.73
601.046	39283.44
601.404	39414.97
601.762	39234.86
602.12	39527.96
602.478	39494.29
602.836	39520.95
603.194	39356.66
603.552	39579.71
603.91	39443.89
604.268	39656.99
604.625	39541.97
604.983	39717.33
605.341	39474.17
605.698	39817.67
606.056	39844.56
606.413	39816.54
606.771	40015.63
607.128	40125
607.485	39935.86
607.843	39882.98
608.2	40312.8
608.557	40372.91
608.914	40342.63
609.272	40345.79
609.629	40529.29
609.986	40620.81
610.343	40464.2
610.7	40958.88
611.057	40638.89
611.414	40716.18
611.771	40838.43
612.127	41021.03
612.484	40940.12
612.841	41112.1
613.198	41049.05
613.554	40959.33
613.911	41296.72
614.267	41319.32
614.624	41336.72
614.98	41320.68
615.337	41518.41
615.693	41476.16
616.05	41395.71
616.406	41831.63
616.762	41634.57
617.118	41622.37
617.475	41638.64
617.831	41882.47
618.187	41800.44
618.543	41862.59
618.899	42185.06
619.255	42048.34
619.611	41962.92
619.967	42170.83
620.323	42324.95
620.678	42031.17
621.034	42086.53
621.39	42145.06
621.746	42078.17
622.101	42535.79
622.457	42248.34
622.812	42305.29
623.168	42339.41
623.523	42606.07
623.879	42633.86
624.234	42336.47
624.589	42482.68
624.945	42572.62
625.3	42629.8
625.655	42547.31
626.01	42657.82
626.365	42650.81
626.72	42615.56
627.075	42624.15
627.43	42729.23
627.785	42619.63
628.14	42674.09
628.495	42663.24
628.85	42644.49
629.205	42552.06
629.559	42778.04
629.914	42563.36
630.269	42629.57
630.623	42581.66
630.978	42559.97
631.332	42596.58
631.687	42702.56
632.041	42595.22
632.396	42702.11
632.75	42527.43
633.104	42670.47
633.459	42518.16
633.813	42492.17
634.167	42497.6
634.521	42402.91
634.875	42501.21
635.229	42556.35
635.583	42378.05
635.937	42425.73
636.291	42275
636.645	42417.37
636.999	42295.34
637.352	42463.93
637.706	42160.88
638.06	42326.75
638.413	42297.83
638.767	42263.48
639.121	42196.36
639.474	42090.38
639.828	42018.29
640.181	42121.56
640.534	42004.05
640.888	42055.12
641.241	41760.22
641.594	41804.96
641.947	42047.89
642.301	41854.22
642.654	41898.07
643.007	42025.07
643.36	41853.77
643.713	41775.13
644.066	41963.37
644.419	41693.78
644.771	41306.22
645.124	41077.75
645.477	41001.14
645.83	40901.71
646.182	40607.48
646.535	40507.82
646.888	40566.35
647.24	40328.39
647.593	40494.03
647.945	40508.95
648.298	40377.65
648.65	40244.55
649.002	40275.28
649.355	40362.06
649.707	40314.38
650.059	40457.65
650.411	40875.27
650.763	40972.21
651.115	41368.81
651.467	41200.23
651.819	41326.55
652.171	41144.64
652.523	41016.96
652.875	40919.33
653.227	40911.65
653.578	41341.7
653.93	41122.72
654.282	40941.03
654.633	40824.65
654.985	40932.44
655.337	40938.32
655.688	40856.74
656.039	40992.78
656.391	40672.33
656.742	40748.26
657.094	40712.33
657.445	40910.29
657.796	40821.26
658.147	40718.21
658.498	40661.26
658.849	40657.87
659.2	40573.35
659.551	40565.22
659.902	40779.45
660.253	40628.27
660.604	40827.36
660.955	40548.72
661.306	40695.16
661.656	40639.34
662.007	40611.32
662.358	40685.44
662.708	40581.04
663.059	40546.24
663.409	40215.85
663.76	40787.81
664.11	40573.13
664.461	40588.27
664.811	40626.46
665.161	40429.86
665.511	40522.06
665.862	40469.85
666.212	40497.42
666.562	40684.31
666.912	40397.31
667.262	40456.52
667.612	40424.66
667.962	40433.92
668.312	40445.9
668.662	40467.82
669.011	40540.81
669.361	40313.47
669.711	40327.26
670.06	40206.13
670.41	40211.78
670.76	40113.25
671.109	40377.65
671.459	40256.75
671.808	40270.31
672.157	40280.03
672.507	39909.42
672.856	40082.97
673.205	40150.99
673.554	40246.36
673.904	40102.18
674.253	40223.98
674.602	40139.69
674.951	39596.88
675.3	39329.77
675.649	39942.86
675.998	39958
676.346	40074.16
676.695	40055.63
677.044	39874.16
677.393	39843.43
677.741	39982.41
678.09	39774.73
678.438	39856.76
678.787	39929.08
679.135	39893.37
679.484	39615.41
679.832	39867.84
680.181	39610.44
680.529	39708.52
680.877	39520.95
681.225	39468.52
681.573	39646.6
681.922	39384.01
682.27	39245.03
682.618	39498.58
682.966	39176.55
683.314	39294.97
683.661	39098.59
684.009	39089.55
684.357	38990.34
684.705	38814.98
685.053	38916.67
685.4	38893.85
685.748	38680.52
686.095	38674.87
686.443	38565.27
686.79	38506.29
687.138	38551.71
687.485	38555.1
687.832	38400.76
688.18	38386.74
688.527	38065.62
688.874	38177.03
689.221	38184.26
689.568	37951.95
689.915	37968.9
690.262	38015.91
690.609	37740.43
690.956	37722.58
691.303	37808.68
691.65	37463.61
691.997	37478.75
692.344	37348.35
692.69	37328.47
693.037	37459.99
693.383	37059.55
693.73	37067.46
694.077	37022.71
694.423	36919.44
694.769	36823.62
695.116	36635.6
695.462	36826.33
695.808	36554.48
696.155	36503.4
696.501	36397.19
696.847	36348.38
697.193	36056.18
697.539	36315.16
697.885	35987.94
698.231	35781.62
698.577	35881.05
698.923	35837.89
699.269	35688.28
699.614	35400.83
699.96	35547.72
700.306	35549.76
700.651	35389.08
700.997	35222.99
701.342	35227.28
701.688	35166.72
702.033	35015.08
702.379	35127.85
702.724	34888.76
703.069	35055.31
703.415	34541.2
703.76	34557.92
704.105	34566.51
704.45	34510.69
704.795	34334.2
705.14	34400.64
705.485	34227.08
705.83	34028.22
706.175	34135.78
706.52	34006.3
706.865	33943.25
707.209	34031.38
707.554	33726.53
707.899	33867.32
708.243	33524.5
708.588	33640.88
708.932	33415.8
709.277	33312.08
709.621	33423.71
709.966	33137.62
710.31	33150.72
710.654	32797.29
710.998	32989.82
711.342	32956.83
711.687	32930.39
712.031	32776.72
712.375	32633.22
712.719	32679.78
713.063	32665.09
713.407	32647.23
713.75	32508.93
714.094	32327.92
714.438	32477.3
714.782	32484.08
715.125	32213.8
715.469	32329.5
715.812	32135.84
716.156	31879.57
716.499	32003.64
716.843	31999.12
717.186	31817.2
717.53	31867.37
717.873	31819.23
718.216	31736.07
718.559	31576.08
718.902	31499.24
719.246	31558.68
719.589	31364.33
719.932	31286.37
720.275	31298.8
720.617	31205.92
720.96	31213.15
721.303	31228.52
721.646	31181.06
721.989	30974.96
722.331	30977.67
722.674	30997.79
723.016	30965.47
723.359	30886.15
723.701	30890.67
724.044	30731.35
724.386	30447.29
724.729	30734.52
725.071	30770.45
725.413	30692.94
725.755	30567.06
726.097	30407.97
726.439	30297.01
726.782	30346.05
727.124	30414.75
727.465	30361.65
727.807	30278.48
728.149	30212.72
728.491	30284.81
728.833	30266.96
729.175	30061.54
729.516	29963.01
729.858	29816.12
730.199	29998.94
730.541	29897.48
730.882	29823.58
731.224	29913.75
731.565	29678.27
731.906	29802.56
732.248	29719.18
732.589	29608.9
732.93	29525.28
733.271	29589.91
733.612	29652.06
733.953	29547.2
734.294	29439.18
734.635	29318.06
734.976	29402.12
735.317	29226.99
735.658	29112.41
735.999	29136.37
736.339	29097.27
736.68	29164.61
737.021	29232.18
737.361	28904.73
737.702	29063.83
738.042	28963.72
738.383	28970.72
738.723	28892.98
739.063	28863.83
739.404	28930.04
739.744	28719.43
740.084	28716.72
740.424	28638.53
740.764	28616.61
741.104	28754.68
741.444	28524.18
741.784	28398.08
742.124	28500
742.464	28430.85
742.804	28257.52
743.143	28337.29
743.483	28420.91
743.823	28135.72
744.162	28147.24
744.502	28231.08
744.841	28130.29
745.181	28133.91
745.52	28027.7
745.86	28006.9
746.199	27982.05
746.538	27940.47
746.877	27910.64
747.216	27791.32
747.556	27797.42
747.895	27831.09
748.234	27635.62
748.573	27538.67
748.911	27613.24
749.25	27554.71
749.589	27436.3
749.928	27445.79
750.267	27539.12
750.605	27459.12
750.944	27276.98
751.283	27171.45
751.621	27184.55
751.96	27009.87
752.298	27195.17
752.636	27068.85
752.975	26951.57
753.313	26864.34
753.651	26917.67
753.989	26829.53
754.327	26727.39
754.666	26636.09
755.004	26575.76
755.342	26638.35
755.679	26622.76
756.017	26449.21
756.355	26499.6
756.693	26331.47
757.031	26460.05
757.368	26224.58
757.706	26041.98
758.044	26123.79
758.381	26163.56
758.719	25930.35
759.056	26069.55
759.394	25931.48
759.731	25782.1
760.068	25731.71
760.405	25715.44
760.743	25603.35
761.08	25612.17
761.417	25510.25
761.754	25464.6
762.091	25372.85
762.428	25237.94
762.765	25075.46
763.102	25122.23
763.438	25071.39
763.775	24844.5
764.112	24882.69
764.449	24972.41
764.785	24645.86
765.122	24668.46
765.458	24459.88
765.795	24449.03
766.131	24463.04
766.467	24361.8
766.804	24235.48
767.14	24154.35
767.476	24043.85
767.812	24035.03
768.148	24043.85
768.485	23857.64
768.821	23734.47
769.157	23688.83
769.492	23580.58
769.828	23702.16
770.164	23401.83
770.5	23366.35
770.836	23440.92
771.171	23320.93
771.507	23261.27
771.842	22932.24
772.178	23025.57
772.513	22971.56
772.849	22925.46
773.184	22701.51
773.519	22736.31
773.855	22671
774.19	22490.44
774.525	22534.51
774.86	22503.09
775.195	22405.47
775.53	22244.12
775.865	22164.8
776.2	22073.05
776.535	22019.94
776.87	21879.16
777.205	21831.02
777.539	21767.97
777.874	21783.34
778.209	21547.87
778.543	21507.64
778.878	21369.57
779.212	21403.01
779.547	21337.02
779.881	21307.87
780.215	21138.84
780.55	21200.76
780.884	21081.66
781.218	21099.97
781.552	20952.18
781.886	20749.02
782.22	20724.16
782.554	20615.01
782.888	20362.13
783.222	20385.64
783.556	20243.72
783.889	20189.26
784.223	20111.52
784.557	20077.4
784.89	20169.6
785.224	20104.29
785.557	19795.37
785.891	19800.11
786.224	19757.4
786.558	19737.07
786.891	19537.3
787.224	19603.74
787.557	19516.96
787.891	19427.47
788.224	19436.51
788.557	19505.43
788.89	19380.69
789.223	19279
789.556	19174.37
789.888	19046.24
790.221	19082.85
790.554	18884.43
790.887	18854.38
791.219	18925.79
791.552	18790.65
791.884	18746.13
792.217	18632.01
792.549	18583.88
792.882	18370.1
793.214	18368.51
793.546	18437.66
793.879	18245.81
794.211	18068.41
794.543	18157.67
794.875	18098.01
795.207	18127.39
795.539	17972.37
795.871	17954.97
796.203	17811.24
796.535	17778.25
796.867	17700.51
797.198	17666.39
797.53	17602.21
797.862	17542.77
798.193	17483.11
798.525	17409.44
798.856	17360.63
799.188	17247.19
799.519	17325.15
799.85	17184.82
800.182	17117.7
800.513	17093.75
800.844	16988.21
801.175	17104.59
801.506	16980.75
801.837	16882.45
802.168	16854.2
802.499	16782.12
802.83	16763.36
803.161	16632.97
803.491	16635.68
803.822	16725.17
804.153	16609.24
804.483	16466.19
804.814	16404.27
805.145	16358.85
805.475	16362.24
805.805	16360.43
806.136	16290.6
806.466	16206.99
806.796	16241.56
807.126	16130.15
807.457	16078.4
807.787	16111.17
808.117	16003.15
808.447	15926.32
808.777	15993.66
809.107	15864.4
809.436	15763.16
809.766	15787.34
810.096	15707.79
810.426	15697.85
810.755	15663.73
811.085	15678.87
811.414	15632.77
811.744	15444.52
812.073	15515.48
812.403	15449.95
812.732	15404.75
813.061	15391.64
813.39	15372.66
813.719	15337.18
814.049	15282.72
814.378	15184.64
814.707	15161.82
815.036	15169.95
815.365	15075.72
815.693	14936.74
816.022	14962.28
816.351	14891.32
816.68	14819
817.008	14901.49
817.337	14810.19
817.665	14741.94
817.994	14786.24
818.322	14747.59
818.651	14653.58
818.979	14569.07
819.307	14635.73
819.636	14612.23
819.964	14508.95
820.292	14588.95
820.62	14528.84
820.948	14477.09
821.276	14557.31
821.604	14506.69
821.932	14569.52
822.259	14449.97
822.587	14403.19
822.915	14361.16
823.243	14522.29
823.57	14422.63
823.898	14430.54
824.225	14390.31
824.553	14396.19
824.88	14355.96
825.207	14437.09
825.535	14348.28
825.862	14480.71
826.189	14373.59
826.516	14445.45
826.843	14400.71
827.17	14427.15
827.497	14429.18
827.824	14402.06
828.151	14452.23
828.478	14348.51
828.805	14429.41
829.131	14310.77
829.458	14374.95
829.785	14298.34
830.111	14329.98
830.438	14433.93
830.764	14383.31
831.09	14335.17
831.417	14316.42
831.743	14293.14
832.069	14263.09
832.395	14114.61
832.722	14363.42
833.048	14233.71
833.374	14285.46
833.7	14160.94
834.026	14172.69
834.351	14176.53
834.677	14277.55
835.003	14188.06
835.329	14195.52
835.654	14186.03
835.98	14120.94
836.306	14122.98
836.631	14056.31
836.956	14096.76
837.282	14143.54
837.607	14007.95
837.932	13904.22
838.258	13972.25
838.583	13984.22
838.908	13844.34
839.233	13860.61
839.558	13856.99
839.883	13847.5
840.208	13731.57
840.533	13826.49
840.858	13788.97
841.182	13778.13
841.507	13807.05
841.832	13675.98
842.156	13589.66
842.481	13644.34
842.805	13554.18
843.13	13671.24
843.454	13551.01
843.778	13446.38
844.103	13487.74
844.427	13431.69
844.751	13409.77
845.075	13414.75
845.399	13323.9
845.723	13222.43
846.047	13277.12
846.371	13173.85
846.695	13224.69
847.019	12993.06
847.343	13048.88
847.666	12960.29
847.99	12974.31
848.313	12901.77
848.637	12886.4
848.96	12722.79
849.284	12817.7
849.607	12613.86
849.931	12629.91
850.254	12522.34
850.577	12501.55
850.9	12345.17
851.223	12352.63
851.546	12329.12
851.869	12244.16
852.192	12308.56
852.515	12147.21
852.838	12168
853.161	12168.9
853.483	12132.97
853.806	11981.56
854.129	11993.99
854.451	11984.95
854.774	11868.57
855.096	11820.44
855.419	11799.2
855.741	11809.14
856.063	11746.77
856.385	11715.81
856.708	11624.96
857.03	11695.7
857.352	11665.87
857.674	11618.41
857.996	11530.05
858.318	11474.68
858.64	11457.06
858.961	11403.73
859.283	11512.2
859.605	11321.92
859.926	11307.91
860.248	11257.51
860.57	11301.13
860.891	11272.2
861.212	11207.8
861.534	11162.38
861.855	11188.82
862.176	11224.52
862.498	11118.31
862.819	11209.38
863.14	11027.46
863.461	11057.97
863.782	11044.41
864.103	10982.72
864.424	10935.49
864.745	11009.61
865.065	10967.13
865.386	10941.59
865.707	10855.27
866.027	10934.13
866.348	10853.91
866.668	10872.89
866.989	10765.78
867.309	10780.47
867.63	10792.89
867.95	10790.63
868.27	10688.94
868.59	10755.38
868.91	10730.75
869.23	10721.48
869.55	10569.4
869.87	10706.79
870.19	10662.73
870.51	10718.09
870.83	10638.77
871.15	10568.27
871.469	10561.94
871.789	10635.16
872.109	10514.26
872.428	10526.46
872.748	10537.76
873.067	10504.09
873.386	10570.53
873.706	10431.77
874.025	10518.33
874.344	10418.44
874.663	10493.69
874.982	10429.97
875.301	10388.61
875.62	10364.43
875.939	10362.85
876.258	10346.8
876.577	10254.38
876.896	10253.7
877.214	10217.09
877.533	10252.34
877.852	10184.77
878.17	10255.96
878.489	10228.16
878.807	10194.94
879.125	10185.23
879.444	10200.59
879.762	10165.34
880.08	10125.12
880.398	10066.81
880.716	10077.21
881.034	10005.8
881.352	10083.08
881.67	9956.31
881.988	10023.87
882.306	9968.51
882.624	9925.57
882.941	9841.73
883.259	9829.08
883.577	9880.15
883.894	9769.87
884.212	9755.63
884.529	9803.77
884.846	9769.42
885.164	9781.4
885.481	9707.5
885.798	9746.37
886.115	9680.83
886.432	9684.22
886.75	9610.33
887.067	9633.15
887.383	9581.17
887.7	9622.3
888.017	9580.72
888.334	9590.67
888.651	9588.18
888.967	9521.97
889.284	9507.73
889.6	9438.35
889.917	9391.35
890.233	9410.56
890.55	9317.45
890.866	9336.21
891.182	9297.57
891.498	9269.32
891.815	9260.73
892.131	9264.8
892.447	9185.7
892.763	9117.46
893.079	9184.57
893.395	9078.81
893.71	9153.16
894.026	9083.33
894.342	9067.74
894.657	8975.31
894.973	9035.65
895.289	9008.99
895.604	8967.63
895.92	8890.12
896.235	8895.77
896.55	8921.98
896.865	8809.67
897.181	8785.72
897.496	8785.94
897.811	8722.89
898.126	8666.85
898.441	8631.37
898.756	8637.02
899.071	8626.4
899.386	8615.78
899.7	8496.91
900.015	8522.45
900.33	8445.16
900.644	8352.73
900.959	8466.63
901.273	8384.14
901.588	8347.99
901.902	8259.4
902.216	8298.5
902.531	8281.32
902.845	8197.71
903.159	8211.49
903.473	8125.39
903.787	8119.52
904.101	8101.67
904.415	8051.72
904.729	8060.31
905.042	7953.19
905.356	7990.26
905.67	7971.73
905.984	7958.39
906.297	7858.06
906.611	7808.11
906.924	7828.45
907.237	7810.15
907.551	7817.61
907.864	7663.26
908.177	7740.77
908.491	7716.59
908.804	7659.19
909.117	7610.38
909.43	7572.87
909.743	7595.01
910.056	7537.61
910.368	7508.01
910.681	7458.74
910.994	7380.55
911.307	7429.82
911.619	7310.95
911.932	7366.77
912.244	7338.97
912.557	7256.72
912.869	7226.21
913.181	7236.15
913.494	7236.83
913.806	7165.19
914.118	7112.09
914.43	7109.83
914.742	7120.45
915.054	7047.68
915.366	7058.98
915.678	6990.96
915.99	7024.63
916.302	6939.89
916.613	6932.66
916.925	6862.6
917.236	6908.48
917.548	6880.45
917.859	6814.92
918.171	6800.23
918.482	6793.9
918.794	6754.36
919.105	6665.09
919.416	6625.32
919.727	6648.82
920.038	6580.35
920.349	6617.64
920.66	6522.27
920.971	6519.33
921.282	6495.15
921.593	6454.93
921.903	6379.68
922.214	6419.45
922.525	6423.07
922.835	6342.84
923.146	6319.57
923.456	6354.59
923.767	6267.59
924.077	6299.23
924.387	6258.55
924.697	6225.1
925.008	6164.09
925.318	6188.04
925.628	6195.5
925.938	6139.91
926.248	6069.85
926.558	6029.86
926.867	6063.75
927.177	5968.16
927.487	5974.04
927.796	5959.12
928.106	5919.8
928.416	5936.98
928.725	5889.07
929.034	5817.88
929.344	5818.79
929.653	5826.92
929.962	5767.04
930.271	5774.95
930.581	5718
930.89	5678.9
931.199	5670.54
931.508	5632.35
931.817	5637.32
932.125	5616.99
932.434	5626.7
932.743	5520.49
933.051	5573.37
933.36	5512.36
933.669	5442.3
933.977	5442.53
934.286	5469.87
934.594	5421.06
934.902	5383.77
935.21	5355.75
935.519	5348.07
935.827	5353.26
936.135	5250.22
936.443	5250.67
936.751	5237.11
937.059	5241.4
937.367	5207.05
937.674	5245.02
937.982	5188.07
938.29	5181.52
938.597	5170.44
938.905	5093.38
939.213	5048.19
939.52	5036.89
939.827	5054.51
940.135	5013.16
940.442	4961.64
940.749	4994.85
941.056	4949.43
941.363	4913.27
941.67	4912.82
941.977	4929.77
942.284	4879.6
942.591	4882.32
942.898	4791.92
943.205	4785.14
943.511	4822.43
943.818	4782.88
944.125	4762.54
944.431	4706.5
944.738	4728.87
945.044	4687.52
945.35	4666.95
945.657	4634.64
945.963	4598.25
946.269	4601.19
946.575	4550.35
946.881	4579.95
947.187	4586.73
947.493	4470.8
947.799	4540.4
948.105	4487.07
948.41	4429.9
948.716	4474.64
949.022	4385.15
949.327	4431.71
949.633	4364.14
949.938	4382.67
950.244	4338.15
950.549	4278.72
950.854	4294.99
951.16	4278.49
951.465	4278.04
951.77	4247.98
952.075	4174.09
952.38	4219.28
952.685	4194.88
952.99	4207.98
953.294	4173.63
953.599	4186.74
953.904	4109.68
954.209	4084.37
954.513	4141.09
954.818	4075.56
955.122	4083.69
955.426	4067.42
955.731	4020.87
956.035	3984.03
956.339	3989.68
956.643	4007.76
956.948	3919.85
957.252	3955.11
957.556	3912.62
957.86	3924.83
958.163	3865.39
958.467	3879.63
958.771	3846.18
959.075	3809.12
959.378	3802.57
959.682	3827.65
959.985	3777.03
960.289	3747.66
960.592	3750.59
960.896	3746.07
961.199	3722.8
961.502	3708.56
961.805	3667.88
962.108	3703.82
962.411	3659.52
962.714	3662.91
963.017	3639.18
963.32	3649.58
963.623	3626.53
963.926	3570.71
964.228	3582.46
964.531	3526.64
964.833	3545.85
965.136	3509.47
965.438	3511.28
965.741	3455.46
966.043	3483.48
966.345	3439.42
966.648	3433.09
966.95	3472.63
967.252	3378.63
967.554	3379.53
967.856	3370.72
968.158	3389.7
968.46	3355.35
968.761	3361.68
969.063	3324.39
969.365	3332.75
969.666	3321.45
969.968	3281.68
970.269	3250.27
970.571	3245.75
970.872	3208.69
971.174	3247.33
971.475	3234.22
971.776	3222.25
972.077	3168.24
972.378	3163.72
972.679	3166.2
972.98	3177.73
973.281	3088.46
973.582	3157.39
973.883	3098.86
974.183	3073.55
974.484	3073.55
974.785	3039.2
975.085	3061.8
975.386	3076.03
975.686	3037.84
975.986	3008.69
976.287	3015.02
976.587	2961.91
976.887	2965.08
977.187	2961.01
977.487	2941.58
977.787	2937.06
978.087	2863.84
978.387	2917.85
978.687	2893.89
978.987	2882.59
979.286	2858.64
979.586	2868.58
979.885	2847.57
980.185	2817.74
980.484	2838.08
980.784	2797.17
981.083	2770.28
981.382	2738.87
981.682	2782.26
981.981	2778.42
982.28	2697.74
982.579	2722.82
982.878	2708.59
983.177	2681.47
983.475	2721.02
983.774	2680.34
984.073	2658.87
984.372	2661.13
984.67	2681.02
984.969	2638.76
985.267	2604.86
985.566	2590.4
985.864	2596.5
986.162	2607.8
986.461	2580.45
986.759	2564.64
987.057	2564.18
987.355	2579.55
987.653	2558.53
987.951	2535.71
988.249	2524.19
988.547	2515.6
988.844	2493.9
989.142	2479.21
989.44	2457.52
989.737	2475.82
990.035	2477.18
990.332	2429.05
990.63	2412.1
990.927	2427.24
991.224	2388.82
991.521	2384.75
991.819	2373
992.116	2363.51
992.413	2371.19
992.71	2350.4
993.006	2360.12
993.303	2320.57
993.6	2337.75
993.897	2328.48
994.193	2316.51
994.49	2290.07
994.787	2293
995.083	2241.25
995.379	2281.25
995.676	2234.7
995.972	2239.22
996.268	2186.11
996.565	2190.86
996.861	2215.94
997.157	2172.1
997.453	2169.62
997.749	2145.89
998.044	2139.34
998.34	2169.84
998.636	2141.37
998.932	2160.8
999.227	2081.71
999.523	2101.37
999.818	2093.91
1000.114	2092.56
1000.409	2086.23
1000.704	2088.04
1001	2020.02
1001.295	2047.59
1001.59	2034.93
1001.885	2026.8
1002.18	2022.96
1002.475	1985.67
1002.77	1965.33
1003.065	1960.58
1003.359	1975.27
1003.654	1957.42
1003.949	1932.11
1004.243	1915.39
1004.538	1911.09
1004.832	1901.15
1005.127	1919.91
1005.421	1886.24
1005.715	1885.56
1006.009	1872.22
1006.304	1839.91
1006.598	1861.6
1006.892	1862.28
1007.186	1828.16
1007.48	1801.72
1007.773	1797.65
1008.067	1780.93
1008.361	1777.54
1008.655	1766.01
1008.948	1763.53
1009.242	1776.63
1009.535	1738.67
1009.829	1725.56
1010.122	1721.72
1010.415	1728.73
1010.708	1705.45
1011.001	1696.41
1011.295	1736.64
1011.588	1676.3
1011.881	1645.56
1012.173	1657.99
1012.466	1634.04
1012.759	1640.82
1013.052	1614.38
1013.344	1596.3
1013.637	1632.46
1013.93	1628.16
1014.222	1617.99
1014.514	1595.62
1014.807	1573.93
1015.099	1559.69
1015.391	1547.71
1015.683	1538.45
1015.976	1539.58
1016.268	1492.8
1016.56	1530.54
1016.851	1501.39
1017.143	1520.6
1017.435	1499.58
1017.727	1493.93
1018.018	1502.07
1018.31	1504.78
1018.602	1462.07
1018.893	1447.38
1019.185	1463.65
1019.476	1437.89
1019.767	1437.43
1020.058	1407.6
1020.35	1410.77
1020.641	1376.19
1020.932	1389.98
1021.223	1375.29
1021.514	1366.25
1021.804	1345.91
1022.095	1372.8
1022.386	1383.65
1022.677	1344.78
1022.967	1314.5
1023.258	1328.06
1023.548	1287.83
1023.839	1310.88
1024.129	1314.05
1024.419	1283.54
1024.709	1264.33
1025	1269.3
1025.29	1272.24
1025.58	1240.6
1025.87	1226.37
1026.16	1224.78
1026.449	1207.61
1026.739	1208.51
1027.029	1219.59
1027.319	1222.98
1027.608	1215.52
1027.898	1183.2
1028.187	1183.43
1028.477	1194.28
1028.766	1149.98
1029.055	1174.39
1029.344	1162.86
1029.634	1147.95
1029.923	1148.4
1030.212	1118.57
1030.501	1129.87
1030.79	1110.66
1031.078	1121.74
1031.367	1095.52
1031.656	1104.11
1031.945	1074.05
1032.233	1077.44
1032.522	1072.47
1032.81	1063.88
1033.099	1083.54
1033.387	1050.1
1033.675	1033.15
1033.963	1017.11
1034.251	1025.24
1034.54	1060.49
1034.828	1010.1
1035.116	1008.97
1035.403	1015.52
1035.691	1009.42
1035.979	987.73
1036.267	997.67
1036.554	994.73
1036.842	958.58
1037.129	978.24
1037.417	964.9
1037.704	958.12
1037.992	940.72
1038.279	955.64
1038.566	932.81
1038.853	932.81
1039.14	932.81
