Data from hue_340_FLMS001491_94.txt Node
Date: Mon Feb 06 15:43:53 GMT 2017
User: dcchb
Spectrometer: FLMS00149
Trigger mode: 0
Integration Time (sec): 2.000000E-2
Scans to average: 10
Electric dark correction enabled: true
Nonlinearity correction enabled: false
Boxcar width: 0
XAxis mode: Wavelengths
Number of Pixels in Spectrum: 2048
>>>>>Begin Spectral Data<<<<<
341.393	23.04
341.776	23.04
342.16	23.04
342.543	-87.24
342.927	-50.41
343.31	-60.58
343.693	-69.84
344.077	-73.68
344.46	-72.55
344.843	-60.35
345.226	-34.59
345.61	-42.5
345.993	-21.26
346.376	-12.67
346.759	21.68
347.142	20.1
347.525	45.63
347.908	53.32
348.291	77.05
348.674	113.43
349.057	116.82
349.44	135.12
349.823	146.42
350.206	154.78
350.588	189.81
350.971	211.51
351.354	215.57
351.737	236.14
352.119	230.71
352.502	269.13
352.884	275.46
353.267	261.22
353.65	275.46
354.032	298.51
354.414	298.51
354.797	306.19
355.179	350.71
355.562	326.08
355.944	324.5
356.326	324.05
356.709	320.88
357.091	306.42
357.473	355
357.855	336.47
358.238	343.93
358.62	320.43
359.002	325.4
359.384	330.82
359.766	331.95
360.148	342.35
360.53	340.09
360.912	322.46
361.294	333.54
361.676	337.38
362.057	325.4
362.439	324.5
362.821	324.72
363.203	332.18
363.584	308.45
363.966	302.8
364.348	301.22
364.729	310.03
365.111	323.37
365.493	326.76
365.874	329.69
366.256	316.59
366.637	298.28
367.019	325.63
367.4	299.41
367.781	307.32
368.163	312.07
368.544	317.04
368.925	298.06
369.306	286.08
369.688	306.19
370.069	310.94
370.45	301.22
370.831	320.43
371.212	301.45
371.593	309.13
371.974	314.33
372.355	320.2
372.736	309.81
373.117	303.03
373.498	304.84
373.879	304.84
374.26	301.67
374.641	305.06
375.021	345.29
375.402	321.79
375.783	317.72
376.163	317.72
376.544	310.94
376.925	293.76
377.305	294.44
377.686	317.49
378.066	315.91
378.447	340.54
378.827	304.38
379.208	308.9
379.588	322.69
379.968	339.64
380.349	320.2
380.729	328.79
381.109	317.04
381.489	332.18
381.87	315.01
382.25	337.15
382.63	314.1
383.01	329.24
383.39	326.98
383.77	320.66
384.15	331.73
384.53	336.7
384.91	327.21
385.29	332.18
385.67	365.85
386.049	328.34
386.429	339.41
386.809	336.7
387.189	354.33
387.568	323.82
387.948	324.72
388.328	341.67
388.707	343.03
389.087	359.98
389.466	339.86
389.846	350.94
390.225	342.35
390.605	361.33
390.984	362.46
391.363	326.98
391.743	354.1
392.122	350.94
392.501	347.32
392.881	363.59
393.26	366.3
393.639	361.56
394.018	340.54
394.397	367.21
394.776	348
395.155	361.78
395.534	355
395.913	342.8
396.292	378.96
396.671	363.37
397.05	361.33
397.429	376.93
397.808	371.95
398.186	355.91
398.565	382.8
398.944	380.77
399.323	363.59
399.701	385.06
400.08	393.65
400.458	368.11
400.837	390.94
401.215	376.47
401.594	397.26
401.972	375.8
402.351	380.54
402.729	374.67
403.107	366.98
403.486	366.08
403.864	383.25
404.242	388.9
404.62	400.43
404.999	399.75
405.377	398.17
405.755	415.57
406.133	410.82
406.511	403.14
406.889	403.14
407.267	400.2
407.645	411.27
408.023	395.46
408.401	433.19
408.779	428
409.156	428.45
409.534	432.52
409.912	435.91
410.29	429.58
410.667	460.54
411.045	434.78
411.422	429.13
411.8	435.23
412.178	470.48
412.555	463.48
412.933	437.04
413.31	471.16
413.687	471.61
414.065	486.53
414.442	491.05
414.819	474.1
415.197	476.58
415.574	489.24
415.951	495.34
416.328	503.93
416.705	470.03
417.082	492.63
417.46	514.32
417.837	511.38
418.214	498.28
418.591	519.52
418.967	506.64
419.344	526.3
419.721	506.19
420.098	534.66
420.475	550.93
420.852	536.47
421.228	532.85
421.605	526.75
421.982	546.86
422.358	546.64
422.735	544.6
423.111	547.09
423.488	551.84
423.864	559.52
424.241	551.84
424.617	561.1
424.994	579.18
425.37	597.94
425.746	603.36
426.123	610.82
426.499	572.85
426.875	591.38
427.251	585.51
427.627	611.5
428.003	585.96
428.379	594.32
428.756	613.08
429.132	642.68
429.507	625.51
429.883	646.07
430.259	669.8
430.635	639.29
431.011	630.25
431.387	668.22
431.763	667.31
432.138	660.76
432.514	685.84
432.89	677.71
433.265	683.58
433.641	696.46
434.016	691.72
434.392	721.32
434.767	713.41
435.143	727.88
435.518	736.24
435.894	723.81
436.269	710.93
436.644	751.83
437.02	722.45
437.395	769.46
437.77	759.29
438.145	759.29
438.52	794.99
438.895	777.59
439.271	772.85
439.646	775.78
440.021	799.06
440.395	793.86
440.77	790.47
441.145	776.91
441.52	800.64
441.895	808.78
442.27	797.71
442.645	807.87
443.019	801.55
443.394	823.92
443.769	828.44
444.143	801.32
444.518	834.54
444.892	837.7
445.267	841.55
445.641	842.22
446.016	834.99
446.39	865.73
446.764	842.22
447.139	844.94
447.513	848.78
447.887	850.81
448.262	860.3
448.636	848.55
449.01	900.08
449.384	865.95
449.758	858.72
450.132	900.08
450.506	885.84
450.88	887.65
451.254	889.91
451.628	886.74
452.002	915.89
452.376	914.09
452.75	902.34
453.123	914.09
453.497	938.27
453.871	952.28
454.244	933.75
454.618	927.65
454.992	950.02
455.365	926.97
455.739	971.49
456.112	976.68
456.486	997.02
456.859	999.51
457.232	998.83
457.606	1019.39
457.979	1001.77
458.352	1008.77
458.725	1025.5
459.099	1042.22
459.472	1046.96
459.845	1058.04
460.218	1047.42
460.591	1073.18
460.964	1089.9
461.337	1090.58
461.71	1095.32
462.083	1107.53
462.456	1087.64
462.829	1149.56
463.201	1128.09
463.574	1123.12
463.947	1168.32
464.32	1144.81
464.692	1163.8
465.065	1170.58
465.438	1174.64
465.81	1192.04
466.183	1212.16
466.555	1217.13
466.928	1246.73
467.3	1217.35
467.672	1223.23
468.045	1247.86
468.417	1252.61
468.789	1275.43
469.161	1290.57
469.534	1295.09
469.906	1337.8
470.278	1332.83
470.65	1318.14
471.022	1355.43
471.394	1394.53
471.766	1407.18
472.138	1416.67
472.51	1419.61
472.882	1424.58
473.253	1453.06
473.625	1489.21
473.997	1488.08
474.369	1524.92
474.74	1540.74
475.112	1541.64
475.484	1553.17
475.855	1575.31
476.227	1583.9
476.598	1614.86
476.97	1610.11
477.341	1677.91
477.713	1674.97
478.084	1725.14
478.455	1722.2
478.827	1736.89
479.198	1809.2
479.569	1775.08
479.94	1839.94
480.311	1835.19
480.682	1866.83
481.053	1907.05
481.424	1973.04
481.795	1970.56
482.166	2000.61
482.537	1994.96
482.908	2047.84
483.279	2052.14
483.65	2070.67
484.021	2113.6
484.391	2133.49
484.762	2206.71
485.133	2179.36
485.503	2198.8
485.874	2226.37
486.244	2280.83
486.615	2305.01
486.985	2366.93
487.356	2359.7
487.726	2396.31
488.097	2436.53
488.467	2423.2
488.837	2471.33
489.207	2505.46
489.578	2542.74
489.948	2562.4
490.318	2589.75
490.688	2605.34
491.058	2645.79
491.428	2642.63
491.798	2672.23
492.168	2762.63
492.538	2742.96
492.908	2780.48
493.278	2777.09
493.648	2780.25
494.017	2832.68
494.387	2928.5
494.757	2894.37
495.126	2960.36
495.496	2920.81
495.866	2938.67
496.235	2959
496.605	2995.39
496.974	3004.65
497.344	3016.18
497.713	3083.07
498.082	3070.41
498.452	3128.72
498.821	3104.31
499.19	3140.47
499.559	3170.07
499.928	3200.81
500.298	3198.77
500.667	3188.15
501.036	3210.52
501.405	3258.66
501.774	3248.04
502.143	3271.09
502.512	3260.92
502.88	3320.35
503.249	3338.88
503.618	3348.15
503.987	3350.86
504.356	3391.08
504.724	3337.75
505.093	3399.22
505.462	3369.61
505.83	3401.93
506.199	3429.73
506.567	3448.48
506.936	3448.93
507.304	3490.97
507.672	3490.29
508.041	3516.5
508.409	3490.06
508.777	3551.53
509.145	3600.12
509.514	3555.37
509.882	3564.41
510.25	3568.71
510.618	3616.61
510.986	3634.24
511.354	3587.69
511.722	3645.99
512.09	3694.13
512.458	3704.52
512.826	3688.02
513.193	3708.36
513.561	3719.44
513.929	3721.02
514.297	3753.79
514.664	3737.06
515.032	3758.98
515.4	3807.57
515.767	3777.74
516.135	3813.9
516.502	3765.31
516.869	3872.2
517.237	3810.96
517.604	3886.21
517.972	3844.63
518.339	3866.78
518.706	3852.31
519.073	3878.08
519.44	3869.26
519.808	3814.12
520.175	3920.56
520.542	3932.31
520.909	3929.83
521.276	3958.98
521.643	3991.75
522.009	4001.69
522.376	4002.82
522.743	4026.55
523.11	4046.89
523.477	4081.23
523.843	4073.55
524.21	4126.21
524.577	4133.89
524.943	4132.76
525.31	4143.38
525.676	4192.19
526.043	4170.72
526.409	4222.47
526.776	4219.99
527.142	4263.38
527.508	4250.04
527.874	4277.16
528.241	4271.51
528.607	4354.9
528.973	4428.8
529.339	4340.21
529.705	4389.7
530.071	4413.88
530.437	4480.77
530.803	4459.98
531.169	4473.54
531.535	4449.81
531.901	4479.87
532.267	4504.95
532.632	4548.34
532.998	4505.63
533.364	4603.71
533.73	4531.39
534.095	4631.73
534.461	4618.17
534.826	4647.32
535.192	4668.79
535.557	4690.48
535.923	4692.97
536.288	4674.21
536.653	4732.52
537.019	4739.52
537.384	4750.14
537.749	4725.29
538.114	4801.67
538.479	4798.5
538.845	4867.43
539.21	4830.59
539.575	4885.51
539.94	4909.24
540.305	4919.86
540.67	4896.13
541.034	4970.25
541.399	4985.39
541.764	4925.73
542.129	4977.48
542.494	4987.88
542.858	5062.23
543.223	5035.33
543.587	5077.82
543.952	5079.63
544.316	5136.57
544.681	5071.04
545.045	5135.67
545.41	5189.91
545.774	5199.4
546.138	5180.64
546.503	5252.28
546.867	5263.8
547.231	5326.4
547.595	5298.15
547.959	5247.98
548.324	5323.91
548.688	5348.32
549.052	5361.65
549.416	5410.01
549.779	5361.43
550.143	5385.16
550.507	5406.62
550.871	5425.38
551.235	5521.2
551.599	5532.5
551.962	5555.32
552.326	5551.93
552.689	5551.48
553.053	5581.31
553.417	5538.82
553.78	5625.15
554.143	5607.75
554.507	5649.55
554.87	5625.83
555.234	5680.51
555.597	5633.06
555.96	5636.45
556.323	5682.32
556.686	5714.19
557.05	5737.46
557.413	5755.99
557.776	5750.34
558.139	5825.82
558.502	5840.96
558.865	5772.72
559.228	5876.89
559.59	5846.84
559.953	5914.18
560.316	5913.05
560.679	5892.26
561.041	5958.93
561.404	5901.3
561.767	5995.31
562.129	5983.33
562.492	6047.74
562.854	6024.91
563.217	6050
563.579	6102.65
563.941	6109.43
564.304	6146.72
564.666	6125.25
565.028	6159.6
565.39	6134.97
565.753	6189.2
566.115	6231.01
566.477	6214.06
566.839	6207.96
567.201	6263.32
567.563	6239.82
567.925	6338.35
568.287	6360.5
568.648	6371.12
569.01	6373.6
569.372	6383.09
569.734	6437.33
570.095	6433.26
570.457	6525.92
570.819	6533.37
571.18	6516.2
571.542	6575.86
571.903	6609.08
572.265	6629.87
572.626	6656.53
572.987	6724.33
573.349	6745.57
573.71	6809.07
574.071	6798.9
574.432	6845.46
574.794	6943.76
575.155	6985.79
575.516	6980.14
575.877	7025.11
576.238	7138.78
576.599	7178.33
576.96	7233.69
577.32	7295.16
577.681	7354.59
578.042	7469.17
578.403	7482.73
578.763	7539
579.124	7668.71
579.485	7754.58
579.845	7866.67
580.206	7910.06
580.566	8030.28
580.927	8104.63
581.287	8292.65
581.648	8358.86
582.008	8467.56
582.368	8575.13
582.728	8721.56
583.089	8749.81
583.449	8981.44
583.809	9152.29
584.169	9249.23
584.529	9351.38
584.889	9628.89
585.249	9748.43
585.609	9829.33
585.969	10092.38
586.329	10245.14
586.688	10467.06
587.048	10686.48
587.408	10778.69
587.768	11014.39
588.127	11186.58
588.487	11414.38
588.846	11702.5
589.206	11817.75
589.565	12026.79
589.925	12335.48
590.284	12589.49
590.643	12779.08
591.003	13037.16
591.362	13365.51
591.721	13534.55
592.08	13782.22
592.44	14097.92
592.799	14420.17
593.158	14601.86
593.517	14838.24
593.876	15241.39
594.235	15414.27
594.593	15587.37
594.952	15905.33
595.311	16107.36
595.67	16487.69
596.029	16887.9
596.387	17185.3
596.746	17422.13
597.104	17699.63
597.463	17796.13
597.822	18274.99
598.18	18457.13
598.538	18651.92
598.897	19081.29
599.255	19159.26
599.613	19661.62
599.972	19868.16
600.33	20119
600.688	20234.71
601.046	20656.84
601.404	20951.3
601.762	21236.04
602.12	21620.89
602.478	21737.04
602.836	22100.2
603.194	22169.12
603.552	22475.33
603.91	22690.46
604.268	22976.1
604.625	23113.73
604.983	23460.61
605.341	23656.54
605.698	23962.29
606.056	24148.05
606.413	24445.22
606.771	24652.45
607.128	24996.62
607.485	25086.78
607.843	25385.99
608.2	25606.77
608.557	25763.38
608.914	25988.46
609.272	26281.1
609.629	26575.33
609.986	26745.5
610.343	26856
610.7	27261.64
611.057	27267.97
611.414	27554.29
611.771	27643.1
612.127	28040.6
612.484	28210.54
612.841	28424.55
613.198	28427.04
613.554	28627.71
613.911	28817.76
614.267	28957.42
614.624	29130.07
614.98	29411.87
615.337	29579.55
615.693	29597.85
616.05	29891.18
616.406	30103.15
616.762	30055.69
617.118	30271.28
617.475	30281.45
617.831	30500.43
618.187	30693.87
618.543	30861.32
618.899	31123.69
619.255	31224.48
619.611	31200.97
619.967	31468.31
620.323	31537.24
620.678	31517.35
621.034	31591.02
621.39	31857.23
621.746	31736.1
622.101	32263.77
622.457	32122.76
622.812	32182.42
623.168	32452.24
623.523	32659.47
623.879	32593.71
624.234	32530.43
624.589	32766.58
624.945	32757.99
625.3	32906.92
625.655	32984.43
626.01	33049.96
626.365	33232.56
626.72	33035.95
627.075	33275.5
627.43	33211.09
627.785	33331.76
628.14	33415.15
628.495	33407.02
628.85	33341.26
629.205	33371.31
629.559	33741.92
629.914	33513.45
630.269	33619.21
630.623	33635.03
630.978	33605.88
631.332	33960.9
631.687	33908.7
632.041	33717.52
632.396	33934.46
632.75	33599.78
633.104	33882.48
633.459	33771.3
633.813	33646.56
634.167	33864.18
634.521	33788.93
634.875	33923.16
635.229	33749.83
635.583	33826.22
635.937	33787.57
636.291	33817.63
636.645	33918.19
636.999	33909.6
637.352	34048.36
637.706	33766.78
638.06	34059.43
638.413	33884.97
638.767	33836.16
639.121	34033.44
639.474	33743.05
639.828	33867.57
640.181	33883.16
640.534	33897.17
640.888	33799.32
641.241	33723.39
641.594	33781.02
641.947	34077.51
642.301	33789.38
642.654	33901.02
643.007	33858.98
643.36	33915.7
643.713	33881.58
644.066	33922.71
644.419	33696.95
644.771	33473.46
645.124	33271.65
645.477	33136.29
645.83	32960.25
646.182	32817.43
646.535	32821.04
646.888	33048.83
647.24	32623.31
647.593	32884.32
647.945	32980.59
648.298	32713.25
648.65	32602.97
649.002	32690.88
649.355	32774.27
649.707	32766.81
650.059	32835.28
650.411	33136.97
650.763	33209.28
651.115	33673.45
651.467	33532.66
651.819	33491.08
652.171	33544.41
652.523	33468.48
652.875	33501.25
653.227	33400.92
653.578	33501.7
653.93	33387.13
654.282	33309.62
654.633	33322.95
654.985	33362.95
655.337	33330.18
655.688	33441.82
656.039	33454.93
656.391	33202.05
656.742	33245.21
657.094	33217.19
657.445	33362.05
657.796	33226.91
658.147	33146.46
658.498	33142.17
658.849	33272.56
659.2	33189.4
659.551	33216.51
659.902	33209.28
660.253	33101.94
660.604	33263.52
660.955	33135.61
661.306	33121.6
661.656	33194.37
662.007	33124.99
662.358	33167.7
662.708	33082.28
663.059	33156.4
663.409	33049.06
663.76	33395.49
664.11	33170.87
664.461	33259.68
664.811	33234.37
665.161	33195.95
665.511	33008.16
665.862	33112.56
666.212	33236.85
666.562	33258.77
666.912	33135.39
667.262	33187.59
667.612	33068.04
667.962	33231.43
668.312	33021.94
668.662	33270.98
669.011	33155.95
669.361	33090.64
669.711	33044.31
670.06	32936.52
670.41	32999.34
670.76	32979.23
671.109	33209.28
671.459	33004.77
671.808	32937.88
672.157	33122.73
672.507	32787.15
672.856	32857.2
673.205	32939.46
673.554	32940.81
673.904	32790.76
674.253	32944.43
674.602	32821.04
674.951	32463.31
675.3	32139.25
675.649	32750.54
675.998	32772.23
676.346	32815.39
676.695	32856.07
677.044	32691.56
677.393	32769.52
677.741	32846.81
678.09	32647.26
678.438	32639.13
678.787	32626.25
679.135	32638.22
679.484	32393.48
679.832	32515.52
680.181	32330.21
680.529	32553.03
680.877	32374.5
681.225	32357.55
681.573	32479.13
681.922	32375.63
682.27	32232.81
682.618	32288.63
682.966	32124.56
683.314	32312.36
683.661	32159.82
684.009	31974.74
684.357	31803.22
684.705	31903.1
685.053	31769.32
685.4	31859.26
685.748	31764.12
686.095	31841.63
686.443	31638.48
686.79	31685.48
687.138	31797.34
687.485	31670.11
687.832	31692.49
688.18	31561.19
688.527	31402.1
688.874	31413.17
689.221	31367.07
689.568	31255.44
689.915	31154.87
690.262	31133.86
690.609	31138.83
690.956	30956.01
691.303	30896.8
691.65	30838.72
691.997	30874.88
692.344	30591.72
692.69	30609.58
693.037	30590.37
693.383	30335.69
693.73	30388.34
694.077	30223.6
694.423	30113.54
694.769	30143.37
695.116	30151.06
695.462	30111.96
695.808	29896.37
696.155	29892.53
696.501	29867.68
696.847	29695.7
697.193	29580.9
697.539	29669.94
697.885	29481.7
698.231	29522.83
698.577	29446.44
698.923	29271.76
699.269	29135.49
699.614	29231.08
699.96	29068.6
700.306	28991.77
700.651	29048.04
700.997	28712.23
701.342	28873.12
701.688	28803.52
702.033	28678.33
702.379	28662.74
702.724	28599.69
703.069	28581.16
703.415	28405.34
703.76	28358.56
704.105	28292.8
704.45	28297.55
704.795	28118.79
705.14	27951.57
705.485	28105.69
705.83	27846.71
706.175	27997.67
706.52	27822.76
706.865	27783.66
707.209	27782.98
707.554	27786.6
707.899	27676.55
708.243	27615.08
708.588	27559.26
708.932	27230.23
709.277	27271.59
709.621	27257.57
709.966	27184.58
710.31	27146.39
710.654	26960.18
710.998	27123.11
711.342	27015.55
711.687	26880.64
712.031	26800.86
712.375	26712.28
712.719	26790.24
713.063	26800.41
713.407	26817.36
713.75	26689.91
714.094	26597.7
714.438	26419.86
714.782	26545.73
715.125	26398.84
715.469	26266.87
715.812	26286.07
716.156	26082.01
716.499	26204.72
716.843	26238.84
717.186	25993.65
717.53	26166.98
717.873	26124.95
718.216	26044.5
718.559	25850.61
718.902	25743.26
719.246	25785.52
719.589	25670.27
719.932	25701.46
720.275	25572.19
720.617	25633.21
720.96	25531.29
721.303	25587.11
721.646	25496.49
721.989	25347.79
722.331	25544.62
722.674	25488.13
723.016	25453.1
723.359	25346.44
723.701	25356.16
724.044	25165.65
724.386	25103.28
724.729	25221.24
725.071	25063.96
725.413	25093.56
725.755	25059.89
726.097	24999.55
726.439	24779.22
726.782	24898.31
727.124	24920.01
727.465	24851.99
727.807	24793.46
728.149	24826.45
728.491	24667.59
728.833	24756.4
729.175	24582.16
729.516	24688.15
729.858	24543.52
730.199	24518.89
730.541	24470.3
730.882	24463.75
731.224	24606.34
731.565	24399.34
731.906	24400.25
732.248	24455.16
732.589	24307.6
732.93	24247.26
733.271	24195.96
733.612	24302.4
733.953	24303.3
734.294	24122.97
734.635	24021.95
734.976	24052.23
735.317	23964.55
735.658	23956.42
735.999	24034.16
736.339	24038.68
736.68	24003.65
737.021	23825.57
737.361	23692.92
737.702	23936.08
738.042	23748.97
738.383	23802.98
738.723	23718.91
739.063	23696.99
739.404	23680.04
739.744	23575.64
740.084	23553.72
740.424	23622.19
740.764	23469.43
741.104	23685.01
741.444	23442.99
741.784	23487.96
742.124	23324.34
742.464	23406.6
742.804	23398.47
743.143	23304.23
743.483	23274.4
743.823	23105.82
744.162	23077.57
744.502	23309.88
744.841	23035.31
745.181	23059.94
745.52	23033.73
745.86	23094.29
746.199	23018.36
746.538	22911.02
746.877	22972.04
747.216	22910.57
747.556	22977.01
747.895	22984.69
748.234	22778.14
748.573	22767.97
748.911	22753.96
749.25	22734.3
749.589	22666.06
749.928	22662.67
750.267	22653.85
750.605	22574.99
750.944	22547.42
751.283	22493.18
751.621	22522.56
751.96	22412.28
752.298	22446.85
752.636	22331.15
752.975	22318.04
753.313	22220.64
753.651	22278.72
753.989	22157.37
754.327	22083.25
754.666	22071.04
755.004	22068.11
755.342	22116.01
755.679	21930.26
756.017	21866.3
756.355	21939.07
756.693	21705.18
757.031	21910.14
757.368	21735.01
757.706	21602.58
758.044	21620.43
758.381	21603.94
758.719	21506.09
759.056	21594.9
759.394	21506.31
759.731	21276.94
760.068	21390.38
760.405	21243.04
760.743	21154.91
761.08	21194.46
761.417	21056.38
761.754	21045.31
762.091	21057.29
762.428	20995.37
762.765	20802.38
763.102	20939.77
763.438	20709.27
763.775	20663.62
764.112	20625.43
764.449	20545.89
764.785	20486
765.122	20384.53
765.458	20314.93
765.795	20304.08
766.131	20288.04
766.467	20223.86
766.804	20135.05
767.14	20055.05
767.476	20020.02
767.812	19977.99
768.148	19999.46
768.485	19823.87
768.821	19725.12
769.157	19796.75
769.492	19623.65
769.828	19636.98
770.164	19437.44
770.5	19456.65
770.836	19384.79
771.171	19243.32
771.507	19372.81
771.842	19185.24
772.178	19243.32
772.513	19008.75
772.849	19090.56
773.184	18984.12
773.519	18975.98
773.855	18824.12
774.19	18794.07
774.525	18668.65
774.86	18621.42
775.195	18537.58
775.53	18491.25
775.865	18519.72
776.2	18314.76
776.535	18160.19
776.87	18243.57
777.205	18181.65
777.539	18062.79
777.874	18018.72
778.209	17986.86
778.543	17906.18
778.878	17705.96
779.212	17711.38
779.547	17722.01
779.881	17703.7
780.215	17595.68
780.55	17583.93
780.884	17468.68
781.218	17502.12
781.552	17439.75
781.886	17395.69
782.22	17221.91
782.554	17184.84
782.888	17144.17
783.222	17062.14
783.556	16923.38
783.889	16842.25
784.223	16815.36
784.557	16739.21
784.89	16797.96
785.224	16683.16
785.557	16591.19
785.891	16566.1
786.224	16508.48
786.558	16439.55
786.891	16327.01
787.224	16277.52
787.557	16211.54
787.891	16250.18
788.224	16184.42
788.557	16147.81
788.89	16112.56
789.223	16049.06
789.556	15981.49
789.888	15864.88
790.221	15797.76
790.554	15767.93
790.887	15699.23
791.219	15660.59
791.552	15600.93
791.884	15577.2
792.217	15537.66
792.549	15511.22
792.882	15334.95
793.214	15304.89
793.546	15307.83
793.879	15260.38
794.211	15088.4
794.543	15148.06
794.875	15055.64
795.207	15112.36
795.539	14964.11
795.871	15015.18
796.203	14868.97
796.535	14789.43
796.867	14755.76
797.198	14729.99
797.53	14636.89
797.862	14588.75
798.193	14594.18
798.525	14575.2
798.856	14579.72
799.188	14327.29
799.519	14348.54
799.85	14294.98
800.182	14314.64
800.513	14238.26
800.844	14157.35
801.175	14214.75
801.506	14237.35
801.837	14102.89
802.168	14026.74
802.499	14034.87
802.83	13888.43
803.161	13904.93
803.491	13873.75
803.822	13881.43
804.153	13837.36
804.483	13784.26
804.814	13658.16
805.145	13650.02
805.475	13679.4
805.805	13565.96
806.136	13638.5
806.466	13591.27
806.796	13574.54
807.126	13428.33
807.457	13330.26
807.787	13398.05
808.117	13292.52
808.447	13332.06
808.777	13292.74
809.107	13248.23
809.436	13211.39
809.766	13205.97
810.096	13189.02
810.426	13080.55
810.755	13112.18
811.085	12986.99
811.414	13013.65
811.744	12940.66
812.073	12843.04
812.403	12878.07
812.732	12805.52
813.061	12801.01
813.39	12734.79
813.719	12699.76
814.049	12702.02
814.378	12593.55
814.707	12620.44
815.036	12624.51
815.365	12582.93
815.693	12358.53
816.022	12403.73
816.351	12401.47
816.68	12365.76
817.008	12358.98
817.337	12285.31
817.665	12263.84
817.994	12253.45
818.322	12264.97
818.651	12164.19
818.979	12143.62
819.307	12108.37
819.636	12180.91
819.964	12089.16
820.292	12168.71
820.62	12095.94
820.948	12024.08
821.276	12045.77
821.604	12050.52
821.932	12020.23
822.259	12029.27
822.587	12022.04
822.915	11965.09
823.243	12036.05
823.57	11956.51
823.898	12063.85
824.225	12038.09
824.553	11950.41
824.88	11906.79
825.207	11973.23
825.535	11967.13
825.862	11962.38
826.189	11911.99
826.516	11963.29
826.843	12078.76
827.17	11900.92
827.497	12043.29
827.824	12032.66
828.151	12051.19
828.478	11934.59
828.805	11964.19
829.131	11961.03
829.458	11996.73
829.785	11960.35
830.111	11931.42
830.438	12025.88
830.764	11973.46
831.09	11935.27
831.417	11843.52
831.743	11937.53
832.069	11874.7
832.395	11909.96
832.722	11884.87
833.048	11916.51
833.374	11919.9
833.7	11859.79
834.026	11865.66
834.351	11782.95
834.677	11832.9
835.003	11891.2
835.329	11834.93
835.654	11735.95
835.98	11780.69
836.306	11747.25
836.631	11748.15
836.956	11782.05
837.282	11716.97
837.607	11688.49
837.932	11680.13
838.258	11653.24
838.583	11613.92
838.908	11624.31
839.233	11533.69
839.558	11518.33
839.883	11463.41
840.208	11481.94
840.533	11535.95
840.858	11470.19
841.182	11534.37
841.507	11444.2
841.832	11364.43
842.156	11396.97
842.481	11403.98
842.805	11316.98
843.13	11263.64
843.454	11330.76
843.778	11280.14
844.103	11186.13
844.427	11168.05
844.751	11206.02
845.075	11128.96
845.399	11143.2
845.723	11076.76
846.047	11099.58
846.371	10977.55
846.695	10984.33
847.019	10943.43
847.343	10874.95
847.666	10839.47
847.99	10807.84
848.313	10778.01
848.637	10717.9
848.96	10654.62
849.284	10661.85
849.607	10535.75
849.931	10476.09
850.254	10459.37
850.577	10494.17
850.9	10413.05
851.223	10380.5
851.546	10341.86
851.869	10196.78
852.192	10281.98
852.515	10120.85
852.838	10184.12
853.161	10156.55
853.483	10036.11
853.806	10037.91
854.129	9981.87
854.451	9988.42
854.774	9913.62
855.096	9891.25
855.419	9857.58
855.741	9830.24
856.063	9840.18
856.385	9789.11
856.708	9781.88
857.03	9707.3
857.352	9708.21
857.674	9686.51
857.996	9674.99
858.318	9586.85
858.64	9553.18
858.961	9571.49
859.283	9551.83
859.605	9422.56
859.926	9527.87
860.248	9478.38
860.57	9442.68
860.891	9503.24
861.212	9374.43
861.534	9403.35
861.855	9361.55
862.176	9356.8
862.498	9371.72
862.819	9325.62
863.14	9254.43
863.461	9226.64
863.782	9210.59
864.103	9151.84
864.424	9164.94
864.745	9241.78
865.065	9143.47
865.386	9100.09
865.707	9141.44
866.027	9097.6
866.348	9059.41
866.668	9150.93
866.989	9047.21
867.309	8984.38
867.63	9019.64
867.95	9020.99
868.27	8996.81
868.59	8971.5
868.91	8983.93
869.23	8961.11
869.55	8936.25
869.87	8980.77
870.19	8942.35
870.51	8917.27
870.83	8837.95
871.15	8791.17
871.469	8829.36
871.789	8850.37
872.109	8868.68
872.428	8749.81
872.748	8793.88
873.067	8836.59
873.386	8839.08
873.706	8737.84
874.025	8722.24
874.344	8746.42
874.663	8724.05
874.982	8701.23
875.301	8658.52
875.62	8638.18
875.939	8696.71
876.258	8648.8
876.577	8599.08
876.896	8630.72
877.214	8585.75
877.533	8584.17
877.852	8616.26
878.17	8572.19
878.489	8516.6
878.807	8527.9
879.125	8481.8
879.444	8493.32
879.762	8465.3
880.08	8554.79
880.398	8496.26
880.716	8472.98
881.034	8363.16
881.352	8382.59
881.67	8351.18
881.988	8386.43
882.306	8290.62
882.624	8358.64
882.941	8238.41
883.259	8244.97
883.577	8246.77
883.894	8266.89
884.212	8279.32
884.529	8180.11
884.846	8259.2
885.164	8181.01
885.481	8140.56
885.798	8162.71
886.115	8066.21
886.432	8121.58
886.75	8113.9
887.067	8116.16
887.383	8019.89
887.7	8048.59
888.017	7979.89
888.334	8041.58
888.651	7972.43
888.967	7947.12
889.284	7908.7
889.6	7866.67
889.917	7846.79
890.233	7889.95
890.55	7797.07
890.866	7819.44
891.182	7766.11
891.498	7749.61
891.815	7795.04
892.131	7741.48
892.447	7711.65
892.763	7631.65
893.079	7645.43
893.395	7596.17
893.71	7614.25
894.026	7576.51
894.342	7585.32
894.657	7469.39
894.973	7472.56
895.289	7499.45
895.604	7499.68
895.92	7426.46
896.235	7431.65
896.55	7359.79
896.865	7352.11
897.181	7278.21
897.496	7317.31
897.811	7278.66
898.126	7303.3
898.441	7219.68
898.756	7264.43
899.071	7149.4
899.386	7155.96
899.7	7121.83
900.015	7097.43
900.33	7020.59
900.644	7061.27
900.959	7036.41
901.273	7009.52
901.588	6969.97
901.902	6923.19
902.216	6911.44
902.531	6946.7
902.845	6881.61
903.159	6840.94
903.473	6805.46
903.787	6802.29
904.101	6805.46
904.415	6754.61
904.729	6751.67
905.042	6688.85
905.356	6686.82
905.67	6683.88
905.984	6726.36
906.297	6651.11
906.611	6597.55
906.924	6585.58
907.237	6570.89
907.551	6496.99
907.864	6419.7
908.177	6507.16
908.491	6465.8
908.804	6385.13
909.117	6402.53
909.43	6382.42
909.743	6384.9
910.056	6360.04
910.368	6290.67
910.681	6266.26
910.994	6252.7
911.307	6273.04
911.619	6213.16
911.932	6169.77
912.244	6146.72
912.557	6154.4
912.869	6107.4
913.181	6047.28
913.494	6073.05
913.806	6015.42
914.118	6014.52
914.43	5972.94
914.742	5927.97
915.054	5896.78
915.366	5890.9
915.678	5900.62
915.99	5858.14
916.302	5816.1
916.613	5817.01
916.925	5812.71
917.236	5778.37
917.548	5707.18
917.859	5727.52
918.171	5702.89
918.482	5683.23
918.794	5635.32
919.105	5660.63
919.416	5564.13
919.727	5601.65
920.038	5584.47
920.349	5560.97
920.66	5512.38
920.971	5490.69
921.282	5463.12
921.593	5468.09
921.903	5393.97
922.214	5384.93
922.525	5368.21
922.835	5322.11
923.146	5305.84
923.456	5264.93
923.767	5268.77
924.077	5250.24
924.387	5313.74
924.697	5275.1
925.008	5209.34
925.318	5199.85
925.628	5132.05
925.938	5109.23
926.248	5099.29
926.558	5085.28
926.867	5077.14
927.177	5020.87
927.487	5019.74
927.796	4956.47
928.106	5007.99
928.416	4944.49
928.725	4951.27
929.034	4868.11
929.344	4960.31
929.653	4879.86
929.962	4889.35
930.271	4845.28
930.581	4832.85
930.89	4821.1
931.199	4767.77
931.508	4727.55
931.817	4760.31
932.125	4735.23
932.434	4706.53
932.743	4642.8
933.051	4653.2
933.36	4659.07
933.669	4596.02
933.977	4571.84
934.286	4551.73
934.594	4532.75
934.902	4562.8
935.21	4518.51
935.519	4451.17
935.827	4554.22
936.135	4446.87
936.443	4425.63
936.751	4463.15
937.059	4368.91
937.367	4379.53
937.674	4373.66
937.982	4384.73
938.29	4324.84
938.597	4373.43
938.905	4328.01
939.213	4273.55
939.52	4249.82
939.827	4250.95
940.135	4214.11
940.442	4199.42
940.749	4209.59
941.056	4173.66
941.363	4168.46
941.67	4171.63
941.977	4128.46
942.284	4092.76
942.591	4142.7
942.898	4067.45
943.205	4036.26
943.511	4023.61
943.818	3987.9
944.125	3987.23
944.431	4003.04
944.738	3995.81
945.044	3945.64
945.35	3913.33
945.657	3919.66
945.963	3920.56
946.269	3899.32
946.575	3879.88
946.881	3869.94
947.187	3824.74
947.493	3818.42
947.799	3835.14
948.105	3820.68
948.41	3790.62
948.716	3765.76
949.022	3736.16
949.327	3711.98
949.633	3642.38
949.938	3719.66
950.244	3707.68
950.549	3668.59
950.854	3610.96
951.16	3605.54
951.465	3623.17
951.77	3599.89
952.075	3568.93
952.38	3549.5
952.685	3586.11
952.99	3509.5
953.294	3535.71
953.599	3499.55
953.904	3519.89
954.209	3486.45
954.513	3483.74
954.818	3435.38
955.122	3445.54
955.426	3405.77
955.731	3392.89
956.035	3408.71
956.339	3426.34
956.643	3376.39
956.948	3355.15
957.252	3340.91
957.556	3326.23
957.86	3307.92
958.163	3307.24
958.467	3276.96
958.771	3261.37
959.075	3254.14
959.378	3229.05
959.682	3206.46
959.985	3203.29
960.289	3204.2
960.592	3167.81
960.896	3161.94
961.199	3148.38
961.502	3132.56
961.805	3120.13
962.108	3097.08
962.411	3135.27
962.714	3047.82
963.017	3084.88
963.32	3058.66
963.623	3049.17
963.926	3049.4
964.228	3023.64
964.531	3016.63
964.833	2989.51
965.136	2932.34
965.438	2974.37
965.741	2934.82
966.043	2925.56
966.345	2955.61
966.648	2917.2
966.95	2911.1
967.252	2885.56
967.554	2853.02
967.856	2858.44
968.158	2849.18
968.46	2861.15
968.761	2826.8
969.063	2825.67
969.365	2795.84
969.666	2830.65
969.968	2797.88
970.269	2764.66
970.571	2772.12
970.872	2749.97
971.174	2724.89
971.475	2719.24
971.776	2752
972.077	2717.43
972.378	2688.73
972.679	2675.62
972.98	2657.77
973.281	2641.72
973.582	2678.33
973.883	2637.66
974.183	2635.4
974.484	2630.65
974.785	2613.02
975.085	2576.19
975.386	2576.64
975.686	2576.64
975.986	2559.69
976.287	2523.54
976.587	2506.81
976.887	2535.51
977.187	2516.3
977.487	2535.96
977.787	2495.74
978.087	2490.77
978.387	2468.4
978.687	2464.33
978.987	2452.12
979.286	2417.55
979.586	2423.42
979.885	2412.58
980.185	2398.57
980.484	2423.2
980.784	2385.91
981.083	2415.97
981.382	2396.98
981.682	2350.21
981.981	2347.72
982.28	2349.53
982.579	2295.74
982.878	2322.41
983.177	2314.28
983.475	2305.24
983.774	2293.26
984.073	2288.06
984.372	2266.14
984.67	2272.24
984.969	2251.9
985.267	2266.37
985.566	2229.31
985.864	2204
986.162	2196.31
986.461	2228.4
986.759	2190.66
987.057	2170.55
987.355	2171.23
987.653	2153.38
987.951	2167.61
988.249	2145.47
988.547	2159.93
988.844	2118.35
989.142	2124
989.44	2121.51
989.737	2126.94
990.035	2094.85
990.332	2100.04
990.63	2087.61
990.927	2083.32
991.224	2080.61
991.521	2061.4
991.819	2044
992.116	2033.38
992.413	2029.31
992.71	1998.13
993.006	2010.78
993.303	2000.61
993.6	1977.79
993.897	1961.29
994.193	1949.99
994.49	1940.5
994.787	1938.47
995.083	1944.12
995.379	1933.04
995.676	1932.36
995.972	1926.26
996.268	1913.16
996.565	1922.42
996.861	1870.45
997.157	1895.98
997.453	1860.05
997.749	1861.63
998.044	1860.73
998.34	1848.07
998.636	1817.57
998.932	1842.2
999.227	1776.89
999.523	1828.19
999.818	1798.13
1000.114	1780.28
1000.409	1751.58
1000.704	1739.15
1001	1755.65
1001.295	1748.87
1001.59	1719.71
1001.885	1731.69
1002.18	1730.34
1002.475	1734.86
1002.77	1697.12
1003.065	1694.86
1003.359	1681.07
1003.654	1677.23
1003.949	1655.54
1004.243	1656.67
1004.538	1650.11
1004.832	1666.61
1005.127	1640.85
1005.421	1641.07
1005.715	1637.68
1006.009	1641.3
1006.304	1620.51
1006.598	1596.55
1006.892	1560.4
1007.186	1573.96
1007.48	1554.52
1007.773	1554.3
1008.067	1548.87
1008.361	1541.19
1008.655	1550.23
1008.948	1539.15
1009.242	1502.55
1009.535	1486.27
1009.829	1508.19
1010.122	1494.18
1010.415	1450.8
1010.708	1500.51
1011.001	1477.91
1011.295	1452.38
1011.588	1486.5
1011.881	1421.42
1012.173	1447.63
1012.466	1442.66
1012.759	1447.86
1013.052	1395.66
1013.344	1404.24
1013.637	1422.77
1013.93	1369.44
1014.222	1385.94
1014.514	1364.7
1014.807	1365.15
1015.099	1370.8
1015.391	1352.94
1015.683	1342.55
1015.976	1346.17
1016.268	1329.89
1016.56	1313.62
1016.851	1275.21
1017.143	1322.89
1017.435	1304.36
1017.727	1279.73
1018.018	1293.51
1018.31	1293.06
1018.602	1272.95
1018.893	1217.58
1019.185	1271.14
1019.476	1265.49
1019.767	1243.79
1020.058	1227.3
1020.35	1197.69
1020.641	1230.46
1020.932	1195.66
1021.223	1184.36
1021.514	1193.85
1021.804	1172.84
1022.095	1164.25
1022.386	1168.09
1022.677	1167.41
1022.967	1160.63
1023.258	1154.31
1023.548	1153.63
1023.839	1157.24
1024.129	1129
1024.419	1109.56
1024.709	1120.86
1025	1112.72
1025.29	1125.83
1025.58	1089.45
1025.87	1078.15
1026.16	1073.86
1026.449	1089.67
1026.739	1066.17
1027.029	1072.73
1027.319	1039.51
1027.608	1076.79
1027.898	1049
1028.187	1053.29
1028.477	1041.09
1028.766	1034.53
1029.055	1012.39
1029.344	999.73
1029.634	1011.71
1029.923	1002.22
1030.212	980.53
1030.501	958.6
1030.79	985.04
1031.078	991.37
1031.367	961.32
1031.656	961.32
1031.945	975.1
1032.233	929
1032.522	943.24
1032.81	955.67
1033.099	924.93
1033.387	933.97
1033.675	931.49
1033.963	922.22
1034.251	917.7
1034.54	914.54
1034.828	899.85
1035.116	900.3
1035.403	920.41
1035.691	871.6
1035.979	873.41
1036.267	881.09
1036.554	860.3
1036.842	871.6
1037.129	855.56
1037.417	861.43
1037.704	840.19
1037.992	826.4
1038.279	838.83
1038.566	827.31
1038.853	827.31
1039.14	827.31
