Data from hue_270_FLMS001491_00057.txt Node
Date: Tue Feb 07 15:57:23 GMT 2017
User: dcchb
Spectrometer: FLMS00149
Trigger mode: 0
Integration Time (sec): 2.000000E-2
Scans to average: 10
Electric dark correction enabled: true
Nonlinearity correction enabled: false
Boxcar width: 0
XAxis mode: Wavelengths
Number of Pixels in Spectrum: 2048
>>>>>Begin Spectral Data<<<<<
341.393	-22.61
341.776	-22.61
342.16	-22.61
342.543	-57.87
342.927	-56.06
343.31	-69.62
343.693	-71.88
344.077	-57.87
344.46	-70.29
344.843	-56.51
345.226	-46.34
345.61	-33.91
345.993	-7.7
346.376	-10.64
346.759	5.18
347.142	27.1
347.525	66.88
347.908	54.45
348.291	77.05
348.674	91.06
349.057	103.03
349.44	123.15
349.823	130.38
350.206	172.86
350.588	174.44
350.971	183.94
351.354	211.05
351.737	223.26
352.119	238.62
352.502	239.98
352.884	256.02
353.267	263.93
353.65	281.33
354.032	289.47
354.414	296.48
354.797	296.93
355.179	293.54
355.562	309.13
355.944	316.14
356.326	313.65
356.709	336.02
357.091	332.41
357.473	333.76
357.855	332.18
358.238	318.62
358.62	311.16
359.002	321.56
359.384	329.24
359.766	325.63
360.148	314.1
360.53	333.99
360.912	326.3
361.294	318.4
361.676	316.81
362.057	312.97
362.439	300.54
362.821	314.1
363.203	326.08
363.584	294.22
363.966	334.44
364.348	315.23
364.729	315.23
365.111	282.69
365.493	305.06
365.874	302.12
366.256	292.63
366.637	301.22
367.019	302.8
367.4	298.06
367.781	299.86
368.163	305.51
368.544	287.21
368.925	315.23
369.306	310.71
369.688	290.37
370.069	308.68
370.45	306.19
370.831	277.72
371.212	309.13
371.593	310.03
371.974	307.32
372.355	323.59
372.736	288.34
373.117	316.59
373.498	322.46
373.879	300.77
374.26	297.83
374.641	307.32
375.021	295.35
375.402	295.35
375.783	309.13
376.163	307.32
376.544	300.99
376.925	310.94
377.305	315.91
377.686	322.92
378.066	311.39
378.447	319.75
378.827	327.21
379.208	331.28
379.588	324.5
379.968	303.03
380.349	314.78
380.729	313.2
381.109	307.32
381.489	338.73
381.87	328.34
382.25	320.66
382.63	323.37
383.01	329.69
383.39	336.25
383.77	342.8
384.15	322.24
384.53	339.19
384.91	333.31
385.29	365.63
385.67	344.84
386.049	316.14
386.429	348.9
386.809	351.84
387.189	329.69
387.568	375.12
387.948	350.94
388.328	355.91
388.707	377.15
389.087	351.62
389.466	367.21
389.846	350.26
390.225	364.04
390.605	350.03
390.984	373.31
391.363	375.12
391.743	347.32
392.122	358.39
392.501	367.21
392.881	367.66
393.26	363.37
393.639	375.12
394.018	355
394.397	384.61
394.776	373.76
395.155	376.25
395.534	392.74
395.913	355.68
396.292	400.43
396.671	390.48
397.05	389.35
397.429	384.38
397.808	407.66
398.186	402.91
398.565	399.3
398.944	400.43
399.323	406.75
399.701	408.34
400.08	396.81
400.458	389.13
400.837	402.91
401.215	413.53
401.594	424.38
401.972	444.95
402.351	415.34
402.729	434.78
403.107	431.16
403.486	429.81
403.864	444.27
404.242	437.94
404.62	432.29
404.999	441.1
405.377	443.14
405.755	429.13
406.133	483.59
406.511	445.17
406.889	470.03
407.267	464.15
407.645	479.3
408.023	461.89
408.401	491.72
408.779	486.75
409.156	473.65
409.534	494.44
409.912	501.22
410.29	507.09
410.667	519.29
411.045	520.2
411.422	513.19
411.8	529.24
412.178	536.92
412.555	558.16
412.933	557.94
413.31	570.82
413.687	581.89
414.065	577.15
414.442	592.06
414.819	623.02
415.197	591.83
415.574	604.26
415.951	599.07
416.328	627.31
416.705	622.34
417.082	638.84
417.46	650.82
417.837	634.09
418.214	661.21
418.591	666.18
418.967	662.57
419.344	695.56
419.721	680.42
420.098	685.17
420.475	681.55
420.852	710.25
421.228	708.89
421.605	714.09
421.982	718.84
422.358	731.04
422.735	743.02
423.111	753.41
423.488	779.85
423.864	779.17
424.241	792.73
424.617	807.42
424.994	797.71
425.37	807.65
425.746	836.12
426.123	848.78
426.499	842.68
426.875	849.68
427.251	880.87
427.627	885.84
428.003	895.1
428.379	912.96
428.756	935.55
429.132	936.46
429.507	943.01
429.883	938.72
430.259	988.43
430.635	959.06
431.011	971.26
431.387	1004.93
431.763	1033.63
432.138	1027.76
432.514	1032.73
432.89	1048.09
433.265	1074.76
433.641	1080.64
434.016	1117.02
434.392	1108.66
434.767	1160.41
435.143	1160.18
435.518	1153.4
435.894	1160.41
436.269	1189.79
436.644	1196.79
437.02	1204.47
437.395	1203.8
437.77	1248.54
438.145	1291.7
438.52	1270.46
438.895	1322.21
439.271	1321.53
439.646	1358.37
440.021	1348.2
440.395	1377.12
440.77	1345.26
441.145	1384.36
441.52	1409.21
441.895	1394.3
442.27	1437.91
442.645	1458.48
443.019	1469.1
443.394	1476.78
443.769	1474.3
444.143	1443.56
444.518	1492.6
444.892	1477.91
445.267	1517.46
445.641	1532.6
446.016	1512.04
446.39	1559.27
446.764	1566.27
447.139	1554.75
447.513	1552.94
447.887	1591.58
448.262	1562.2
448.636	1571.47
449.01	1616.21
449.384	1610.34
449.758	1628.87
450.132	1645.37
450.506	1678.36
450.88	1674.52
451.254	1644.91
451.628	1703.9
452.002	1716.55
452.376	1721.75
452.75	1744.12
453.123	1740.51
453.497	1756.1
453.871	1746.61
454.244	1822.08
454.618	1820.73
454.992	1838.36
455.365	1831.58
455.739	1887.85
456.112	1898.69
456.486	1885.36
456.859	1914.51
457.232	1931.91
457.606	1933.72
457.979	1965.58
458.352	2034.06
458.725	2025.02
459.099	2016.66
459.472	2041.97
459.845	2059.37
460.218	2106.6
460.591	2116.54
460.964	2084.9
461.337	2185.24
461.71	2173.94
462.083	2211.68
462.456	2191.79
462.829	2225.01
463.201	2224.56
463.574	2260.72
463.947	2295.29
464.32	2327.83
464.692	2347.95
465.065	2371.45
465.438	2409.19
465.81	2413.03
466.183	2463.2
466.555	2511.11
466.928	2467.27
467.3	2491.22
467.672	2533.03
468.045	2591.1
468.417	2588.84
468.789	2601.95
469.161	2634.27
469.534	2671.55
469.906	2711.78
470.278	2727.37
470.65	2728.73
471.022	2776.86
471.394	2805.11
471.766	2880.59
472.138	2909.97
472.51	2935.28
472.882	2931.89
473.253	2985.44
473.625	3025.44
473.997	3095.5
474.369	3072
474.74	3149.06
475.112	3193.57
475.484	3216.17
475.855	3294.14
476.227	3260.47
476.598	3330.52
476.97	3390.41
477.341	3432.44
477.713	3439.44
478.084	3511.31
478.455	3547.92
478.827	3554.47
479.198	3667.23
479.569	3648.25
479.94	3763.95
480.311	3763.73
480.682	3806.89
481.053	3929.15
481.424	3947.9
481.795	3981.12
482.166	4004.85
482.537	4101.8
482.908	4170.5
483.279	4180.21
483.65	4231.29
484.021	4325.3
484.391	4347.89
484.762	4388.12
485.133	4366.42
485.503	4447.1
485.874	4515.12
486.244	4506.76
486.615	4640.09
486.985	4686.64
487.356	4741.1
487.726	4736.58
488.097	4857.94
488.467	4866.52
488.837	4920.08
489.207	4965.96
489.578	5018.84
489.948	5079.85
490.318	5123.69
490.688	5142.22
491.058	5225.16
491.428	5311.94
491.798	5305.84
492.168	5341.54
492.538	5414.98
492.908	5410.92
493.278	5501.31
493.648	5520.97
494.017	5571.36
494.387	5595.54
494.757	5640.52
495.126	5715.32
495.496	5750.57
495.866	5741.53
496.235	5787.4
496.605	5845.03
496.974	5872.37
497.344	5895.42
497.713	5910.79
498.082	5937.68
498.452	5954.18
498.821	5983.56
499.19	6001.41
499.559	6071.46
499.928	6078.47
500.298	6112.14
500.667	6130.9
501.036	6137
501.405	6186.72
501.774	6203.89
502.143	6290.89
502.512	6218.35
502.88	6307.39
503.249	6292.93
503.618	6327.5
503.987	6308.29
504.356	6372.93
504.724	6387.61
505.093	6425.81
505.462	6428.74
505.83	6432.13
506.199	6531.57
506.567	6489.76
506.936	6536.31
507.304	6582.41
507.672	6629.64
508.041	6602.3
508.409	6627.61
508.777	6675.74
509.145	6713.26
509.514	6743.76
509.882	6756.19
510.25	6741.73
510.618	6788.96
510.986	6758.68
511.354	6817.21
511.722	6854.27
512.09	6906.92
512.458	6858.11
512.826	6919.13
513.193	6896.08
513.561	6941.5
513.929	6938.33
514.297	7050.65
514.664	7035.73
515.032	7042.74
515.4	7116.86
515.767	7076.64
516.135	7128.84
516.502	7061.5
516.869	7161.83
517.237	7242.51
517.604	7080.93
517.972	7140.14
518.339	7158.67
518.706	7188.5
519.073	7251.09
519.44	7293.35
519.808	7267.82
520.175	7285.67
520.542	7324.31
520.909	7303.07
521.276	7327.25
521.643	7400.7
522.009	7439.11
522.376	7484.99
522.743	7493.35
523.11	7448.38
523.477	7634.36
523.843	7642.95
524.21	7542.16
524.577	7703.96
524.943	7638.88
525.31	7675.49
525.676	7752.55
526.043	7697.86
526.409	7750.97
526.776	7816.73
527.142	7810.63
527.508	7806.33
527.874	7832.32
528.241	7840.01
528.607	7840.46
528.973	7943.28
529.339	7963.62
529.705	7958.65
530.071	7972.21
530.437	8031.41
530.803	8108.25
531.169	8072.32
531.535	8095.82
531.901	8115.93
532.267	8086.78
532.632	8130.85
532.998	8167.91
533.364	8210.84
533.73	8152.77
534.095	8196.61
534.461	8203.61
534.826	8272.31
535.192	8192.54
535.557	8266.66
535.923	8237.74
536.288	8303.04
536.653	8350.73
537.019	8232.31
537.384	8304.17
537.749	8264.4
538.114	8315.7
538.479	8317.06
538.845	8390.27
539.21	8280.67
539.575	8366.55
539.94	8384.4
540.305	8397.05
540.67	8380.56
541.034	8390.27
541.399	8407.67
541.764	8428.46
542.129	8407.67
542.494	8430.95
542.858	8492.19
543.223	8398.41
543.587	8472.31
543.952	8472.31
544.316	8437.5
544.681	8482.02
545.045	8534
545.41	8496.26
545.774	8565.18
546.138	8539.2
546.503	8574
546.867	8566.77
547.231	8643.6
547.595	8629.14
547.959	8619.42
548.324	8606.54
548.688	8590.49
549.052	8624.84
549.416	8617.84
549.779	8639.76
550.143	8624.17
550.507	8703.26
550.871	8718.4
551.235	8650.83
551.599	8741.68
551.962	8765.86
552.326	8785.52
552.689	8743.94
553.053	8720.89
553.417	8709.81
553.78	8806.53
554.143	8767.89
554.507	8818.29
554.87	8809.02
555.234	8943.93
555.597	8814.67
555.96	8783.26
556.323	8874.33
556.686	8865.06
557.05	8885.18
557.413	8993.65
557.776	8964.72
558.139	9035
558.502	9028
558.865	9040.65
559.228	9046.98
559.59	9090.37
559.953	9070.03
560.316	9207.43
560.679	9206.52
561.041	9170.14
561.404	9211.27
561.767	9246.52
562.129	9243.58
562.492	9310.93
562.854	9312.06
563.217	9289.46
563.579	9374.2
563.941	9399.96
564.304	9377.37
564.666	9433.64
565.028	9518.15
565.39	9493.07
565.753	9528.55
566.115	9574.2
566.477	9616.46
566.839	9644.93
567.201	9642.44
567.563	9701.88
567.925	9662.1
568.287	9690.58
568.648	9727.64
569.01	9776.23
569.372	9769.45
569.734	9793.4
570.095	9923.57
570.457	9928.99
570.819	9901.19
571.18	9925.37
571.542	9922.89
571.903	9999.5
572.265	10050.57
572.626	10087.63
572.987	10072.72
573.349	10129.89
573.71	10139.83
574.071	10229.77
574.432	10287.17
574.794	10334.86
575.155	10270
575.516	10327.85
575.877	10306.61
576.238	10408.53
576.599	10448.52
576.96	10463.21
577.32	10417.11
577.681	10511.12
578.042	10577.33
578.403	10595.41
578.763	10575.3
579.124	10597.22
579.485	10731.68
579.845	10692.36
580.206	10671.8
580.566	10721.74
580.927	10776.2
581.287	10804.45
581.648	10833.83
582.008	10799.02
582.368	10882.86
582.728	10953.6
583.089	10881.96
583.449	10935.29
583.809	11001.96
584.169	11014.61
584.529	11048.73
584.889	11206.24
585.249	11123.76
585.609	11084.67
585.969	11178.67
586.329	11170.54
586.688	11195.17
587.048	11130.09
587.408	11253.25
587.768	11239.01
588.127	11216.87
588.487	11289.18
588.846	11418.22
589.206	11253.25
589.565	11434.71
589.925	11388.39
590.284	11439.91
590.643	11550.87
591.003	11518.1
591.362	11527.82
591.721	11503.41
592.08	11628.38
592.44	11668.38
592.799	11610.53
593.158	11671.32
593.517	11649.17
593.876	11689.62
594.235	11666.35
594.593	11783.4
594.952	11749.06
595.311	11727.14
595.67	11684.2
596.029	11884.42
596.387	11813.69
596.746	11927.58
597.104	11896.85
597.463	11961.25
597.822	11868.6
598.18	11923.74
598.538	11942.72
598.897	11954.02
599.255	11951.08
599.613	12036.73
599.972	12031.31
600.33	12068.82
600.688	11995.15
601.046	12105.88
601.404	12135.49
601.762	12094.58
602.12	12169.61
602.478	12171.42
602.836	12185.65
603.194	12119.22
603.552	12168.48
603.91	12131.42
604.268	12130.51
604.625	12248.93
604.983	12226.33
605.341	12222.26
605.698	12262.49
606.056	12329.38
606.413	12279.44
606.771	12286.22
607.128	12318.53
607.485	12315.59
607.843	12309.72
608.2	12366.89
608.557	12365.31
608.914	12304.3
609.272	12388.13
609.629	12505.42
609.986	12488.25
610.343	12441.01
610.7	12499.32
611.057	12529.6
611.414	12568.02
611.771	12500.45
612.127	12583.61
612.484	12438.98
612.841	12614.34
613.198	12576.83
613.554	12607.11
613.911	12633.78
614.267	12619.99
614.624	12567.57
614.98	12603.5
615.337	12724.62
615.693	12728.24
616.05	12617.06
616.406	12770.72
616.762	12637.85
617.118	12759.88
617.475	12676.71
617.831	12773.89
618.187	12700.22
618.543	12761.46
618.899	12784.51
619.255	12769.82
619.611	12792.64
619.967	12822.02
620.323	12836.94
620.678	12790.61
621.034	12800.1
621.39	12746.32
621.746	12853.43
622.101	12919.65
622.457	12837.39
622.812	12756.26
623.168	12843.26
623.523	12847.33
623.879	12910.38
624.234	12827.67
624.589	12895.92
624.945	12889.14
625.3	12898.63
625.655	12909.02
626.01	12827.22
626.365	12855.47
626.72	12858.18
627.075	12789.25
627.43	12882.81
627.785	12826.32
628.14	12812.98
628.495	12790.38
628.85	12801.68
629.205	12845.07
629.559	12893.21
629.914	12843.26
630.269	12812.98
630.623	12784.73
630.978	12765.3
631.332	12757.16
631.687	12808.69
632.041	12754.23
632.396	12756.94
632.75	12701.12
633.104	12744.96
633.459	12614.8
633.813	12619.77
634.167	12556.27
634.521	12623.16
634.875	12695.7
635.229	12669.71
635.583	12630.84
635.937	12622.7
636.291	12495.25
636.645	12558.07
636.999	12553.78
637.352	12516.49
637.706	12452.99
638.06	12496.83
638.413	12490.05
638.767	12429.72
639.121	12563.05
639.474	12434.91
639.828	12477.62
640.181	12366.89
640.534	12424.52
640.888	12370.51
641.241	12290.96
641.594	12320.57
641.947	12483.05
642.301	12324.86
642.654	12394.24
643.007	12406.44
643.36	12332.77
643.713	12287.8
644.066	12362.15
644.419	12354.92
644.771	12252.09
645.124	12122.6
645.477	12093
645.83	12053
646.182	11931.2
646.535	11945.66
646.888	11905.44
647.24	11794.93
647.593	11878.09
647.945	11838.32
648.298	11887.13
648.65	11839.22
649.002	11820.69
649.355	11795.38
649.707	11831.09
650.059	11873.12
650.411	12071.53
650.763	12034.7
651.115	12212.77
651.467	12222.72
651.819	12144.3
652.171	12086
652.523	12056.17
652.875	12086.9
653.227	12050.06
653.578	12108.82
653.93	12040.57
654.282	12040.35
654.633	12032.89
654.985	12013
655.337	12085.32
655.688	12079.89
656.039	12134.81
656.391	11967.58
656.742	12020.91
657.094	12094.13
657.445	12102.27
657.796	12067.92
658.147	12044.41
658.498	12109.27
658.849	12098.42
659.2	12049.61
659.551	12007.13
659.902	12107.46
660.253	12008.94
660.604	12039.44
660.955	12147.69
661.306	12097.97
661.656	12065.88
662.007	12031.08
662.358	12123.96
662.708	12047.58
663.059	12060.01
663.409	12068.37
663.76	12154.92
664.11	12126.9
664.461	12122.83
664.811	12115.83
665.161	12062.95
665.511	12076.05
665.862	12076.05
666.212	12071.76
666.562	12163.06
666.912	12106.56
667.262	12055.71
667.612	12058.43
667.962	12062.04
668.312	12039.22
668.662	12094.58
669.011	12064.75
669.361	12054.13
669.711	12053.91
670.06	12018.43
670.41	12000.35
670.76	12030.86
671.109	12054.81
671.459	12035.15
671.808	12028.14
672.157	12034.7
672.507	11966
672.856	11930.75
673.205	12041.03
673.554	12022.27
673.904	11952.44
674.253	12038.31
674.602	11937.98
674.951	11804.2
675.3	11724.2
675.649	11890.07
675.998	11936.17
676.346	11902.5
676.695	11915.15
677.044	11857.3
677.393	11893.46
677.741	11888.26
678.09	11786.79
678.438	11844.19
678.787	11732.78
679.135	11813.46
679.484	11767.36
679.832	11747.25
680.181	11691.43
680.529	11699.79
680.877	11712.67
681.225	11613.47
681.573	11721.71
681.922	11615.5
682.27	11573.24
682.618	11595.16
682.966	11603.75
683.314	11579.34
683.661	11559.91
684.009	11524.88
684.357	11559.23
684.705	11491.44
685.053	11413.02
685.4	11422.28
685.748	11316.3
686.095	11342.51
686.443	11320.82
686.79	11282.85
687.138	11281.95
687.485	11329.86
687.832	11187.04
688.18	11252.35
688.527	11196.75
688.874	11175.51
689.221	11246.47
689.568	11107.49
689.915	11068.17
690.262	11080.82
690.609	11051.45
690.956	11053.03
691.303	10943.43
691.65	10975.74
691.997	10921.51
692.344	10794.96
692.69	10815.29
693.037	10794.73
693.383	10740.27
693.73	10742.3
694.077	10703.66
694.423	10698.01
694.769	10634.73
695.116	10535.3
695.462	10606.71
695.808	10539.14
696.155	10534.62
696.501	10467.73
696.847	10479.26
697.193	10405.81
697.539	10329.43
697.885	10371.46
698.231	10289.88
698.577	10258.93
698.923	10298.47
699.269	10208.31
699.614	10139.38
699.96	10176.22
700.306	10095.09
700.651	10057.35
700.997	10028.65
701.342	9987.29
701.688	9952.94
702.033	9914.98
702.379	9909.33
702.724	9905.94
703.069	9872.27
703.415	9841.76
703.76	9768.54
704.105	9755.89
704.45	9679.05
704.795	9654.42
705.14	9622.78
705.485	9635.66
705.83	9558.83
706.175	9629.11
706.52	9538.04
706.865	9557.47
707.209	9513.18
707.554	9505.05
707.899	9461.21
708.243	9459.4
708.588	9343.24
708.932	9301.21
709.277	9391.83
709.621	9385.73
709.966	9339.18
710.31	9343.47
710.654	9193.19
710.998	9210.82
711.342	9217.37
711.687	9246.97
712.031	9174.43
712.375	9111.84
712.719	9128.11
713.063	9140.99
713.407	9193.64
713.75	9100.76
714.094	9089.92
714.438	9023.93
714.782	9117.26
715.125	9015.34
715.469	9056.92
715.812	8943.48
716.156	8958.85
716.499	8957.49
716.843	8944.61
717.186	8855.35
717.53	8917.72
717.873	8936.25
718.216	8896.48
718.559	8839.98
718.902	8752.3
719.246	8803.82
719.589	8762.47
719.932	8798.17
720.275	8699.87
720.617	8731.51
720.96	8735.12
721.303	8743.94
721.646	8743.26
721.989	8780.09
722.331	8811.73
722.674	8690.38
723.016	8670.04
723.359	8704.62
723.701	8648.8
724.044	8595.92
724.386	8628.23
724.729	8640.66
725.071	8630.27
725.413	8648.12
725.755	8623.49
726.097	8554.79
726.439	8562.47
726.782	8542.59
727.124	8570.83
727.465	8527.9
727.807	8549.82
728.149	8559.08
728.491	8508.01
728.833	8518.41
729.175	8555.69
729.516	8536.03
729.858	8497.84
730.199	8543.49
730.541	8471.4
730.882	8502.36
731.224	8440.44
731.565	8381.69
731.906	8527.67
732.248	8566.54
732.589	8433.21
732.93	8424.17
733.271	8439.99
733.612	8476.6
733.953	8466.43
734.294	8429.14
734.635	8401.8
734.976	8433.89
735.317	8399.31
735.658	8323.83
735.999	8420.56
736.339	8390.05
736.68	8402.7
737.021	8448.58
737.361	8369.26
737.702	8482.93
738.042	8406.54
738.383	8363.16
738.723	8467.56
739.063	8433.44
739.404	8482.93
739.744	8461.68
740.084	8494.68
740.424	8444.51
740.764	8438.18
741.104	8506.88
741.444	8437.05
741.784	8509.14
742.124	8435.24
742.464	8489.71
742.804	8519.08
743.143	8536.94
743.483	8601.12
743.823	8483.6
744.162	8522.02
744.502	8620.32
744.841	8598.18
745.181	8604.28
745.52	8603.6
745.86	8696.48
746.199	8629.36
746.538	8677.5
746.877	8747.33
747.216	8800.66
747.556	8822.13
747.895	8923.14
748.234	8944.38
748.573	8927.21
748.911	8970.82
749.25	9042.46
749.589	9020.99
749.928	9132.63
750.267	9184.38
750.605	9229.12
750.944	9258.73
751.283	9358.61
751.621	9450.58
751.96	9553.41
752.298	9623.01
752.636	9662.1
752.975	9668.88
753.313	9706.62
753.651	9951.59
753.989	9895.54
754.327	10073.62
754.666	10087.86
755.004	10241.98
755.342	10325.59
755.679	10431.8
756.017	10501.63
756.355	10680.61
756.693	10657.33
757.031	10926.03
757.368	10930.32
757.706	11137.77
758.044	11209.86
758.381	11405.79
758.719	11483.3
759.056	11698.21
759.394	11744.76
759.731	11861.37
760.068	12048.03
760.405	12185.2
760.743	12340.9
761.08	12456.38
761.417	12574.8
761.754	12676.26
762.091	12921.91
762.428	12961.68
762.765	13142.01
763.102	13432.85
763.438	13429.46
763.775	13568.22
764.112	13770.92
764.449	13999.62
764.785	14034.19
765.122	14097.24
765.458	14309.21
765.795	14432.15
766.131	14603.67
766.467	14686.38
766.804	14876.88
767.14	14925.92
767.476	15132.7
767.812	15178.12
768.148	15341.96
768.485	15569.07
768.821	15478.9
769.157	15757.76
769.492	15887.03
769.828	15948.04
770.164	15956.4
770.5	16091.09
770.836	16292.44
771.171	16265.32
771.507	16415.37
771.842	16480.23
772.178	16535.14
772.513	16687.46
772.849	16680.23
773.184	16756.38
773.519	16974.23
773.855	16925.87
774.19	17019.2
774.525	17117.73
774.86	17158.63
775.195	17304.16
775.53	17302.36
775.865	17297.38
776.2	17268.46
776.535	17222.58
776.87	17385.07
777.205	17426.87
777.539	17479.07
777.874	17611.5
778.209	17482.92
778.543	17577.6
778.878	17630.48
779.212	17724.49
779.547	17689.92
779.881	17763.59
780.215	17704.15
780.55	17813.98
780.884	17740.31
781.218	17785.51
781.552	17778.73
781.886	17839.74
782.22	17784.38
782.554	17878.16
782.888	17635.91
783.222	17670.93
783.556	17704.83
783.889	17735.34
784.223	17593.65
784.557	17631.39
784.89	17770.59
785.224	17652.86
785.557	17640.2
785.891	17604.49
786.224	17739.63
786.558	17646.3
786.891	17554.1
787.224	17489.02
787.557	17615.79
787.891	17607.43
788.224	17607.43
788.557	17616.7
788.89	17610.82
789.223	17547.55
789.556	17519.3
789.888	17449.92
790.221	17435.91
790.554	17277.72
790.887	17398.62
791.219	17327.89
791.552	17318.4
791.884	17316.82
792.217	17220.32
792.549	17177.39
792.882	17103.49
793.214	17015.81
793.546	17239.76
793.879	17042.02
794.211	16991.86
794.543	17036.6
794.875	17049.71
795.207	17064.4
795.539	17028.69
795.871	16940.11
796.203	16807.45
796.535	16822.37
796.867	16681.81
797.198	16782.82
797.53	16841.12
797.862	16656.05
798.193	16717.06
798.525	16503.51
798.856	16536.5
799.188	16434.81
799.519	16427.58
799.85	16338.99
800.182	16395.04
800.513	16484.75
800.844	16284.3
801.175	16379.67
801.506	16338.54
801.837	16184.19
802.168	16245.89
802.499	16208.15
802.83	16143.97
803.161	16055.38
803.491	16124.99
803.822	16197.75
804.153	16014.25
804.483	15908.04
804.814	15927.93
805.145	15865.33
805.475	15864.2
805.805	15730.65
806.136	15818.55
806.466	15824.43
806.796	15779.01
807.126	15694.94
807.457	15705.34
807.787	15664.88
808.117	15552.57
808.447	15519.58
808.777	15635.96
809.107	15489.07
809.436	15419.24
809.766	15472.8
810.096	15412.46
810.426	15278.45
810.755	15362.29
811.085	15293.6
811.414	15276.87
811.744	15114.16
812.073	15249.3
812.403	15161.4
812.732	15118.23
813.061	15063.32
813.39	15002.3
813.719	14982.64
814.049	15078.01
814.378	15012.25
814.707	15077.78
815.036	14978.35
815.365	14891.35
815.693	14755.3
816.022	14782.42
816.351	14706.27
816.68	14790.11
817.008	14762.54
817.337	14721.18
817.665	14645.25
817.994	14651.58
818.322	14647.28
818.651	14526.38
818.979	14589.43
819.307	14628.3
819.636	14515.08
819.964	14396.44
820.292	14542.2
820.62	14461.98
820.948	14507.63
821.276	14440.96
821.604	14427.18
821.932	14492.49
822.259	14542.2
822.587	14444.13
822.915	14342.43
823.243	14467.63
823.57	14393.96
823.898	14384.24
824.225	14403.22
824.553	14412.26
824.88	14439.61
825.207	14496.1
825.535	14435.99
825.862	14497.23
826.189	14446.84
826.516	14470.57
826.843	14544.69
827.17	14505.37
827.497	14522.77
827.824	14432.83
828.151	14556.44
828.478	14494.52
828.805	14638.7
829.131	14458.59
829.458	14437.57
829.785	14370.46
830.111	14427.63
830.438	14523.9
830.764	14488.64
831.09	14521.41
831.417	14509.66
831.743	14464.01
832.069	14509.66
832.395	14412.04
832.722	14344.69
833.048	14426.5
833.374	14432.6
833.7	14434.63
834.026	14446.16
834.351	14376.78
834.677	14421.08
835.003	14363.22
835.329	14403.22
835.654	14380.85
835.98	14304.92
836.306	14315.32
836.631	14327.74
836.956	14243.45
837.282	14302.66
837.607	14162.33
837.932	14311.25
838.258	14159.84
838.583	14176.56
838.908	14095.66
839.233	14156.45
839.558	14103.12
839.883	14030.35
840.208	13973.4
840.533	13983.12
840.858	14019.5
841.182	13967.3
841.507	13965.04
841.832	13934.53
842.156	13905.38
842.481	13885.04
842.805	13827.87
843.13	13827.87
843.454	13801.88
843.778	13760.75
844.103	13777.25
844.427	13697.25
844.751	13711.26
845.075	13663.36
845.399	13578.39
845.723	13495.45
846.047	13523.7
846.371	13456.58
846.695	13451.61
847.019	13265.85
847.343	13269.24
847.666	13219.3
847.99	13143.14
848.313	13165.06
848.637	12981.79
848.96	12980.89
849.284	13014.33
849.607	12838.97
849.931	12852.53
850.254	12857.27
850.577	12806.88
850.9	12720.78
851.223	12563.72
851.546	12610.5
851.869	12467.23
852.192	12482.37
852.515	12462.03
852.838	12437.4
853.161	12477.85
853.483	12356.5
853.806	12213.45
854.129	12212.77
854.451	12182.94
854.774	12154.24
855.096	12046
855.419	12067.24
855.741	12066.79
856.063	11969.39
856.385	11966.9
856.708	11882.16
857.03	11947.69
857.352	11870.18
857.674	11791.31
857.996	11730.98
858.318	11778.89
858.64	11795.61
858.961	11709.96
859.283	11625.89
859.605	11588.61
859.926	11627.25
860.248	11521.04
860.57	11478.78
860.891	11517.65
861.212	11480.59
861.534	11520.59
861.855	11368.73
862.176	11459.12
862.498	11441.04
862.819	11361.27
863.14	11349.52
863.461	11359.69
863.782	11329.63
864.103	11295.51
864.424	11312.68
864.745	11283.31
865.065	11228.39
865.386	11185.68
865.707	11134.83
866.027	11225.23
866.348	11086.93
866.668	11168.51
866.989	11158.56
867.309	11065.91
867.63	11031.11
867.95	11034.05
868.27	11022.29
868.59	11047.15
868.91	11009.64
869.23	11011.9
869.55	10986.36
869.87	11047.6
870.19	10935.07
870.51	10942.52
870.83	10890.1
871.15	10884.9
871.469	10892.81
871.789	10901.17
872.109	10813.49
872.428	10787.5
872.748	10718.57
873.067	10817.78
873.386	10764.67
873.706	10771.91
874.025	10734.39
874.344	10662.98
874.663	10687.61
874.982	10659.82
875.301	10564.91
875.62	10587.5
875.939	10578.69
876.258	10651.91
876.577	10535.98
876.896	10532.59
877.214	10506.83
877.533	10538.01
877.852	10529.65
878.17	10502.31
878.489	10510.9
878.807	10506.6
879.125	10432.71
879.444	10500.5
879.762	10433.16
880.08	10385.93
880.398	10395.42
880.716	10432.25
881.034	10308.19
881.352	10367.17
881.67	10218.25
881.988	10303.9
882.306	10266.83
882.624	10202.88
882.941	10133.73
883.259	10107.06
883.577	10180.06
883.894	10117.23
884.212	10142.54
884.529	10126.5
884.846	10023.9
885.164	10059.83
885.481	10009.21
885.798	10017.8
886.115	9888.09
886.432	9873.62
886.75	9894.19
887.067	9905.94
887.383	9906.84
887.7	9829.78
888.017	9771.93
888.334	9807.86
888.651	9693.06
888.967	9712.95
889.284	9687.41
889.6	9673.86
889.917	9593.18
890.233	9657.81
890.55	9539.4
890.866	9603.12
891.182	9503.69
891.498	9497.36
891.815	9482.9
892.131	9440.64
892.447	9361.77
892.763	9444.03
893.079	9411.26
893.395	9373.3
893.71	9362.68
894.026	9314.77
894.342	9254.66
894.657	9247.88
894.973	9188.22
895.289	9169.01
895.604	9181.44
895.92	9099.18
896.235	8990.26
896.55	9085.17
896.865	9023.48
897.181	9004.72
897.496	9002.01
897.811	8928.11
898.126	8904.61
898.441	8931.73
898.756	8856.7
899.071	8772.41
899.386	8820.54
899.7	8726.08
900.015	8660.1
900.33	8637.27
900.644	8633.88
900.959	8624.17
901.273	8579.42
901.588	8554.79
901.902	8482.93
902.216	8458.29
902.531	8439.09
902.845	8449.48
903.159	8385.08
903.473	8321.57
903.787	8333.55
904.101	8270.05
904.415	8238.41
904.729	8176.04
905.042	8125.65
905.356	8154.12
905.67	8180.56
905.984	8174.01
906.297	8038.64
906.611	8060.79
906.924	8064.18
907.237	7987.35
907.551	8042.26
907.864	7896.05
908.177	7882.26
908.491	7848.82
908.804	7844.98
909.117	7816.73
909.43	7745.32
909.743	7752.1
910.056	7689.73
910.368	7674.81
910.681	7598.66
910.994	7567.92
911.307	7524.76
911.619	7456.29
911.932	7501.48
912.244	7448.15
912.557	7441.15
912.869	7394.59
913.181	7324.77
913.494	7333.58
913.806	7301.94
914.118	7300.36
914.43	7211.1
914.742	7172.68
915.054	7178.78
915.366	7136.52
915.678	7100.36
915.99	7039.8
916.302	7013.13
916.613	7017.43
916.925	6967.03
917.236	7018.56
917.548	6962.29
917.859	6942.85
918.171	6891.56
918.482	6892.46
918.794	6737.44
919.105	6833.93
919.416	6779.69
919.727	6698.34
920.038	6727.94
920.349	6672.35
920.66	6677.78
920.971	6661.51
921.282	6610.89
921.593	6619.92
921.903	6558.91
922.214	6540.83
922.525	6476.65
922.835	6513.03
923.146	6491.57
923.456	6458.35
923.767	6435.97
924.077	6364.56
924.387	6365.92
924.697	6317.79
925.008	6291.8
925.318	6296.09
925.628	6202.53
925.938	6254.96
926.248	6164.57
926.558	6196.66
926.867	6139.71
927.177	6117.11
927.487	6105.36
927.796	6061.75
928.106	6038.7
928.416	6033.27
928.725	6052.71
929.034	5974.52
929.344	6022.43
929.653	5974.74
929.962	5860.62
930.271	5859.49
930.581	5858.59
930.89	5811.81
931.199	5773.62
931.508	5784.92
931.817	5727.29
932.125	5694.53
932.434	5767.52
932.743	5649.33
933.051	5684.36
933.36	5650.01
933.669	5581.76
933.977	5553.74
934.286	5553.74
934.594	5558.48
934.902	5522.78
935.21	5492.95
935.519	5494.08
935.827	5487.3
936.135	5417.7
936.443	5376.79
936.751	5422.22
937.059	5405.72
937.367	5338.15
937.674	5349.45
937.982	5342.22
938.29	5300.64
938.597	5283.91
938.905	5240.07
939.213	5204.59
939.52	5166.63
939.827	5238.94
940.135	5146.52
940.442	5085.73
940.749	5060.19
941.056	5075.56
941.363	5027.88
941.67	5045.5
941.977	5007.54
942.284	4974.54
942.591	4965.96
942.898	4982.68
943.205	4972.28
943.511	4918.27
943.818	4898.61
944.125	4838.95
944.431	4824.27
944.738	4860.65
945.044	4800.31
945.35	4776.81
945.657	4743.36
945.963	4744.04
946.269	4733.65
946.575	4719.64
946.881	4661.78
947.187	4651.16
947.493	4649.13
947.799	4618.62
948.105	4600.99
948.41	4582.69
948.716	4566.87
949.022	4547.21
949.327	4497.49
949.633	4490.72
949.938	4436.03
950.244	4463.37
950.549	4443.26
950.854	4429.25
951.16	4430.6
951.465	4426.54
951.77	4349.93
952.075	4377.27
952.38	4290.27
952.685	4330.49
952.99	4322.81
953.294	4249.14
953.599	4268.35
953.904	4231.06
954.209	4241.68
954.513	4215.69
954.818	4182.93
955.122	4196.03
955.426	4181.34
955.731	4150.84
956.035	4119.43
956.339	4094.57
956.643	4105.19
956.948	4054.79
957.252	4097.05
957.556	4006.66
957.86	3984.29
958.163	3973.67
958.467	3976.6
958.771	3986.32
959.075	3967.11
959.378	3943.39
959.682	3931.41
959.985	3866.55
960.289	3906.1
960.592	3874.69
960.896	3816.61
961.199	3854.57
961.502	3834.24
961.805	3802.37
962.108	3780.68
962.411	3761.69
962.714	3740.68
963.017	3732.77
963.32	3734.58
963.623	3685.31
963.926	3692.32
964.228	3655.48
964.531	3656.39
964.833	3626.11
965.136	3549.95
965.438	3575.71
965.741	3578.87
966.043	3540.91
966.345	3538.65
966.648	3557.18
966.95	3540.01
967.252	3526.9
967.554	3498.42
967.856	3501.36
968.158	3434.25
968.46	3488.48
968.761	3445.09
969.063	3407.13
969.365	3441.48
969.666	3373.91
969.968	3331.42
970.269	3351.99
970.571	3333.46
970.872	3316.51
971.174	3304.76
971.475	3321.71
971.776	3300.92
972.077	3298.2
972.378	3259.34
972.679	3231.09
972.98	3232.9
973.281	3217.98
973.582	3207.59
973.883	3178.66
974.183	3137.98
974.484	3187.47
974.785	3168.26
975.085	3121.71
975.386	3134.59
975.686	3079.23
975.986	3078.32
976.287	3093.01
976.587	3064.09
976.887	3071.09
977.187	3041.04
977.487	3021.38
977.787	3019.34
978.087	2985.67
978.387	2961.04
978.687	2982.73
978.987	2985.22
979.286	2914.03
979.586	2955.61
979.885	2928.95
980.185	2902.06
980.484	2873.13
980.784	2878.55
981.083	2866.58
981.382	2846.46
981.682	2841.04
981.981	2852.79
982.28	2807.14
982.579	2813.92
982.878	2791.32
983.177	2749.52
983.475	2776.86
983.774	2739.35
984.073	2742.74
984.372	2690.76
984.67	2693.47
984.969	2712.91
985.267	2692.8
985.566	2663.42
985.864	2664.77
986.162	2629.52
986.461	2636.53
986.759	2618
987.057	2602.63
987.355	2589.07
987.653	2607.15
987.951	2599.24
988.249	2559.47
988.547	2574.61
988.844	2543.65
989.142	2518.79
989.44	2511.56
989.737	2547.94
990.035	2505.23
990.332	2478.11
990.63	2466.36
990.927	2472.46
991.224	2452.58
991.521	2474.5
991.819	2436.31
992.116	2404.22
992.413	2391.56
992.71	2404.44
993.006	2345.91
993.303	2385.69
993.6	2335.97
993.897	2350.21
994.193	2365.57
994.49	2353.6
994.787	2306.59
995.083	2305.91
995.379	2315.41
995.676	2261.17
995.972	2299.81
996.268	2256.88
996.565	2215.97
996.861	2222.3
997.157	2186.37
997.453	2206.71
997.749	2224.33
998.044	2194.73
998.34	2167.16
998.636	2174.39
998.932	2196.31
999.227	2161.06
999.523	2129.2
999.818	2094.85
1000.114	2138.91
1000.409	2113.15
1000.704	2106.37
1001	2078.12
1001.295	2045.36
1001.59	2046.03
1001.885	2043.1
1002.18	2040.84
1002.475	2011.46
1002.77	1996.09
1003.065	1996.77
1003.359	1975.3
1003.654	1936.21
1003.949	1915.19
1004.243	1957.22
1004.538	1914.74
1004.832	1938.69
1005.127	1926.49
1005.421	1938.69
1005.715	1870.9
1006.009	1890.56
1006.304	1925.13
1006.598	1884.68
1006.892	1851.91
1007.186	1843.33
1007.48	1838.81
1007.773	1833.61
1008.067	1808.53
1008.361	1815.76
1008.655	1827.73
1008.948	1784.57
1009.242	1761.75
1009.535	1762.43
1009.829	1765.36
1010.122	1737.12
1010.415	1707.74
1010.708	1699.83
1011.001	1724.01
1011.295	1714.74
1011.588	1666.83
1011.881	1689.88
1012.173	1676.33
1012.466	1636.78
1012.759	1658.25
1013.052	1653.5
1013.344	1657.57
1013.637	1622.54
1013.93	1615.08
1014.222	1609.66
1014.514	1604.01
1014.807	1599.04
1015.099	1561.98
1015.391	1551.58
1015.683	1535.99
1015.976	1545.03
1016.268	1532.37
1016.56	1530.12
1016.851	1544.8
1017.143	1501.42
1017.435	1492.38
1017.727	1503.9
1018.018	1526.27
1018.31	1486.73
1018.602	1480.62
1018.893	1448.31
1019.185	1428.2
1019.476	1451.02
1019.767	1445.37
1020.058	1406.95
1020.35	1388.42
1020.641	1386.62
1020.932	1402.89
1021.223	1380.51
1021.514	1398.59
1021.804	1347.75
1022.095	1344.81
1022.386	1362.89
1022.677	1316.79
1022.967	1312.95
1023.258	1310.01
1023.548	1295.55
1023.839	1283.79
1024.129	1303.23
1024.419	1290.35
1024.709	1252.61
1025	1269.33
1025.29	1264.36
1025.58	1239.05
1025.87	1203.34
1026.16	1218.26
1026.449	1246.96
1026.739	1216.9
1027.029	1234.76
1027.319	1216.23
1027.608	1190.24
1027.898	1203.34
1028.187	1194.08
1028.477	1160.18
1028.766	1156.57
1029.055	1153.63
1029.344	1161.76
1029.634	1136.68
1029.923	1152.95
1030.212	1128.32
1030.501	1111.82
1030.79	1111.14
1031.078	1139.39
1031.367	1103.23
1031.656	1107.08
1031.945	1093.29
1032.233	1091.48
1032.522	1077.02
1032.81	1089.45
1033.099	1081.99
1033.387	1043.8
1033.675	1034.08
1033.963	1053.07
1034.251	1050.58
1034.54	1024.14
1034.828	1003.12
1035.116	1023.46
1035.403	967.42
1035.691	991.82
1035.979	1004.71
1036.267	978.72
1036.554	980.3
1036.842	995.21
1037.129	964.25
1037.417	958.83
1037.704	974.42
1037.992	958.6
1038.279	944.59
1038.566	938.72
1038.853	938.72
1039.14	938.72
