Data from hue_00_FLMS001491_74.txt Node
Date: Mon Feb 06 15:30:12 GMT 2017
User: dcchb
Spectrometer: FLMS00149
Trigger mode: 0
Integration Time (sec): 2.000000E-2
Scans to average: 10
Electric dark correction enabled: true
Nonlinearity correction enabled: false
Boxcar width: 0
XAxis mode: Wavelengths
Number of Pixels in Spectrum: 2048
>>>>>Begin Spectral Data<<<<<
341.393	1.5
341.776	1.5
342.16	1.5
342.543	-51.61
342.927	-63.36
343.31	-65.62
343.693	-75.79
344.077	-63.13
344.46	-73.3
344.843	-42.34
345.226	-44.6
345.61	-42.12
345.993	-24.72
346.376	-12.74
346.759	16.86
347.142	31.1
347.525	43.98
347.908	60.48
348.291	82.17
348.674	103.42
349.057	106.35
349.44	128.95
349.823	144.77
350.206	166.69
350.588	194.71
350.971	194.03
351.354	222.51
351.737	245.11
352.119	241.49
352.502	271.32
352.884	262.51
353.267	289.17
353.65	286.46
354.032	304.54
354.414	314.94
354.797	303.86
355.179	316.07
355.562	327.82
355.944	317.87
356.326	337.76
356.709	324.88
357.091	331.88
357.473	318.78
357.855	316.97
358.238	331.88
358.62	320.58
359.002	343.18
359.384	336.18
359.766	346.35
360.148	332.79
360.53	343.41
360.912	332.11
361.294	325.56
361.676	318.32
362.057	332.79
362.439	342.05
362.821	320.36
363.203	324.2
363.584	329.17
363.966	308.83
364.348	347.02
364.729	321.26
365.111	322.39
365.493	311.32
365.874	316.74
366.256	312.45
366.637	286.91
367.019	319
367.4	305.9
367.781	313.81
368.163	301.38
368.544	309.96
368.925	302.73
369.306	317.42
369.688	326.23
370.069	294.82
370.45	303.86
370.831	307.93
371.212	274.48
371.593	299.12
371.974	314.26
372.355	297.08
372.736	314.26
373.117	324.2
373.498	301.38
373.879	315.84
374.26	299.12
374.641	309.51
375.021	320.81
375.402	320.36
375.783	320.58
376.163	322.84
376.544	309.51
376.925	321.71
377.305	313.81
377.686	306.12
378.066	328.95
378.447	332.79
378.827	312.22
379.208	320.13
379.588	307.25
379.968	324.65
380.349	313.58
380.729	328.49
381.109	327.36
381.489	328.95
381.87	334.6
382.25	333.24
382.63	333.69
383.01	330.3
383.39	333.01
383.77	336.18
384.15	337.76
384.53	338.21
384.91	347.02
385.29	336.86
385.67	338.89
386.049	339.57
386.429	359.23
386.809	341.15
387.189	343.64
387.568	343.64
387.948	324.2
388.328	333.69
388.707	340.47
389.087	350.19
389.466	323.07
389.846	352
390.225	333.24
390.605	352.9
390.984	351.32
391.363	349.51
391.743	364.43
392.122	352.22
392.501	346.8
392.881	354.48
393.26	354.71
393.639	357.42
394.018	369.4
394.397	344.99
394.776	361.26
395.155	352.9
395.534	377.31
395.913	365.33
396.292	354.93
396.671	394.03
397.05	371.43
397.429	377.53
397.808	373.46
398.186	375.72
398.565	368.04
398.944	355.16
399.323	358.1
399.701	394.48
400.08	402.39
400.458	358.78
400.837	376.85
401.215	361.04
401.594	360.36
401.972	404.2
402.351	376.85
402.729	420.47
403.107	394.71
403.486	397.87
403.864	368.49
404.242	377.76
404.62	387.48
404.999	394.93
405.377	376.63
405.755	381.37
406.133	406.91
406.511	395.16
406.889	420.24
407.267	401.94
407.645	388.61
408.023	395.61
408.401	385.22
408.779	390.64
409.156	399
409.534	409.62
409.912	412.33
410.29	407.81
410.667	413.92
411.045	430.64
411.422	433.35
411.8	440.81
412.178	411.66
412.555	441.71
412.933	426.57
413.31	443.07
413.687	458.43
414.065	450.75
414.442	441.71
414.819	436.97
415.197	456.4
415.574	446.46
415.951	469.73
416.328	437.19
416.705	466.34
417.082	460.69
417.46	462.05
417.837	479.45
418.214	476.29
418.591	483.74
418.967	487.81
419.344	491.88
419.721	471.09
420.098	486
420.475	483.07
420.852	468.38
421.228	502.73
421.605	493.69
421.982	495.72
422.358	493.24
422.735	502.05
423.111	522.61
423.488	504.99
423.864	496.85
424.241	524.42
424.617	506.34
424.994	520.13
425.37	501.6
425.746	521.03
426.123	546.34
426.499	534.82
426.875	515.16
427.251	533.91
427.627	547.47
428.003	547.7
428.379	545.89
428.756	560.13
429.132	546.79
429.507	572.1
429.883	558.77
430.259	563.74
430.635	569.84
431.011	566.91
431.387	584.08
431.763	581.14
432.138	577.3
432.514	598.77
432.89	596.96
433.265	589.96
433.641	600.8
434.016	590.86
434.392	588.83
434.767	608.94
435.143	626.79
435.518	621.59
435.894	606.9
436.269	640.35
436.644	614.81
437.02	668.37
437.395	658.43
437.77	672.44
438.145	667.47
438.52	643.29
438.895	657.53
439.271	655.27
439.646	671.54
440.021	688.26
440.395	685.55
440.77	672.67
441.145	665.66
441.52	686
441.895	693
442.27	693.46
442.645	700.24
443.019	716.28
443.394	714.7
443.769	712.89
444.143	691.2
444.518	704.53
444.892	702.72
445.267	713.57
445.641	715.38
446.016	711.53
446.39	734.81
446.764	728.26
447.139	719.9
447.513	755.15
447.887	740.91
448.262	732.1
448.636	746.11
449.01	739.1
449.384	740.23
449.758	758.77
450.132	758.31
450.506	774.81
450.88	749.95
451.254	744.53
451.628	782.72
452.002	777.75
452.376	783.4
452.75	793.79
453.123	786.56
453.497	798.31
453.871	811.19
454.244	819.55
454.618	797.63
454.992	833.57
455.365	826.79
455.739	830.63
456.112	834.24
456.486	824.3
456.859	858.2
457.232	833.79
457.606	850.06
457.979	868.59
458.352	891.42
458.725	870.17
459.099	876.5
459.472	928.03
459.845	934.81
460.218	886.45
460.591	900.23
460.964	921.7
461.337	947.91
461.71	941.36
462.083	975.93
462.456	940
462.829	941.13
463.201	991.3
463.574	968.93
463.947	990.17
464.32	1022.94
464.692	1009.38
465.065	1012.32
465.438	1017.74
465.81	1022.26
466.183	1058.87
466.555	1051.86
466.928	1066.33
467.3	1085.31
467.672	1079.21
468.045	1086.44
468.417	1127.57
468.789	1134.57
469.161	1141.58
469.534	1159.66
469.906	1165.99
470.278	1163.27
470.65	1188.36
471.022	1202.82
471.394	1241.01
471.766	1213.89
472.138	1261.13
472.51	1258.19
472.882	1289.6
473.253	1318.75
473.625	1301.35
473.997	1353.33
474.369	1364.4
474.74	1361.01
475.112	1419.31
475.484	1410.27
475.855	1413.89
476.227	1438.75
476.598	1496.15
476.97	1474.9
477.341	1521.68
477.713	1564.62
478.084	1583.83
478.455	1624.28
478.827	1596.48
479.198	1654.79
479.569	1707.44
479.94	1735.24
480.311	1761.22
480.682	1799.19
481.053	1842.35
481.424	1877.15
481.795	1841.9
482.166	1899.07
482.537	1916.25
482.908	1963.25
483.279	1992.18
483.65	2019.98
484.021	2077.15
484.391	2105.17
484.762	2118.73
485.133	2142.23
485.503	2144.72
485.874	2160.99
486.244	2239.86
486.615	2297.26
486.985	2306.07
487.356	2384.03
487.726	2398.5
488.097	2472.62
488.467	2436.24
488.837	2504.26
489.207	2572.05
489.578	2544.26
489.948	2565.95
490.318	2614.31
490.688	2645.5
491.058	2691.14
491.428	2761.42
491.798	2771.59
492.168	2816.56
492.538	2838.71
492.908	2867.86
493.278	2885.72
493.648	2940.63
494.017	3006.62
494.387	2976.56
494.757	3025.6
495.126	3057.01
495.496	3049.33
495.866	3088.2
496.235	3121.87
496.605	3178.81
496.974	3160.96
497.344	3210.68
497.713	3198.02
498.082	3265.14
498.452	3289.55
498.821	3318.25
499.19	3290.68
499.559	3366.83
499.928	3382.43
500.298	3384.01
500.667	3404.12
501.036	3402.31
501.405	3422.2
501.774	3502.87
502.143	3492.7
502.512	3508.52
502.88	3555.53
503.249	3501.97
503.618	3575.87
503.987	3579.26
504.356	3586.04
504.724	3595.07
505.093	3623.32
505.462	3646.6
505.83	3711.68
506.199	3713.94
506.567	3705.35
506.936	3745.35
507.304	3779.02
507.672	3748.07
508.041	3832.58
508.409	3796.65
508.777	3848.63
509.145	3844.33
509.514	3863.99
509.882	3878.01
510.25	3864.67
510.618	3918.91
510.986	3956.2
511.354	3957.55
511.722	3951
512.09	3977.89
512.458	4002.97
512.826	4024.89
513.193	4024.89
513.561	4016.08
513.929	3998.91
514.297	4101.28
514.664	4053.59
515.032	4066.93
515.4	4128.17
515.767	4115.29
516.135	4149.41
516.502	4121.39
516.869	4196.19
517.237	4132.69
517.604	4172.46
517.972	4212.69
518.339	4221.73
518.706	4223.31
519.073	4237.54
519.44	4256.3
519.808	4291.78
520.175	4311.21
520.542	4308.73
520.909	4341.27
521.276	4269.18
521.643	4322.97
522.009	4325.45
522.376	4340.59
522.743	4339.24
523.11	4428.05
523.477	4453.36
523.843	4464.66
524.21	4475.5
524.577	4548.5
524.943	4548.04
525.31	4543.07
525.676	4595.95
526.043	4613.35
526.409	4578.78
526.776	4662.62
527.142	4642.51
527.508	4735.84
527.874	4682.5
528.241	4749.62
528.607	4755.95
528.973	4743.52
529.339	4772.22
529.705	4849.73
530.071	4890.63
530.437	4875.72
530.803	4903.74
531.169	4891.54
531.535	4917.98
531.901	4927.02
532.267	4933.12
532.632	4998.43
532.998	4981.25
533.364	5011.99
533.73	5035.72
534.095	5087.92
534.461	5065.09
534.826	5114.58
535.192	5160.68
535.557	5150.74
535.923	5171.76
536.288	5169.5
536.653	5201.81
537.019	5149.16
537.384	5249.04
537.749	5234.35
538.114	5284.07
538.479	5294.24
538.845	5293.56
539.21	5270.74
539.575	5328.81
539.94	5351.86
540.305	5364.75
540.67	5361.58
541.034	5390.06
541.399	5435.48
541.764	5457.17
542.129	5484.06
542.494	5518.64
542.858	5529.04
543.223	5550.5
543.587	5599.54
543.952	5595.02
544.316	5595.93
544.681	5626.43
545.045	5682.93
545.41	5691.97
545.774	5749.82
546.138	5727.9
546.503	5767.45
546.867	5799.08
547.231	5810.16
547.595	5816.03
547.959	5817.62
548.324	5846.54
548.688	5843.6
549.052	5908.23
549.416	5886.99
549.779	5907.33
550.143	5949.14
550.507	6020.55
550.871	5967.22
551.235	5964.96
551.599	6023.26
551.962	6045.41
552.326	6037.04
552.689	6112.97
553.053	6030.27
553.417	6149.13
553.78	6171.05
554.143	6131.05
554.507	6152.52
554.87	6168.34
555.234	6274.1
555.597	6208.34
555.96	6238.85
556.323	6173.99
556.686	6233.42
557.05	6286.08
557.413	6304.61
557.776	6321.1
558.139	6374.21
558.502	6390.03
558.865	6368.79
559.228	6441.33
559.59	6410.14
559.953	6445.85
560.316	6576.69
560.679	6548.22
561.041	6533.75
561.404	6563.81
561.767	6594.32
562.129	6548.44
562.492	6631.38
562.854	6608.56
563.217	6603.36
563.579	6674.32
563.941	6677.25
564.304	6730.81
564.666	6743.92
565.028	6738.95
565.39	6806.97
565.753	6818.72
566.115	6856.68
566.477	6894.2
566.839	6874.99
567.201	6911.6
567.563	6938.72
567.925	6900.75
568.287	7022.78
568.648	7010.58
569.01	7038.15
569.372	7120.86
569.734	7037.02
570.095	7116.79
570.457	7143.46
570.819	7171.93
571.18	7185.49
571.542	7273.85
571.903	7312.27
572.265	7286.05
572.626	7338.48
572.987	7380.74
573.349	7378.03
573.71	7453.5
574.071	7512.71
574.432	7563.56
574.794	7663.22
575.155	7650.11
575.516	7696.66
575.877	7769.65
576.238	7826.15
576.599	7966.26
576.96	7978.46
577.32	7976.2
577.681	8127.39
578.042	8235.18
578.403	8211.68
578.763	8314.95
579.124	8434.5
579.485	8432.91
579.845	8581.16
580.206	8684.21
580.566	8777.09
580.927	8886.24
581.287	9030.41
581.648	9064.31
582.008	9304.98
582.368	9374.36
582.728	9501.13
583.089	9607.8
583.449	9757.62
583.809	9909.94
584.169	10070.38
584.529	10289.59
584.889	10517.15
585.249	10549.24
585.609	10701.33
585.969	10987.2
586.329	11117.82
586.688	11402.1
587.048	11565.26
587.408	11740.4
587.768	12008.19
588.127	12145.36
588.487	12411.11
588.846	12778.79
589.206	12782.86
589.565	13061.04
589.925	13430.75
590.284	13644.3
590.643	13874.58
591.003	14120.67
591.362	14399.54
591.721	14609.02
592.08	14810.15
592.44	15180.08
592.799	15434.76
593.158	15656.23
593.517	15997.23
593.876	16295.53
594.235	16456.43
594.593	16791.56
594.952	17154.27
595.311	17347.48
595.67	17618.89
596.029	18021.36
596.387	18299.1
596.746	18643.94
597.104	18777.5
597.463	19087.77
597.822	19566.63
598.18	19688.89
598.538	19949.22
598.897	20315.09
599.255	20355.99
599.613	21050.66
599.972	21162.97
600.33	21464.66
600.688	21725.45
601.046	22005.21
601.404	22371.76
601.762	22583.95
602.12	23011.51
602.478	23228.46
602.836	23397.72
603.194	23542.12
603.552	23787.99
603.91	23964.26
604.268	24393.62
604.625	24473.4
604.983	25008.52
605.341	25034.74
605.698	25321.51
606.056	25669.97
606.413	25766.47
606.771	26229.73
607.128	26378.88
607.485	26531.65
607.843	26801.02
608.2	27082.59
608.557	27408.46
608.914	27377.5
609.272	27741.11
609.629	27978.16
609.986	28228.55
610.343	28426.51
610.7	28735.2
611.057	28755.32
611.414	28940.17
611.771	29129.32
612.127	29408.41
612.484	29603.43
612.841	29919.81
613.198	29897.21
613.554	30104.66
613.911	30394.82
614.267	30488.15
614.624	30724.31
614.98	30757.3
615.337	31203.16
615.693	31216.27
616.05	31388.92
616.406	31566.09
616.762	31627.33
617.118	31654.68
617.475	31869.59
617.831	32071.84
618.187	32142.57
618.543	32469.12
618.899	32689
619.255	32721.54
619.611	32758.38
619.967	32999.73
620.323	33162.21
620.678	33194.07
621.034	33167.63
621.39	33242.43
621.746	33358.59
622.101	33727.16
622.457	33532.59
622.812	33724.68
623.168	33975.07
623.523	33916.54
623.879	34198.56
624.234	33964.67
624.589	34170.99
624.945	34233.59
625.3	34446.69
625.655	34469.74
626.01	34559.68
626.365	34681.26
626.72	34665.44
627.075	34653.92
627.43	34732.56
627.785	34604.43
628.14	34866.8
628.495	34984.31
628.85	34901.37
629.205	34995.83
629.559	35149.27
629.914	35051.2
630.269	35063.85
630.623	35012.33
630.978	35058.2
631.332	35168.03
631.687	35375.03
632.041	35197.63
632.396	35269.95
632.75	35195.6
633.104	35375.03
633.459	35234.7
633.813	35314.47
634.167	35335.03
634.521	35351.75
634.875	35197.86
635.229	35274.69
635.583	35211.19
635.937	35236.95
636.291	35274.02
636.645	35343.62
636.999	35130.97
637.352	35340.45
637.706	35245.32
638.06	35445.08
638.413	35239.67
638.767	35260.68
639.121	35254.36
639.474	35199.67
639.828	35248.93
640.181	35183.85
640.534	35247.8
640.888	35281.02
641.241	35068.82
641.594	35168.71
641.947	35220.01
642.301	35150.63
642.654	35232.89
643.007	35112.89
643.36	35173.68
643.713	35075.38
644.066	35339.78
644.419	35128.48
644.771	34907.7
645.124	34526.92
645.477	34492.79
645.83	34309.97
646.182	34147.27
646.535	34109.75
646.888	34115.18
647.24	33926.93
647.593	34175.74
647.945	34096.19
648.298	33973.94
648.65	33796.99
649.002	33802.19
649.355	34008.06
649.707	33922.19
650.059	34131.45
650.411	34421.61
650.763	34565.79
651.115	34854.14
651.467	34699.34
651.819	34762.84
652.171	34712.67
652.523	34681.94
652.875	34744.09
653.227	34533.47
653.578	34735.05
653.93	34682.85
654.282	34532.11
654.633	34429.74
654.985	34561.49
655.337	34549.52
655.688	34669.74
656.039	34585.67
656.391	34381.84
656.742	34389.29
657.094	34466.58
657.445	34532.79
657.796	34368.96
658.147	34465.9
658.498	34478.1
658.849	34396.3
659.2	34326.92
659.551	34366.02
659.902	34568.05
660.253	34478.33
660.604	34408.28
660.955	34360.37
661.306	34494.6
661.656	34345
662.007	34391.33
662.358	34350.88
662.708	34304.78
663.059	34382.06
663.409	34106.59
663.76	34298
664.11	34292.8
664.461	34371.21
664.811	34288.51
665.161	34324.89
665.511	34338.9
665.862	34311.56
666.212	34343.42
666.562	34261.39
666.912	34371.67
667.262	34245.79
667.612	34216.42
667.962	34273.36
668.312	34183.2
668.662	34389.29
669.011	34257.55
669.361	34220.48
669.711	34183.2
670.06	34062.75
670.41	34117.44
670.76	34066.14
671.109	34239.24
671.459	34209.19
671.808	34098.23
672.157	34134.84
672.507	34008.96
672.856	33979.13
673.205	34128.51
673.554	34237.66
673.904	33977.33
674.253	34158.34
674.602	33966.48
674.951	33554.29
675.3	33533.72
675.649	33951.79
675.998	33966.25
676.346	33950.43
676.695	33989.98
677.044	33626.38
677.393	33868.4
677.741	33982.3
678.09	33802.87
678.438	33748.63
678.787	33797.67
679.135	33693.49
679.484	33467.06
679.832	33696.66
680.181	33423.22
680.529	33570.78
680.877	33601.74
681.225	33542.54
681.573	33685.81
681.922	33362.2
682.27	33365.82
682.618	33339.15
682.966	33311.58
683.314	33266.16
683.661	33253.96
684.009	32914.3
684.357	32980.07
684.705	32942.33
685.053	32991.36
685.4	32993.4
685.748	32855.32
686.095	32798.15
686.443	32622.56
686.79	32642.67
687.138	32850.58
687.485	32625.27
687.832	32604.71
688.18	32631.6
688.527	32511.15
688.874	32297.37
689.221	32392.06
689.568	32290.59
689.915	32169.01
690.262	32202.46
690.609	32041.56
690.956	32038.62
691.303	31961.79
691.65	31897.83
691.997	31849.93
692.344	31603.83
692.69	31664.85
693.037	31724.5
693.383	31457.39
693.73	31456.94
694.077	31354.35
694.423	31276.16
694.769	31232.09
695.116	31112.77
695.462	31131.3
695.808	31002.72
696.155	31056.05
696.501	30689.73
696.847	30867.35
697.193	30640.01
697.539	30677.07
697.885	30497.87
698.231	30445.22
698.577	30423.3
698.923	30166.58
699.269	30114.38
699.614	30189.18
699.96	29963.87
700.306	29983.53
700.651	29838.9
700.997	29884.33
701.342	29732.01
701.688	29709.42
702.033	29420.16
702.379	29686.59
702.724	29448.41
703.069	29547.39
703.415	29162.31
703.76	29309.2
704.105	29175.65
704.45	29137.91
704.795	29033.05
705.14	29021.53
705.485	28843.22
705.83	28877.8
706.175	28918.25
706.52	28872.83
706.865	28565.94
707.209	28610.69
707.554	28520.52
707.899	28502.89
708.243	28377.02
708.588	28405.04
708.932	28136.8
709.277	28247.99
709.621	28129.8
709.966	28056.35
710.31	27997.6
710.654	27843.02
710.998	28022.23
711.342	27876.7
711.687	27830.82
712.031	27638.96
712.375	27537.72
712.719	27583.37
713.063	27639.41
713.407	27588.57
713.75	27503.15
714.094	27374.34
714.438	27361.46
714.782	27373.88
715.125	27187.22
715.469	27302.93
715.812	27003.95
716.156	27054.35
716.499	27024.74
716.843	27013.22
717.186	26854.8
717.53	27036.04
717.873	27012.54
718.216	26883.5
718.559	26777.74
718.902	26756.05
719.246	26716.95
719.589	26611.19
719.932	26424.53
720.275	26521.48
720.617	26505.88
720.96	26399
721.303	26389.96
721.646	26330.3
721.989	26131.43
722.331	26276.74
722.674	26224.76
723.016	26132.79
723.359	26153.58
723.701	26213.46
724.044	25962.85
724.386	25842.17
724.729	25914.04
725.071	25916.97
725.413	25947.03
725.755	25849.86
726.097	25822.29
726.439	25618.45
726.782	25628.85
727.124	25897.77
727.465	25727.83
727.807	25537.55
728.149	25506.14
728.491	25378.01
728.833	25507.04
729.175	25338.68
729.516	25296.43
729.858	25243.32
730.199	25266.82
730.541	25222.75
730.882	25242.87
731.224	25262.08
731.565	25124.23
731.906	25100.72
732.248	25092.81
732.589	24976.21
732.93	24843.56
733.271	24989.09
733.612	25084.23
733.953	25059.14
734.294	24892.37
734.635	24920.39
734.976	24847.17
735.317	24643.79
735.658	24691.47
735.999	24786.61
736.339	24702.77
736.68	24815.31
737.021	24570.79
737.361	24557.69
737.702	24699.38
738.042	24552.04
738.383	24468.42
738.723	24498.48
739.063	24444.92
739.404	24400.4
739.744	24339.39
740.084	24191.6
740.424	24328.32
740.764	24249
741.104	24303.46
741.444	24168.32
741.784	24094.65
742.124	24200.18
742.464	24067.08
742.804	24053.07
743.143	24039.74
743.483	24032.28
743.823	23831.83
744.162	23807.2
744.502	23883.36
744.841	23807.65
745.181	23879.29
745.52	23704.83
745.86	23799.74
746.199	23818.72
746.538	23761.55
746.877	23652.85
747.216	23670.71
747.556	23552.06
747.895	23593.19
748.234	23526.53
748.573	23397.49
748.911	23415.8
749.25	23533.53
749.589	23326.53
749.928	23346.19
750.267	23316.36
750.605	23210.6
750.944	23150.94
751.283	23163.37
751.621	23247.44
751.96	23029.59
752.298	23058.97
752.636	23040.44
752.975	23023.49
753.313	22903.49
753.651	22897.84
753.989	22860.11
754.327	22703.5
754.666	22728.58
755.004	22731.75
755.342	22700.79
755.679	22739.2
756.017	22574.24
756.355	22553.22
756.693	22494.92
757.031	22542.6
757.368	22402.04
757.706	22254.92
758.044	22321.81
758.381	22405.2
758.719	22310.06
759.056	22173.12
759.394	22146.45
759.731	22216.28
760.068	21964.99
760.405	21930.86
760.743	21851.09
761.08	21999.11
761.417	21907.36
761.754	21779.91
762.091	21712.56
762.428	21611.55
762.765	21499.46
763.102	21552.12
763.438	21394.83
763.775	21316.64
764.112	21302.18
764.449	21286.59
764.785	21223.54
765.122	21078.23
765.458	20956.88
765.795	21019.93
766.131	21003.2
766.467	20939.03
766.804	20887.28
767.14	20711.46
767.476	20736.32
767.812	20547.62
768.148	20598.24
768.485	20409.1
768.821	20343.34
769.157	20410
769.492	20448.19
769.828	20246.39
770.164	20069.22
770.5	20081.2
770.836	20075.55
771.171	19885.72
771.507	19952.38
771.842	19745.61
772.178	19761.2
772.513	19730.24
772.849	19668.32
773.184	19508.78
773.519	19534.32
773.855	19474.43
774.19	19355.56
774.525	19359.18
774.86	19362.8
775.195	19426.98
775.53	19129.58
775.865	19084.16
776.2	18947.21
776.535	18807.78
776.87	18903.6
777.205	18742.25
777.539	18726.2
777.874	18707.67
778.209	18495.25
778.543	18488.02
778.878	18398.53
779.212	18351.98
779.547	18309.26
779.881	18230.62
780.215	18118.31
780.55	18189.04
780.884	18091.42
781.218	18024.75
781.552	17986.33
781.886	17871.31
782.22	17833.57
782.554	17745.89
782.888	17686.68
783.222	17578.89
783.556	17426.58
783.889	17408.27
784.223	17396.75
784.557	17354.71
784.89	17268.84
785.224	17166.24
785.557	17083.08
785.891	17056.19
786.224	17067.04
786.558	16941.84
786.891	16795.18
787.224	16810.55
787.557	16873.6
787.891	16782.75
788.224	16691
788.557	16764.67
788.89	16662.75
789.223	16627.27
789.556	16476.77
789.888	16478.13
790.221	16391.12
790.554	16205.36
790.887	16237.91
791.219	16160.39
791.552	16107.06
791.884	15980.51
792.217	15977.57
792.549	15970.12
792.882	15825.04
793.214	15805.83
793.546	15856.9
793.879	15716.79
794.211	15633.63
794.543	15693.29
794.875	15630.69
795.207	15620.52
795.539	15574.87
795.871	15571.48
796.203	15350.7
796.535	15264.6
796.867	15249.68
797.198	15191.15
797.53	15230.02
797.862	15102.57
798.193	15153.19
798.525	14939.86
798.856	14991.39
799.188	14837.72
799.519	14871.16
799.85	14865.51
800.182	14735.35
800.513	14844.27
800.844	14632.98
801.175	14748.68
801.506	14710.94
801.837	14578.51
802.168	14472.53
802.499	14462.36
802.83	14393.21
803.161	14390.5
803.491	14361.57
803.822	14352.76
804.153	14294.68
804.483	14105.76
804.814	14161.12
805.145	14139.43
805.475	14136.94
805.805	14066.44
806.136	14014.01
806.466	13986.89
806.796	14008.13
807.126	13788.71
807.457	13872.77
807.787	13856.05
808.117	13789.61
808.447	13757.07
808.777	13776.28
809.107	13686.11
809.436	13658.31
809.766	13699.44
810.096	13572.44
810.426	13564.53
810.755	13527.7
811.085	13444.31
811.414	13444.08
811.744	13368.15
812.073	13334.71
812.403	13326.34
812.732	13234.37
813.061	13160.93
813.39	13216.97
813.719	13104.2
814.049	13187.37
814.378	13151.43
814.707	13072.34
815.036	13069.63
815.365	12926.13
815.693	12915.73
816.022	12900.14
816.351	12842.52
816.68	12716.64
817.008	12877.77
817.337	12728.39
817.665	12692.69
817.994	12762.97
818.322	12668.28
818.651	12619.02
818.979	12642.29
819.307	12624.44
819.636	12608.62
819.964	12471.9
820.292	12495.63
820.62	12404.11
820.948	12424
821.276	12513.26
821.604	12410.89
821.932	12482.07
822.259	12545.35
822.587	12453.6
822.915	12399.82
823.243	12456.54
823.57	12412.24
823.898	12402.08
824.225	12384.45
824.553	12440.49
824.88	12438.01
825.207	12452.92
825.535	12325.01
825.862	12433.49
826.189	12323.66
826.516	12460.6
826.843	12501.28
827.17	12490.43
827.497	12483.65
827.824	12377.67
828.151	12439.36
828.478	12396.88
828.805	12430.77
829.131	12382.19
829.458	12374.73
829.785	12313.04
830.111	12382.87
830.438	12469.87
830.764	12349.2
831.09	12352.58
831.417	12352.36
831.743	12341.06
832.069	12291.8
832.395	12280.95
832.722	12330.21
833.048	12184
833.374	12287.95
833.7	12221.06
834.026	12211.12
834.351	12244.11
834.677	12250.89
835.003	12159.82
835.329	12277.56
835.654	12259.03
835.98	12143.55
836.306	12162.08
836.631	12100.84
836.956	12101.97
837.282	12189.65
837.607	12060.39
837.932	11994.18
838.258	12076.43
838.583	11968.41
838.908	12017.23
839.233	12066.72
839.558	11960.73
839.883	11952.6
840.208	11924.35
840.533	11935.19
840.858	11859.72
841.182	11851.81
841.507	11850
841.832	11752.83
842.156	11769.32
842.481	11808.87
842.805	11728.42
843.13	11696.33
843.454	11748.53
843.778	11583.34
844.103	11600.51
844.427	11640.74
844.751	11673.05
845.075	11528.43
845.399	11505.38
845.723	11438.03
846.047	11513.28
846.371	11367.53
846.695	11405.27
847.019	11286.85
847.343	11240.75
847.666	11174.54
847.99	11126.18
848.313	11059.29
848.637	11016.35
848.96	11072.39
849.284	11013.64
849.607	10935.22
849.931	10904.04
850.254	10784.49
850.577	10787.65
850.9	10708.79
851.223	10731.38
851.546	10657.04
851.869	10627.66
852.192	10628.56
852.515	10501.56
852.838	10482.35
853.161	10474.44
853.483	10452.07
853.806	10360.09
854.129	10399.64
854.451	10296.82
854.774	10321.23
855.096	10213.21
855.419	10249.82
855.741	10200.78
856.063	10198.52
856.385	10100.44
856.708	10074.9
857.03	10123.72
857.352	10122.13
857.674	10010.27
857.996	9974.34
858.318	9933.89
858.64	9916.94
858.961	9937.06
859.283	9914.46
859.605	9853.67
859.926	9846.21
860.248	9741.58
860.57	9777.96
860.891	9777.51
861.212	9736.38
861.534	9663.62
861.855	9672.88
862.176	9678.98
862.498	9708.13
862.819	9715.59
863.14	9651.41
863.461	9571.87
863.782	9525.31
864.103	9600.79
864.424	9525.54
864.745	9590.17
865.065	9454.36
865.386	9447.58
865.707	9414.58
866.027	9381.59
866.348	9378.2
866.668	9396.28
866.989	9403.51
867.309	9288.94
867.63	9353.12
867.95	9350.63
868.27	9287.13
868.59	9257.07
868.91	9196.74
869.23	9238.99
869.55	9232.44
869.87	9291.65
870.19	9250.75
870.51	9210.29
870.83	9204.64
871.15	9149.51
871.469	9181.37
871.789	9204.42
872.109	9148.15
872.428	9111.31
872.748	9096.85
873.067	9135.04
873.386	9075.16
873.706	9060.24
874.025	9029.06
874.344	9000.58
874.663	9043.07
874.982	8994.48
875.301	8942.05
875.62	8935.95
875.939	8882.17
876.258	8923.3
876.577	8903.41
876.896	8928.49
877.214	8859.34
877.533	8858.89
877.852	8783.19
878.17	8827.71
878.489	8877.42
878.807	8840.13
879.125	8787.93
879.444	8792.45
879.762	8754.49
880.08	8716.07
880.398	8674.94
880.716	8763.07
881.034	8693.7
881.352	8653.7
881.67	8675.39
881.988	8658.9
882.306	8643.98
882.624	8652.8
882.941	8563.98
883.259	8549.07
883.577	8552.46
883.894	8523.76
884.212	8461.39
884.529	8483.99
884.846	8461.84
885.164	8455.29
885.481	8481.05
885.798	8509.52
886.115	8335.52
886.432	8410.99
886.75	8333.93
887.067	8372.58
887.383	8284.9
887.7	8325.57
888.017	8300.04
888.334	8282.64
888.651	8246.93
888.967	8203.09
889.284	8137.33
889.6	8181.4
889.917	8096.88
890.233	8108.63
890.55	8064.34
890.866	8142.07
891.182	8048.97
891.498	8100.27
891.815	8074.73
892.131	8003.55
892.447	8000.38
892.763	7886.49
893.079	7963.55
893.395	7936.43
893.71	7832.25
894.026	7851.46
894.342	7806.26
894.657	7760.39
894.973	7757.23
895.289	7737.11
895.604	7724.91
895.92	7731.46
896.235	7632.93
896.55	7699.6
896.865	7632.71
897.181	7619.38
897.496	7550
897.811	7537.34
898.126	7530.56
898.441	7471.13
898.756	7473.62
899.071	7454.41
899.386	7434.3
899.7	7386.61
900.015	7359.95
900.33	7352.72
900.644	7300.97
900.959	7274.3
901.273	7260.74
901.588	7220.06
901.902	7191.82
902.216	7192.95
902.531	7183.23
902.845	7145.94
903.159	7077.47
903.473	7052.39
903.787	7017.36
904.101	7048.32
904.415	7034.76
904.729	6998.15
905.042	6974.42
905.356	6886.29
905.67	6898.72
905.984	6900.75
906.297	6827.53
906.611	6805.84
906.924	6785.73
907.237	6751.15
907.551	6769.68
907.864	6718.61
908.177	6696.46
908.491	6685.39
908.804	6649.91
909.117	6586.86
909.43	6630.48
909.743	6520.2
910.056	6560.42
910.368	6508.44
910.681	6542.34
910.994	6418.96
911.307	6405.17
911.619	6333.08
911.932	6400.42
912.244	6354.32
912.557	6351.84
912.869	6267.32
913.181	6268.68
913.494	6261.67
913.806	6233.65
914.118	6199.53
914.43	6127.66
914.742	6169.47
915.054	6130.38
915.366	6110.72
915.678	6036.37
915.99	6097.16
916.302	5948.91
916.613	6021
916.925	5996.37
917.236	5991.62
917.548	5922.92
917.859	5876.37
918.171	5894.68
918.482	5891.29
918.794	5795.02
919.105	5806.54
919.416	5775.36
919.727	5763.61
920.038	5802.93
920.349	5695.81
920.66	5694.45
920.971	5681.12
921.282	5669.14
921.593	5574.46
921.903	5588.92
922.214	5598.19
922.525	5503.73
922.835	5494.69
923.146	5505.76
923.456	5475.48
923.767	5458.3
924.077	5472.54
924.387	5426.67
924.697	5421.47
925.008	5397.06
925.318	5364.75
925.628	5321.81
925.938	5306.44
926.248	5282.71
926.558	5253.79
926.867	5262.6
927.177	5206.11
927.487	5182.6
927.796	5171.08
928.106	5182.6
928.416	5146.67
928.725	5123.85
929.034	5041.14
929.344	5064.41
929.653	5084.3
929.962	5028.71
930.271	4997.52
930.581	4984.42
930.89	4975.38
931.199	4905.1
931.508	4933.34
931.817	4910.97
932.125	4918.2
932.434	4862.39
932.743	4848.38
933.051	4801.82
933.36	4791.43
933.669	4769.96
933.977	4772.9
934.286	4703.29
934.594	4660.36
934.902	4720.7
935.21	4625.56
935.519	4645.44
935.827	4693.13
936.135	4631.66
936.443	4592.11
936.751	4550.08
937.059	4547.14
937.367	4530.42
937.674	4508.72
937.982	4468.72
938.29	4488.38
938.597	4449.29
938.905	4419.23
939.213	4400.7
939.52	4387.37
939.827	4383.75
940.135	4385.79
940.442	4343.53
940.749	4311.67
941.056	4306.69
941.363	4266.7
941.67	4219.24
941.977	4255.17
942.284	4209.97
942.591	4201.84
942.898	4167.72
943.205	4194.16
943.511	4151.44
943.818	4199.58
944.125	4127.94
944.431	4133.82
944.738	4072.35
945.044	4047.27
945.35	4061.5
945.657	4027.15
945.963	4025.57
946.269	4032.8
946.575	3971.11
946.881	3946.48
947.187	3990.77
947.493	3919.13
947.799	3942.86
948.105	3928.85
948.41	3913.26
948.716	3894.5
949.022	3818.35
949.327	3841.4
949.633	3825.13
949.938	3808.63
950.244	3821.96
950.549	3728.4
950.854	3766.82
951.16	3748.07
951.465	3746.03
951.77	3718.46
952.075	3659.93
952.38	3672.59
952.685	3673.49
952.99	3636.2
953.294	3632.36
953.599	3626.49
953.904	3644.57
954.209	3572.25
954.513	3566.38
954.818	3577.22
955.122	3563.21
955.426	3550.1
955.731	3473.5
956.035	3522.08
956.339	3477.56
956.643	3495.64
956.948	3416.77
957.252	3426.27
957.556	3421.07
957.86	3432.37
958.163	3382.88
958.467	3400.05
958.771	3358.02
959.075	3378.13
959.378	3334.74
959.682	3327.06
959.985	3307.85
960.289	3298.81
960.592	3236.67
960.896	3263.56
961.199	3229.21
961.502	3263.11
961.805	3259.49
962.108	3210.23
962.411	3231.24
962.714	3192.15
963.017	3171.58
963.32	3186.27
963.623	3151.47
963.926	3119.16
964.228	3090
964.531	3094.3
964.833	3130.23
965.136	3078.03
965.438	3076.22
965.741	3056.33
966.043	3043.23
966.345	3018.37
966.648	2957.8
966.95	2975.88
967.252	2972.04
967.554	2947.18
967.856	2988.31
968.158	2952.83
968.46	2918.26
968.761	2899.27
969.063	2904.47
969.365	2885.26
969.666	2850.24
969.968	2875.55
970.269	2850.91
970.571	2850.46
970.872	2829.67
971.174	2831.25
971.475	2818.6
971.776	2808.65
972.077	2790.35
972.378	2760.75
972.679	2770.92
972.98	2779.96
973.281	2748.32
973.582	2737.02
973.883	2737.24
974.183	2722.78
974.484	2731.37
974.785	2677.13
975.085	2661.99
975.386	2722.56
975.686	2680.52
975.986	2657.47
976.287	2626.06
976.587	2616.8
976.887	2619.96
977.187	2577.7
977.487	2590.36
977.787	2561.43
978.087	2567.76
978.387	2550.13
978.687	2524.37
978.987	2549.9
979.286	2499.51
979.586	2475.33
979.885	2484.6
980.185	2495.22
980.484	2434.88
980.784	2462.45
981.083	2432.62
981.382	2425.16
981.682	2419.51
981.981	2414.99
982.28	2418.61
982.579	2408.44
982.878	2404.15
983.177	2362.79
983.475	2350.14
983.774	2350.59
984.073	2319.18
984.372	2332.28
984.67	2326.63
984.969	2329.35
985.267	2305.84
985.566	2326.41
985.864	2274.21
986.162	2303.36
986.461	2255.45
986.759	2253.19
987.057	2241.89
987.355	2225.39
987.653	2266.3
987.951	2215.68
988.249	2237.14
988.547	2201.89
988.844	2192.63
989.142	2192.63
989.44	2135
989.737	2133.87
990.035	2121.89
990.332	2110.37
990.63	2168.22
990.927	2119.41
991.224	2112.4
991.521	2118.05
991.819	2081.89
992.116	2072.4
992.413	2064.49
992.71	2043.03
993.006	2051.84
993.303	2044.38
993.6	2035.12
993.897	2050.71
994.193	2025.17
994.49	1999.86
994.787	2029.69
995.083	1996.47
995.379	1965.06
995.676	2015.91
995.972	1960.54
996.268	1951.95
996.565	1946.76
996.861	1929.13
997.157	1928.9
997.453	1900.2
997.749	1917.83
998.044	1906.31
998.34	1858.85
998.636	1874.44
998.932	1870.37
999.227	1852.97
999.523	1850.04
999.818	1828.79
1000.114	1850.04
1000.409	1821.11
1000.704	1821.56
1001	1804.16
1001.295	1795.8
1001.59	1768.68
1001.885	1776.59
1002.18	1777.72
1002.475	1756.48
1002.77	1760.32
1003.065	1743.6
1003.359	1727.1
1003.654	1709.7
1003.949	1732.3
1004.243	1692.07
1004.538	1679.42
1004.832	1680.1
1005.127	1671.28
1005.421	1655.24
1005.715	1655.92
1006.009	1639.19
1006.304	1662.24
1006.598	1616.37
1006.892	1617.05
1007.186	1615.24
1007.48	1605.97
1007.773	1616.6
1008.067	1576.37
1008.361	1569.14
1008.655	1584.96
1008.948	1556.03
1009.242	1586.31
1009.535	1560.78
1009.829	1530.72
1010.122	1515.81
1010.415	1535.24
1010.708	1497.95
1011.001	1524.39
1011.295	1492.08
1011.588	1513.1
1011.881	1468.13
1012.173	1466.77
1012.466	1457.96
1012.759	1443.27
1013.052	1427
1013.344	1473.32
1013.637	1458.86
1013.93	1429.93
1014.222	1403.27
1014.514	1419.99
1014.807	1395.81
1015.099	1363.5
1015.391	1388.35
1015.683	1396.04
1015.976	1371.86
1016.268	1355.81
1016.56	1355.36
1016.851	1345.19
1017.143	1339.77
1017.435	1322.82
1017.727	1343.38
1018.018	1296.38
1018.31	1297.73
1018.602	1283.05
1018.893	1275.36
1019.185	1294.8
1019.476	1271.29
1019.767	1273.1
1020.058	1306.32
1020.35	1261.13
1020.641	1241.01
1020.932	1227.45
1021.223	1205.08
1021.514	1219.32
1021.804	1218.41
1022.095	1201.47
1022.386	1205.08
1022.677	1206.66
1022.967	1187.23
1023.258	1184.06
1023.548	1177.51
1023.839	1172.31
1024.129	1184.06
1024.419	1128.47
1024.709	1129.6
1025	1137.29
1025.29	1119.66
1025.58	1108.81
1025.87	1139.32
1026.16	1115.37
1026.449	1105.65
1026.739	1083.05
1027.029	1108.59
1027.319	1078.08
1027.608	1086.89
1027.898	1057.06
1028.187	1052.99
1028.477	1039.44
1028.766	1060.45
1029.055	1046.67
1029.344	1018.87
1029.634	1008.93
1029.923	1013.9
1030.212	1012.77
1030.501	988.36
1030.79	988.59
1031.078	1029.72
1031.367	1006.67
1031.656	1017.52
1031.945	983.39
1032.233	986.78
1032.522	951.08
1032.81	968.93
1033.099	932.09
1033.387	963.96
1033.675	913.79
1033.963	925.31
1034.251	925.09
1034.54	908.59
1034.828	935.48
1035.116	923.96
1035.403	909.72
1035.691	897.74
1035.979	934.58
1036.267	893.68
1036.554	894.13
1036.842	872.89
1037.129	881.25
1037.417	854.81
1037.704	884.64
1037.992	854.58
1038.279	875.15
1038.566	848.25
1038.853	848.25
1039.14	848.25
