Data from hue_36_FLMS001491_00060.txt Node
Date: Tue Feb 07 17:30:01 GMT 2017
User: dcchb
Spectrometer: FLMS00149
Trigger mode: 0
Integration Time (sec): 2.000000E-2
Scans to average: 10
Electric dark correction enabled: true
Nonlinearity correction enabled: false
Boxcar width: 0
XAxis mode: Wavelengths
Number of Pixels in Spectrum: 2048
>>>>>Begin Spectral Data<<<<<
341.393	6.67
341.776	6.67
342.16	6.67
342.543	-63.84
342.927	-72.65
343.31	-52.99
343.693	-90.51
344.077	-56.61
344.46	-66.1
344.843	-52.09
345.226	-28.13
345.61	-28.81
345.993	-11.19
346.376	0.34
346.759	23.16
347.142	38.08
347.525	29.04
347.908	59.32
348.291	68.36
348.674	68.36
349.057	99.77
349.44	137.74
349.823	142.26
350.206	151.07
350.588	193.1
350.971	203.72
351.354	231.75
351.737	252.31
352.119	244.4
352.502	278.52
352.884	279.65
353.267	270.61
353.65	302.7
354.032	298.86
354.414	317.39
354.797	303.61
355.179	328.47
355.562	325.75
355.944	315.58
356.326	325.75
356.709	339.77
357.091	355.58
357.473	361.69
357.855	346.77
358.238	342.7
358.62	349.03
359.002	332.76
359.384	351.06
359.766	353.55
360.148	332.08
360.53	337.05
360.912	334.12
361.294	344.96
361.676	328.01
362.057	344.96
362.439	322.36
362.821	323.27
363.203	350.16
363.584	335.47
363.966	324.62
364.348	337.73
364.729	323.04
365.111	305.87
365.493	318.75
365.874	316.49
366.256	311.07
366.637	315.58
367.019	316.71
367.4	312.65
367.781	327.79
368.163	303.16
368.544	300.67
368.925	324.4
369.306	308.58
369.688	305.64
370.069	326.21
370.45	314.91
370.831	308.58
371.212	329.6
371.593	315.58
371.974	304.51
372.355	318.07
372.736	328.69
373.117	326.88
373.498	301.57
373.879	317.17
374.26	331.4
374.641	312.42
375.021	321.23
375.402	335.92
375.783	318.75
376.163	311.29
376.544	324.85
376.925	324.17
377.305	308.81
377.686	305.42
378.066	318.07
378.447	315.81
378.827	332.99
379.208	337.28
379.588	337.73
379.968	337.73
380.349	328.47
380.729	329.14
381.109	346.09
381.489	361.69
381.87	337.28
382.25	339.54
382.63	342.93
383.01	350.16
383.39	337.05
383.77	327.11
384.15	327.11
384.53	322.14
384.91	342.25
385.29	345.64
385.67	333.66
386.049	360.1
386.429	339.09
386.809	328.24
387.189	344.74
387.568	352.65
387.948	349.48
388.328	340.44
388.707	360.33
389.087	349.26
389.466	350.84
389.846	349.48
390.225	364.62
390.605	365.75
390.984	348.13
391.363	353.1
391.743	351.74
392.122	360.56
392.501	342.93
392.881	363.27
393.26	376.15
393.639	375.02
394.018	363.95
394.397	369.82
394.776	368.46
395.155	374.11
395.534	379.99
395.913	361.01
396.292	368.69
396.671	348.58
397.05	396.71
397.429	382.02
397.808	392.19
398.186	359.65
398.565	379.09
398.944	376.37
399.323	381.35
399.701	379.76
400.08	389.93
400.458	391.97
400.837	399.2
401.215	388.8
401.594	401.91
401.972	382.7
402.351	399.2
402.729	390.39
403.107	377.5
403.486	389.71
403.864	404.62
404.242	392.42
404.62	408.01
404.999	390.16
405.377	416.15
405.755	415.02
406.133	418.63
406.511	421.57
406.889	410.95
407.267	398.07
407.645	419.76
408.023	436.71
408.401	404.85
408.779	429.03
409.156	417.5
409.534	431.74
409.912	417.96
410.29	425.86
410.667	438.75
411.045	434.45
411.422	431.74
411.8	432.42
412.178	440.33
412.555	455.92
412.933	476.03
413.31	445.07
413.687	481.91
414.065	465.64
414.442	442.36
414.819	480.33
415.197	465.86
415.574	487.78
415.951	459.08
416.328	492.98
416.705	489.82
417.082	484.17
417.46	486.43
417.837	479.2
418.214	473.77
418.591	518.07
418.967	474.22
419.344	502.25
419.721	506.09
420.098	504.28
420.475	514.68
420.852	499.99
421.228	494.11
421.605	488.69
421.982	508.57
422.358	511.06
422.735	511.51
423.111	506.31
423.488	500.44
423.864	521.68
424.241	520.1
424.617	509.7
424.994	524.39
425.37	541.57
425.746	522.13
426.123	515.81
426.499	544.96
426.875	545.41
427.251	555.8
427.627	569.82
428.003	560.1
428.379	575.47
428.756	542.92
429.132	580.89
429.507	586.31
429.883	575.47
430.259	573.43
430.635	574.56
431.011	581.79
431.387	588.8
431.763	581.79
432.138	622.02
432.514	616.59
432.89	609.36
433.265	625.41
433.641	632.41
434.016	625.63
434.392	633.54
434.767	636.93
435.143	641
435.518	642.81
435.894	655.69
436.269	650.94
436.644	659.53
437.02	679.87
437.395	667.44
437.77	685.07
438.145	664.28
438.52	684.84
438.895	660.66
439.271	680.1
439.646	704.05
440.021	705.86
440.395	686.42
440.77	707.44
441.145	701.79
441.52	711.96
441.895	728.91
442.27	713.54
442.645	704.05
443.019	718.96
443.394	708.57
443.769	730.49
444.143	726.87
444.518	738.85
444.892	740.66
445.267	763.93
445.641	762.58
446.016	766.19
446.39	758.06
446.764	746.76
447.139	770.04
447.513	766.87
447.887	737.72
448.262	774.1
448.636	763.71
449.01	782.92
449.384	788.11
449.758	797.38
450.132	789.7
450.506	812.52
450.88	815.01
451.254	810.26
451.628	820.66
452.002	831.28
452.376	837.15
452.75	817.49
453.123	810.04
453.497	834.22
453.871	851.16
454.244	851.62
454.618	867.66
454.992	871.73
455.365	878.73
455.739	931.61
456.112	902.91
456.486	938.17
456.859	919.18
457.232	920.54
457.606	898.85
457.979	937.04
458.352	936.81
458.725	959.41
459.099	979.3
459.472	974.55
459.845	992.86
460.218	993.76
460.591	1002.12
460.964	1002.8
461.337	1025.85
461.71	1031.05
462.083	1075.79
462.456	1055.68
462.829	1052.06
463.201	1064.04
463.574	1114.43
463.947	1111.04
464.32	1127.09
464.692	1103.36
465.065	1172.06
465.438	1131.61
465.81	1164.6
466.183	1182
466.555	1181.32
466.928	1208.89
467.3	1221.78
467.672	1247.09
468.045	1294.32
468.417	1283.47
468.789	1275.33
469.161	1316.46
469.534	1333.64
469.906	1350.81
470.278	1378.61
470.65	1360.3
471.022	1412.96
471.394	1459.28
471.766	1468.32
472.138	1477.14
472.51	1532.73
472.882	1550.81
473.253	1582.67
473.625	1578.6
473.997	1620.41
474.369	1659.05
474.74	1714.64
475.112	1718.71
475.484	1744.93
475.855	1794.42
476.227	1844.81
476.598	1887.52
476.97	1910.12
477.341	1983.56
477.713	2034.18
478.084	2047.74
478.455	2120.74
478.827	2163.45
479.198	2235.53
479.569	2257.23
479.94	2355.08
480.311	2363.67
480.682	2409.54
481.053	2543.77
481.424	2574.96
481.795	2629.65
482.166	2686.82
482.537	2743.32
482.908	2814.73
483.279	2908.51
483.65	2982.86
484.021	3033.25
484.391	3147.83
484.762	3187.83
485.133	3264.89
485.503	3374.71
485.874	3420.14
486.244	3502.39
486.615	3598.21
486.985	3696.96
487.356	3755.95
487.726	3837.53
488.097	3952.33
488.467	4037.97
488.837	4138.08
489.207	4189.83
489.578	4365.65
489.948	4452.2
490.318	4501.69
490.688	4625.08
491.058	4724.06
491.428	4811.74
491.798	4919.98
492.168	5019.19
492.538	5084.27
492.908	5246.98
493.278	5312.52
493.648	5396.81
494.017	5523.81
494.387	5599.51
494.757	5712.51
495.126	5794.76
495.496	5846.51
495.866	5894.65
496.235	6009.22
496.605	6162.89
496.974	6196.79
497.344	6311.36
497.713	6416.44
498.082	6454.41
498.452	6606.27
498.821	6694.4
499.19	6681.97
499.559	6808.75
499.928	6932.36
500.298	6947.5
500.667	7062.3
501.036	7081.96
501.405	7186.14
501.774	7269.98
502.143	7348.62
502.512	7409.86
502.88	7512.23
503.249	7627.03
503.618	7632.91
503.987	7690.08
504.356	7744.09
504.724	7879.45
505.093	7929.85
505.462	8013.46
505.83	8072.9
506.199	8154.25
506.567	8255.26
506.936	8271.76
507.304	8403.51
507.672	8457.97
508.041	8484.41
508.409	8638.53
508.777	8746.32
509.145	8848.92
509.514	8786.1
509.882	8836.94
510.25	8865.64
510.618	8925.75
510.986	8999.42
511.354	9131.4
511.722	9198.97
512.09	9330.49
512.458	9262.47
512.826	9428.57
513.193	9480.99
513.561	9542.23
513.929	9613.65
514.297	9651.38
514.664	9763.25
515.032	9712.17
515.4	9872.4
515.767	9882.79
516.135	9995.33
516.502	9935.44
516.869	10088.21
517.237	10179.28
517.604	10062.22
517.972	10252.95
518.339	10286.62
518.706	10354.87
519.073	10400.74
519.44	10433.96
519.808	10556.67
520.175	10548.54
520.542	10683
520.909	10750.34
521.276	10742.2
521.643	10876.44
522.009	10952.59
522.376	10979.49
522.743	11074.4
523.11	11194.17
523.477	11245.24
523.843	11361.62
524.21	11407.72
524.577	11500.38
524.943	11503.54
525.31	11576.98
525.676	11640.48
526.043	11781.05
526.409	11828.95
526.776	11955.05
527.142	12012.68
527.508	12132
527.874	12177.87
528.241	12269.85
528.607	12211.09
528.973	12352.78
529.339	12331.09
529.705	12470.52
530.071	12589.61
530.437	12636.39
530.803	12635.04
531.169	12818.31
531.535	12774.24
531.901	12785.31
532.267	12914.12
532.632	12967
532.998	12959.55
533.364	13130.62
533.73	13137.62
534.095	13232.08
534.461	13289.26
534.826	13376.26
535.192	13440.21
535.557	13471.4
535.923	13526.76
536.288	13596.82
536.653	13624.84
537.019	13544.84
537.384	13634.56
537.749	13759.53
538.114	13745.06
538.479	13885.4
538.845	13878.39
539.21	13876.58
539.575	13984.15
539.94	14055.79
540.305	14058.27
540.67	14044.94
541.034	14159.29
541.399	14293.75
541.764	14304.37
542.129	14408.55
542.494	14373.29
542.858	14514.76
543.223	14491.48
543.587	14586.62
543.952	14594.31
544.316	14698.48
544.681	14707.97
545.045	14736.67
545.41	14872.94
545.774	14917.91
546.138	14922.88
546.503	15034.52
546.867	15051.69
547.231	15151.13
547.595	15140.51
547.959	15229.54
548.324	15208.53
548.688	15227.74
549.052	15396.09
549.416	15374.4
549.779	15476.99
550.143	15465.92
550.507	15588.63
550.871	15594.28
551.235	15681.06
551.599	15720.6
551.962	15772.13
552.326	15757.21
552.689	15879.92
553.053	15876.98
553.417	15933.03
553.78	16061.61
554.143	16103.42
554.507	16111.33
554.87	16159.91
555.234	16339.8
555.597	16249.63
555.96	16292.57
556.323	16358.33
556.686	16417.08
557.05	16548.83
557.413	16521.03
557.776	16647.36
558.139	16744.53
558.502	16715.38
558.865	16843.06
559.228	16894.81
559.59	16995.15
559.953	16954.24
560.316	17233.11
560.679	17134.58
561.041	17220.68
561.404	17286.21
561.767	17363.5
562.129	17317.85
562.492	17552.19
562.854	17600.55
563.217	17540.67
563.579	17678.97
563.941	17743.83
564.304	17782.47
564.666	17928.23
565.028	17846.65
565.39	18011.16
565.753	18093.65
566.115	18168
566.477	18154.89
566.839	18235.34
567.201	18340.87
567.563	18418.39
567.925	18499.29
568.287	18529.34
568.648	18551.04
569.01	18743.57
569.372	18831.26
569.734	18777.02
570.095	18926.4
570.457	18958.71
570.819	19026.96
571.18	19122.55
571.542	19217.69
571.903	19209.33
572.265	19403.67
572.626	19431.47
572.987	19484.8
573.349	19493.16
573.71	19645.92
574.071	19768.41
574.432	19884.56
574.794	20042.52
575.155	19987.84
575.516	20044.11
575.877	20184.22
576.238	20338.79
576.599	20350.31
576.96	20395.51
577.32	20569.29
577.681	20715.27
578.042	20752.11
578.403	20992.78
578.763	21101.25
579.124	21142.38
579.485	21448.81
579.845	21619.88
580.206	21668.92
580.566	21716.38
580.927	21940.78
581.287	22050.83
581.648	22189.36
582.008	22412.18
582.368	22515.91
582.728	22803.58
583.089	22836.12
583.449	22851.72
583.809	23309.33
584.169	23426.39
584.529	23485.6
584.889	23875.19
585.249	23813.05
585.609	23910.44
585.969	24325.58
586.329	24400.15
586.688	24661.84
587.048	24844.66
587.408	24951.1
587.768	25303.85
588.127	25269.28
588.487	25563.06
588.846	26037.17
589.206	25961.69
589.565	26279.2
589.925	26489.13
590.284	26546.08
590.643	26819.52
591.003	27171.15
591.362	27419.73
591.721	27574.76
592.08	27719.38
592.44	28070.34
592.799	28200.73
593.158	28368.18
593.517	28538.8
593.876	28865.79
594.235	29001.16
594.593	29258.55
594.952	29614.7
595.311	29636.17
595.67	29965.88
596.029	30289.03
596.387	30507.11
596.746	30749.59
597.104	30640.44
597.463	30961.11
597.822	31264.15
598.18	31381.66
598.538	31420.3
598.897	31856.22
599.255	31881.08
599.613	32504.8
599.972	32394.52
600.33	32712.47
600.688	32692.36
601.046	32961.51
601.404	33204.21
601.762	33342.51
602.12	33637.65
602.478	33683.3
602.836	34083.06
603.194	33917.64
603.552	34248.48
603.91	34276.05
604.268	34535.48
604.625	34597.4
604.983	34920.78
605.341	34821.34
605.698	35175.69
606.056	35271.28
606.413	35415
606.771	35765.73
607.128	35707.87
607.485	35778.61
607.843	36069.9
608.2	36253.17
608.557	36525.03
608.914	36470.11
609.272	36658.36
609.629	36921.18
609.986	37121.62
610.343	37037.56
610.7	37289.08
611.057	37432.35
611.414	37520.03
611.771	37618.33
612.127	37762.06
612.484	37974.48
612.841	38168.15
613.198	38103.97
613.554	38368.37
613.911	38582.6
614.267	38516.61
614.624	38608.36
614.98	38810.62
615.337	38977.62
615.693	38930.39
616.05	39058.52
616.406	39532.63
616.762	39304.39
617.118	39470.71
617.475	39485.63
617.831	39617.15
618.187	39755.68
618.543	39798.16
618.899	40029.34
619.255	39985.5
619.611	39930.81
619.967	40207.42
620.323	40385.94
620.678	40284.25
621.034	40377.36
621.39	40440.18
621.746	40227.08
622.101	40773.05
622.457	40545.71
622.812	40633.62
623.168	40857.12
623.523	40808.53
623.879	41051.24
624.234	40795.65
624.589	41010.11
624.945	40989.09
625.3	41208.3
625.655	41074.97
626.01	41201.29
626.365	41372.13
626.72	41354.28
627.075	41301.17
627.43	41308.86
627.785	41261.63
628.14	41402.64
628.495	41503.43
628.85	41479.93
629.205	41365.13
629.559	41576.87
629.914	41396.54
630.269	41433.15
630.623	41478.8
630.978	41403.09
631.332	41572.81
631.687	41581.62
632.041	41493.49
632.396	41566.7
632.75	41406.03
633.104	41602.86
633.459	41413.26
633.813	41616.65
634.167	41477.44
634.521	41464.56
634.875	41643.09
635.229	41601.96
635.583	41393.6
635.937	41498.68
636.291	41359.03
636.645	41570.32
636.999	41325.81
637.352	41542.98
637.706	41289.87
638.06	41579.13
638.413	41389.53
638.767	41307.95
639.121	41356.99
639.474	41167.39
639.828	41261.63
640.181	41307.05
640.534	41341.85
640.888	41150.44
641.241	41119.48
641.594	41171.23
641.947	41299.82
642.301	41237.9
642.654	41323.32
643.007	41266.82
643.36	41151.8
643.713	41101.41
644.066	41339.59
644.419	41111.12
644.771	40822.54
645.124	40385.72
645.477	40352.95
645.83	40129.68
646.182	40041.09
646.535	39990.25
646.888	40069.57
647.24	39868.9
647.593	39994.54
647.945	39806.07
648.298	39767.43
648.65	39699.63
649.002	39593.42
649.355	39816.92
649.707	39852.62
650.059	39902.11
650.411	40408.09
650.763	40357.7
651.115	40789.1
651.467	40661.87
651.819	40605.37
652.171	40540.29
652.523	40406.51
652.875	40405.83
653.227	40282.44
653.578	40560.18
653.93	40553.17
654.282	40273.86
654.633	40226.63
654.985	40378.03
655.337	40352.5
655.688	40389.33
656.039	40598.37
656.391	40203.8
656.742	40313.63
657.094	40296.45
657.445	40359.28
657.796	40475.21
658.147	40393.85
658.498	40242.22
658.849	40460.97
659.2	40329
659.551	40241.09
659.902	40364.25
660.253	40263.24
660.604	40391.37
660.955	40065.05
661.306	40319.28
661.656	40153.41
662.007	40135.78
662.358	40105.95
662.708	40216.46
663.059	40208.55
663.409	39931.94
663.76	40293.74
664.11	40207.19
664.461	40103.01
664.811	40282.22
665.161	40177.36
665.511	40120.64
665.862	40233.63
666.212	40219.85
666.562	40311.37
666.912	40026.18
667.262	40048.33
667.612	40066.63
667.962	40142.79
668.312	40235.89
668.662	40305.72
669.011	40120.41
669.361	40063.24
669.711	39985.95
670.06	39940.08
670.41	39925.84
670.76	39932.85
671.109	40024.6
671.459	39944.6
671.808	40024.15
672.157	39962.45
672.507	39815.56
672.856	39918.84
673.205	39714.55
673.554	39955.67
673.904	39836.58
674.253	40070.25
674.602	39799.07
674.951	39397.95
675.3	39228.91
675.649	39797.71
675.998	39784.15
676.346	39739.86
676.695	39861.66
677.044	39721.78
677.393	39775.34
677.741	39677.49
678.09	39628.22
678.438	39369.47
678.787	39660.77
679.135	39719.75
679.484	39435.23
679.832	39559.75
680.181	39284.5
680.529	39515.68
680.877	39344.16
681.225	39185.3
681.573	39359.3
681.922	39174.9
682.27	39073.89
682.618	39206.77
682.966	38928.81
683.314	39105.75
683.661	38785.99
684.009	38770.17
684.357	38682.03
684.705	38662.83
685.053	38654.92
685.4	38582.6
685.748	38448.14
686.095	38384.41
686.443	38246.56
686.79	38184.87
687.138	38589.83
687.485	38473.68
687.832	38193.23
688.18	38317.52
688.527	38108.26
688.874	38066
689.221	37976.29
689.568	37871.21
689.915	37803.41
690.262	37748.27
690.609	37830.98
690.956	37731.1
691.303	37567.71
691.65	37478.68
691.997	37390.32
692.344	37235.29
692.69	37249.08
693.037	37213.82
693.383	36826.94
693.73	37026.03
694.077	36743.1
694.423	36858.8
694.769	36737.23
695.116	36651.35
695.462	36630.11
695.808	36471.92
696.155	36541.07
696.501	36244.58
696.847	36261.53
697.193	35933.18
697.539	36276
697.885	35862.22
698.231	35921.2
698.577	35829.91
698.923	35802.56
699.269	35542.68
699.614	35553.75
699.96	35416.13
700.306	35474.66
700.651	35178.4
700.997	35084.84
701.342	35125.97
701.688	35036.93
702.033	34991.28
702.379	35017.72
702.724	34777.73
703.069	34806.2
703.415	34462.71
703.76	34535.48
704.105	34576.6
704.45	34525.31
704.795	34267.01
705.14	34094.13
705.485	34196.73
705.83	34008.26
706.175	34111.53
706.52	33854.36
706.865	33920.13
707.209	33874.25
707.554	33728.27
707.899	33766.46
708.243	33598.33
708.588	33407.82
708.932	33344.77
709.277	33263.65
709.621	33321.04
709.966	33197.88
710.31	33209.64
710.654	32869.76
710.998	32937.33
711.342	32941.85
711.687	32945.46
712.031	32655.07
712.375	32620.5
712.719	32595.87
713.063	32520.16
713.407	32644.23
713.75	32430.45
714.094	32464.34
714.438	32328.53
714.782	32360.62
715.125	32112.94
715.469	32238.14
715.812	32007.86
716.156	31768.09
716.499	31949.33
716.843	32030.91
717.186	31740.52
717.53	31872.5
717.873	31947.3
718.216	31847.86
718.559	31443.35
718.902	31465.95
719.246	31507.99
719.589	31533.3
719.932	31282.23
720.275	31331.27
720.617	31195.22
720.96	31361.55
721.303	31258.27
721.646	31177.6
721.989	31029.35
722.331	31206.98
722.674	31016.25
723.016	31073.42
723.359	30982.8
723.701	30946.42
724.044	30752.52
724.386	30625.07
724.729	30732.64
725.071	30840.66
725.413	30681.57
725.755	30569.7
726.097	30523.15
726.439	30368.81
726.782	30521.57
727.124	30551.4
727.465	30302.59
727.807	30419.88
728.149	30293.33
728.491	30191.41
728.833	30148.47
729.175	30188.92
729.516	30092.66
729.858	30119.1
730.199	29938.99
730.541	29924.75
730.882	29856.73
731.224	29910.29
731.565	29856.73
731.906	29708.71
732.248	29741.93
732.589	29582.39
732.93	29518.66
733.271	29586.23
733.612	29649.95
733.953	29605.89
734.294	29575.38
734.635	29390.07
734.976	29452.45
735.317	29252
735.658	29172.45
735.999	29292.68
736.339	29113.47
736.68	29327.48
737.021	29131.1
737.361	29003.42
737.702	29175.17
738.042	28961.16
738.383	29003.64
738.723	28895.17
739.063	28928.17
739.404	28966.58
739.744	28821.05
740.084	28724.56
740.424	28840.03
740.764	28735.63
741.104	28777.21
741.444	28527.05
741.784	28529.31
742.124	28554.16
742.464	28532.7
742.804	28508.29
743.143	28454.51
743.483	28482.98
743.823	28307.62
744.162	28201.18
744.502	28288.63
744.841	28220.39
745.181	28320.5
745.52	28089.54
745.86	28331.12
746.199	28117.79
746.538	28229.2
746.877	28136.1
747.216	28133.38
747.556	27890.91
747.895	27942.66
748.234	27874.86
748.573	27844.35
748.911	27727.75
749.25	27709.21
749.589	27759.84
749.928	27582.66
750.267	27654.53
750.605	27663.57
750.944	27459.05
751.283	27464.93
751.621	27414.99
751.96	27301.77
752.298	27285.95
752.636	27313.52
752.975	27212.05
753.313	27127.76
753.651	27207.53
753.989	27046.41
754.327	27050.7
754.666	27003.24
755.004	26971.16
755.342	26955.56
755.679	26789.69
756.017	26739.52
756.355	26798.96
756.693	26633.54
757.031	26730.48
757.368	26568.23
757.706	26424.5
758.044	26424.05
758.381	26466.76
758.719	26351.96
759.056	26443.94
759.394	26321
759.731	26046.21
760.068	26122.82
760.405	25928.02
760.743	25877.62
761.08	25843.5
761.417	25816.84
761.754	25696.16
762.091	25651.19
762.428	25622.49
762.765	25344.08
763.102	25534.36
763.438	25395.15
763.775	25241.03
764.112	25242.39
764.449	25266.12
764.785	25133.46
765.122	25001.94
765.458	24894.6
765.795	24835.17
766.131	24771.89
766.467	24736.41
766.804	24662.52
767.14	24506.59
767.476	24502.52
767.812	24372.35
768.148	24487.83
768.485	24247.84
768.821	24218.01
769.157	24147.73
769.492	24047.39
769.828	23980.73
770.164	23783.67
770.5	23793.39
770.836	23738.47
771.171	23612.83
771.507	23572.15
771.842	23408.31
772.178	23332.61
772.513	23322.21
772.849	23227.3
773.184	23202.44
773.519	23112.05
773.855	22981.43
774.19	22915.44
774.525	22826.41
774.86	22846.97
775.195	22812.85
775.53	22681.55
775.865	22567.66
776.2	22416.25
776.535	22231.39
776.87	22283.37
777.205	22178.29
777.539	22092.19
777.874	22125.41
778.209	21892.64
778.543	21875.92
778.878	21866.2
779.212	21749.6
779.547	21589.83
779.881	21691.07
780.215	21436.39
780.55	21487.23
780.884	21370.17
781.218	21304.64
781.552	21298.31
781.886	21157.3
782.22	21015.61
782.554	21012.22
782.888	20851.54
783.222	20717.53
783.556	20592.57
783.889	20600.02
784.223	20452.23
784.557	20281.16
784.89	20435.96
785.224	20280.26
785.557	20244.78
785.891	20195.29
786.224	20071.9
786.558	20100.83
786.891	19911.23
787.224	19814.73
787.557	19825.81
787.891	19833.49
788.224	19700.16
788.557	19662.87
788.89	19645.92
789.223	19590.78
789.556	19493.84
789.888	19428.08
790.221	19345.14
790.554	19304.01
790.887	19302.66
791.219	19144.02
791.552	19093.62
791.884	19072.83
792.217	18899.28
792.549	18886.85
792.882	18658.61
793.214	18712.84
793.546	18764.14
793.879	18598.95
794.211	18443.92
794.543	18567.99
794.875	18387.88
795.207	18445.05
795.539	18335.9
795.871	18265.4
796.203	18155.34
796.535	17991.73
796.867	18019.3
797.198	18004.84
797.53	17982.92
797.862	17890.94
798.193	17874.9
798.525	17749.93
798.856	17717.16
799.188	17585.19
799.519	17521.91
799.85	17440.11
800.182	17426.55
800.513	17475.36
800.844	17375.02
801.175	17391.97
801.506	17329.15
801.837	17203.5
802.168	17264.97
802.499	17171.64
802.83	17007.58
803.161	17023.62
803.491	16990.63
803.822	17040.12
804.153	16803.29
804.483	16735.27
804.814	16731.42
805.145	16667.02
805.475	16716.06
805.805	16555.61
806.136	16544.31
806.466	16477.19
806.796	16565.1
807.126	16428.38
807.457	16347.03
807.787	16257.54
808.117	16305.45
808.447	16270.87
808.777	16265.45
809.107	16157.88
809.436	16054.15
809.766	16114.94
810.096	16087.37
810.426	15954.72
810.755	15973.03
811.085	15853.03
811.414	15865.46
811.744	15805.57
812.073	15722.86
812.403	15701.85
812.732	15634.96
813.061	15636.54
813.39	15535.52
813.719	15474.06
814.049	15592.25
814.378	15475.41
814.707	15371.23
815.036	15441.06
815.365	15365.36
815.693	15197.45
816.022	15227.74
816.351	15168.08
816.68	15182.99
817.008	15191.8
817.337	15018.25
817.665	14960.4
817.994	15045.82
818.322	14992.26
818.651	14890.57
818.979	14826.84
819.307	14939.16
819.636	14855.99
819.964	14802.44
820.292	14841.53
820.62	14755.21
820.948	14709.1
821.276	14897.57
821.604	14783.68
821.932	14776.22
822.259	14822.32
822.587	14707.52
822.915	14702.1
823.243	14774.64
823.57	14731.03
823.898	14674.76
824.225	14657.35
824.553	14615.77
824.88	14637.47
825.207	14668.43
825.535	14618.49
825.862	14709.78
826.189	14644.25
826.516	14708.43
826.843	14721.08
827.17	14686.96
827.497	14754.3
827.824	14644.02
828.151	14668.2
828.478	14674.76
828.805	14769.67
829.131	14680.4
829.458	14623.46
829.785	14524.93
830.111	14537.81
830.438	14629.33
830.764	14672.5
831.09	14646.51
831.417	14566.06
831.743	14621.42
832.069	14580.52
832.395	14589.56
832.722	14548.21
833.048	14525.15
833.374	14490.58
833.7	14389.11
834.026	14458.26
834.351	14495.1
834.677	14430.92
835.003	14502.78
835.329	14442.67
835.654	14372.84
835.98	14399.51
836.306	14441.09
836.631	14282.22
836.956	14354.09
837.282	14398.83
837.607	14257.14
837.932	14340.07
838.258	14232.96
838.583	14225.95
838.908	14149.12
839.233	14234.09
839.558	14150.93
839.883	14126.97
840.208	14083.36
840.533	14034.32
840.858	14016.69
841.182	14037.48
841.507	14027.09
841.832	13938.73
842.156	13919.75
842.481	13858.05
842.805	13880.43
843.13	13820.31
843.454	13786.42
843.778	13754.78
844.103	13702.35
844.427	13748.45
844.751	13686.53
845.075	13698.06
845.399	13520.44
845.723	13568.8
846.047	13538.29
846.371	13390.5
846.695	13443.6
847.019	13310.72
847.343	13301.91
847.666	13180.11
847.99	13118.19
848.313	13101.69
848.637	13090.16
848.96	13109.82
849.284	13032.99
849.607	12957.29
849.931	12930.62
850.254	12818.98
850.577	12782.6
850.9	12601.14
851.223	12672.55
851.546	12568.6
851.869	12487.69
852.192	12573.79
852.515	12455.38
852.838	12393.01
853.161	12351.88
853.483	12254.71
853.806	12278.43
854.129	12290.86
854.451	12103.07
854.774	12131.55
855.096	12027.14
855.419	12065.11
855.741	12097.65
856.063	12006.58
856.385	11931.32
856.708	11899.69
857.03	11851.55
857.352	11859.24
857.674	11805.9
857.996	11731.56
858.318	11722.06
858.64	11688.39
858.961	11686.81
859.283	11661.73
859.605	11611.56
859.926	11597.1
860.248	11500.15
860.57	11515.97
860.891	11585.8
861.212	11435.07
861.534	11425.8
861.855	11297.22
862.176	11411.34
862.498	11313.49
862.819	11345.13
863.14	11335.41
863.461	11283.21
863.782	11234.39
864.103	11230.78
864.424	11261.29
864.745	11296.54
865.065	11188.52
865.386	11208.41
865.707	11111.46
866.027	11152.14
866.348	11021.29
866.668	11057.22
866.989	11055.19
867.309	10969.77
867.63	11061.97
867.95	10984
868.27	10951.92
868.59	10920.05
868.91	10972.48
869.23	10924.57
869.55	10883.89
869.87	10917.11
870.19	10918.47
870.51	10893.16
870.83	10884.57
871.15	10787.17
871.469	10849.09
871.789	10756.44
872.109	10783.56
872.428	10732.26
872.748	10659.72
873.067	10742.88
873.386	10717.8
873.706	10701.07
874.025	10621.75
874.344	10585.82
874.663	10577.91
874.982	10663.34
875.301	10520.51
875.62	10518.48
875.939	10555.32
876.258	10519.61
876.577	10487.29
876.896	10468.54
877.214	10501.08
877.533	10442.78
877.852	10440.74
878.17	10429.22
878.489	10410.23
878.807	10363.68
879.125	10349.45
879.444	10358.71
879.762	10347.19
880.08	10358.48
880.398	10312.38
880.716	10370.46
881.034	10292.95
881.352	10258.6
881.67	10206.85
881.988	10257.7
882.306	10126.4
882.624	10157.59
882.941	10115.78
883.259	10053.41
883.577	10049.34
883.894	10044.37
884.212	10033.97
884.529	9969.57
884.846	9944.71
885.164	9891.6
885.481	9893.41
885.798	9880.53
886.115	9892.73
886.432	9830.14
886.75	9767.09
887.067	9861.77
887.383	9725.06
887.7	9790.59
888.017	9725.28
888.334	9784.49
888.651	9716.24
888.967	9697.71
889.284	9632.85
889.6	9630.37
889.917	9568
890.233	9593.08
890.55	9495.46
890.866	9531.84
891.182	9511.95
891.498	9443.48
891.815	9448.9
892.131	9381.79
892.447	9347.66
892.763	9331.17
893.079	9302.92
893.395	9346.08
893.71	9317.16
894.026	9268.12
894.342	9230.15
894.657	9182.92
894.973	9180.21
895.289	9110.83
895.604	9111.29
895.92	9106.99
896.235	8975.24
896.55	9007.11
896.865	8997.62
897.181	8989.48
897.496	8863.61
897.811	8872.87
898.126	8888.47
898.441	8803.27
898.756	8847.34
899.071	8730.05
899.386	8720.11
899.7	8676.95
900.015	8642.6
900.33	8580.68
900.644	8575.03
900.959	8542.94
901.273	8590.17
901.588	8482.38
901.902	8491.19
902.216	8453
902.531	8454.13
902.845	8360.8
903.159	8358.99
903.473	8255.72
903.787	8314.7
904.101	8255.72
904.415	8265.66
904.729	8187.24
905.042	8177.53
905.356	8164.42
905.67	8099.34
905.984	8143.63
906.297	8107.24
906.611	7943.18
906.924	8022.05
907.237	8059.56
907.551	7944.76
907.864	7906.35
908.177	7943.18
908.491	7895.72
908.804	7857.08
909.117	7840.36
909.43	7751.77
909.743	7705.67
910.056	7716.29
910.368	7665.67
910.681	7616.41
910.994	7637.43
911.307	7534.6
911.619	7486.24
911.932	7530.99
912.244	7459.58
912.557	7413.25
912.869	7409.41
913.181	7378
913.494	7373.93
913.806	7347.04
914.118	7334.61
914.43	7267.72
914.742	7258.45
915.054	7210.77
915.366	7203.09
915.678	7168.96
915.99	7068.85
916.302	7058.01
916.613	7094.84
916.925	7062.53
917.236	7021.4
917.548	6882.19
917.859	6962.19
918.171	6898.69
918.482	6837.22
918.794	6908.41
919.105	6810.1
919.416	6764.68
919.727	6818.24
920.038	6713.16
920.349	6711.12
920.66	6707.06
920.971	6647.85
921.282	6688.52
921.593	6602.65
921.903	6562.43
922.214	6533.5
922.525	6451.24
922.835	6464.35
923.146	6430.9
923.456	6418.7
923.767	6383.9
924.077	6335.99
924.387	6387.29
924.697	6340.96
925.008	6256.67
925.318	6215.09
925.628	6252.38
925.938	6236.11
926.248	6156.79
926.558	6205.15
926.867	6104.81
927.177	6088.99
927.487	6056.22
927.796	6025.27
928.106	6022.33
928.416	5997.47
928.725	6000.18
929.034	5937.36
929.344	5946.4
929.653	5920.18
929.962	5884.48
930.271	5836.12
930.581	5820.3
930.89	5797.7
931.199	5780.3
931.508	5768.32
931.817	5741.88
932.125	5673.86
932.434	5669.79
932.743	5635.22
933.051	5607.42
933.36	5586.41
933.669	5536.24
933.977	5582.57
934.286	5544.83
934.594	5549.12
934.902	5489.69
935.21	5446.98
935.519	5460.31
935.827	5429.35
936.135	5413.98
936.443	5387.32
936.751	5361.55
937.059	5322.23
937.367	5298.28
937.674	5327.66
937.982	5282.69
938.29	5268.45
938.597	5221.67
938.905	5153.88
939.213	5163.14
939.52	5152.29
939.827	5109.36
940.135	5119.98
940.442	5095.8
940.749	5093.09
941.056	5118.4
941.363	4993.88
941.67	5011.05
941.977	4969.47
942.284	4944.62
942.591	4939.19
942.898	4920.44
943.205	4878.63
943.511	4923.6
943.818	4852.64
944.125	4829.59
944.431	4830.04
944.738	4796.37
945.044	4781.68
945.35	4732.19
945.657	4694.9
945.963	4692.19
946.269	4671.63
946.575	4656.71
946.881	4637.28
947.187	4641.12
947.493	4590.95
947.799	4627.34
948.105	4583.95
948.41	4551.86
948.716	4536.94
949.022	4504.18
949.327	4524.51
949.633	4421.69
949.938	4463.05
950.244	4442.48
950.549	4441.35
950.854	4381.01
951.16	4380.34
951.465	4347.12
951.77	4324.75
952.075	4314.12
952.38	4312.77
952.685	4237.97
952.99	4249.27
953.294	4197.52
953.599	4209.72
953.904	4188.93
954.209	4141.92
954.513	4145.77
954.818	4137.86
955.122	4107.58
955.426	4113.23
955.731	4103.06
956.035	4056.05
956.339	4066.22
956.643	4045.43
956.948	3980.57
957.252	3984.19
957.556	4019.44
957.86	3955.72
958.163	3933.57
958.467	3897.86
958.771	3928.15
959.075	3941.03
959.378	3863.74
959.682	3883.4
959.985	3875.94
960.289	3840.92
960.592	3834.59
960.896	3807.7
961.199	3822.84
961.502	3790.07
961.805	3754.82
962.108	3701.48
962.411	3718.66
962.714	3705.55
963.017	3677.98
963.32	3675.95
963.623	3677.98
963.926	3662.39
964.228	3671.88
964.531	3610.64
964.833	3615.16
965.136	3567.7
965.438	3566.8
965.741	3527.7
966.043	3561.6
966.345	3522.05
966.648	3517.08
966.95	3492.45
967.252	3500.36
967.554	3447.48
967.856	3455.16
968.158	3471.66
968.46	3396.41
968.761	3420.59
969.063	3412.23
969.365	3359.35
969.666	3341.72
969.968	3371.32
970.269	3336.75
970.571	3281.38
970.872	3340.82
971.174	3243.64
971.475	3224.89
971.776	3274.15
972.077	3246.36
972.378	3247.49
972.679	3211.33
972.98	3209.29
973.281	3207.26
973.582	3128.84
973.883	3199.8
974.183	3194.38
974.484	3148.5
974.785	3112.35
975.085	3105.34
975.386	3099.69
975.686	3093.82
975.986	3074.16
976.287	3046.36
976.587	3011.11
976.887	3024.89
977.187	3013.37
977.487	3018.79
977.787	2998.68
978.087	2939.02
978.387	2971.33
978.687	2930.88
978.987	2936.31
979.286	2900.6
979.586	2913.71
979.885	2907.38
980.185	2879.13
980.484	2863.99
980.784	2860.15
981.083	2832.13
981.382	2800.04
981.682	2852.69
981.981	2775.41
982.28	2779.02
982.579	2796.2
982.878	2798.46
983.177	2734.28
983.475	2769.08
983.774	2719.36
984.073	2725.69
984.372	2666.03
984.67	2679.82
984.969	2696.77
985.267	2636.2
985.566	2672.36
985.864	2623.77
986.162	2646.6
986.461	2605.92
986.759	2605.24
987.057	2620.84
987.355	2559.14
987.653	2591.46
987.951	2551.91
988.249	2558.24
988.547	2578.12
988.844	2483.66
989.142	2539.93
989.44	2495.19
989.737	2519.14
990.035	2496.54
990.332	2479.82
990.63	2418.81
990.927	2436.89
991.224	2430.33
991.521	2422.87
991.819	2449.09
992.116	2416.77
992.413	2372.93
992.71	2403.89
993.006	2376.32
993.303	2350.56
993.6	2365.47
993.897	2331.8
994.193	2316.44
994.49	2286.15
994.787	2330.22
995.083	2286.61
995.379	2293.16
995.676	2213.39
995.972	2272.6
996.268	2221.52
996.565	2246.16
996.861	2208.19
997.157	2234.86
997.453	2225.82
997.749	2206.16
998.044	2155.76
998.34	2176.1
998.636	2163.45
998.932	2182.2
999.227	2134.97
999.523	2115.31
999.818	2127.97
1000.114	2126.38
1000.409	2097.23
1000.704	2076.89
1001	2085.03
1001.295	2078.25
1001.59	2049.1
1001.885	2057.01
1002.18	2025.37
1002.475	2018.82
1002.77	2024.01
1003.065	1962.55
1003.359	1994.18
1003.654	1981.08
1003.949	1958.71
1004.243	1968.42
1004.538	1969.1
1004.832	1902.21
1005.127	1928.65
1005.421	1929.55
1005.715	1909.44
1006.009	1900.63
1006.304	1857.92
1006.598	1853.4
1006.892	1875.54
1007.186	1857.92
1007.48	1853.62
1007.773	1833.51
1008.067	1849.1
1008.361	1790.12
1008.655	1777.92
1008.948	1803.68
1009.242	1767.52
1009.535	1760.29
1009.829	1755.55
1010.122	1762.55
1010.415	1732.04
1010.708	1735.89
1011.001	1759.16
1011.295	1716.9
1011.588	1713.29
1011.881	1675.1
1012.173	1690.69
1012.466	1696.57
1012.759	1675.55
1013.052	1665.38
1013.344	1662.89
1013.637	1624.25
1013.93	1629.45
1014.222	1599.39
1014.514	1605.49
1014.807	1606.4
1015.099	1587.19
1015.391	1562.56
1015.683	1548.32
1015.976	1559.17
1016.268	1575.66
1016.56	1551.48
1016.851	1533.63
1017.143	1533.63
1017.435	1525.5
1017.727	1499.73
1018.018	1476.91
1018.31	1486.85
1018.602	1512.62
1018.893	1454.76
1019.185	1429.45
1019.476	1477.81
1019.767	1423.8
1020.058	1436.91
1020.35	1414.31
1020.641	1425.61
1020.932	1412.96
1021.223	1382.9
1021.514	1386.07
1021.804	1363.02
1022.095	1373.64
1022.386	1355.78
1022.677	1355.33
1022.967	1343.58
1023.258	1373.18
1023.548	1302.45
1023.839	1321.21
1024.129	1313.3
1024.419	1313.07
1024.709	1275.56
1025	1266.52
1025.29	1293.86
1025.58	1268.1
1025.87	1233.3
1026.16	1260.19
1026.449	1243.92
1026.739	1239.4
1027.029	1228.33
1027.319	1197.6
1027.608	1200.99
1027.898	1224.49
1028.187	1220.87
1028.477	1178.39
1028.766	1166.86
1029.055	1165.51
1029.344	1180.19
1029.634	1147.65
1029.923	1150.14
1030.212	1138.61
1030.501	1137.71
1030.79	1142.68
1031.078	1113.98
1031.367	1121.89
1031.656	1111.04
1031.945	1107.88
1032.233	1091.16
1032.522	1095.68
1032.81	1064.94
1033.099	1074.89
1033.387	1054.55
1033.675	1041.89
1033.963	1063.81
1034.251	1049.12
1034.54	1028.79
1034.828	1040.31
1035.116	1015.23
1035.403	1038.28
1035.691	1000.09
1035.979	1015.68
1036.267	1009.13
1036.554	965.74
1036.842	967.55
1037.129	997.15
1037.417	982.23
1037.704	960.31
1037.992	955.34
1038.279	954.66
1038.566	954.89
1038.853	954.89
1039.14	954.89
