Data from hue_320_FLMS001491_85.txt Node
Date: Mon Feb 06 15:47:49 GMT 2017
User: dcchb
Spectrometer: FLMS00149
Trigger mode: 0
Integration Time (sec): 2.000000E-2
Scans to average: 10
Electric dark correction enabled: true
Nonlinearity correction enabled: false
Boxcar width: 0
XAxis mode: Wavelengths
Number of Pixels in Spectrum: 2048
>>>>>Begin Spectral Data<<<<<
341.393	3.56
341.776	3.56
342.16	3.56
342.543	-52.03
342.927	-68.3
343.31	-89.32
343.693	-78.7
344.077	-50.9
344.46	-68.98
344.843	-56.55
345.226	-14.07
345.61	-31.02
345.993	-7.29
346.376	-11.36
346.759	15.08
347.142	31.13
347.525	30.45
347.908	63.22
348.291	56.89
348.674	89.43
349.057	121.97
349.44	159.04
349.823	145.48
350.206	177.34
350.588	211.01
350.971	204.46
351.354	220.5
351.737	241.97
352.119	240.16
352.502	267.51
352.884	288.52
353.267	307.51
353.65	314.06
354.032	287.17
354.414	298.01
354.797	323.32
355.179	332.36
355.562	321.07
355.944	339.37
356.326	328.97
356.709	336.88
357.091	338.01
357.473	344.57
357.855	340.5
358.238	346.38
358.62	351.12
359.002	349.54
359.384	337.11
359.766	362.42
360.148	332.14
360.53	332.36
360.912	329.65
361.294	338.69
361.676	331.01
362.057	330.56
362.439	335.53
362.821	337.34
363.203	339.82
363.584	341.86
363.966	330.1
364.348	342.08
364.729	343.89
365.111	326.94
365.493	329.2
365.874	310.9
366.256	327.39
366.637	330.33
367.019	324
367.4	312.48
367.781	324.45
368.163	331.01
368.544	317.22
368.925	322.19
369.306	330.78
369.688	330.78
370.069	326.04
370.45	322.42
370.831	330.56
371.212	305.7
371.593	320.39
371.974	321.07
372.355	313.83
372.736	335.98
373.117	310.9
373.498	325.13
373.879	333.95
374.26	317.45
374.641	307.96
375.021	311.35
375.402	315.64
375.783	314.29
376.163	340.05
376.544	324.45
376.925	333.49
377.305	329.65
377.686	328.07
378.066	335.08
378.447	334.4
378.827	343.89
379.208	319.94
379.588	331.91
379.968	333.95
380.349	351.8
380.729	347.28
381.109	328.97
381.489	345.25
381.87	340.5
382.25	360.61
382.63	344.79
383.01	330.1
383.39	326.49
383.77	347.73
384.15	349.99
384.53	366.04
384.91	366.04
385.29	338.47
385.67	346.83
386.049	349.54
386.429	370.1
386.809	359.71
387.189	357.22
387.568	366.04
387.948	352.93
388.328	395.64
388.707	367.39
389.087	368.97
389.466	377.11
389.846	366.04
390.225	368.07
390.605	377.11
390.984	358.58
391.363	370.33
391.743	359.26
392.122	361.52
392.501	374.85
392.881	376.43
393.26	381.4
393.639	386.83
394.018	383.21
394.397	373.27
394.776	394.28
395.155	399.03
395.534	391.12
395.913	403.77
396.292	402.87
396.671	389.76
397.05	408.75
397.429	399.03
397.808	396.54
398.186	386.15
398.565	419.59
398.944	380.72
399.323	402.64
399.701	410.1
400.08	413.49
400.458	397.67
400.837	407.84
401.215	427.73
401.594	410.1
401.972	429.31
402.351	417.79
402.729	404.68
403.107	412.14
403.486	415.98
403.864	443.77
404.242	431.8
404.62	435.19
404.999	439.93
405.377	429.54
405.755	443.77
406.133	429.08
406.511	448.07
406.889	453.72
407.267	450.33
407.645	448.75
408.023	470.67
408.401	467.28
408.779	461.17
409.156	456.65
409.534	467.73
409.912	480.38
410.29	480.38
410.667	494.17
411.045	493.26
411.422	491
411.8	514.51
412.178	522.42
412.555	527.84
412.933	529.65
413.31	531.45
413.687	537.1
414.065	529.42
414.442	539.36
414.819	544.34
415.197	565.13
415.574	574.17
415.951	579.36
416.328	569.87
416.705	548.18
417.082	604.22
417.46	605.35
417.837	575.52
418.214	613.26
418.591	595.63
418.967	600.15
419.344	619.14
419.721	636.76
420.098	664.11
420.475	646.71
420.852	658.46
421.228	642.19
421.605	648.74
421.982	672.47
422.358	681.51
422.735	672.47
423.111	668.63
423.488	694.39
423.864	730.09
424.241	714.05
424.617	698.23
424.994	708.17
425.37	740.49
425.746	725.35
426.123	731.22
426.499	729.64
426.875	761.51
427.251	772.35
427.627	776.65
428.003	776.65
428.379	781.39
428.756	783.43
429.132	809.19
429.507	834.72
429.883	828.4
430.259	828.62
430.635	825.46
431.011	849.64
431.387	836.98
431.763	860.94
432.138	868.17
432.514	886.25
432.89	863.2
433.265	884.89
433.641	907.49
434.016	910.88
434.392	923.54
434.767	941.16
435.143	932.12
435.518	966.47
435.894	972.8
436.269	973.03
436.644	984.1
437.02	969.64
437.395	978.67
437.77	1008.5
438.145	1021.39
438.52	1023.87
438.895	1058.9
439.271	1036.53
439.646	1062.06
440.021	1053.93
440.395	1074.49
440.77	1054.15
441.145	1086.24
441.52	1088.05
441.895	1082.17
442.27	1096.41
442.645	1085.56
443.019	1104.1
443.394	1091.67
443.769	1133.7
444.143	1103.42
444.518	1132.57
444.892	1101.16
445.267	1112.46
445.641	1147.48
446.016	1159.46
446.39	1135.28
446.764	1162.17
447.139	1150.65
447.513	1158.78
447.887	1186.8
448.262	1172.57
448.636	1178.44
449.01	1191.32
449.384	1179.57
449.758	1185.22
450.132	1225
450.506	1196.3
450.88	1209.4
451.254	1213.92
451.628	1202.62
452.002	1239.23
452.376	1232.45
452.75	1255.96
453.123	1257.54
453.497	1236.3
453.871	1259.35
454.244	1293.24
454.618	1279.01
454.992	1307.48
455.365	1317.42
455.739	1321.72
456.112	1339.12
456.486	1349.06
456.859	1338.21
457.232	1357.87
457.606	1358.55
457.979	1375.95
458.352	1377.99
458.725	1389.96
459.099	1413.69
459.472	1411.43
459.845	1429.28
460.218	1463.18
460.591	1440.58
460.964	1473.58
461.337	1457.53
461.71	1481.03
462.083	1513.58
462.456	1511.09
462.829	1541.15
463.201	1540.69
463.574	1531.2
463.947	1573.69
464.32	1581.14
464.692	1601.94
465.065	1580.92
465.438	1594.93
465.81	1624.99
466.183	1635.61
466.555	1647.36
466.928	1648.26
467.3	1679
467.672	1681.93
468.045	1715.83
468.417	1700.24
468.789	1730.07
469.161	1747.47
469.534	1758.09
469.906	1756.28
470.278	1770.29
470.65	1800.12
471.022	1817.52
471.394	1857.75
471.766	1891.42
472.138	1910.63
472.51	1914.47
472.882	1949.27
473.253	1988.82
473.625	1967.8
473.997	1979.78
474.369	2009.16
474.74	2015.03
475.112	2027.46
475.484	2071.53
475.855	2116.95
476.227	2103.84
476.598	2172.77
476.97	2165.76
477.341	2183.16
477.713	2217.96
478.084	2234.69
478.455	2285.53
478.827	2308.81
479.198	2365.98
479.569	2369.15
479.94	2427.68
480.311	2428.58
480.682	2459.99
481.053	2503.61
481.424	2538.41
481.795	2562.81
482.166	2581.12
482.537	2579.99
482.908	2638.52
483.279	2654.79
483.65	2687.56
484.021	2742.02
484.391	2788.8
484.762	2768.01
485.133	2791.51
485.503	2825.63
485.874	2898.17
486.244	2892.07
486.615	2911.05
486.985	2960.09
487.356	2961.67
487.726	3012.52
488.097	3077.6
488.467	3059.75
488.837	3090.26
489.207	3101.56
489.578	3179.75
489.948	3202.12
490.318	3251.84
490.688	3264.72
491.058	3317.37
491.428	3363.24
491.798	3357.37
492.168	3404.37
492.538	3438.05
492.908	3456.35
493.278	3478.27
493.648	3465.62
494.017	3537.7
494.387	3548.32
494.757	3544.94
495.126	3582.45
495.496	3623.13
495.866	3583.58
496.235	3621.32
496.605	3687.3
496.974	3696.34
497.344	3739.73
497.713	3719.17
498.082	3770.69
498.452	3757.13
498.821	3764.14
499.19	3816.57
499.559	3841.2
499.928	3864.93
500.298	3894.53
500.667	3916.68
501.036	3903.34
501.405	3919.84
501.774	3936.34
502.143	3958.94
502.512	4000.52
502.88	3999.84
503.249	3996.9
503.618	4013.4
503.987	4039.16
504.356	4062.44
504.724	4036.22
505.093	4114.64
505.462	4077.8
505.83	4100.17
506.199	4194.18
506.567	4166.16
506.936	4148.08
507.304	4220.4
507.672	4197.12
508.041	4233.28
508.409	4255.2
508.777	4249.55
509.145	4297.91
509.514	4268.53
509.882	4321.64
510.25	4321.86
510.618	4321.64
510.986	4342.43
511.354	4380.17
511.722	4434.63
512.09	4412.71
512.458	4443.44
512.826	4454.06
513.193	4487.28
513.561	4447.96
513.929	4478.92
514.297	4506.72
514.664	4504.23
515.032	4512.14
515.4	4529.32
515.767	4554.85
516.135	4672.81
516.502	4548.3
516.869	4574.96
517.237	4648.63
517.604	4642.53
517.972	4670.56
518.339	4665.36
518.706	4659.26
519.073	4696.09
519.44	4692.48
519.808	4729.99
520.175	4720.72
520.542	4767.5
520.909	4768.41
521.276	4792.81
521.643	4814.05
522.009	4836.2
522.376	4900.38
522.743	4873.04
523.11	4893.83
523.477	4991.68
523.843	4934.28
524.21	4982.86
524.577	5023.31
524.943	5017.21
525.31	5059.7
525.676	5137.44
526.043	5110.77
526.409	5112.35
526.776	5185.57
527.142	5168.17
527.508	5204.55
527.874	5268.96
528.241	5249.97
528.607	5301.73
528.973	5351.44
529.339	5337.66
529.705	5344.66
530.071	5401.16
530.437	5417.43
530.803	5418.11
531.169	5517.99
531.535	5447.26
531.901	5485.9
532.267	5501.95
532.632	5554.83
532.998	5572.23
533.364	5619.46
533.73	5616.97
534.095	5701.71
534.461	5731.32
534.826	5740.81
535.192	5763.18
535.557	5792.56
535.923	5806.8
536.288	5792.56
536.653	5828.26
537.019	5832.11
537.384	5863.52
537.749	5890.64
538.114	5925.44
538.479	5926.12
538.845	5966.34
539.21	5936.51
539.575	6028.03
539.94	5997.3
540.305	6045.89
540.67	6027.58
541.034	6098.99
541.399	6193.9
541.764	6128.6
542.129	6153.91
542.494	6169.72
542.858	6189.39
543.223	6182.15
543.587	6277.74
543.952	6262.6
544.316	6305.54
544.681	6329.95
545.045	6374.24
545.41	6390.06
545.774	6395.03
546.138	6384.41
546.503	6436.84
546.867	6430.51
547.231	6520.45
547.595	6516.83
547.959	6497.85
548.324	6476.84
548.688	6540.11
549.052	6568.58
549.416	6589.15
549.779	6627.57
550.143	6635.25
550.507	6698.52
550.871	6708.92
551.235	6729.71
551.599	6777.39
551.962	6778.75
552.326	6836.6
552.689	6828.69
553.053	6795.92
553.417	6800.89
553.78	6938.74
554.143	6907.33
554.507	6915.92
554.87	6958.4
555.234	7034.11
555.597	7018.29
555.96	6994.79
556.323	7027.56
556.686	7045.18
557.05	7096.71
557.413	7118.85
557.776	7094.45
558.139	7121.56
558.502	7143.03
558.865	7213.09
559.228	7229.36
559.59	7215.57
559.953	7318.62
560.316	7298.73
560.679	7289.7
561.041	7313.88
561.404	7362.24
561.767	7378.28
562.129	7369.24
562.492	7466.41
562.854	7429.8
563.217	7479.07
563.579	7488.56
563.941	7499.86
564.304	7523.36
564.666	7584.83
565.028	7604.72
565.39	7620.31
565.753	7683.13
566.115	7689.91
566.477	7710.02
566.839	7804.94
567.201	7813.98
567.563	7759.29
567.925	7898.94
568.287	7837.48
568.648	7935.33
569.01	7954.99
569.372	8044.03
569.734	8015.78
570.095	7987.98
570.457	8117.7
570.819	8081.31
571.18	8130.58
571.542	8228.65
571.903	8246.73
572.265	8185.27
572.626	8319.95
572.987	8279.73
573.349	8431.81
573.71	8431.81
574.071	8442.66
574.432	8548.87
574.794	8656.89
575.155	8664.12
575.516	8630
575.877	8701.41
576.238	8787.74
576.599	8846.26
576.96	8894.85
577.32	8938.69
577.681	9035.86
578.042	9122.19
578.403	9202.19
578.763	9316.99
579.124	9385.01
579.485	9487.15
579.845	9641.95
580.206	9623.87
580.566	9811.89
580.927	9892.79
581.287	10017.31
581.648	10079.68
582.008	10259.56
582.368	10348.82
582.728	10478.54
583.089	10650.28
583.449	10726.89
583.809	10911.75
584.169	11032.42
584.529	11215.92
584.889	11474.22
585.249	11566.42
585.609	11648.9
585.969	11933.87
586.329	12089.8
586.688	12335.21
587.048	12526.17
587.408	12739.04
587.768	12981.07
588.127	13043.67
588.487	13326.15
588.846	13668.06
589.206	13775.85
589.565	13985.56
589.925	14275.73
590.284	14553.69
590.643	14799.1
591.003	15055.37
591.362	15394.79
591.721	15538.52
592.08	15861.22
592.44	16214.88
592.799	16434.31
593.158	16647.19
593.517	16994.07
593.876	17225.03
594.235	17520.16
594.593	17804.22
594.952	18126.92
595.311	18375.51
595.67	18597.19
596.029	19027.01
596.387	19247.57
596.746	19610.05
597.104	19722.59
597.463	20023.6
597.822	20554.43
598.18	20714.65
598.538	21007.98
598.897	21314.41
599.255	21442.77
599.613	22173.15
599.972	22127.5
600.33	22535.4
600.688	22601.61
601.046	23067.59
601.404	23346.45
601.762	23543.28
602.12	23931.07
602.478	24093.77
602.836	24497.38
603.194	24593.2
603.552	24833.64
603.91	25121.54
604.268	25511.14
604.625	25525.83
604.983	25904.57
605.341	26164
605.698	26413.26
606.056	26844.21
606.413	26883.98
606.771	27221.37
607.128	27512.67
607.485	27576.85
607.843	27853
608.2	28143.38
608.557	28567.1
608.914	28591.96
609.272	28914.89
609.629	29243.02
609.986	29426.51
610.343	29414.76
610.7	29869.21
611.057	30021.53
611.414	30223.1
611.771	30395.3
612.127	30691.34
612.484	30679.81
612.841	31141.72
613.198	31246.58
613.554	31320.7
613.911	31767.02
614.267	31922.95
614.624	31887.24
614.98	32209.04
615.337	32415.59
615.693	32411.75
616.05	32511.63
616.406	32999.53
616.762	33046.53
617.118	33204.72
617.475	33168.34
617.831	33427.77
618.187	33527.42
618.543	33771.26
618.899	34074.08
619.255	34095.77
619.611	34225.26
619.967	34580.5
620.323	34521.52
620.678	34537.79
621.034	34533.27
621.39	34667.28
621.746	34870.44
622.101	35268.17
622.457	35101.39
622.812	35250.77
623.168	35381.84
623.523	35464.77
623.879	35566.92
624.234	35606.01
624.589	35585.9
624.945	35749.06
625.3	35914.48
625.655	35916.74
626.01	36003.29
626.365	36220.23
626.72	36183.17
627.075	36126
627.43	36372.32
627.785	36145.89
628.14	36443.51
628.495	36436.05
628.85	36578.42
629.205	36455.48
629.559	36626.1
629.914	36671.3
630.269	36705.87
630.623	36595.14
630.978	36620.9
631.332	36846.66
631.687	36984.28
632.041	36827.68
632.396	36855.7
632.75	36812.31
633.104	36949.93
633.459	36886.88
633.813	36893.44
634.167	36900.67
634.521	36905.19
634.875	37047.56
635.229	37052.08
635.583	36846.88
635.937	36845.98
636.291	36822.25
636.645	36909.48
636.999	36778.64
637.352	36945.41
637.706	36751.97
638.06	36978.18
638.413	36944.51
638.767	36830.61
639.121	36880.78
639.474	36810.95
639.828	36830.16
640.181	36983.15
640.534	36936.83
640.888	36840.56
641.241	36709.26
641.594	36829.71
641.947	36841.69
642.301	36923.72
642.654	36781.58
643.007	36936.15
643.36	36801.46
643.713	36771.63
644.066	36914.68
644.419	36654.35
644.771	36472.88
645.124	36286.9
645.477	36162.61
645.83	35977.75
646.182	35892.56
646.535	35786.8
646.888	35856.63
647.24	35582.74
647.593	35774.14
647.945	35777.99
648.298	35688.95
648.65	35469.52
649.002	35527.37
649.355	35679.23
649.707	35581.38
650.059	35878.32
650.411	36068.6
650.763	36173.68
651.115	36487.57
651.467	36393.34
651.819	36480.34
652.171	36304.07
652.523	36334.13
652.875	36248.71
653.227	36187.69
653.578	36482.6
653.93	36332.1
654.282	36214.58
654.633	36213.91
654.985	36158.99
655.337	36247.8
655.688	36263.17
656.039	36375.71
656.391	36065.66
656.742	36150.41
657.094	36174.36
657.445	36390.4
657.796	36129.16
658.147	36200.12
658.498	36013.91
658.849	36307.46
659.2	36086.23
659.551	36040.13
659.902	36122.61
660.253	36106.34
660.604	36234.92
660.955	35970.07
661.306	36093.46
661.656	36068.15
662.007	36092.1
662.358	36120.58
662.708	35913.8
663.059	36040.58
663.409	35750.64
663.76	36113.8
664.11	36028.15
664.461	36077.64
664.811	36076.28
665.161	35972.78
665.511	35905.67
665.862	36123.97
666.212	36097.75
666.562	36043.29
666.912	35999.22
667.262	35954.03
667.612	36010.97
667.962	36031.54
668.312	35975.27
668.662	36096.62
669.011	35909.06
669.361	36067.02
669.711	35841.49
670.06	35746.12
670.41	35812.79
670.76	35981.14
671.109	35981.37
671.459	35774.37
671.808	35734.6
672.157	35896.85
672.507	35602.4
672.856	35700.7
673.205	35801.94
673.554	35784.31
673.904	35613.92
674.253	35998.09
674.602	35748.38
674.951	35315.85
675.3	35126.25
675.649	35780.25
675.998	35608.27
676.346	35541.61
676.695	35721.26
677.044	35504.32
677.393	35521.27
677.741	35709.74
678.09	35428.62
678.438	35387.71
678.787	35582.28
679.135	35496.64
679.484	35246.93
679.832	35526.92
680.181	35110.43
680.529	35371.89
680.877	35384.55
681.225	35105.46
681.573	35338
681.922	35170.32
682.27	34972.58
682.618	35063.88
682.966	34968.29
683.314	35085.12
683.661	34989.53
684.009	34792.02
684.357	34699.6
684.705	34738.69
685.053	34675.42
685.4	34690.1
685.748	34544.57
686.095	34549.09
686.443	34444.46
686.79	34258.48
687.138	34404.46
687.485	34393.62
687.832	34263.45
688.18	34342.54
688.527	34049.44
688.874	34049.44
689.221	33984.81
689.568	33952.72
689.915	33774.65
690.262	33783.46
690.609	33623.69
690.956	33646.29
691.303	33628.89
691.65	33444.71
691.997	33349.8
692.344	33248.11
692.69	33259.86
693.037	33245.85
693.383	33019.19
693.73	33150.71
694.077	32917.95
694.423	32956.14
694.769	32897.38
695.116	32741.23
695.462	32752.3
695.808	32622.14
696.155	32658.07
696.501	32433.44
696.847	32379.66
697.193	32273.67
697.539	32213.56
697.885	32028.03
698.231	31942.38
698.577	32041.81
698.923	31915.26
699.269	31755.72
699.614	31630.98
699.96	31582.39
700.306	31599.34
700.651	31545.1
700.997	31386.69
701.342	31332.45
701.688	31307.59
702.033	31131.33
702.379	31224.89
702.724	31138.79
703.069	31184.43
703.415	30699.48
703.76	30746.03
704.105	30899.92
704.45	30888.62
704.795	30496.77
705.14	30447.05
705.485	30322.99
705.83	30382.65
706.175	30393.04
706.52	30192.14
706.865	30253.39
707.209	30148.98
707.554	30116.67
707.899	30090.23
708.243	29961.87
708.588	29880.51
708.932	29549.9
709.277	29701.31
709.621	29652.72
709.966	29508.55
710.31	29631.25
710.654	29226.75
710.998	29293.18
711.342	29302.9
711.687	29232.17
712.031	29116.47
712.375	29144.94
712.719	29121.66
713.063	29118.73
713.407	29126.86
713.75	28934.32
714.094	28941.56
714.438	28685.52
714.782	28765.06
715.125	28594.22
715.469	28609.59
715.812	28431.96
716.156	28283.49
716.499	28417.73
716.843	28482.36
717.186	28238.98
717.53	28463.38
717.873	28381.8
718.216	28278.97
718.559	28067
718.902	27948.59
719.246	28019.77
719.589	27941.13
719.932	27873.11
720.275	27898.87
720.617	27890.96
720.96	27784.3
721.303	27788.59
721.646	27840.34
721.989	27695.49
722.331	27610.06
722.674	27644.87
723.016	27602.16
723.359	27471.99
723.701	27537.75
724.044	27347.02
724.386	27318.55
724.729	27315.38
725.071	27315.16
725.413	27314.48
725.755	27304.54
726.097	27125.33
726.439	27042.85
726.782	27108.38
727.124	27204.2
727.465	27006.01
727.807	26926.69
728.149	26883.08
728.491	26895.51
728.833	26949.52
729.175	26894.83
729.516	26817.77
729.858	26634.5
730.199	26719.69
730.541	26588.17
730.882	26634.72
731.224	26593.82
731.565	26447.16
731.906	26579.58
732.248	26498
732.589	26316.09
732.93	26319.48
733.271	26364.67
733.612	26340.27
733.953	26263.89
734.294	26176.66
734.635	26155.19
734.976	26232.47
735.317	26039.71
735.658	26046.72
735.999	26101.86
736.339	25973.05
736.68	26085.81
737.021	26012.14
737.361	25724.69
737.702	25925.14
738.042	25782.54
738.383	25729.44
738.723	25899.38
739.063	25695.77
739.404	25738.25
739.744	25637.91
740.084	25607.63
740.424	25597.46
740.764	25501.87
741.104	25525.6
741.444	25415.09
741.784	25335.1
742.124	25521.08
742.464	25367.41
742.804	25240.64
743.143	25179.17
743.483	25225.72
743.823	25166.29
744.162	25176.68
744.502	25185.72
744.841	25058.72
745.181	25104.82
745.52	25034.09
745.86	25081.32
746.199	25077.02
746.538	25018.27
746.877	24896.92
747.216	24910.93
747.556	24889.01
747.895	24887.88
748.234	24747.09
748.573	24720.2
748.911	24678.16
749.25	24691.05
749.589	24565.4
749.928	24630.71
750.267	24618.73
750.605	24500.54
750.944	24510.94
751.283	24391.62
751.621	24525.4
751.96	24273.2
752.298	24334.44
752.636	24333.99
752.975	24233.43
753.313	24099.42
753.651	24275.46
753.989	24015.36
754.327	24138.29
754.666	23929.71
755.004	23966.54
755.342	24025.3
755.679	23940.56
756.017	23753.9
756.355	23747.79
756.693	23627.12
757.031	23679.32
757.368	23598.19
757.706	23487.91
758.044	23430.74
758.381	23362.72
758.719	23407.69
759.056	23358.65
759.394	23235.26
759.731	23172.67
760.068	23126.57
760.405	22940.58
760.743	23000.69
761.08	22920.02
761.417	22857.65
761.754	22851.09
762.091	22792.34
762.428	22693.36
762.765	22574.49
763.102	22579.01
763.438	22538.56
763.775	22424.44
764.112	22383.99
764.449	22359.81
764.785	22322.75
765.122	22080.49
765.458	22143.77
765.795	22071
766.131	22077.1
766.467	21917.56
766.804	21813.83
767.14	21769.09
767.476	21672.14
767.812	21696.77
768.148	21728.64
768.485	21587.4
768.821	21367.52
769.157	21352.38
769.492	21411.36
769.828	21351.25
770.164	21122.78
770.5	21110.12
770.836	21181.76
771.171	20994.87
771.507	20952.61
771.842	20738.83
772.178	20710.59
772.513	20669.23
772.849	20545.17
773.184	20478.73
773.519	20567.54
773.855	20370.48
774.19	20346.3
774.525	20157.61
774.86	20255
775.195	20198.96
775.53	20146.31
775.865	19914.9
776.2	19772.08
776.535	19713.78
776.87	19791.97
777.205	19630.84
777.539	19614.12
777.874	19596.26
778.209	19309.49
778.543	19326.22
778.878	19331.86
779.212	19175.71
779.547	19151.3
779.881	19256.16
780.215	19031.76
780.55	18966
780.884	19004.42
781.218	18898.88
781.552	18855.27
781.886	18812.33
782.22	18686.46
782.554	18549.29
782.888	18435.39
783.222	18385.45
783.556	18243.53
783.889	18228.84
784.223	18085.57
784.557	18113.37
784.89	18254.38
785.224	18088.28
785.557	18002.41
785.891	17896.65
786.224	17932.35
786.558	17821.62
786.891	17744.79
787.224	17598.12
787.557	17576.88
787.891	17636.32
788.224	17587.05
788.557	17627.73
788.89	17465.47
789.223	17378.24
789.556	17262.99
789.888	17243.11
790.221	17170.34
790.554	16992.27
790.887	17035.43
791.219	16977.8
791.552	16888.54
791.884	16834.53
792.217	16830.24
792.549	16671.37
792.882	16584.82
793.214	16601.09
793.546	16547.98
793.879	16505.5
794.211	16261.89
794.543	16391.83
794.875	16374.65
795.207	16392.96
795.539	16256.69
795.871	16230.48
796.203	16066.19
796.535	16065.28
796.867	15970.82
797.198	15992.52
797.53	15929.69
797.862	15788.23
798.193	15837.27
798.525	15766.99
798.856	15734.67
799.188	15602.25
799.519	15609.48
799.85	15490.16
800.182	15579.19
800.513	15461.91
800.844	15376.04
801.175	15446.77
801.506	15396.15
801.837	15274.57
802.168	15333.78
802.499	15178.53
802.83	15095.82
803.161	15084.52
803.491	15056.95
803.822	15077.51
804.153	14926.56
804.483	14929.95
804.814	14673.68
805.145	14793.45
805.475	14795.94
805.805	14722.95
806.136	14732.21
806.466	14684.98
806.796	14649.5
807.126	14530.41
807.457	14482.95
807.787	14501.26
808.117	14360.24
808.447	14359.57
808.777	14407.7
809.107	14287.48
809.436	14246.12
809.766	14268.04
810.096	14214.26
810.426	14143.75
810.755	14144.88
811.085	14104.43
811.414	14048.39
811.744	14004.32
812.073	13934.04
812.403	13944.89
812.732	13864.89
813.061	13890.43
813.39	13756.87
813.719	13748.28
814.049	13801.16
814.378	13730.66
814.707	13653.6
815.036	13705.12
815.365	13575.18
815.693	13456.09
816.022	13560.49
816.351	13456.54
816.68	13387.39
817.008	13385.13
817.337	13257.67
817.665	13357.33
817.994	13334.73
818.322	13361.17
818.651	13160.05
818.979	13205.25
819.307	13182.2
819.636	13230.56
819.964	13082.99
820.292	13119.15
820.62	13127.51
820.948	13068.3
821.276	13086.61
821.604	13091.8
821.932	13067.62
822.259	13107.85
822.587	13036.66
822.915	13000.51
823.243	13049.77
823.57	13009.32
823.898	12981.07
824.225	12951.69
824.553	12971.13
824.88	13034.63
825.207	12937
825.535	12946.72
825.862	12939.72
826.189	12970.45
826.516	13033.95
826.843	12978.36
827.17	13020.62
827.497	12993.5
827.824	12925.93
828.151	13004.35
828.478	13003.22
828.805	13048.41
829.131	12932.48
829.458	12925.48
829.785	12967.96
830.111	12921.19
830.438	12979.94
830.764	12954.63
831.09	13036.21
831.417	12875.76
831.743	12984.46
832.069	12859.72
832.395	12951.02
832.722	12885.25
833.048	12882.09
833.374	12937.68
833.7	12774.52
834.026	12791.02
834.351	12827.85
834.677	12919.38
835.003	12945.82
835.329	12774.07
835.654	12817.69
835.98	12691.81
836.306	12746.05
836.631	12688.2
836.956	12778.14
837.282	12651.59
837.607	12581.31
837.932	12601.19
838.258	12662.66
838.583	12553.74
838.908	12577.47
839.233	12545.15
839.558	12499.5
839.883	12518.48
840.208	12377.02
840.533	12382.44
840.858	12504.25
841.182	12457.92
841.507	12375.89
841.832	12347.19
842.156	12340.41
842.481	12347.87
842.805	12266.06
843.13	12204.14
843.454	12248.44
843.778	12270.36
844.103	12153.07
844.427	12173.86
844.751	12161.88
845.075	12042.11
845.399	12037.59
845.723	11977.71
846.047	11961.21
846.371	11896.35
846.695	11908.56
847.019	11874.43
847.343	11777.94
847.666	11695.23
847.99	11665.63
848.313	11636.93
848.637	11620.88
848.96	11550.83
849.284	11480.09
849.607	11367.1
849.931	11438.29
850.254	11382.7
850.577	11261.79
850.9	11205.07
851.223	11245.07
851.546	11144.74
851.869	11038.98
852.192	11139.99
852.515	11039.65
852.838	10999.88
853.161	10955.81
853.483	10871.97
853.806	10840.56
854.129	10932.76
854.451	10827
854.774	10710.4
855.096	10677.4
855.419	10604.64
855.741	10685.31
856.063	10576.16
856.385	10603.28
856.708	10604.86
857.03	10479.44
857.352	10438.09
857.674	10444.64
857.996	10408.48
858.318	10354.47
858.64	10401.7
858.961	10282.61
859.283	10340.46
859.605	10258.2
859.926	10316.51
860.248	10234.25
860.57	10186.12
860.891	10188.6
861.212	10178.43
861.534	10108.6
861.855	10092.56
862.176	10101.15
862.498	10077.19
862.819	10079.68
863.14	9980.47
863.461	10035.61
863.782	10032.9
864.103	9980.02
864.424	9954.03
864.745	10037.19
865.065	9987.25
865.386	9848.95
865.707	9918.55
866.027	9895.28
866.348	9877.42
866.668	9884.88
866.989	9857.54
867.309	9712.46
867.63	9784.54
867.95	9806.47
868.27	9759.23
868.59	9737.54
868.91	9724.89
869.23	9780.7
869.55	9666.13
869.87	9711.33
870.19	9688.95
870.51	9659.58
870.83	9649.86
871.15	9550.65
871.469	9568.51
871.789	9625.91
872.109	9570.09
872.428	9582.97
872.748	9565.34
873.067	9567.15
873.386	9506.81
873.706	9516.53
874.025	9399.92
874.344	9389.75
874.663	9488.73
874.982	9434.5
875.301	9494.84
875.62	9310.66
875.939	9424.33
876.258	9369.19
876.577	9296.2
876.896	9299.81
877.214	9304.33
877.533	9314.5
877.852	9269.08
878.17	9292.58
878.489	9260.72
878.807	9257.33
879.125	9205.35
879.444	9192.7
879.762	9202.19
880.08	9234.05
880.398	9109.76
880.716	9201.74
881.034	9061.63
881.352	9136.2
881.67	9050.1
881.988	9179.82
882.306	9033.38
882.624	9000.16
882.941	8983.66
883.259	8986.6
883.577	8917.9
883.894	8919.48
884.212	8938.47
884.529	8966.04
884.846	8860.95
885.164	8854.63
885.481	8840.16
885.798	8808.98
886.115	8838.81
886.432	8741.86
886.75	8773.72
887.067	8715.65
887.383	8685.36
887.7	8700.51
888.017	8665.48
888.334	8651.92
888.651	8630.23
888.967	8637
889.284	8586.38
889.6	8577.8
889.917	8459.16
890.233	8520.85
890.55	8489.44
890.866	8490.79
891.182	8427.29
891.498	8407.86
891.815	8337.8
892.131	8350.01
892.447	8315.21
892.763	8268.88
893.079	8316.34
893.395	8285.38
893.71	8283.79
894.026	8290.8
894.342	8234.08
894.657	8145.04
894.973	8084.48
895.289	8156.79
895.604	8105.95
895.92	8052.39
896.235	7981.43
896.55	8004.48
896.865	8055.32
897.181	7942.11
897.496	7969
897.811	7890.13
898.126	7941.2
898.441	7837.48
898.756	7837.93
899.071	7834.09
899.386	7799.29
899.7	7675.22
900.015	7693.75
900.33	7655.56
900.644	7591.38
900.959	7637.26
901.273	7581.67
901.588	7619.86
901.902	7540.54
902.216	7505.96
902.531	7526.98
902.845	7399.3
903.159	7414.21
903.473	7359.75
903.787	7434.78
904.101	7345.97
904.415	7298.73
904.729	7320.43
905.042	7279.98
905.356	7185.97
905.67	7177.16
905.984	7193.2
906.297	7189.81
906.611	7129.02
906.924	7093.99
907.237	7090.6
907.551	7060.1
907.864	7042.7
908.177	7002.7
908.491	6985.75
908.804	6931.51
909.117	6903.72
909.43	6923.6
909.743	6805.19
910.056	6869.14
910.368	6837.05
910.681	6787.11
910.994	6738.52
911.307	6768.35
911.619	6685.64
911.932	6715.47
912.244	6611.75
912.557	6631.41
912.869	6530.17
913.181	6610.84
913.494	6529.04
913.806	6531.3
914.118	6481.13
914.43	6468.93
914.742	6412.88
915.054	6424.18
915.366	6404.75
915.678	6384.63
915.99	6364.3
916.302	6318.87
916.613	6241.59
916.925	6273.22
917.236	6239.78
917.548	6219.67
917.859	6221.93
918.171	6171.31
918.482	6200.91
918.794	6120.69
919.105	6079.78
919.416	6034.36
919.727	6049.28
920.038	6009.5
920.349	5963.63
920.66	5942.84
920.971	5971.54
921.282	5952.1
921.593	5898.32
921.903	5838.21
922.214	5824.65
922.525	5869.17
922.835	5811.77
923.146	5746.01
923.456	5743.07
923.767	5754.37
924.077	5691.32
924.387	5668.95
924.697	5653.13
925.008	5674.82
925.318	5595.28
925.628	5595.5
925.938	5526.58
926.248	5463.3
926.558	5509.63
926.867	5485
927.177	5467.37
927.487	5402.29
927.796	5392.57
928.106	5394.15
928.416	5386.47
928.725	5352.8
929.034	5331.1
929.344	5327.71
929.653	5286.13
929.962	5266.92
930.271	5216.76
930.581	5249.75
930.89	5162.07
931.199	5167.04
931.508	5140.83
931.817	5124.33
932.125	5135.4
932.434	5129.3
932.743	5034.16
933.051	5023.77
933.36	4988.06
933.669	4982.19
933.977	5001.17
934.286	4930.44
934.594	4936.76
934.902	4884.11
935.21	4858.35
935.519	4834.84
935.827	4864.9
936.135	4838.91
936.443	4776.77
936.751	4795.52
937.059	4777.67
937.367	4685.92
937.674	4703.32
937.982	4709.65
938.29	4673.94
938.597	4710.78
938.905	4639.14
939.213	4585.59
939.52	4632.59
939.827	4577.68
940.135	4567.51
940.442	4582.2
940.749	4498.58
941.056	4549.43
941.363	4468.98
941.67	4497.68
941.977	4475.76
942.284	4388.53
942.591	4406.61
942.898	4356.21
943.205	4368.19
943.511	4386.27
943.818	4348.76
944.125	4318.7
944.431	4320.51
944.738	4270.11
945.044	4253.39
945.35	4253.84
945.657	4236.44
945.963	4206.84
946.269	4182.21
946.575	4188.99
946.881	4167.74
947.187	4154.41
947.493	4122.55
947.799	4111.7
948.105	4100.17
948.41	4069.22
948.716	4091.36
949.022	4023.57
949.327	4026.05
949.633	4010.23
949.938	4015.88
950.244	3951.25
950.549	3979.95
950.854	3939.73
951.16	3967.3
951.465	3934.08
951.77	3909.45
952.075	3885.04
952.38	3870.12
952.685	3863.57
952.99	3825.38
953.294	3808.43
953.599	3818.6
953.904	3805.95
954.209	3759.17
954.513	3719.39
954.818	3737.02
955.122	3699.51
955.426	3651.15
955.731	3666.29
956.035	3676.68
956.339	3622
956.643	3634.88
956.948	3615.22
957.252	3587.42
957.556	3577.25
957.86	3547.42
958.163	3562.34
958.467	3536.8
958.771	3530.02
959.075	3525.73
959.378	3481.89
959.682	3514.2
959.985	3484.6
960.289	3456.12
960.592	3369.57
960.896	3419.74
961.199	3360.31
961.502	3357.6
961.805	3358.27
962.108	3366.41
962.411	3390.14
962.714	3306.07
963.017	3297.94
963.32	3297.48
963.623	3303.59
963.926	3300.2
964.228	3242.34
964.531	3245.28
964.833	3236.47
965.136	3191.27
965.438	3239.18
965.741	3213.19
966.043	3165.51
966.345	3144.95
966.648	3172.97
966.95	3129.58
967.252	3134.1
967.554	3095.46
967.856	3072.18
968.158	3089.58
968.46	3039.19
968.761	3074.21
969.063	3065.85
969.365	3010.94
969.666	3013.2
969.968	2975.46
970.269	2960.32
970.571	2946.08
970.872	2979.98
971.174	2931.62
971.475	2942.47
971.776	2927.55
972.077	2938.62
972.378	2891.17
972.679	2883.26
972.98	2897.49
973.281	2874.22
973.582	2897.04
973.883	2857.95
974.183	2837.83
974.484	2824.95
974.785	2770.49
975.085	2766.88
975.386	2851.39
975.686	2726.65
975.986	2775.46
976.287	2727.78
976.587	2739.53
976.887	2725.97
977.187	2726.2
977.487	2687.1
977.787	2698.18
978.087	2651.85
978.387	2683.04
978.687	2653.89
978.987	2608.69
979.286	2614.34
979.586	2625.64
979.885	2619.08
980.185	2597.84
980.484	2594.68
980.784	2581.57
981.083	2584.28
981.382	2563.49
981.682	2544.74
981.981	2513.32
982.28	2498.63
982.579	2508.58
982.878	2512.87
983.177	2533.66
983.475	2456.83
983.774	2434.68
984.073	2434
984.372	2443.72
984.67	2434.23
984.969	2410.95
985.267	2424.51
985.566	2413.44
985.864	2404.17
986.162	2392.65
986.461	2354.91
986.759	2355.14
987.057	2379.99
987.355	2346.32
987.653	2322.37
987.951	2294.35
988.249	2299.54
988.547	2306.1
988.844	2289.6
989.142	2291.18
989.44	2248.25
989.737	2241.69
990.035	2251.18
990.332	2233.78
990.63	2238.53
990.927	2213.44
991.224	2178.19
991.521	2196.27
991.819	2165.76
992.116	2180.45
992.413	2138.87
992.71	2160.79
993.006	2146.78
993.303	2164.41
993.6	2110.85
993.897	2120.79
994.193	2126.44
994.49	2118.31
994.787	2086.67
995.083	2088.25
995.379	2058.65
995.676	2050.96
995.972	2023.17
996.268	2042.6
996.565	2049.16
996.861	2042.15
997.157	2006.44
997.453	1967.35
997.749	2021.36
998.044	1997.18
998.34	1967.8
998.636	1973.45
998.932	1961.25
999.227	1952.21
999.523	1935.71
999.818	1945.66
1000.114	1886
1000.409	1902.27
1000.704	1882.15
1001	1889.16
1001.295	1867.92
1001.59	1883.74
1001.885	1860.01
1002.18	1804.87
1002.475	1808.03
1002.77	1809.61
1003.065	1798.99
1003.359	1828.37
1003.654	1813.46
1003.949	1770.52
1004.243	1770.07
1004.538	1789.73
1004.832	1771.87
1005.127	1752.89
1005.421	1737.75
1005.715	1727.81
1006.009	1721.93
1006.304	1760.35
1006.598	1704.31
1006.892	1686.9
1007.186	1701.59
1007.48	1667.92
1007.773	1660.24
1008.067	1701.14
1008.361	1652.33
1008.655	1641.03
1008.948	1628.83
1009.242	1631.09
1009.535	1621.82
1009.829	1596.06
1010.122	1582.73
1010.415	1617.3
1010.708	1604.65
1011.001	1570.98
1011.295	1552.22
1011.588	1544.99
1011.881	1544.99
1012.173	1539.34
1012.466	1537.53
1012.759	1529.17
1013.052	1525.55
1013.344	1499.11
1013.637	1489.85
1013.93	1488.27
1014.222	1471.77
1014.514	1457.76
1014.807	1477.42
1015.099	1453.92
1015.391	1434.71
1015.683	1414.37
1015.976	1440.36
1016.268	1433.58
1016.56	1423.41
1016.851	1432
1017.143	1375.95
1017.435	1381.38
1017.727	1365.56
1018.018	1377.31
1018.31	1390.64
1018.602	1331.89
1018.893	1340.47
1019.185	1341.6
1019.476	1321.94
1019.767	1321.26
1020.058	1296.86
1020.35	1302.51
1020.641	1270.42
1020.932	1318.1
1021.223	1283.3
1021.514	1288.5
1021.804	1272.45
1022.095	1265.45
1022.386	1259.8
1022.677	1226.13
1022.967	1221.83
1023.258	1209.4
1023.548	1228.84
1023.839	1217.31
1024.129	1220.93
1024.419	1180.7
1024.709	1205.79
1025	1185
1025.29	1177.31
1025.58	1169.18
1025.87	1148.61
1026.16	1174.6
1026.449	1145.9
1026.739	1115.17
1027.029	1137.09
1027.319	1128.28
1027.608	1125.34
1027.898	1102.51
1028.187	1093.02
1028.477	1103.19
1028.766	1090.99
1029.055	1087.82
1029.344	1074.72
1029.634	1068.39
1029.923	1058.22
1030.212	1053.7
1030.501	1043.98
1030.79	1017.77
1031.078	1021.39
1031.367	1034.49
1031.656	1017.32
1031.945	1008.5
1032.233	1023.65
1032.522	1024.78
1032.81	1004.21
1033.099	984.55
1033.387	974.61
1033.675	1003.98
1033.963	984.32
1034.251	965.34
1034.54	955.17
1034.828	966.92
1035.116	938.22
1035.403	948.62
1035.691	913.59
1035.979	947.94
1036.267	944.55
1036.554	907.94
1036.842	908.62
1037.129	897.1
1037.417	915.17
1037.704	895.51
1037.992	895.51
1038.279	871.78
1038.566	903.65
1038.853	903.65
1039.14	903.65
