Data from hue_230_FLMS001491_00079.txt Node
Date: Tue Feb 07 16:37:44 GMT 2017
User: dcchb
Spectrometer: FLMS00149
Trigger mode: 0
Integration Time (sec): 2.000000E-2
Scans to average: 10
Electric dark correction enabled: true
Nonlinearity correction enabled: false
Boxcar width: 0
XAxis mode: Wavelengths
Number of Pixels in Spectrum: 2048
>>>>>Begin Spectral Data<<<<<
341.393	-2.27
341.776	-2.27
342.16	-2.27
342.543	-56.06
342.927	-66.45
343.31	-102.84
343.693	-86.79
344.077	-59
344.46	-72.1
344.843	-60.58
345.226	-46.34
345.61	-24.65
345.993	-14.93
346.376	24.84
346.759	11.51
347.142	33.66
347.525	39.53
347.908	63.26
348.291	76.82
348.674	108.46
349.057	109.14
349.44	134.22
349.823	126.76
350.206	169.92
350.588	197.04
350.971	193.2
351.354	190.94
351.737	221.9
352.119	232.97
352.502	239.98
352.884	245.63
353.267	254.22
353.65	270.94
354.032	280.43
354.414	299.86
354.797	310.49
355.179	295.8
355.562	324.5
355.944	321.33
356.326	324.5
356.709	315.01
357.091	313.65
357.473	326.76
357.855	319.75
358.238	339.86
358.62	332.63
359.002	343.71
359.384	320.66
359.766	342.58
360.148	308.45
360.53	326.53
360.912	336.7
361.294	319.07
361.676	320.66
362.057	304.61
362.439	325.63
362.821	320.66
363.203	321.33
363.584	335.57
363.966	313.2
364.348	306.64
364.729	330.37
365.111	327.43
365.493	307.1
365.874	309.36
366.256	305.06
366.637	316.59
367.019	306.64
367.4	322.92
367.781	290.6
368.163	306.64
368.544	307.55
368.925	303.03
369.306	303.03
369.688	305.97
370.069	289.92
370.45	289.02
370.831	309.58
371.212	311.62
371.593	292.63
371.974	300.32
372.355	299.19
372.736	297.38
373.117	311.84
373.498	303.25
373.879	307.1
374.26	307.77
374.641	323.59
375.021	323.37
375.402	318.4
375.783	306.42
376.163	304.61
376.544	311.62
376.925	324.72
377.305	323.59
377.686	318.4
378.066	306.42
378.447	314.78
378.827	315.23
379.208	328.34
379.588	324.27
379.968	327.43
380.349	327.66
380.729	333.08
381.109	328.56
381.489	329.92
381.87	326.53
382.25	319.53
382.63	333.76
383.01	336.02
383.39	324.72
383.77	330.82
384.15	336.02
384.53	331.28
384.91	366.3
385.29	326.3
385.67	319.75
386.049	342.8
386.429	343.48
386.809	342.12
387.189	332.41
387.568	352.07
387.948	341.9
388.328	339.64
388.707	357.49
389.087	351.62
389.466	362.46
389.846	349.13
390.225	366.98
390.605	346.42
390.984	348.9
391.363	346.87
391.743	333.08
392.122	370.15
392.501	343.71
392.881	366.98
393.26	357.49
393.639	362.46
394.018	367.89
394.397	360.43
394.776	355.46
395.155	368.34
395.534	379.86
395.913	406.98
396.292	374.67
396.671	382.12
397.05	386.19
397.429	387.32
397.808	408.11
398.186	388.68
398.565	390.71
398.944	393.65
399.323	405.85
399.701	390.94
400.08	418.96
400.458	406.53
400.837	404.72
401.215	407.43
401.594	401.11
401.972	423.03
402.351	400.2
402.729	419.86
403.107	403.14
403.486	419.18
403.864	413.31
404.242	417.38
404.62	408.79
404.999	418.73
405.377	420.99
405.755	426.87
406.133	446.98
406.511	444.72
406.889	444.27
407.267	467.54
407.645	460.76
408.023	457.83
408.401	444.04
408.779	456.02
409.156	478.62
409.534	475
409.912	482.46
410.29	492.18
410.667	510.48
411.045	481.78
411.422	502.8
411.8	516.81
412.178	529.69
412.555	511.16
412.933	513.19
413.31	551.16
413.687	542.57
414.065	527.2
414.442	568.56
414.819	557.26
415.197	561.78
415.574	576.69
415.951	580.76
416.328	564.72
416.705	575.56
417.082	611.04
417.46	608.11
417.837	630.48
418.214	617.37
418.591	617.14
418.967	619.63
419.344	647.65
419.721	662.57
420.098	651.49
420.475	668.22
420.852	671.61
421.228	687.65
421.605	700.98
421.982	721.77
422.358	719.74
422.735	722.68
423.111	696.01
423.488	717.26
423.864	713.87
424.241	753.19
424.617	760.64
424.994	754.77
425.37	789.8
425.746	781.66
426.123	786.41
426.499	805.16
426.875	801.55
427.251	837.7
427.627	824.6
428.003	840.64
428.379	849.23
428.756	877.25
429.132	868.44
429.507	887.87
429.883	897.59
430.259	907.31
430.635	918.61
431.011	909.57
431.387	957.02
431.763	949.11
432.138	959.51
432.514	986.17
432.89	968.32
433.265	1017.81
433.641	1012.61
434.016	1020.52
434.392	1031.6
434.767	1060.52
435.143	1074.53
435.518	1086.96
435.894	1129.67
436.269	1131.71
436.644	1142.55
437.02	1157.02
437.395	1180.07
437.77	1205.38
438.145	1213.29
438.52	1223.23
438.895	1247.64
439.271	1268.65
439.646	1301.87
440.021	1305.71
440.395	1282.21
440.77	1292.61
441.145	1286.28
441.52	1315.43
441.895	1346.39
442.27	1358.14
442.645	1398.37
443.019	1415.32
443.394	1397.46
443.769	1397.92
444.143	1391.81
444.518	1415.54
444.892	1433.39
445.267	1453.96
445.641	1473.17
446.016	1441.98
446.39	1486.5
446.764	1481.08
447.139	1458.93
447.513	1483.34
447.887	1500.74
448.262	1518.14
448.636	1526.5
449.01	1569.66
449.384	1552.71
449.758	1564.69
450.132	1597.91
450.506	1601.07
450.88	1619.83
451.254	1614.86
451.628	1608.76
452.002	1643.56
452.376	1653.05
452.75	1670.22
453.123	1705.25
453.497	1720.17
453.871	1697.57
454.244	1767.4
454.618	1773.72
454.992	1782.54
455.365	1799.71
455.739	1823.44
456.112	1824.57
456.486	1833.38
456.859	1873.38
457.232	1942.08
457.606	1901.4
457.979	1936.21
458.352	1985.02
458.725	1963.55
459.099	2005.58
459.472	2048.75
459.845	2063.43
460.218	2049.2
460.591	2083.09
460.964	2062.53
461.337	2145.47
461.71	2171.68
462.083	2189.76
462.456	2183.88
462.829	2195.18
463.201	2249.19
463.574	2222.75
463.947	2286.25
464.32	2295.29
464.692	2328.51
465.065	2308.17
465.438	2379.36
465.81	2418
466.183	2406.02
466.555	2485.57
466.928	2478.56
467.3	2478.11
467.672	2518.56
468.045	2574.16
468.417	2562.63
468.789	2587.71
469.161	2635.62
469.534	2700.25
469.906	2698.9
470.278	2739.35
470.65	2775.73
471.022	2814.15
471.394	2855.5
471.766	2876.97
472.138	2912.45
472.51	2952
472.882	3009.85
473.253	2973.47
473.625	3049.17
473.997	3135.04
474.369	3094.59
474.74	3168.04
475.112	3179.79
475.484	3240.58
475.855	3307.24
476.227	3310.18
476.598	3403.96
476.97	3428.37
477.341	3497.07
477.713	3545.2
478.084	3557.18
478.455	3621.13
478.827	3653.45
479.198	3707.68
479.569	3776.38
479.94	3865.87
480.311	3911.75
480.682	3914.91
481.053	4053.44
481.424	4056.15
481.795	4113.55
482.166	4167.33
482.537	4146.54
482.908	4297.95
483.279	4282.13
483.65	4382.47
484.021	4434.9
484.391	4495.69
484.762	4489.36
485.133	4572.75
485.503	4590.6
485.874	4704.49
486.244	4734.1
486.615	4793.53
486.985	4832.4
487.356	4967.31
487.726	4982
488.097	5041.44
488.467	5066.97
488.837	5141.55
489.207	5227.19
489.578	5284.37
489.948	5313.29
490.318	5366.4
490.688	5418.83
491.058	5444.59
491.428	5520.07
491.798	5584.7
492.168	5680.51
492.538	5645.04
492.908	5712.38
493.278	5779.95
493.648	5761.87
494.017	5876.22
494.387	5885.25
494.757	5930
495.126	5971.58
495.496	5983.78
495.866	6053.84
496.235	6101.52
496.605	6162.99
496.974	6148.3
497.344	6225.13
497.713	6228.75
498.082	6214.74
498.452	6334.51
498.821	6313.04
499.19	6336.99
499.559	6391.46
499.928	6429.87
500.298	6474.17
500.667	6493.37
501.036	6515.97
501.405	6538.35
501.774	6530.89
502.143	6591
502.512	6605.69
502.88	6670.32
503.249	6628.74
503.618	6713.26
503.987	6748.06
504.356	6720.71
504.724	6751.45
505.093	6772.92
505.462	6835.51
505.83	6836.87
506.199	6857.88
506.567	6915.74
506.936	6893.36
507.304	6949.86
507.672	6952.8
508.041	6979.69
508.409	7028.05
508.777	7052.91
509.145	7068.27
509.514	7066.69
509.882	7135.84
510.25	7109.18
510.618	7210.87
510.986	7172.68
511.354	7179.91
511.722	7225.78
512.09	7263.3
512.458	7270.3
512.826	7311.43
513.193	7341.04
513.561	7316.63
513.929	7369.51
514.297	7387.14
514.664	7379.23
515.032	7368.15
515.4	7443.86
515.767	7477.98
516.135	7503.74
516.502	7460.81
516.869	7588.49
517.237	7530.41
517.604	7502.61
517.972	7531.09
518.339	7517.08
518.706	7506.46
519.073	7611.09
519.44	7584.87
519.808	7709.84
520.175	7591.65
520.542	7706.68
520.909	7694.7
521.276	7741.93
521.643	7753.91
522.009	7733.57
522.376	7744.64
522.743	7769.73
523.11	7863.51
523.477	7802.72
523.843	7786.45
524.21	7897.41
524.577	7911.64
524.943	7899.44
525.31	7903.28
525.676	7974.47
526.043	8018.53
526.409	7992.54
526.776	7995.71
527.142	8001.81
527.508	8043.84
527.874	8091.3
528.241	8025.76
528.607	8075.71
528.973	8119.09
529.339	8034.12
529.705	8079.77
530.071	8096.27
530.437	8123.84
530.803	8141.92
531.169	8158.87
531.535	8114.57
531.901	8101.24
532.267	8133.33
532.632	8139.66
532.998	8123.84
533.364	8199.77
533.73	8182.14
534.095	8167.91
534.461	8208.58
534.826	8138.75
535.192	8192.09
535.557	8193.67
535.923	8218.07
536.288	8160.45
536.653	8187.34
537.019	8171.07
537.384	8145.76
537.749	8175.82
538.114	8170.62
538.479	8129.49
538.845	8149.38
539.21	8123.61
539.575	8092.43
539.94	8070.06
540.305	8071.19
540.67	8104.63
541.034	8115.25
541.399	8108.47
541.764	8044.75
542.129	8072.54
542.494	8077.51
542.858	8061.92
543.223	8058.98
543.587	8058.76
543.952	7978.99
544.316	7973.79
544.681	7966.1
545.045	8010.4
545.41	7983.05
545.774	8002.04
546.138	7957.06
546.503	8006.78
546.867	7967.69
547.231	8008.14
547.595	7931.3
547.959	7948.25
548.324	7958.87
548.688	7940.34
549.052	7892.89
549.416	7866.9
549.779	7902.6
550.143	7861.93
550.507	7897.63
550.871	7855.82
551.235	7826.45
551.599	7898.08
551.962	7833.9
552.326	7837.07
552.689	7807.01
553.053	7803.17
553.417	7838.42
553.78	7857.41
554.143	7815.15
554.507	7857.41
554.87	7781.25
555.234	7873.9
555.597	7802.04
555.96	7856.73
556.323	7846.33
556.686	7783.51
557.05	7804.53
557.413	7797.75
557.776	7774.7
558.139	7864.19
558.502	7795.71
558.865	7800.01
559.228	7852.43
559.59	7909.61
559.953	7872.32
560.316	7933.34
560.679	7898.99
561.041	7899.67
561.404	7897.86
561.767	7954.13
562.129	7855.6
562.492	7965.2
562.854	7947.8
563.217	7955.26
563.579	7974.47
563.941	7954.8
564.304	7956.16
564.666	8076.84
565.028	7973.11
565.39	8050.85
565.753	8022.37
566.115	8145.53
566.477	8108.7
566.839	8107.57
567.201	8126.1
567.563	8124.29
567.925	8248.58
568.287	8174.91
568.648	8183.27
569.01	8198.64
569.372	8189.6
569.734	8171.75
570.095	8282.71
570.457	8279.32
570.819	8282.48
571.18	8312.54
571.542	8316.6
571.903	8284.97
572.265	8313.67
572.626	8376.71
572.987	8402.02
573.349	8436.37
573.71	8413.78
574.071	8446.77
574.432	8431.63
574.794	8445.87
575.155	8501.68
575.516	8443.61
575.877	8471.85
576.238	8484.06
576.599	8550.72
576.96	8581
577.32	8603.15
577.681	8584.17
578.042	8637.27
578.403	8642.92
578.763	8736.71
579.124	8665.29
579.485	8695.35
579.845	8707.55
580.206	8696.71
580.566	8742.58
580.927	8699.64
581.287	8801.11
581.648	8795.46
582.008	8785.97
582.368	8796.59
582.728	8776.48
583.089	8853.54
583.449	8825.06
583.809	8842.24
584.169	8839.3
584.529	8842.01
584.889	8988.68
585.249	8874.78
585.609	8943.71
585.969	8964.72
586.329	8858.28
586.688	8879.75
587.048	8875.01
587.408	8922.46
587.768	8869.36
588.127	8871.62
588.487	8878.4
588.846	8992.29
589.206	8940.54
589.565	9030.48
589.925	8990.71
590.284	8976.7
590.643	9003.36
591.003	9013.99
591.362	9027.32
591.721	9050.6
592.08	9028.45
592.44	9030.26
592.799	9068.45
593.158	9063.7
593.517	9059.86
593.876	9123.59
594.235	9093.08
594.593	9120.2
594.952	9134.66
595.311	9080.65
595.67	9186.41
596.029	9163.13
596.387	9195.68
596.746	9163.81
597.104	9104.83
597.463	9154.55
597.822	9210.59
598.18	9133.98
598.538	9160.2
598.897	9206.98
599.255	9148.45
599.613	9320.87
599.972	9238.84
600.33	9254.88
600.688	9162.68
601.046	9218.05
601.404	9258.05
601.762	9251.95
602.12	9339.63
602.478	9358.38
602.836	9329.01
603.194	9255.34
603.552	9244.49
603.91	9275.9
604.268	9259.86
604.625	9225.73
604.983	9368.55
605.341	9220.76
605.698	9264.38
606.056	9337.14
606.413	9307.31
606.771	9309.8
607.128	9368.55
607.485	9273.41
607.843	9311.83
608.2	9354.32
608.557	9392.96
608.914	9363.13
609.272	9413.3
609.629	9419.85
609.986	9469.34
610.343	9357.71
610.7	9472.28
611.057	9458.72
611.414	9400.64
611.771	9470.47
612.127	9509.11
612.484	9465.5
612.841	9461.66
613.198	9402.22
613.554	9429.34
613.911	9538.27
614.267	9581.2
614.624	9535.55
614.98	9540.53
615.337	9494.65
615.693	9585.72
616.05	9518.38
616.406	9575.33
616.762	9530.13
617.118	9590.69
617.475	9561.32
617.831	9578.27
618.187	9627.08
618.543	9624.37
618.899	9623.69
619.255	9684.48
619.611	9628.43
619.967	9695.1
620.323	9643.57
620.678	9622.78
621.034	9683.35
621.39	9598.6
621.746	9624.14
622.101	9729.22
622.457	9663.23
622.812	9647.42
623.168	9744.81
623.523	9672.73
623.879	9666.4
624.234	9616.91
624.589	9693.06
624.945	9679.96
625.3	9696.68
625.655	9652.61
626.01	9702.33
626.365	9650.35
626.72	9594.31
627.075	9639.28
627.43	9626.17
627.785	9563.8
628.14	9696.45
628.495	9637.25
628.85	9641.99
629.205	9611.48
629.559	9641.54
629.914	9634.53
630.269	9554.76
630.623	9633.63
630.978	9620.98
631.332	9579.17
631.687	9589.56
632.041	9513.18
632.396	9557.93
632.75	9510.02
633.104	9545.5
633.459	9541.88
633.813	9511.15
634.167	9474.99
634.521	9469.79
634.875	9455.1
635.229	9434.31
635.583	9429.34
635.937	9389.12
636.291	9401.77
636.645	9416.91
636.999	9378.04
637.352	9409.46
637.706	9322.68
638.06	9384.6
638.413	9388.67
638.767	9308.89
639.121	9354.54
639.474	9299.18
639.828	9310.93
640.181	9263.25
640.534	9303.92
640.888	9293.3
641.241	9204.72
641.594	9216.01
641.947	9186.41
642.301	9244.94
642.654	9215.79
643.007	9260.53
643.36	9249.91
643.713	9159.75
644.066	9194.09
644.419	9171.27
644.771	9028.9
645.124	8988.9
645.477	9022.12
645.83	9002.69
646.182	8923.37
646.535	8877.94
646.888	8912.75
647.24	8876.36
647.593	8923.59
647.945	8872.75
648.298	8853.99
648.65	8830.71
649.002	8802.92
649.355	8915.91
649.707	8905.51
650.059	8930.6
650.411	9008.56
650.763	9052.18
651.115	9114.55
651.467	9074.32
651.819	9075.68
652.171	9132.63
652.523	9006.3
652.875	9051.27
653.227	8971.73
653.578	9106.41
653.93	9002.01
654.282	9016.92
654.633	8955.46
654.985	9015.57
655.337	9043.14
655.688	9023.03
656.039	9147.77
656.391	9019.86
656.742	8941.22
657.094	8983.03
657.445	9064.61
657.796	9012.63
658.147	9037.71
658.498	9027.09
658.849	9065.74
659.2	9056.47
659.551	9029.13
659.902	9041.33
660.253	9062.8
660.604	9063.02
660.955	9009.24
661.306	9053.31
661.656	9057.15
662.007	9101.44
662.358	9024.61
662.708	9069.35
663.059	9083.36
663.409	9052.86
663.76	9119.29
664.11	9061.44
664.461	9033.65
664.811	9093.98
665.161	9046.3
665.511	9055.79
665.862	9040.43
666.212	9133.08
666.562	9113.87
666.912	9053.76
667.262	9036.58
667.612	9087.43
667.962	9079.75
668.312	9115.9
668.662	9063.93
669.011	9020.54
669.361	9000.2
669.711	9026.87
670.06	8982.35
670.41	8958.62
670.76	8986.19
671.109	9065.96
671.459	8969.24
671.808	8966.98
672.157	9072.74
672.507	9003.36
672.856	9002.69
673.205	9025.51
673.554	8946.19
673.904	8943.25
674.253	8979.64
674.602	8952.97
674.951	8855.8
675.3	8809.7
675.649	8980.09
675.998	8941.22
676.346	8929.24
676.695	8954.55
677.044	8850.15
677.393	8904.38
677.741	8927.21
678.09	8950.94
678.438	8890.37
678.787	8887.66
679.135	8885.18
679.484	8819.64
679.832	8766.08
680.181	8767.66
680.529	8779.64
680.877	8792.98
681.225	8770.38
681.573	8865.74
681.922	8794.78
682.27	8686.09
682.618	8777.61
682.966	8668.46
683.314	8734.45
683.661	8696.48
684.009	8618.06
684.357	8628.91
684.705	8603.15
685.053	8588.46
685.4	8577.84
685.748	8508.91
686.095	8496.26
686.443	8527.22
686.79	8535.35
687.138	8502.36
687.485	8457.84
687.832	8494.45
688.18	8529.03
688.527	8397.51
688.874	8338.52
689.221	8309.82
689.568	8342.14
689.915	8318.41
690.262	8311.86
690.609	8275.47
690.956	8221.46
691.303	8228.47
691.65	8273.21
691.997	8255.59
692.344	8148.92
692.69	8106.44
693.037	8135.14
693.383	8083.84
693.73	8119.32
694.077	8076.38
694.423	8026.44
694.769	8049.04
695.116	7988.02
695.462	7999.32
695.808	7943.51
696.155	7919.78
696.501	7849.95
696.847	7845.88
697.193	7793.68
697.539	7916.61
697.885	7762.49
698.231	7748.03
698.577	7670.74
698.923	7770.18
699.269	7724.3
699.614	7700.57
699.96	7605.44
700.306	7620.35
700.651	7593.01
700.997	7558.43
701.342	7490.41
701.688	7507.36
702.033	7457.19
702.379	7417.64
702.724	7416.74
703.069	7473.91
703.415	7282.05
703.76	7314.37
704.105	7354.82
704.45	7303.52
704.795	7242.06
705.14	7230.98
705.485	7202.06
705.83	7200.47
706.175	7153.92
706.52	7190.08
706.865	7177.2
707.209	7093.36
707.554	7082.29
707.899	7099.69
708.243	7096.52
708.588	7021.04
708.932	6964.77
709.277	6995.96
709.621	6995.73
709.966	6974.04
710.31	6964.32
710.654	6898.11
710.998	6917.09
711.342	6905.12
711.687	6847.72
712.031	6857.21
712.375	6863.76
712.719	6842.07
713.063	6865.79
713.407	6852.46
713.75	6832.8
714.094	6804.33
714.438	6784.89
714.782	6818.11
715.125	6713.93
715.469	6735.63
715.812	6772.92
716.156	6689.53
716.499	6708.06
716.843	6687.27
717.186	6672.13
717.53	6671.45
717.873	6619.25
718.216	6680.26
718.559	6666.7
718.902	6590.77
719.246	6534.96
719.589	6591.9
719.932	6590.55
720.275	6605.46
720.617	6565.01
720.96	6556.42
721.303	6525.01
721.646	6596.2
721.989	6506.03
722.331	6548.06
722.674	6492.24
723.016	6521.62
723.359	6516.65
723.701	6555.07
724.044	6473.26
724.386	6479.36
724.729	6498.35
725.071	6426.26
725.413	6476.2
725.755	6492.7
726.097	6407.05
726.439	6397.33
726.782	6407.95
727.124	6459.48
727.465	6459.93
727.807	6469.19
728.149	6449.08
728.491	6402.98
728.833	6406.37
729.175	6376.09
729.516	6379.03
729.858	6409.99
730.199	6303.32
730.541	6330.21
730.882	6391.68
731.224	6433.94
731.565	6353.49
731.906	6410.21
732.248	6303.1
732.589	6362.08
732.93	6363.43
733.271	6402.08
733.612	6365.02
733.953	6418.35
734.294	6345.58
734.635	6357.56
734.976	6407.05
735.317	6310.78
735.658	6342.64
735.999	6287.96
736.339	6326.83
736.68	6328.41
737.021	6416.31
737.361	6352.59
737.702	6393.26
738.042	6350.33
738.383	6393.04
738.723	6390.55
739.063	6393.49
739.404	6412.25
739.744	6383.09
740.084	6408.63
740.424	6403.43
740.764	6380.61
741.104	6423.77
741.444	6378.58
741.784	6385.58
742.124	6379.93
742.464	6439.82
742.804	6428.07
743.143	6500.38
743.483	6487.95
743.823	6473.49
744.162	6505.58
744.502	6582.64
744.841	6502.64
745.181	6541.73
745.52	6570.89
745.86	6610.43
746.199	6649.98
746.538	6653.82
746.877	6692.24
747.216	6708.96
747.556	6728.85
747.895	6765.46
748.234	6729.75
748.573	6794.84
748.911	6871.9
749.25	6866.47
749.589	6900.37
749.928	7014.94
750.267	7073.92
750.605	7069.18
750.944	7161.83
751.283	7116.18
751.621	7202.06
751.96	7228.72
752.298	7328.15
752.636	7404.76
752.975	7444.99
753.313	7484.08
753.651	7586.23
753.989	7651.31
754.327	7760.46
754.666	7770.18
755.004	7865.32
755.342	8005.88
755.679	8109.83
756.017	8152.31
756.355	8220.79
756.693	8346.43
757.031	8468.01
757.368	8438.63
757.706	8643.15
758.044	8744.16
758.381	8843.82
758.719	8927.21
759.056	9022.35
759.394	9181.44
759.731	9236.13
760.068	9279.29
760.405	9381.89
760.743	9501.88
761.08	9658.49
761.417	9708.66
761.754	9871.36
762.091	9967.41
762.428	10114.07
762.765	10139.61
763.102	10305.25
763.438	10390.9
763.775	10478.81
764.112	10619.37
764.449	10749.53
764.785	10879.47
765.122	10854.84
765.458	10968.51
765.795	11060.94
766.131	11224.55
766.467	11285.56
766.804	11281.72
767.14	11392.23
767.476	11570.3
767.812	11660.7
768.148	11789.28
768.485	11745.44
768.821	11863.4
769.157	11930.52
769.492	12031.31
769.828	12083.96
770.164	12083.74
770.5	12237.86
770.836	12284.86
771.171	12298.87
771.507	12375.48
771.842	12413.22
772.178	12449.38
772.513	12532.76
772.849	12585.87
773.184	12644.17
773.519	12737.05
773.855	12686.21
774.19	12702.48
774.525	12874.45
774.86	12894.79
775.195	12971.85
775.53	12954.22
775.865	12889.59
776.2	12900.44
776.535	12949.25
776.87	13050.94
777.205	13061.11
777.539	13030.38
777.874	13097.27
778.209	12963.26
778.543	13060.21
778.878	12998.97
779.212	13074.22
779.547	13004.62
779.881	13129.81
780.215	13073.77
780.55	13104.95
780.884	13071.51
781.218	13070.6
781.552	13112.18
781.886	13087.33
782.22	13092.97
782.554	13025.86
782.888	13102.01
783.222	12985.86
783.556	12950.83
783.889	12949.48
784.223	12892.08
784.557	12866.99
784.89	12996.71
785.224	12920.78
785.557	12870.16
785.891	12902.02
786.224	12805.98
786.558	12862.47
786.891	12818.86
787.224	12786.54
787.557	12791.74
787.891	12706.32
788.224	12793.1
788.557	12844.62
788.89	12739.31
789.223	12801.23
789.556	12739.99
789.888	12692.76
790.221	12624.74
790.554	12544.06
790.887	12587.9
791.219	12527.57
791.552	12615.25
791.884	12508.13
792.217	12443.05
792.549	12458.87
792.882	12414.8
793.214	12324.63
793.546	12440.56
793.879	12315.82
794.211	12282.83
794.543	12342.94
794.875	12367.12
795.207	12296.39
795.539	12252.77
795.871	12308.14
796.203	12263.84
796.535	12173.9
796.867	12124.41
797.198	12110.63
797.53	12095.04
797.862	12047.13
798.193	12002.61
798.525	11938.43
798.856	12011.87
799.188	11898.43
799.519	11888.26
799.85	11848.04
800.182	11793.12
800.513	11840.8
800.844	11749.28
801.175	11761.26
801.506	11758.77
801.837	11698.89
802.168	11686.46
802.499	11677.64
802.83	11654.82
803.161	11578.89
803.491	11547.93
803.822	11616.86
804.153	11599.68
804.483	11489.18
804.814	11457.31
805.145	11425.45
805.475	11395.17
805.805	11424.32
806.136	11416.41
806.466	11459.57
806.796	11369.86
807.126	11238.56
807.457	11275.4
807.787	11285.34
808.117	11152.24
808.447	11206.47
808.777	11173.93
809.107	11138.68
809.436	11099.81
809.766	11110.65
810.096	11026.59
810.426	10994.73
810.755	11011.9
811.085	10993.37
811.414	11002.86
811.744	10890.32
812.073	10971.22
812.403	10909.98
812.732	10836.54
813.061	10848.29
813.39	10766.48
813.719	10766.26
814.049	10800.61
814.378	10826.37
814.707	10720.61
815.036	10720.83
815.365	10699.14
815.693	10617.11
816.022	10618.46
816.351	10640.84
816.68	10575.75
817.008	10556.77
817.337	10507.96
817.665	10505.02
817.994	10592.25
818.322	10432.71
818.651	10440.62
818.979	10424.34
819.307	10422.54
819.636	10443.55
819.964	10414.85
820.292	10472.7
820.62	10441.29
820.948	10397.9
821.276	10392.48
821.604	10358.58
821.932	10307.29
822.259	10420.5
822.587	10361.3
822.915	10375.98
823.243	10323.78
823.57	10325.36
823.898	10407.85
824.225	10339.15
824.553	10334.4
824.88	10402.42
825.207	10410.11
825.535	10324.23
825.862	10381.18
826.189	10356.32
826.516	10381.18
826.843	10353.16
827.17	10403.55
827.497	10443.78
827.824	10332.14
828.151	10444.91
828.478	10350
828.805	10464.57
829.131	10386.15
829.458	10386.83
829.785	10279.72
830.111	10361.52
830.438	10397.68
830.764	10330.11
831.09	10387.51
831.417	10293.73
831.743	10367.85
832.069	10350.67
832.395	10343.44
832.722	10344.57
833.048	10297.79
833.374	10316.32
833.7	10279.72
834.026	10211.47
834.351	10282.2
834.677	10270.9
835.003	10358.13
835.329	10271.81
835.654	10281.75
835.98	10211.92
836.306	10268.87
836.631	10156.55
836.956	10146.84
837.282	10270.45
837.607	10156.78
837.932	10208.08
838.258	10221.64
838.583	10203.79
838.908	10046.73
839.233	10110
839.558	10119.27
839.883	10101.42
840.208	10024.81
840.533	10014.86
840.858	10027.29
841.182	10010.8
841.507	10048.54
841.832	9924.7
842.156	9973.06
842.481	9896.9
842.805	9914.98
843.13	9898.48
843.454	9903
843.778	9850.8
844.103	9806.96
844.427	9757.02
844.751	9851.93
845.075	9789.56
845.399	9839.95
845.723	9700.3
846.047	9701.2
846.371	9601.32
846.695	9639.28
847.019	9586.4
847.343	9578.04
847.666	9492.39
847.99	9510.92
848.313	9434.99
848.637	9394.54
848.96	9386.63
849.284	9381.89
849.607	9293.3
849.931	9254.43
850.254	9213.98
850.577	9108.9
850.9	9101.89
851.223	9105.74
851.546	9031.39
851.869	8947.55
852.192	9029.35
852.515	8926.76
852.838	8876.14
853.161	8918.17
853.483	8872.75
853.806	8852.86
854.129	8844.73
854.451	8750.04
854.774	8708.68
855.096	8686.54
855.419	8706.2
855.741	8681.79
856.063	8600.66
856.385	8601.79
856.708	8583.94
857.03	8581.91
857.352	8511.4
857.674	8490.38
857.996	8484.73
858.318	8462.14
858.64	8371.74
858.961	8391.63
859.283	8447
859.605	8356.38
859.926	8431.63
860.248	8339.88
860.57	8308.92
860.891	8291.75
861.212	8314.8
861.534	8236.61
861.855	8239.54
862.176	8202.93
862.498	8304.17
862.819	8240.22
863.14	8228.7
863.461	8133.78
863.782	8215.82
864.103	8115.93
864.424	8106.67
864.745	8117.96
865.065	8071.41
865.386	8056.05
865.707	8091.07
866.027	8108.93
866.348	8019.21
866.668	8086.78
866.989	7999.32
867.309	8029.38
867.63	8025.31
867.95	8007.01
868.27	7965.88
868.59	7924.07
868.91	7955.48
869.23	7877.29
869.55	7871.87
869.87	7950.51
870.19	7867.12
870.51	7885.2
870.83	7898.76
871.15	7898.99
871.469	7839.55
871.789	7824.41
872.109	7875.49
872.428	7837.29
872.748	7804.07
873.067	7828.25
873.386	7721.36
873.706	7813.11
874.025	7724.53
874.344	7707.81
874.663	7725.66
874.982	7701.7
875.301	7688.82
875.62	7690.86
875.939	7675.94
876.258	7680.46
876.577	7642.27
876.896	7596.4
877.214	7597.98
877.533	7598.88
877.852	7546
878.17	7526.12
878.489	7590.07
878.807	7568.6
879.125	7525.44
879.444	7562.05
879.762	7571.54
880.08	7533.35
880.398	7447.93
880.716	7432.78
881.034	7358.89
881.352	7448.15
881.67	7429.4
881.988	7475.95
882.306	7411.99
882.624	7333.35
882.941	7351.43
883.259	7377.87
883.577	7327.7
883.894	7304.43
884.212	7318.21
884.529	7260.59
884.846	7235.5
885.164	7252
885.481	7219.23
885.798	7164.32
886.115	7199.34
886.432	7158.44
886.75	7104.88
887.067	7186.24
887.383	7140.14
887.7	7142.17
888.017	7071.66
888.334	7114.83
888.651	7070.53
888.967	7065.79
889.284	7047.26
889.6	7033.47
889.917	6973.36
890.233	6996.86
890.55	6956.19
890.866	6924.78
891.182	6911.22
891.498	6873.48
891.815	6845
892.131	6851.33
892.447	6829.64
892.763	6809.3
893.079	6835.51
893.395	6829.18
893.71	6851.78
894.026	6749.41
894.342	6717.1
894.657	6668.29
894.973	6658.34
895.289	6645.46
895.604	6639.81
895.92	6559.59
896.235	6535.86
896.55	6539.25
896.865	6555.29
897.181	6543.09
897.496	6522.07
897.811	6485.24
898.126	6471.68
898.441	6442.98
898.756	6431.91
899.071	6411.12
899.386	6367.5
899.7	6352.14
900.015	6338.58
900.33	6231.46
900.644	6292.93
900.959	6341.06
901.273	6238.24
901.588	6191.69
901.902	6195.98
902.216	6178.81
902.531	6211.57
902.845	6115.98
903.159	6113.27
903.473	6078.02
903.787	6030.56
904.101	6018.13
904.415	6046.15
904.729	5988.3
905.042	5947.63
905.356	5991.01
905.67	5949.43
905.984	5913.28
906.297	5928.19
906.611	5857.01
906.924	5849.32
907.237	5798.93
907.551	5812.94
907.864	5764.35
908.177	5788.99
908.491	5773.17
908.804	5767.29
909.117	5684.81
909.43	5645.71
909.743	5610.46
910.056	5624.47
910.368	5607.97
910.681	5607.75
910.994	5577.69
911.307	5559.16
911.619	5515.32
911.932	5516.45
912.244	5498.37
912.557	5448.66
912.869	5415.66
913.181	5434.65
913.494	5399.62
913.806	5353.52
914.118	5351.48
914.43	5322.78
914.742	5258.83
915.054	5254.76
915.366	5255.21
915.678	5250.47
915.99	5232.39
916.302	5154.88
916.613	5217.25
916.925	5168.21
917.236	5138.38
917.548	5102
917.859	5104.94
918.171	5116.01
918.482	5032.62
918.794	5014.54
919.105	4985.17
919.416	4996.46
919.727	5007.09
920.038	4926.18
920.349	4946.3
920.66	4940.87
920.971	4922.57
921.282	4875.11
921.593	4802.12
921.903	4842.12
922.214	4812.06
922.525	4788.56
922.835	4807.54
923.146	4757.15
923.456	4770.48
923.767	4742.69
924.077	4708.11
924.387	4689.81
924.697	4677.6
925.008	4676.93
925.318	4639.41
925.628	4633.31
925.938	4564.84
926.248	4585.85
926.558	4573.42
926.867	4539.53
927.177	4533.88
927.487	4481.22
927.796	4434.9
928.106	4505.18
928.416	4432.64
928.725	4464.73
929.034	4393.09
929.344	4386.54
929.653	4429.25
929.962	4363.71
930.271	4301.57
930.581	4349.25
930.89	4293.66
931.199	4281.46
931.508	4285.75
931.817	4259.53
932.125	4244.85
932.434	4274
932.743	4226.99
933.051	4215.02
933.36	4181.12
933.669	4164.62
933.977	4103.61
934.286	4093.21
934.594	4135.92
934.902	4115.13
935.21	4062.25
935.519	4068.81
935.827	3989.71
936.135	3990.16
936.443	3982.25
936.751	4017.28
937.059	4027.22
937.367	3951.29
937.674	3977.51
937.982	3950.16
938.29	3951.07
938.597	3927.57
938.905	3875.36
939.213	3826.1
939.52	3857.29
939.827	3810.73
940.135	3816.38
940.442	3811.64
940.749	3778.42
941.056	3761.24
941.363	3788.81
941.67	3724.18
941.977	3733.67
942.284	3700.68
942.591	3704.75
942.898	3714.69
943.205	3662.71
943.511	3671.98
943.818	3667.91
944.125	3613
944.431	3609.16
944.738	3558.76
945.044	3559.67
945.35	3565.99
945.657	3537.07
945.963	3526.22
946.269	3518.99
946.575	3521.02
946.881	3481.93
947.187	3489.84
947.493	3479.22
947.799	3468.6
948.105	3396.96
948.41	3413.91
948.716	3405.77
949.022	3406.68
949.327	3395.38
949.633	3351.54
949.938	3337.53
950.244	3359.9
950.549	3302.5
950.854	3291.88
951.16	3244.87
951.465	3295.72
951.77	3284.65
952.075	3252.78
952.38	3233.57
952.685	3228.15
952.99	3181.6
953.294	3168.72
953.599	3205.1
953.904	3184.53
954.209	3131.65
954.513	3119
954.818	3100.47
955.122	3132.11
955.426	3115.16
955.731	3086.91
956.035	3097.53
956.339	3084.88
956.643	3064.09
956.948	3040.81
957.252	3015.05
957.556	3019.79
957.86	2994.71
958.163	3020.7
958.467	2956.07
958.771	2981.15
959.075	2960.36
959.378	2949.29
959.682	2925.56
959.985	2949.96
960.289	2902.28
960.592	2864.09
960.896	2901.38
961.199	2869.97
961.502	2880.59
961.805	2863.87
962.108	2841.95
962.411	2815.96
962.714	2782.29
963.017	2783.42
963.32	2825.22
963.623	2794.94
963.926	2736.19
964.228	2751.33
964.531	2754.04
964.833	2752.91
965.136	2724.66
965.438	2695.28
965.741	2643.08
966.043	2683.53
966.345	2691.21
966.648	2674.04
966.95	2621.61
967.252	2604.44
967.554	2642.18
967.856	2612.8
968.158	2599.69
968.46	2597.66
968.761	2548.85
969.063	2575.96
969.365	2587.49
969.666	2590.2
969.968	2574.38
970.269	2534.38
970.571	2558.56
970.872	2525.57
971.174	2532.8
971.475	2468.85
971.776	2485.57
972.077	2472.92
972.378	2469.3
972.679	2447.15
972.98	2467.04
973.281	2410.32
973.582	2446.7
973.883	2432.24
974.183	2441.5
974.484	2415.74
974.785	2378.23
975.085	2364.22
975.386	2387.27
975.686	2333.48
975.986	2385.01
976.287	2369.64
976.587	2279.25
976.887	2320.83
977.187	2307.04
977.487	2322.86
977.787	2295.07
978.087	2312.69
978.387	2271.56
978.687	2255.29
978.987	2218.46
979.286	2241.06
979.586	2239.25
979.885	2191.57
980.185	2211.68
980.484	2177.33
980.784	2194.5
981.083	2156.77
981.382	2182.98
981.682	2178.69
981.981	2151.57
982.28	2115.86
982.579	2100.95
982.878	2149.31
983.177	2142.98
983.475	2129.87
983.774	2080.38
984.073	2063.66
984.372	2089.2
984.67	2071.34
984.969	2077.67
985.267	2051.23
985.566	2071.34
985.864	2058.69
986.162	2033.38
986.461	2002.65
986.759	1995.64
987.057	2011.01
987.355	1951.12
987.653	2032.93
987.951	1991.8
988.249	1940.05
988.547	1940.27
988.844	1963.32
989.142	1930.56
989.44	1900.27
989.737	1929.65
990.035	1908.86
990.332	1919.48
990.63	1881.07
990.927	1891.69
991.224	1880.39
991.521	1875.87
991.819	1865.47
992.116	1842.88
992.413	1856.43
992.71	1828.64
993.006	1846.04
993.303	1811.01
993.6	1831.35
993.897	1818.02
994.193	1797.45
994.49	1787.51
994.787	1758.13
995.083	1784.57
995.379	1767.4
995.676	1751.13
995.972	1751.8
996.268	1760.39
996.565	1745.25
996.861	1731.92
997.157	1737.79
997.453	1708.64
997.749	1720.62
998.044	1705.25
998.34	1693.73
998.636	1686.5
998.932	1674.74
999.227	1682.65
999.523	1662.54
999.818	1647.85
1000.114	1664.35
1000.409	1629.55
1000.704	1625.93
1001	1625.93
1001.295	1606.27
1001.59	1586.38
1001.885	1610.34
1002.18	1589.1
1002.475	1578.25
1002.77	1574.63
1003.065	1542.32
1003.359	1550.45
1003.654	1545.93
1003.949	1532.37
1004.243	1535.09
1004.538	1546.84
1004.832	1517.01
1005.127	1524.47
1005.421	1506.39
1005.715	1497.35
1006.009	1506.61
1006.304	1478.37
1006.598	1456.22
1006.892	1470
1007.186	1420.97
1007.48	1432.94
1007.773	1444.02
1008.067	1424.13
1008.361	1401.53
1008.655	1394.53
1008.948	1423.45
1009.242	1398.59
1009.535	1369.89
1009.829	1425.94
1010.122	1394.75
1010.415	1341.65
1010.708	1363.79
1011.001	1339.84
1011.295	1328.99
1011.588	1346.84
1011.881	1326.96
1012.173	1334.19
1012.466	1326.5
1012.759	1313.17
1013.052	1281.99
1013.344	1275.66
1013.637	1292.83
1013.93	1255.55
1014.222	1286.73
1014.514	1286.51
1014.807	1284.92
1015.099	1266.85
1015.391	1258.71
1015.683	1238.37
1015.976	1227.07
1016.268	1232.04
1016.56	1223.46
1016.851	1187.75
1017.143	1217.58
1017.435	1185.49
1017.727	1220.97
1018.018	1186.85
1018.31	1176
1018.602	1189.56
1018.893	1177.13
1019.185	1175.1
1019.476	1147.07
1019.767	1139.39
1020.058	1155.44
1020.35	1128.54
1020.641	1118.6
1020.932	1101.2
1021.223	1101.2
1021.514	1098.04
1021.804	1087.87
1022.095	1085.38
1022.386	1091.71
1022.677	1089.45
1022.967	1066.85
1023.258	1056
1023.548	1065.95
1023.839	1060.07
1024.129	1045.83
1024.419	1015.33
1024.709	1024.82
1025	1035.44
1025.29	1017.81
1025.58	1021.2
1025.87	1023.46
1026.16	1002.9
1026.449	1014.65
1026.739	1009
1027.029	1009.9
1027.319	959.28
1027.608	984.82
1027.898	954.99
1028.187	961.77
1028.477	973.29
1028.766	953.86
1029.055	954.99
1029.344	943.01
1029.634	943.92
1029.923	943.01
1030.212	923.58
1030.501	915.22
1030.79	909.11
1031.078	893.75
1031.367	923.13
1031.656	888.55
1031.945	888.32
1032.233	912.96
1032.522	884.26
1032.81	862.79
1033.099	866.18
1033.387	875.44
1033.675	889.45
1033.963	865.95
1034.251	867.31
1034.54	849.23
1034.828	875.44
1035.116	839.74
1035.403	840.42
1035.691	827.31
1035.979	814.65
1036.267	808.55
1036.554	813.75
1036.842	824.37
1037.129	788.89
1037.417	806.52
1037.704	812.17
1037.992	781.43
1038.279	773.52
1038.566	758.38
1038.853	758.38
1039.14	758.38
