Data from hue_00_FLMS001491_40.txt Node
Date: Mon Feb 06 15:29:38 GMT 2017
User: dcchb
Spectrometer: FLMS00149
Trigger mode: 0
Integration Time (sec): 2.000000E-2
Scans to average: 10
Electric dark correction enabled: true
Nonlinearity correction enabled: false
Boxcar width: 0
XAxis mode: Wavelengths
Number of Pixels in Spectrum: 2048
>>>>>Begin Spectral Data<<<<<
341.393	-18.63
341.776	-18.63
342.16	-18.63
342.543	-58.4
342.927	-67.22
343.31	-79.19
343.693	-73.54
344.077	-57.95
344.46	-47.1
344.843	-28.12
345.226	-50.94
345.61	-37.39
345.993	-30.83
346.376	-8.69
346.759	4.42
347.142	34.02
347.525	36.06
347.908	43.52
348.291	78.32
348.674	106.34
349.057	111.08
349.44	122.84
349.823	132.1
350.206	159.44
350.588	199.44
350.971	191.99
351.354	223.85
351.737	222.49
352.119	224.75
352.502	266.33
352.884	266.11
353.267	285.32
353.65	304.75
354.032	302.04
354.414	309.5
354.797	310.18
355.179	308.82
355.562	330.51
355.944	307.24
356.326	320.12
356.709	335.71
357.091	335.94
357.473	328.71
357.855	338.65
358.238	323.96
358.62	335.71
359.002	333.68
359.384	326.9
359.766	330.06
360.148	326.67
360.53	333.68
360.912	350.17
361.294	324.64
361.676	304.53
362.057	320.34
362.439	331.87
362.821	338.2
363.203	325.77
363.584	326.22
363.966	316.95
364.348	332.32
364.729	324.41
365.111	327.8
365.493	309.72
365.874	326.22
366.256	327.8
366.637	300.23
367.019	314.24
367.4	315.37
367.781	322.83
368.163	336.39
368.544	313.79
368.925	320.34
369.306	316.95
369.688	302.94
370.069	293.45
370.45	300.01
370.831	303.62
371.212	312.89
371.593	309.5
371.974	314.7
372.355	314.47
372.736	319.67
373.117	321.25
373.498	325.77
373.879	341.14
374.26	294.58
374.641	307.24
375.021	304.07
375.402	327.8
375.783	311.53
376.163	345.2
376.544	332.55
376.925	333.23
377.305	320.12
377.686	314.02
378.066	319.44
378.447	325.99
378.827	304.3
379.208	320.12
379.588	329.38
379.968	322.6
380.349	303.85
380.729	316.95
381.109	311.98
381.489	316.05
381.87	319.44
382.25	343.62
382.63	347.46
383.01	334.81
383.39	320.8
383.77	329.61
384.15	306.11
384.53	333.45
384.91	349.95
385.29	336.62
385.67	355.37
386.049	342.49
386.429	328.25
386.809	354.69
387.189	340.91
387.568	328.25
387.948	346.33
388.328	323.28
388.707	364.64
389.087	347.69
389.466	359.89
389.846	370.51
390.225	338.65
390.605	359.21
390.984	386.11
391.363	364.19
391.743	366.22
392.122	346.78
392.501	357.63
392.881	373.22
393.26	344.75
393.639	369.38
394.018	365.32
394.397	360.8
394.776	384.75
395.155	370.74
395.534	370.74
395.913	357.86
396.292	377.97
396.671	389.04
397.05	356.73
397.429	379.1
397.808	371.87
398.186	384.52
398.565	369.61
398.944	377.52
399.323	373.9
399.701	381.59
400.08	387.46
400.458	367.8
400.837	399.66
401.215	379.33
401.594	391.08
401.972	377.29
402.351	381.59
402.729	399.66
403.107	404.86
403.486	397.63
403.864	391.3
404.242	387.01
404.62	404.41
404.999	395.6
405.377	409.16
405.755	410.06
406.133	397.63
406.511	407.8
406.889	433.79
407.267	418.65
407.645	422.71
408.023	443.05
408.401	431.98
408.779	415.03
409.156	439.21
409.534	430.62
409.912	451.19
410.29	437.18
410.667	425.65
411.045	454.58
411.422	427.91
411.8	434.92
412.178	442.6
412.555	451.64
412.933	457.29
413.31	443.05
413.687	450.96
414.065	466.1
414.442	463.84
414.819	472.21
415.197	480.11
415.574	492.32
415.951	482.15
416.328	491.87
416.705	495.03
417.082	493.45
417.46	479.21
417.837	483.5
418.214	489.38
418.591	479.66
418.967	501.58
419.344	497.74
419.721	506.78
420.098	494.13
420.475	490.51
420.852	521.24
421.228	514.46
421.605	508.36
421.982	546.1
422.358	536.61
422.735	521.92
423.111	534.12
423.488	544.97
423.864	549.49
424.241	534.58
424.617	541.81
424.994	549.94
425.37	560.79
425.746	541.36
426.123	559.66
426.499	546.33
426.875	561.69
427.251	570.28
427.627	593.56
428.003	590.17
428.379	584.97
428.756	574.35
429.132	581.13
429.507	591.98
429.883	579.55
430.259	600.11
430.635	598.76
431.011	590.62
431.387	616.61
431.763	636.04
432.138	644.4
432.514	645.76
432.89	638.98
433.265	659.32
433.641	626.78
434.016	660.67
434.392	649.15
434.767	666.1
435.143	672.43
435.518	664.52
435.894	666.32
436.269	693.67
436.644	683.5
437.02	683.5
437.395	677.4
437.77	707.91
438.145	707.45
438.52	723.95
438.895	719.88
439.271	713.78
439.646	716.49
440.021	737.73
440.395	752.88
440.77	742.25
441.145	715.59
441.52	738.86
441.895	744.29
442.27	764.17
442.645	742.71
443.019	776.83
443.394	751.07
443.769	753.33
444.143	777.06
444.518	771.41
444.892	773.21
445.267	771.41
445.641	807.11
446.016	765.08
446.39	779.99
446.764	787.23
447.139	772.54
447.513	800.78
447.887	813.67
448.262	792.87
448.636	791.52
449.01	819.77
449.384	822.93
449.758	815.25
450.132	824.51
450.506	824.51
450.88	819.09
451.254	833.78
451.628	865.87
452.002	843.04
452.376	870.16
452.75	853.21
453.123	864.06
453.497	865.19
453.871	888.92
454.244	889.37
454.618	895.24
454.992	894.34
455.365	919.42
455.739	904.28
456.112	912.19
456.486	926.88
456.859	923.04
457.232	962.36
457.606	951.97
457.979	952.42
458.352	961.01
458.725	961.46
459.099	986.77
459.472	998.97
459.845	1006.65
460.218	1034.9
460.591	1016.15
460.964	1028.12
461.337	1032.42
461.71	1075.13
462.083	1050.27
462.456	1079.19
462.829	1071.74
463.201	1059.76
463.574	1091.17
463.947	1098.63
464.32	1114.22
464.692	1132.75
465.065	1165.29
465.438	1145.63
465.81	1195.12
466.183	1179.53
466.555	1207.1
466.928	1207.1
467.3	1205.29
467.672	1230.6
468.045	1245.52
468.417	1250.26
468.789	1270.38
469.161	1271.51
469.534	1298.17
469.906	1317.61
470.278	1333.2
470.65	1364.61
471.022	1388.57
471.394	1385.18
471.766	1403.48
472.138	1410.26
472.51	1439.19
472.882	1473.76
473.253	1462.24
473.625	1470.37
473.997	1542.91
474.369	1557.15
474.74	1567.77
475.112	1558.96
475.484	1603.47
475.855	1649.58
476.227	1640.54
476.598	1690.48
476.97	1692.06
477.341	1761.89
477.713	1740.87
478.084	1790.81
478.455	1826.52
478.827	1833.98
479.198	1913.07
479.569	1937.48
479.94	1981.77
480.311	1965.05
480.682	2002.33
481.053	2047.98
481.424	2110.13
481.795	2147.64
482.166	2162.56
482.537	2177.02
482.908	2238.26
483.279	2275.77
483.65	2283.91
484.021	2338.37
484.391	2422.66
484.762	2410.01
485.133	2464.02
485.503	2473.28
485.874	2530.23
486.244	2565.03
486.615	2659.72
486.985	2670.57
487.356	2685.25
487.726	2680.28
488.097	2776.78
488.467	2778.59
488.837	2887.73
489.207	2906.72
489.578	2944
489.948	2976.77
490.318	2997.56
490.688	2993.72
491.058	3079.37
491.428	3129.08
491.798	3181.96
492.168	3223.09
492.538	3247.27
492.908	3269.42
493.278	3342.19
493.648	3313.71
494.017	3398.68
494.387	3396.2
494.757	3427.83
495.126	3480.71
495.496	3454.27
495.866	3525.91
496.235	3560.94
496.605	3608.17
496.974	3635.51
497.344	3672.35
497.713	3696.08
498.082	3692.91
498.452	3706.02
498.821	3753.47
499.19	3762.97
499.559	3858.33
499.928	3839.12
500.298	3853.81
500.667	3900.59
501.036	3894.26
501.405	3941.27
501.774	3958.22
502.143	3977.65
502.512	3952.11
502.88	4008.16
503.249	3981.49
503.618	4079.57
503.987	4052.22
504.356	4089.51
504.724	4116.63
505.093	4152.33
505.462	4168.61
505.83	4165.44
506.199	4155.27
506.567	4228.72
506.936	4244.76
507.304	4240.24
507.672	4307.13
508.041	4271.65
508.409	4304.87
508.777	4338.09
509.145	4381.71
509.514	4401.82
509.882	4409.05
510.25	4400.01
510.618	4446.34
510.986	4475.49
511.354	4478.2
511.722	4544.41
512.09	4588.03
512.458	4548.03
512.826	4566.11
513.193	4569.95
513.561	4570.18
513.929	4590.97
514.297	4651.3
514.664	4628.03
515.032	4670.74
515.4	4684.07
515.767	4685.2
516.135	4746.67
516.502	4715.26
516.869	4739.44
517.237	4736.73
517.604	4751.19
517.972	4831.86
518.339	4820.79
518.706	4786.44
519.073	4807.91
519.44	4853.56
519.808	4852.2
520.175	4882.03
520.542	4894.46
520.909	4944.86
521.276	4935.36
521.643	4962.93
522.009	5014.46
522.376	4975.59
522.743	5004.97
523.11	5056.27
523.477	5096.49
523.843	5095.59
524.21	5120.67
524.577	5178.07
524.943	5169.03
525.31	5246.77
525.676	5280.89
526.043	5287.67
526.409	5315.47
526.776	5332.19
527.142	5334.45
527.508	5397.5
527.874	5388.46
528.241	5468.23
528.607	5453.09
528.973	5460.55
529.339	5508.46
529.705	5543.48
530.071	5545.97
530.437	5548.68
530.803	5597.95
531.169	5659.64
531.535	5609.02
531.901	5634.33
532.267	5690.37
532.632	5704.38
532.998	5769.47
533.364	5736.25
533.73	5769.01
534.095	5810.6
534.461	5882.23
534.826	5830.03
535.192	5880.65
535.557	5908.22
535.923	5920.88
536.288	5955.9
536.653	6033.64
537.019	6022.57
537.384	6001.1
537.749	6040.42
538.114	6104.6
538.479	6123.13
538.845	6095.79
539.21	6072.74
539.575	6118.84
539.94	6193.86
540.305	6220.3
540.67	6221.21
541.034	6253.3
541.399	6252.17
541.764	6274.54
542.129	6317.48
542.494	6393.41
542.858	6382.11
543.223	6362.22
543.587	6441.09
543.952	6453.52
544.316	6476.34
544.681	6499.39
545.045	6543.01
545.41	6542.55
545.774	6591.37
546.138	6638.6
546.503	6575.1
546.867	6603.8
547.231	6677.92
547.595	6658.94
547.959	6707.07
548.324	6781.42
548.688	6778.25
549.052	6805.37
549.416	6799.5
549.779	6835.43
550.143	6841.76
550.507	6865.48
550.871	6900.96
551.235	6918.14
551.599	6957.68
551.962	7042.43
552.326	7048.08
552.689	7022.09
553.053	7032.03
553.417	7083.78
553.78	7122.2
554.143	7061.18
554.507	7145.48
554.87	7142.99
555.234	7143.22
555.597	7130.34
555.96	7234.74
556.323	7222.76
556.686	7235.42
557.05	7302.53
557.413	7333.95
557.776	7292.14
558.139	7349.99
558.502	7389.54
558.865	7416.66
559.228	7423.43
559.59	7426.6
559.953	7432.02
560.316	7564.67
560.679	7554.28
561.041	7559.48
561.404	7615.52
561.767	7640.15
562.129	7600.38
562.492	7727.83
562.854	7659.36
563.217	7654.16
563.579	7794.27
563.941	7843.31
564.304	7853.25
564.666	7840.82
565.028	7927.83
565.39	7891.22
565.753	7905
566.115	7951.78
566.477	7968.05
566.839	7957.88
567.201	8045.57
567.563	8018.22
567.925	8093.25
568.287	8090.31
568.648	8070.88
569.01	8203.98
569.372	8227.71
569.734	8249.18
570.095	8309.97
570.457	8309.06
570.819	8359.68
571.18	8448.04
571.542	8460.7
571.903	8420.02
572.265	8515.16
572.626	8519.9
572.987	8563.74
573.349	8617.98
573.71	8713.8
574.071	8690.75
574.432	8829.05
574.794	8886.9
575.155	8933.68
575.516	8917.18
575.877	8982.04
576.238	9062.26
576.599	9185.87
576.96	9144.97
577.32	9304.52
577.681	9399.2
578.042	9395.13
578.403	9482.14
578.763	9607.11
579.124	9741.34
579.485	9758.51
579.845	9921.22
580.206	10018.85
580.566	10128
580.927	10218.39
581.287	10449.57
581.648	10490.02
582.008	10637.81
582.368	10761.65
582.728	10881.42
583.089	11058.82
583.449	11181.53
583.809	11453.84
584.169	11577.22
584.529	11806.37
584.889	12031.45
585.249	12112.13
585.609	12304.21
585.969	12610.87
586.329	12792.33
586.688	12949.17
587.048	13162.04
587.408	13383.73
587.768	13638.86
588.127	13833.66
588.487	14061.68
588.846	14369.01
589.206	14592.96
589.565	14915.67
589.925	15224.36
590.284	15431.13
590.643	15612.15
591.003	15967.62
591.362	16265.24
591.721	16503.65
592.08	16842.85
592.44	17189.28
592.799	17405.55
593.158	17702.26
593.517	18023.16
593.876	18339.31
594.235	18615.46
594.593	18835.56
594.952	19185.61
595.311	19445.94
595.67	19891.81
596.029	20277.79
596.387	20481.17
596.746	20891.78
597.104	21056.52
597.463	21383.52
597.822	21797.97
598.18	21905.09
598.538	22348.24
598.897	22770.6
599.255	22870.03
599.613	23484.71
599.972	23704.36
600.33	24027.97
600.688	24244.01
601.046	24588.41
601.404	24943.43
601.762	25140.48
602.12	25513.13
602.478	25750.41
602.836	26125.09
603.194	26304.52
603.552	26545.19
603.91	26749.25
604.268	27164.16
604.625	27291.61
604.983	27765.5
605.341	27880.52
605.698	28273.96
606.056	28535.42
606.413	28667.4
606.771	29086.59
607.128	29246.14
607.485	29452.91
607.843	29704.43
608.2	29965.67
608.557	30435.71
608.914	30477.74
609.272	30737.4
609.629	31055.58
609.986	31469.36
610.343	31379.19
610.7	31903.02
611.057	32034.77
611.414	32256.91
611.771	32415.77
612.127	32767.85
612.484	32797
612.841	33100.27
613.198	33243.32
613.554	33438.34
613.911	33705.91
614.267	33877.88
614.624	33972.79
614.98	34295.27
615.337	34515.15
615.693	34582.95
616.05	34743.39
616.406	35081.24
616.762	35053.89
617.118	35213.21
617.475	35394
617.831	35636.03
618.187	35760.32
618.543	35932.97
618.899	36243.47
619.255	36263.35
619.611	36426.74
619.967	36606.4
620.323	36674.19
620.678	36709.22
621.034	36854.53
621.39	36854.07
621.746	37007.74
622.101	37493.6
622.457	37333.83
622.812	37508.52
623.168	37645.01
623.523	37726.37
623.879	37963.42
624.234	37687.72
624.589	37944.67
624.945	37974.72
625.3	38112.35
625.655	38253.81
626.01	38279.8
626.365	38402.73
626.72	38427.37
627.075	38535.39
627.43	38401.83
627.785	38456.29
628.14	38749.16
628.495	38751.42
628.85	38737.41
629.205	38722.5
629.559	39073.9
629.914	38843.63
630.269	38906.67
630.623	38950.74
630.978	38890.18
631.332	39073.9
631.687	39320.22
632.041	39100.57
632.396	39312.77
632.75	39164.52
633.104	39171.53
633.459	39162.71
633.813	39229.6
634.167	39280.45
634.521	39187.12
634.875	39274.12
635.229	39321.81
635.583	39108.93
635.937	39232.32
636.291	39062.15
636.645	39228.25
636.999	39154.13
637.352	39361.35
637.706	39099.89
638.06	39368.58
638.413	39349.15
638.767	39199.77
639.121	39291.52
639.474	39119.55
639.828	39159.32
640.181	39288.13
640.534	39335.14
640.888	39104.86
641.241	39088.59
641.594	39243.16
641.947	39269.83
642.301	39146.44
642.654	39157.06
643.007	39162.04
643.36	39195.25
643.713	39104.18
644.066	39236.61
644.419	39053.79
644.771	38889.73
645.124	38365.9
645.477	38402.96
645.83	38254.04
646.182	38199.12
646.535	37918.45
646.888	38126.13
647.24	37893.59
647.593	38086.81
647.945	38041.16
648.298	37792.81
648.65	37873.48
649.002	37747.84
649.355	37783.99
649.707	37845.23
650.059	38056.3
650.411	38343.98
650.763	38518.44
651.115	38899.67
651.467	38681.37
651.819	38826
652.171	38742.84
652.523	38614.71
652.875	38611.09
653.227	38521.37
653.578	38807.24
653.93	38746.9
654.282	38504.65
654.633	38366.8
654.985	38495.16
655.337	38582.62
655.688	38580.13
656.039	38648.83
656.391	38328.38
656.742	38438.66
657.094	38453.35
657.445	38648.15
657.796	38457.42
658.147	38354.15
658.498	38349.85
658.849	38490.64
659.2	38433.01
659.551	38198.9
659.902	38388.95
660.253	38419.91
660.604	38507.59
660.955	38289.52
661.306	38303.98
661.656	38338.1
662.007	38294.04
662.358	38303.75
662.708	38442.73
663.059	38216.52
663.409	38039.58
663.76	38380.36
664.11	38300.59
664.461	38282.28
664.811	38469.17
665.161	38282.06
665.511	38253.58
665.862	38159.12
666.212	38216.75
666.562	38377.42
666.912	38149.63
667.262	38257.88
667.612	38297.2
667.962	38277.31
668.312	38157.54
668.662	38335.62
669.011	38255.84
669.361	38250.19
669.711	38139.92
670.06	38085.91
670.41	38046.13
670.76	38067.83
671.109	38225.56
671.459	38214.94
671.808	38041.84
672.157	38170.2
672.507	37816.99
672.856	37912.58
673.205	37995.06
673.554	38182.85
673.904	37907.83
674.253	38214.49
674.602	37954.16
674.951	37339.48
675.3	37465.81
675.649	37790.32
675.998	37886.36
676.346	37827.16
676.695	37955.29
677.044	37605.24
677.393	37791.45
677.741	37841.62
678.09	37706.71
678.438	37600.04
678.787	37737.67
679.135	37664.22
679.484	37454.51
679.832	37602.75
680.181	37340.61
680.529	37573.6
680.877	37351.01
681.225	37399.82
681.573	37538.58
681.922	37205.02
682.27	37187.17
682.618	37244.35
682.966	37242.09
683.314	37242.09
683.661	37040.28
684.009	36993.96
684.357	36917.8
684.705	36900.63
685.053	37001.87
685.4	36857.92
685.748	36686.17
686.095	36647.3
686.443	36640.29
686.79	36553.97
687.138	36572.05
687.485	36476
687.832	36434.65
688.18	36543.8
688.527	36246.18
688.874	36299.96
689.221	36191.72
689.568	36126.41
689.915	35953.98
690.262	36031.95
690.609	35918.96
690.956	35813.42
691.303	35687.78
691.65	35520.32
691.997	35564.84
692.344	35518.06
692.69	35402.59
693.037	35441.91
693.383	35088.02
693.73	35207.34
694.077	35025.65
694.423	34980.45
694.769	34931.64
695.116	34889.15
695.462	34875.82
695.808	34723.73
696.155	34713.34
696.501	34586.56
696.847	34464.98
697.193	34298.21
697.539	34335.04
697.885	34059.8
698.231	34067.25
698.577	33966.01
698.923	33865
699.269	33959.23
699.614	33609.86
699.96	33567.15
700.306	33664.33
700.651	33423.2
700.997	33403.54
701.342	33368.06
701.688	33362.19
702.033	33175.53
702.379	33126.71
702.724	32992.03
703.069	33194.28
703.415	32760.62
703.76	32717.68
704.105	32750.68
704.45	32617.12
704.795	32496
705.14	32417.35
705.485	32340.07
705.83	32223.23
706.175	32326.96
706.52	32179.85
706.865	32026.63
707.209	32077.25
707.554	31918.61
707.899	32049
708.243	31829.12
708.588	31746.41
708.932	31487.66
709.277	31607.21
709.621	31617.83
709.966	31416.48
710.31	31480.66
710.654	31212.41
710.998	31196.82
711.342	31273.2
711.687	31148.23
712.031	31076.37
712.375	30863.04
712.719	30900.11
713.063	30958.18
713.407	30980.56
713.75	30818.98
714.094	30760
714.438	30609.72
714.782	30630.73
715.125	30550.06
715.469	30532.21
715.812	30398.65
716.156	30355.26
716.499	30397.75
716.843	30334.02
717.186	30178.77
717.53	30270.52
717.873	30344.41
718.216	30152.78
718.559	30025.78
718.902	29845.9
719.246	29867.14
719.589	29784.2
719.932	29786.01
720.275	29739.23
720.617	29698.33
720.96	29699.46
721.303	29448.39
721.646	29531.1
721.989	29306.02
722.331	29560.03
722.674	29256.76
723.016	29352.12
723.359	29236.87
723.701	29288.17
724.044	29042.98
724.386	29098.8
724.729	29216.53
725.071	29052.47
725.413	29028.29
725.755	28958.01
726.097	28831.91
726.439	28761.63
726.782	28758.92
727.124	28895.64
727.465	28730.22
727.807	28736.32
728.149	28642.76
728.491	28647.51
728.833	28664.68
729.175	28516.67
729.516	28421.07
729.858	28436.22
730.199	28465.14
730.541	28420.85
730.882	28344.01
731.224	28347.4
731.565	28185.37
731.906	28289.1
732.248	28185.15
732.589	28019.96
732.93	27991.03
733.271	27989.67
733.612	28004.59
733.953	28031.25
734.294	27840.75
734.635	27688.66
734.976	27920.3
735.317	27750.13
735.658	27741.77
735.999	27699.51
736.339	27830.36
736.68	27766.85
737.021	27588.78
737.361	27553.3
737.702	27700.42
738.042	27572.74
738.383	27446.41
738.723	27585.84
739.063	27478.5
739.404	27417.26
739.744	27379.07
740.084	27306.75
740.424	27321.44
740.764	27189.02
741.104	27260.2
741.444	27266.53
741.784	27111.28
742.124	27145.85
742.464	27123.03
742.804	27017.72
743.143	27000.55
743.483	27102.69
743.823	26825.18
744.162	26864.96
744.502	26855.24
744.841	26770.27
745.181	26798.74
745.52	26818.41
745.86	26690.95
746.199	26582.03
746.538	26558.52
746.877	26529.6
747.216	26639.43
747.556	26471.52
747.895	26532.54
748.234	26406.21
748.573	26358.98
748.911	26306.33
749.25	26206.67
749.589	26159.21
749.928	26100.23
750.267	26163.73
750.605	26131.42
750.944	26062.04
751.283	25991.08
751.621	25996.96
751.96	25815.49
752.298	25938.43
752.636	25779.79
752.975	25763.52
753.313	25655.05
753.651	25816.4
753.989	25553.58
754.327	25576.63
754.666	25465.9
755.004	25424.54
755.342	25477.88
755.679	25440.59
756.017	25342.06
756.355	25358.56
756.693	25176.87
757.031	25323.98
757.368	25102.07
757.706	25145
758.044	24985.23
758.381	25086.47
758.719	24972.8
759.056	24987.49
759.394	24776.88
759.731	24625.02
760.068	24640.84
760.405	24612.59
760.743	24524.91
761.08	24471.12
761.417	24460.95
761.754	24361.07
762.091	24343.89
762.428	24143.22
762.765	24143.67
763.102	24210.34
763.438	24089.44
763.775	23901.19
764.112	23958.82
764.449	23867.3
764.785	23777.13
765.122	23713.4
765.458	23529.45
765.795	23565.61
766.131	23536.91
766.467	23366.52
766.804	23260.31
767.14	23173.3
767.476	23198.39
767.812	23127.65
768.148	23182.34
768.485	23033.65
768.821	22936.93
769.157	22863.25
769.492	22734.9
769.828	22681.34
770.164	22474.34
770.5	22669.36
770.836	22429.14
771.171	22430.72
771.507	22263.5
771.842	22183.05
772.178	22202.93
772.513	22146.66
772.849	21927.69
773.184	21859.67
773.519	21974.24
773.855	21834.13
774.19	21684.53
774.525	21632.55
774.86	21734.02
775.195	21533.57
775.53	21471.88
775.865	21373.58
776.2	21150.98
776.535	21152.79
776.87	21094.04
777.205	21013.81
777.539	20961.38
777.874	20959.35
778.209	20702.63
778.543	20616.08
778.878	20604.56
779.212	20531.56
779.547	20432.81
779.881	20383.32
780.215	20371.34
780.55	20365.24
780.884	20187.62
781.218	20175.19
781.552	20198.92
781.886	20137.22
782.22	19973.39
782.554	19853.39
782.888	19812.49
783.222	19683.68
783.556	19557.13
783.889	19546.51
784.223	19450.46
784.557	19337.92
784.89	19290.92
785.224	19267.64
785.557	19270.58
785.891	19109
786.224	19133.41
786.558	19106.97
786.891	18929.35
787.224	18805.51
787.557	18858.39
787.891	18801.44
788.224	18695.91
788.557	18743.36
788.89	18495.69
789.223	18561.9
789.556	18449.81
789.888	18312.87
790.221	18335.01
790.554	18145.41
790.887	18142.47
791.219	18077.84
791.552	18149.48
791.884	18025.64
792.217	17969.37
792.549	17871.3
792.882	17733.67
793.214	17632.66
793.546	17688.02
793.879	17647.35
794.211	17531.87
794.543	17493
794.875	17432.66
795.207	17496.39
795.539	17299.11
795.871	17420.69
796.203	17175.72
796.535	17139.56
796.867	17143.63
797.198	17029.74
797.53	17028.15
797.862	16913.58
798.193	16963.97
798.525	16854.6
798.856	16901.15
799.188	16743.19
799.519	16760.59
799.85	16601.27
800.182	16611.89
800.513	16522.4
800.844	16373.03
801.175	16466.36
801.506	16408.96
801.837	16340.04
802.168	16239.02
802.499	16222.53
802.83	16133.26
803.161	16180.49
803.491	16043.55
803.822	16115.18
804.153	15974.17
804.483	15825.02
804.814	15837.9
805.145	15839.48
805.475	15799.49
805.805	15753.61
806.136	15691.92
806.466	15762.88
806.796	15656.89
807.126	15550
807.457	15435.65
807.787	15481.08
808.117	15380.74
808.447	15310.23
808.777	15466.16
809.107	15269.56
809.436	15270.01
809.766	15268.43
810.096	15227.3
810.426	15097.13
810.755	15127.19
811.085	15117.7
811.414	15056.45
811.744	14882.9
812.073	14896.01
812.403	14916.57
812.732	14786.18
813.061	14817.82
813.39	14656.92
813.719	14724.49
814.049	14759.29
814.378	14649.01
814.707	14667.54
815.036	14544.6
815.365	14524.94
815.693	14432.29
816.022	14419.41
816.351	14409.01
816.68	14347.55
817.008	14368.11
817.337	14246.08
817.665	14223.03
817.994	14248.79
818.322	14240.2
818.651	14167.21
818.979	14090.15
819.307	14155.24
819.636	14095.12
819.964	14011.74
820.292	14144.61
820.62	14016.03
820.948	13955.01
821.276	13998.4
821.604	13986.65
821.932	13944.39
822.259	14021.23
822.587	13904.85
822.915	13861.46
823.243	13967.44
823.57	13911.17
823.898	13888.12
824.225	13815.81
824.553	13847.9
824.88	13858.75
825.207	13914.56
825.535	13815.58
825.862	13939.65
826.189	13873.43
826.516	13882.02
826.843	14020.1
827.17	13867.79
827.497	13958.18
827.824	13857.16
828.151	13872.3
828.478	13899.87
828.805	13859.88
829.131	13909.37
829.458	13884.96
829.785	13765.87
830.111	13808.13
830.438	13895.13
830.764	13888.35
831.09	13894.23
831.417	13718.64
831.743	13786.66
832.069	13831.85
832.395	13721.8
832.722	13777.84
833.048	13722.03
833.374	13691.29
833.7	13699.43
834.026	13755.92
834.351	13756.6
834.677	13715.92
835.003	13734.46
835.329	13632.09
835.654	13621.69
835.98	13493.78
836.306	13638.86
836.631	13562.93
836.956	13572.88
837.282	13564.29
837.607	13513.9
837.932	13506.44
838.258	13520.22
838.583	13542.37
838.908	13434.12
839.233	13467.57
839.558	13366.78
839.883	13319.1
840.208	13269.61
840.533	13335.82
840.858	13258.54
841.182	13339.66
841.507	13321.81
841.832	13197.07
842.156	13189.38
842.481	13152.78
842.805	13125.21
843.13	13176.73
843.454	13133.12
843.778	13058.54
844.103	13022.84
844.427	13012.44
844.751	12986.9
845.075	12907.13
845.399	12863.07
845.723	12821.71
846.047	12880.47
846.371	12766.35
846.695	12702.62
847.019	12631.66
847.343	12615.61
847.666	12486.58
847.99	12466.92
848.313	12466.47
848.637	12397.77
848.96	12369.29
849.284	12264.21
849.607	12279.35
849.931	12166.81
850.254	12079.13
850.577	12122.29
850.9	11999.81
851.223	11982.18
851.546	11862.64
851.869	11838.91
852.192	11817.44
852.515	11748.52
852.838	11665.36
853.161	11762.3
853.483	11619.48
853.806	11591.23
854.129	11580.39
854.451	11591.23
854.774	11538.13
855.096	11461.97
855.419	11393.95
855.741	11470.56
856.063	11367.29
856.385	11306.95
856.708	11308.98
857.03	11248.42
857.352	11243.22
857.674	11199.38
857.996	11110.8
858.318	11127.97
858.64	11108.08
858.961	11067.63
859.283	11001.87
859.605	10970.23
859.926	10911.25
860.248	11007.97
860.57	10866.28
860.891	10840.75
861.212	10883.91
861.534	10814.76
861.855	10818.83
862.176	10867.86
862.498	10824.25
862.819	10732.95
863.14	10676
863.461	10676.46
863.782	10644.37
864.103	10695.21
864.424	10596.68
864.745	10603.24
865.065	10567.53
865.386	10525.73
865.707	10548.78
866.027	10497.93
866.348	10485.5
866.668	10465.61
866.989	10465.16
867.309	10363.24
867.63	10358.5
867.95	10408.22
868.27	10341.55
868.59	10377.03
868.91	10393.53
869.23	10348.33
869.55	10261.78
869.87	10297.03
870.19	10217.26
870.51	10306.07
870.83	10285.28
871.15	10217.26
871.469	10243.93
871.789	10251.38
872.109	10157.15
872.428	10167.32
872.748	10250.71
873.067	10149.69
873.386	10166.41
873.706	10129.8
874.025	10162.57
874.344	10087.55
874.663	10078.73
874.982	9994.21
875.301	10132.06
875.62	10047.55
875.939	9973.2
876.258	10013.65
876.577	9892.52
876.896	9942.01
877.214	9906.08
877.533	9926.42
877.852	9854.11
878.17	9909.25
878.489	9950.15
878.807	9841
879.125	9870.38
879.444	9851.17
879.762	9784.73
880.08	9801.45
880.398	9792.64
880.716	9794.22
881.034	9803.71
881.352	9746.76
881.67	9707.22
881.988	9693.43
882.306	9664.96
882.624	9687.33
882.941	9590.38
883.259	9557.16
883.577	9528.69
883.894	9471.74
884.212	9430.16
884.529	9473.1
884.846	9424.96
885.164	9424.74
885.481	9385.64
885.798	9435.13
886.115	9370.5
886.432	9379.99
886.75	9321.46
887.067	9316.94
887.383	9307
887.7	9236.27
888.017	9241.24
888.334	9288.02
888.651	9213.44
888.967	9176.16
889.284	9128.25
889.6	9115.14
889.917	9087.12
890.233	9056.16
890.55	9047.35
890.866	9011.87
891.182	8995.82
891.498	9004.41
891.815	8960.8
892.131	8934.81
892.447	8940.46
892.763	8851.87
893.079	8866.56
893.395	8827.92
893.71	8804.42
894.026	8782.72
894.342	8709.05
894.657	8670.63
894.973	8689.16
895.289	8668.15
895.604	8701.82
895.92	8535.72
896.235	8592.9
896.55	8549.05
896.865	8510.86
897.181	8498.89
897.496	8479.68
897.811	8437.42
898.126	8415.73
898.441	8363.52
898.756	8386.57
899.071	8283.53
899.386	8277.88
899.7	8206.69
900.015	8269.51
900.33	8180.93
900.644	8152.46
900.959	8191.1
901.273	8157.43
901.588	8094.6
901.902	8062.51
902.216	8042.85
902.531	8020.03
902.845	8017.09
903.159	7970.54
903.473	7951.33
903.787	7877.21
904.101	7842.41
904.415	7803.31
904.729	7769.87
905.042	7771.9
905.356	7747.95
905.67	7731
905.984	7645.12
906.297	7627.95
906.611	7642.19
906.924	7640.38
907.237	7591.79
907.551	7556.31
907.864	7539.36
908.177	7445.13
908.491	7485.35
908.804	7400.16
909.117	7364.45
909.43	7349.76
909.743	7241.07
910.056	7358.35
910.368	7253.95
910.681	7247.39
910.994	7232.48
911.307	7155.19
911.619	7133.95
911.932	7187.06
912.244	7087.4
912.557	7041.98
912.869	7037.23
913.181	6964.92
913.494	6976.21
913.806	6945.93
914.118	6907.29
914.43	6898.7
914.742	6920.62
915.054	6850.57
915.366	6850.34
915.678	6771.7
915.99	6782.77
916.302	6741.42
916.613	6726.05
916.925	6613.74
917.236	6661.42
917.548	6653.74
917.859	6590.24
918.171	6526.06
918.482	6468.43
918.794	6502.56
919.105	6476.57
919.416	6482.22
919.727	6391.82
920.038	6431.37
920.349	6362.45
920.66	6354.99
920.971	6315.89
921.282	6281.54
921.593	6253.75
921.903	6279.28
922.214	6230.7
922.525	6180.76
922.835	6158.38
923.146	6143.02
923.456	6141.21
923.767	6034.09
924.077	6109.57
924.387	6064.83
924.697	6009.69
925.008	5990.03
925.318	5933.3
925.628	5943.25
925.938	5937.6
926.248	5900.99
926.558	5838.84
926.867	5817.15
927.177	5841.1
927.487	5784.38
927.796	5775.34
928.106	5776.92
928.416	5707.77
928.725	5726.76
929.034	5741.9
929.344	5639.3
929.653	5675.01
929.962	5554.56
930.271	5530.83
930.581	5548.68
930.89	5530.6
931.199	5499.42
931.508	5491.28
931.817	5444.5
932.125	5475.46
932.434	5419.42
932.743	5357.95
933.051	5341
933.36	5300.1
933.669	5291.29
933.977	5248.35
934.286	5245.19
934.594	5230.72
934.902	5186.21
935.21	5168.35
935.519	5204.06
935.827	5171.52
936.135	5096.49
936.443	5084.74
936.751	5049.94
937.059	5051.52
937.367	5033.22
937.674	5038.86
937.982	5045.42
938.29	4977.4
938.597	4985.31
938.905	4875.25
939.213	4924.52
939.52	4913.9
939.827	4889.49
940.135	4880.68
940.442	4801.81
940.749	4836.38
941.056	4764.75
941.363	4761.81
941.67	4762.49
941.977	4742.83
942.284	4698.99
942.591	4747.57
942.898	4671.87
943.205	4623.51
943.511	4611.31
943.818	4610.63
944.125	4587.35
944.431	4542.83
944.738	4560.46
945.044	4555.49
945.35	4525.66
945.657	4494.47
945.963	4476.62
946.269	4474.81
946.575	4405.44
946.881	4397.98
947.187	4424.64
947.493	4390.97
947.799	4406.34
948.105	4318.21
948.41	4281.6
948.716	4335.83
949.022	4308.04
949.327	4271.43
949.633	4244.31
949.938	4214.93
950.244	4236.4
950.549	4180.36
950.854	4180.58
951.16	4164.54
951.465	4126.8
951.77	4094.48
952.075	4098.32
952.38	4091.09
952.685	4066.46
952.99	4023.98
953.294	4051.32
953.599	4050.42
953.904	3985.79
954.209	3958.67
954.513	3997.31
954.818	3947.14
955.122	3959.57
955.426	3934.26
955.731	3909.18
956.035	3834.6
956.339	3868.05
956.643	3901.27
956.948	3835.96
957.252	3827.37
957.556	3788.73
957.86	3756.64
958.163	3735.62
958.467	3755.96
958.771	3772.68
959.075	3720.03
959.378	3704.66
959.682	3644.78
959.985	3671.22
960.289	3673.7
960.592	3636.19
960.896	3653.59
961.199	3598.22
961.502	3606.36
961.805	3524.33
962.108	3539.92
962.411	3557.77
962.714	3532.24
963.017	3479.36
963.32	3530.88
963.623	3466.48
963.926	3471
964.228	3434.39
964.531	3428.74
964.833	3451.11
965.136	3369.08
965.438	3406.14
965.741	3381.28
966.043	3354.62
966.345	3367.95
966.648	3302.41
966.95	3270.1
967.252	3282.07
967.554	3307.84
967.856	3272.13
968.158	3274.84
968.46	3247.73
968.761	3244.11
969.063	3194.17
969.365	3185.58
969.666	3207.05
969.968	3173.83
970.269	3177.44
970.571	3170.21
970.872	3138.12
971.174	3113.72
971.475	3098.12
971.776	3120.5
972.077	3096.32
972.378	3094.28
972.679	3061.97
972.98	3058.13
973.281	3009.31
973.582	3042.53
973.883	3024
974.183	3013.61
974.484	2976.77
974.785	2980.61
975.085	2984.23
975.386	2948.98
975.686	2961.86
975.986	2885.02
976.287	2934.97
976.587	2844.12
976.887	2885.7
977.187	2872.82
977.487	2852.71
977.787	2869.43
978.087	2836.21
978.387	2833.72
978.687	2807.28
978.987	2813.16
979.286	2783.33
979.586	2768.42
979.885	2745.59
980.185	2701.75
980.484	2723.67
980.784	2723.67
981.083	2663.11
981.382	2709.43
981.682	2699.04
981.981	2660.85
982.28	2651.81
982.579	2635.99
982.878	2651.13
983.177	2641.41
983.475	2604.35
983.774	2567.29
984.073	2586.5
984.372	2566.16
984.67	2543.56
984.969	2600.51
985.267	2560.51
985.566	2546.73
985.864	2538.82
986.162	2511.47
986.461	2493.62
986.759	2490.46
987.057	2457.24
987.355	2495.88
987.653	2452.94
987.951	2452.94
988.249	2442.1
988.547	2403.45
988.844	2427.63
989.142	2394.64
989.44	2414.98
989.737	2363.23
990.035	2366.39
990.332	2340.4
990.63	2330.91
990.927	2354.42
991.224	2337.24
991.521	2351.93
991.819	2298.37
992.116	2313.51
992.413	2312.38
992.71	2281.65
993.006	2274.87
993.303	2252.95
993.6	2257.02
993.897	2262.89
994.193	2238.49
994.49	2215.21
994.787	2229.45
995.083	2191.26
995.379	2172.5
995.676	2181.09
995.972	2187.64
996.268	2161.43
996.565	2115.78
996.861	2106.51
997.157	2097.25
997.453	2119.39
997.749	2109.22
998.044	2068.32
998.34	2085.27
998.636	2084.14
998.932	2042.56
999.227	2037.81
999.523	2012.73
999.818	2033.97
1000.114	2031.26
1000.409	2019.06
1000.704	1971.37
1001	2000.53
1001.295	1995.78
1001.59	1939.51
1001.885	1965.73
1002.18	1938.83
1002.475	1911.72
1002.77	1913.3
1003.065	1935.44
1003.359	1920.98
1003.654	1875.11
1003.949	1876.46
1004.243	1867.87
1004.538	1839.4
1004.832	1855.9
1005.127	1838.27
1005.421	1835.79
1005.715	1811.38
1006.009	1798.27
1006.304	1792.4
1006.598	1770.02
1006.892	1789.23
1007.186	1791.27
1007.48	1755.34
1007.773	1743.81
1008.067	1727.09
1008.361	1700.2
1008.655	1722.34
1008.948	1724.83
1009.242	1727.77
1009.535	1699.52
1009.829	1671.04
1010.122	1674.21
1010.415	1648.9
1010.708	1662.91
1011.001	1628.78
1011.295	1610.48
1011.588	1613.64
1011.881	1610.25
1012.173	1599.18
1012.466	1596.92
1012.759	1623.36
1013.052	1581.55
1013.344	1565.96
1013.637	1569.35
1013.93	1555.79
1014.222	1549.46
1014.514	1523.48
1014.807	1518.51
1015.099	1543.59
1015.391	1504.49
1015.683	1507.21
1015.976	1507.43
1016.268	1505.4
1016.56	1516.92
1016.851	1490.94
1017.143	1459.75
1017.435	1447.77
1017.727	1454.33
1018.018	1441.22
1018.31	1442.12
1018.602	1433.08
1018.893	1374.33
1019.185	1415.01
1019.476	1378.85
1019.767	1378.17
1020.058	1368.68
1020.35	1343.14
1020.641	1363.71
1020.932	1377.72
1021.223	1327.55
1021.514	1348.11
1021.804	1318.74
1022.095	1307.44
1022.386	1339.53
1022.677	1288.45
1022.967	1275.57
1023.258	1251.62
1023.548	1288
1023.839	1265.86
1024.129	1287.1
1024.419	1243.71
1024.709	1233.54
1025	1242.81
1025.29	1229.25
1025.58	1212.52
1025.87	1197.61
1026.16	1211.39
1026.449	1211.85
1026.739	1198.97
1027.029	1169.59
1027.319	1166.88
1027.608	1154
1027.898	1143.15
1028.187	1143.15
1028.477	1144.5
1028.766	1128.01
1029.055	1138.85
1029.344	1112.87
1029.634	1113.32
1029.923	1128.01
1030.212	1117.39
1030.501	1082.13
1030.79	1096.37
1031.078	1075.81
1031.367	1087.33
1031.656	1081
1031.945	1041
1032.233	1071.06
1032.522	1025.18
1032.81	1036.03
1033.099	1010.04
1033.387	1042.36
1033.675	1038.74
1033.963	1020.67
1034.251	1005.75
1034.54	991.29
1034.828	973.89
1035.116	989.48
1035.403	998.07
1035.691	953.55
1035.979	969.14
1036.267	954.9
1036.554	963.49
1036.842	950.84
1037.129	939.99
1037.417	929.14
1037.704	908.13
1037.992	923.27
1038.279	904.28
1038.566	919.65
1038.853	919.65
1039.14	919.65
