Data from hue_150_FLMS001491_00030.txt Node
Date: Tue Feb 07 16:53:50 GMT 2017
User: dcchb
Spectrometer: FLMS00149
Trigger mode: 0
Integration Time (sec): 2.000000E-2
Scans to average: 10
Electric dark correction enabled: true
Nonlinearity correction enabled: false
Boxcar width: 0
XAxis mode: Wavelengths
Number of Pixels in Spectrum: 2048
>>>>>Begin Spectral Data<<<<<
341.393	-1.85
341.776	-1.85
342.16	-1.85
342.543	-71.45
342.927	-58.12
343.31	-75.75
343.693	-66.71
344.077	-42.3
344.46	-59.93
344.843	-52.47
345.226	-43.88
345.61	-40.27
345.993	-21.28
346.376	7.19
346.759	14.65
347.142	21.88
347.525	38.6
347.908	56.91
348.291	60.75
348.674	97.58
349.057	105.04
349.44	121.76
349.823	142.78
350.206	173.06
350.588	203.34
350.971	203.79
351.354	232.27
351.737	242.66
352.119	240.63
352.502	263
352.884	264.36
353.267	282.66
353.65	310.23
354.032	307.52
354.414	319.05
354.797	310.91
355.179	317.01
355.562	311.59
355.944	339.16
356.326	331.93
356.709	337.12
357.091	347.75
357.473	336.9
357.855	341.64
358.238	329.89
358.62	353.17
359.002	326.95
359.384	343
359.766	329.44
360.148	352.04
360.53	356.78
360.912	334.86
361.294	334.86
361.676	347.97
362.057	337.35
362.439	348.65
362.821	331.02
363.203	331.93
363.584	328.08
363.966	313.85
364.348	347.29
364.729	330.34
365.111	324.69
365.493	320.4
365.874	325.37
366.256	321.31
366.637	331.93
367.019	315.43
367.4	315.66
367.781	326.73
368.163	312.04
368.544	333.73
368.925	297.12
369.306	323.56
369.688	323.11
370.069	321.08
370.45	311.59
370.831	316.11
371.212	322.44
371.593	310.91
371.974	306.62
372.355	319.05
372.736	331.25
373.117	342.1
373.498	320.4
373.879	325.15
374.26	312.72
374.641	328.76
375.021	312.49
375.402	340.74
375.783	327.86
376.163	314.3
376.544	343.23
376.925	316.79
377.305	339.61
377.686	346.84
378.066	343.23
378.447	327.63
378.827	345.94
379.208	344.13
379.588	341.19
379.968	339.61
380.349	338.93
380.729	331.93
381.109	342.55
381.489	337.8
381.87	343
382.25	348.2
382.63	336.67
383.01	368.54
383.39	341.19
383.77	344.81
384.15	338.93
384.53	367.86
384.91	364.47
385.29	377.12
385.67	376.44
386.049	364.24
386.429	382.55
386.809	345.49
387.189	377.35
387.568	368.76
387.948	350.23
388.328	372.38
388.707	369.89
389.087	376.67
389.466	376.22
389.846	364.02
390.225	370.34
390.605	369.89
390.984	379.83
391.363	393.85
391.743	389.78
392.122	404.47
392.501	384.35
392.881	389.1
393.26	400.63
393.639	379.83
394.018	398.59
394.397	415.09
394.776	361.53
395.155	386.16
395.534	389.1
395.913	408.31
396.292	382.55
396.671	406.73
397.05	405.6
397.429	397.91
397.808	417.8
398.186	376.44
398.565	401.3
398.944	408.53
399.323	403.11
399.701	433.39
400.08	412.6
400.458	433.17
400.837	441.53
401.215	412.83
401.594	443.11
401.972	421.64
402.351	425.71
402.729	432.49
403.107	425.94
403.486	452.15
403.864	442.21
404.242	441.75
404.62	432.04
404.999	449.66
405.377	459.15
405.755	442.88
406.133	454.41
406.511	456.67
406.889	442.21
407.267	467.06
407.645	447.4
408.023	452.83
408.401	468.65
408.779	442.66
409.156	463.22
409.534	467.06
409.912	468.19
410.29	491.7
410.667	506.84
411.045	503.22
411.422	492.37
411.8	491.47
412.178	487.4
412.555	503.45
412.933	518.59
413.31	495.54
413.687	492.83
414.065	518.36
414.442	521.75
414.819	518.59
415.197	530.34
415.574	521.07
415.951	533.95
416.328	519.04
416.705	522.2
417.082	521.75
417.46	545.93
417.837	558.36
418.214	548.42
418.591	555.42
418.967	561.3
419.344	540.28
419.721	573.73
420.098	562.2
420.475	569.89
420.852	549.77
421.228	590.68
421.605	561.75
421.982	599.94
422.358	577.8
422.735	588.42
423.111	602.43
423.488	618.47
423.864	608.08
424.241	605.59
424.617	599.26
424.994	632.03
425.37	611.02
425.746	627.06
426.123	653.05
426.499	648.53
426.875	647.17
427.251	656.44
427.627	632.26
428.003	654.63
428.379	659.38
428.756	660.96
429.132	683.33
429.507	684.69
429.883	687.85
430.259	714.97
430.635	693.95
431.011	693.72
431.387	743.67
431.763	718.58
432.138	727.85
432.514	756.1
432.89	748.64
433.265	756.55
433.641	753.84
434.016	755.87
434.392	767.62
434.767	762.42
435.143	780.73
435.518	787.51
435.894	793.61
436.269	798.81
436.644	818.24
437.02	825.47
437.395	820.5
437.77	807.17
438.145	844.46
438.52	841.97
438.895	845.36
439.271	850.56
439.646	878.8
440.021	907.28
440.395	882.42
440.77	879.26
441.145	885.58
441.52	889.2
441.895	888.97
442.27	898.47
442.645	899.59
443.019	912.02
443.394	903.44
443.769	945.02
444.143	916.54
444.518	944.57
444.892	957.22
445.267	958.8
445.641	968.97
446.016	991.34
446.39	982.08
446.764	984.11
447.139	980.5
447.513	983.66
447.887	993.15
448.262	1030.44
448.636	999.03
449.01	1029.54
449.384	1032.25
449.758	1023.66
450.132	1060.04
450.506	1066.37
450.88	1048.97
451.254	1051.23
451.628	1069.31
452.002	1113.37
452.376	1088.29
452.75	1109.98
453.123	1106.82
453.497	1135.97
453.871	1141.17
454.244	1171.68
454.618	1173.03
454.992	1168.97
455.365	1173.26
455.739	1196.54
456.112	1211.68
456.486	1237.21
456.859	1240.6
457.232	1266.59
457.606	1260.94
457.979	1280.15
458.352	1302.3
458.725	1307.72
459.099	1325.12
459.472	1342.07
459.845	1369.64
460.218	1375.97
460.591	1378
460.964	1381.16
461.337	1400.37
461.71	1488.05
462.083	1431.78
462.456	1507.49
462.829	1476.08
463.201	1502.97
463.574	1526.92
463.947	1533.93
464.32	1559.92
464.692	1589.29
465.065	1585.68
465.438	1636.3
465.81	1665.22
466.183	1685.11
466.555	1736.86
466.928	1724.88
467.3	1732.57
467.672	1747.71
468.045	1816.41
468.417	1807.59
468.789	1845.56
469.161	1869.96
469.534	1894.6
469.906	1946.8
470.278	1947.48
470.65	2014.37
471.022	2057.98
471.394	2077.87
471.766	2106.12
472.138	2140.92
472.51	2224.98
472.882	2246.68
473.253	2245.55
473.625	2299.11
473.997	2413.45
474.369	2418.88
474.74	2475.15
475.112	2543.17
475.484	2569.38
475.855	2651.19
476.227	2684.41
476.598	2765.08
476.97	2788.81
477.341	2914.91
477.713	2964.63
478.084	2988.81
478.455	3087.11
478.827	3123.49
479.198	3264.5
479.569	3292.3
479.94	3427.66
480.311	3460.43
480.682	3602.35
481.053	3669.92
481.424	3792.17
481.795	3866.52
482.166	3966.86
482.537	4050.25
482.908	4199.85
483.279	4288.66
483.65	4370.46
484.021	4479.16
484.391	4576.33
484.762	4698.14
485.133	4785.59
485.503	4856.78
485.874	5070.33
486.244	5115.98
486.615	5271.23
486.985	5425.58
487.356	5536.99
487.726	5641.39
488.097	5805
488.467	5875.28
488.837	6030.99
489.207	6229.85
489.578	6319.34
489.948	6483.18
490.318	6595.04
490.688	6681.82
491.058	6869.16
491.428	7013.56
491.798	7079.32
492.168	7260.78
492.538	7331.52
492.908	7516.14
493.278	7723.6
493.648	7793.43
494.017	7976.92
494.387	8076.13
494.757	8157.48
495.126	8342.79
495.496	8420.75
495.866	8482.9
496.235	8627.75
496.605	8801.31
496.974	8842.21
497.344	8983.22
497.713	9110
498.082	9197.23
498.452	9406.26
498.821	9532.36
499.19	9518.8
499.559	9687.84
499.928	9729.19
500.298	9892.8
500.667	10014.84
501.036	10047.38
501.405	10161.05
501.774	10184.55
502.143	10281.04
502.512	10349.97
502.88	10472.68
503.249	10502.96
503.618	10636.74
503.987	10745.44
504.356	10810.29
504.724	10943.85
505.093	11050.51
505.462	11007.8
505.83	11074.47
506.199	11171.87
506.567	11305.42
506.936	11340
507.304	11488.24
507.672	11531.41
508.041	11624.28
508.409	11707.9
508.777	11805.97
509.145	11834.22
509.514	11797.84
509.882	11895.92
510.25	11925.07
510.618	11957.61
510.986	12076.7
511.354	12213.42
511.722	12321.22
512.09	12342.91
512.458	12410.48
512.826	12427.88
513.193	12480.99
513.561	12423.13
513.929	12506.75
514.297	12706.74
514.664	12774.54
515.032	12798.49
515.4	12777.47
515.767	12832.61
516.135	12880.52
516.502	12817.25
516.869	13006.4
517.237	13008.2
517.604	12954.19
517.972	13058.15
518.339	13153.06
518.706	13140.18
519.073	13192.38
519.44	13215.43
519.808	13297.46
520.175	13285.03
520.542	13359.15
520.909	13448.19
521.276	13414.52
521.643	13433.73
522.009	13491.35
522.376	13571.8
522.743	13574.06
523.11	13702.42
523.477	13772.48
523.843	13788.75
524.21	13879.14
524.577	13967.5
524.943	13893.6
525.31	13863.32
525.676	14066.03
526.043	14012.47
526.409	14057.22
526.776	14115.07
527.142	14116.65
527.508	14128.85
527.874	14191.22
528.241	14168.17
528.607	14094.95
528.973	14154.39
529.339	14258.79
529.705	14320.94
530.071	14352.35
530.437	14225.12
530.803	14334.72
531.169	14287.94
531.535	14233.26
531.901	14264.44
532.267	14260.83
532.632	14297.21
532.998	14312.35
533.364	14353.93
533.73	14291.56
534.095	14349.41
534.461	14293.37
534.826	14323.87
535.192	14399.35
535.557	14285.01
535.923	14233.03
536.288	14244.1
536.653	14298.34
537.019	14256.98
537.384	14207.72
537.749	14243.65
538.114	14174.5
538.479	14165.69
538.845	14185.57
539.21	14214.95
539.575	14111.23
539.94	14140.83
540.305	14139.7
540.67	14015.18
541.034	13988.29
541.399	14032.13
541.764	14117.33
542.129	13963.88
542.494	13934.96
542.858	13971.34
543.223	13901.29
543.587	13922.08
543.952	13868.52
544.316	13817.67
544.681	13808.18
545.045	13816.54
545.41	13757.11
545.774	13743.33
546.138	13701.52
546.503	13600.05
546.867	13671.69
547.231	13737.68
547.595	13629.2
547.959	13603.22
548.324	13570
548.688	13649.09
549.052	13546.95
549.416	13595.08
549.779	13465.82
550.143	13496.1
550.507	13447.74
550.871	13497
551.235	13407.29
551.599	13400.51
551.962	13397.35
552.326	13337.46
552.689	13341.08
553.053	13266.05
553.417	13215.43
553.78	13375.65
554.143	13274.41
554.507	13270.34
554.87	13268.54
555.234	13280.06
555.597	13155.09
555.96	13262.66
556.323	13211.81
556.686	13171.59
557.05	13188.54
557.413	13134.3
557.776	13205.71
558.139	13252.26
558.502	13219.05
558.865	13243.45
559.228	13263.11
559.59	13303.79
559.953	13241.87
560.316	13332.71
560.679	13246.39
561.041	13318.25
561.404	13384.92
561.767	13262.66
562.129	13358.02
562.492	13395.54
562.854	13285.48
563.217	13278.48
563.579	13248.42
563.941	13398.93
564.304	13385.82
564.666	13408.19
565.028	13371.36
565.39	13389.66
565.753	13404.12
566.115	13463.56
566.477	13504.91
566.839	13466.95
567.201	13533.16
567.563	13508.53
567.925	13579.94
568.287	13547.17
568.648	13486.61
569.01	13633.5
569.372	13552.82
569.734	13583.33
570.095	13696.77
570.457	13664.01
570.819	13618.81
571.18	13760.5
571.542	13775.64
571.903	13654.74
572.265	13691.12
572.626	13715.53
572.987	13765.92
573.349	13793.27
573.71	13828.75
574.071	13807.96
574.432	13803.89
574.794	13923.66
575.155	13914.17
575.516	13767.73
575.877	13872.59
576.238	13907.39
576.599	13912.59
576.96	13946.94
577.32	13870.1
577.681	13926.82
578.042	13932.25
578.403	13920.04
578.763	13952.81
579.124	13991
579.485	13945.35
579.845	14065.8
580.206	13999.82
580.566	14010.44
580.927	13946.26
581.287	14050.21
581.648	13918.46
582.008	14040.72
582.368	14016.54
582.728	14043.88
583.089	13995.07
583.449	13937.67
583.809	13917.78
584.169	14070.1
584.529	13890.44
584.889	14043.2
585.249	13909.42
585.609	13894.51
585.969	13923.43
586.329	13806.83
586.688	13910.78
587.048	13864
587.408	13841.4
587.768	13832.81
588.127	13828.52
588.487	13744.23
588.846	13859.25
589.206	13797.33
589.565	13813.15
589.925	13873.49
590.284	13786.49
590.643	13829.88
591.003	13844.11
591.362	13838.46
591.721	13849.54
592.08	13833.27
592.44	13833.04
592.799	13787.84
593.158	13795.98
593.517	13733.83
593.876	13871.68
594.235	13765.02
594.593	13822.42
594.952	13839.82
595.311	13771.57
595.67	13842.08
596.029	13828.52
596.387	13817
596.746	13838.92
597.104	13754.62
597.463	13693.83
597.822	13784.68
598.18	13654.29
598.538	13779.03
598.897	13733.38
599.255	13668.3
599.613	13842.53
599.972	13769.54
600.33	13847.28
600.688	13737.68
601.046	13779.26
601.404	13807.73
601.762	13751.69
602.12	13842.53
602.478	13787.17
602.836	13787.39
603.194	13719.14
603.552	13755.75
603.91	13736.55
604.268	13786.04
604.625	13701.74
604.983	13808.63
605.341	13770.67
605.698	13726.6
606.056	13873.49
606.413	13825.81
606.771	13872.36
607.128	13878.91
607.485	13802.31
607.843	13815.19
608.2	13812.02
608.557	13917.33
608.914	13830.78
609.272	13915.3
609.629	13926.37
609.986	13977.9
610.343	13868.75
610.7	13961.17
611.057	13954.39
611.414	13894.06
611.771	13945.58
612.127	14027.61
612.484	13963.21
612.841	14026.03
613.198	13905.58
613.554	14005.92
613.911	14051.34
614.267	14011.34
614.624	14078.91
614.98	14098.12
615.337	14031.68
615.693	14074.39
616.05	14034.84
616.406	14114.16
616.762	14051.79
617.118	14067.61
617.475	14150.09
617.831	14118.68
618.187	14183.09
618.543	14140.6
618.899	14158.23
619.255	14202.97
619.611	14169.75
619.967	14200.71
620.323	14215.18
620.678	14210.66
621.034	14192.13
621.39	14108.74
621.746	14097.21
622.101	14300.15
622.457	14221.73
622.812	14249.3
623.168	14212.92
623.523	14221.05
623.879	14288.4
624.234	14123.2
624.589	14255.4
624.945	14215.4
625.3	14226.7
625.655	14213.82
626.01	14225.35
626.365	14252.24
626.72	14166.14
627.075	14261.73
627.43	14165.23
627.785	14198.91
628.14	14246.36
628.495	14269.64
628.85	14175.4
629.205	14077.55
629.559	14080.04
629.914	14099.47
630.269	14126.14
630.623	14046.37
630.978	14065.58
631.332	14130.89
631.687	14123.2
632.041	14028.29
632.396	14074.62
632.75	13963.66
633.104	13964.79
633.459	14012.7
633.813	13924.56
634.167	13970.44
634.521	13921.63
634.875	14017.44
635.229	13957.33
635.583	13875.07
635.937	13793.04
636.291	13781.74
636.645	13845.02
636.999	13816.77
637.352	13856.54
637.706	13798.92
638.06	13816.32
638.413	13827.16
638.767	13766.83
639.121	13754.4
639.474	13696.77
639.828	13723.66
640.181	13750.33
640.534	13806.15
640.888	13697
641.241	13679.6
641.594	13623.78
641.947	13586.72
642.301	13654.06
642.654	13690.22
643.007	13729.77
643.36	13659.71
643.713	13602.99
644.066	13587.17
644.419	13501.3
644.771	13427.18
645.124	13313.73
645.477	13360.06
645.83	13263.34
646.182	13193.28
646.535	13082.55
646.888	13219.05
647.24	13127.52
647.593	13140.63
647.945	13110.57
648.298	13052.27
648.65	13070.8
649.002	13052.5
649.355	13153.28
649.707	13090.69
650.059	13142.44
650.411	13303.56
650.763	13309.66
651.115	13529.32
651.467	13432.82
651.819	13420.4
652.171	13450.68
652.523	13427.4
652.875	13367.29
653.227	13350.79
653.578	13451.13
653.93	13427.18
654.282	13263.79
654.633	13331.58
654.985	13311.02
655.337	13342.66
655.688	13406.16
656.039	13434.86
656.391	13287.97
656.742	13353.5
657.094	13332.26
657.445	13443.67
657.796	13401.64
658.147	13302.43
658.498	13304.24
658.849	13398.93
659.2	13293.17
659.551	13292.26
659.902	13368.65
660.253	13393.5
660.604	13294.3
660.955	13300.85
661.306	13338.59
661.656	13387.85
662.007	13363
662.358	13340.4
662.708	13439.6
663.059	13321.87
663.409	13279.16
663.76	13351.47
664.11	13481.19
664.461	13341.75
664.811	13436.44
665.161	13444.35
665.511	13340.4
665.862	13388.53
666.212	13438.47
666.562	13393.5
666.912	13429.89
667.262	13359.83
667.612	13395.76
667.962	13380.4
668.312	13350.34
668.662	13425.14
669.011	13381.98
669.361	13388.98
669.711	13334.97
670.06	13300.4
670.41	13346.73
670.76	13261.53
671.109	13332.26
671.459	13304.92
671.808	13266.28
672.157	13315.54
672.507	13197.8
672.856	13220.17
673.205	13344.24
673.554	13303.56
673.904	13257.91
674.253	13291.59
674.602	13253.62
674.951	13082.1
675.3	13019.73
675.649	13168.2
675.998	13189.67
676.346	13108.31
676.695	13240.06
677.044	13105.83
677.393	13085.04
677.741	13112.16
678.09	13095.43
678.438	12999.62
678.787	13002.78
679.135	13052.95
679.484	12991.48
679.832	13006.62
680.181	12963.68
680.529	12976.79
680.877	12906.06
681.225	12929.34
681.573	13001.42
681.922	12803.91
682.27	12883.01
682.618	12861.09
682.966	12903.35
683.314	12811.82
683.661	12805.95
684.009	12669
684.357	12622.45
684.705	12730.7
685.053	12778.15
685.4	12732.73
685.748	12555.11
686.095	12626.97
686.443	12542
686.79	12480.99
687.138	12583.13
687.485	12571.6
687.832	12544.03
688.18	12492.06
688.527	12429.24
688.874	12417.26
689.221	12455.45
689.568	12372.97
689.915	12310.37
690.262	12364.6
690.609	12270.82
690.956	12234.44
691.303	12118.06
691.65	12089.36
691.997	12171.84
692.344	12023.82
692.69	12059.08
693.037	11973.88
693.383	11899.53
693.73	11941.56
694.077	11865.86
694.423	11932.3
694.769	11798.97
695.116	11725.53
695.462	11764.85
695.808	11589.48
696.155	11707.22
696.501	11591.29
696.847	11594.23
697.193	11555.13
697.539	11548.81
697.885	11430.17
698.231	11379.55
698.577	11351.98
698.923	11280.79
699.269	11250.06
699.614	11224.3
699.96	11137.07
700.306	11159.89
700.651	11218.65
700.997	11102.94
701.342	11040.57
701.688	10998.54
702.033	10980.23
702.379	10916.05
702.724	10866.79
703.069	10944.98
703.415	10822.5
703.76	10775.04
704.105	10749.96
704.45	10795.38
704.795	10686.46
705.14	10673.12
705.485	10649.17
705.83	10644.42
706.175	10638.1
706.52	10601.94
706.865	10472.22
707.209	10571.66
707.554	10429.51
707.899	10488.95
708.243	10465.9
708.588	10417.99
708.932	10286.69
709.277	10335.51
709.621	10281.5
709.966	10234.49
710.31	10238.56
710.654	10166.92
710.998	10177.77
711.342	10219.35
711.687	10160.82
712.031	10164.66
712.375	10046.25
712.719	10059.81
713.063	10059.13
713.407	10100.48
713.75	10029.75
714.094	10050.09
714.438	9974.84
714.782	9964.44
715.125	9897.32
715.469	9957.66
715.812	9861.39
716.156	9851.22
716.499	9890.55
716.843	9796.54
717.186	9787.72
717.53	9885.57
717.873	9841.28
718.216	9835.86
718.559	9768.97
718.902	9712.47
719.246	9772.13
719.589	9660.27
719.932	9672.47
720.275	9667.27
720.617	9701.62
720.96	9622.3
721.303	9638.8
721.646	9641.74
721.989	9613.26
722.331	9632.02
722.674	9600.16
723.016	9614.62
723.359	9570.33
723.701	9529.2
724.044	9523.55
724.386	9464.34
724.729	9498.69
725.071	9454.62
725.413	9484.45
725.755	9486.49
726.097	9489.43
726.439	9390.9
726.782	9454.62
727.124	9474.74
727.465	9448.52
727.807	9416.66
728.149	9434.51
728.491	9424.34
728.833	9407.17
729.175	9328.75
729.516	9365.14
729.858	9390.9
730.199	9363.78
730.541	9364.23
730.882	9340.95
731.224	9380.95
731.565	9302.09
731.906	9343.21
732.248	9366.27
732.589	9311.13
732.93	9270
733.271	9329.43
733.612	9336.66
733.953	9342.08
734.294	9354.97
734.635	9317.9
734.976	9382.54
735.317	9266.15
735.658	9275.65
735.999	9285.82
736.339	9268.87
736.68	9262.09
737.021	9305.48
737.361	9285.59
737.702	9343.67
738.042	9340.73
738.383	9246.04
738.723	9370.11
739.063	9275.87
739.404	9416.66
739.744	9312.03
740.084	9380.05
740.424	9304.57
740.764	9304.8
741.104	9373.5
741.444	9311.58
741.784	9315.19
742.124	9400.61
742.464	9359.49
742.804	9354.97
743.143	9454.4
743.483	9508.86
743.823	9425.7
744.162	9488.97
744.502	9527.62
744.841	9493.49
745.181	9578.69
745.52	9554.96
745.86	9610.78
746.199	9689.42
746.538	9586.37
746.877	9695.3
747.216	9771.23
747.556	9846.7
747.895	9870.88
748.234	9871.79
748.573	9945.68
748.911	9983.65
749.25	9993.82
749.589	10094.61
749.928	10186.36
750.267	10192.23
750.605	10178.22
750.944	10202.4
751.283	10256.64
751.621	10429.74
751.96	10458.21
752.298	10579.11
752.636	10692.33
752.975	10759.22
753.313	10747.47
753.651	10956.51
753.989	10995.15
754.327	10993.57
754.666	11126.9
755.004	11295.48
755.342	11489.6
755.679	11522.14
756.017	11575.7
756.355	11802.36
756.693	11918.74
757.031	12055.01
757.368	12075.35
757.706	12264.04
758.044	12422.68
758.381	12546.75
758.719	12685.05
759.056	12826.51
759.394	12959.16
759.731	13052.5
760.068	13179.27
760.405	13325.71
760.743	13469.66
761.08	13657.68
761.417	13775.41
761.754	14009.76
762.091	14101.73
762.428	14237.1
762.765	14382.18
763.102	14564.32
763.438	14641.38
763.775	14797.76
764.112	15037.98
764.449	15210.18
764.785	15295.83
765.122	15373.11
765.458	15449.27
765.795	15671.41
766.131	15822.14
766.467	15930.16
766.804	16097.84
767.14	16095.81
767.476	16322.92
767.812	16364.73
768.148	16572.18
768.485	16668.22
768.821	16692.4
769.157	16850.14
769.492	17026.18
769.828	17170.35
770.164	17185.04
770.5	17238.6
770.836	17343
771.171	17411.25
771.507	17583.68
771.842	17565.82
772.178	17679.94
772.513	17849.66
772.849	17962.88
773.184	17900.96
773.519	18004.23
773.855	18053.72
774.19	18158.8
774.525	18139.82
774.86	18265.69
775.195	18396.54
775.53	18435.63
775.865	18363.32
776.2	18316.31
776.535	18379.59
776.87	18474.05
777.205	18499.13
777.539	18398.12
777.874	18670.2
778.209	18460.04
778.543	18505.01
778.878	18606.25
779.212	18707.71
779.547	18556.53
779.881	18759.92
780.215	18629.3
780.55	18801.72
780.884	18676.53
781.218	18758.79
781.552	18781.61
781.886	18673.82
782.22	18658.45
782.554	18674.27
782.888	18583.65
783.222	18541.39
783.556	18532.13
783.889	18601.05
784.223	18557.66
784.557	18546.14
784.89	18476.31
785.224	18472.24
785.557	18491
785.891	18405.58
786.224	18429.53
786.558	18450.55
786.891	18369.19
787.224	18377.33
787.557	18268.63
787.891	18467.95
788.224	18346.82
788.557	18316.54
788.89	18278.12
789.223	18373.71
789.556	18219.59
789.888	18257.33
790.221	18218.91
790.554	18179.82
790.887	18169.65
791.219	18032.7
791.552	18091.23
791.884	18029.77
792.217	18001.29
792.549	17955.64
792.882	17867.96
793.214	17819.83
793.546	17875.42
793.879	17728.08
794.211	17732.6
794.543	17680.17
794.875	17691.47
795.207	17796.78
795.539	17550
795.871	17759.04
796.203	17539.84
796.535	17436.56
796.867	17456
797.198	17387.07
797.53	17352.95
797.862	17288.99
798.193	17306.62
798.525	17239.28
798.856	17230.69
799.188	17054.2
799.519	17041.54
799.85	17014.2
800.182	17049.9
800.513	17061.43
800.844	16901.43
801.175	16958.83
801.506	16964.94
801.837	16857.82
802.168	16804.49
802.499	16720.42
802.83	16728.11
803.161	16572.86
803.491	16700.31
803.822	16605.62
804.153	16590.48
804.483	16476.36
804.814	16420.32
805.145	16414.67
805.475	16393.2
805.805	16443.14
806.136	16362.92
806.466	16286.31
806.796	16326.08
807.126	16116.6
807.457	16177.39
807.787	16212.86
808.117	16140.78
808.447	16020.55
808.777	16035.47
809.107	16066.2
809.436	15959.99
809.766	15941.69
810.096	15855.36
810.426	15722.26
810.755	15931.52
811.085	15757.28
811.414	15807.45
811.744	15770.62
812.073	15656.5
812.403	15734.69
812.732	15690.39
813.061	15665.31
813.39	15512.09
813.719	15555.48
814.049	15575.14
814.378	15517.74
814.707	15399.78
815.036	15519.32
815.365	15407.24
815.693	15348.25
816.022	15315.49
816.351	15193.23
816.68	15223.06
817.008	15183.97
817.337	15084.98
817.665	15160.69
817.994	15137.41
818.322	15029.17
818.651	15139.67
818.979	15067.13
819.307	15109.62
819.636	15033.69
819.964	14978.77
820.292	15029.39
820.62	14987.36
820.948	14957.98
821.276	15008.15
821.604	14942.16
821.932	14988.72
822.259	14882.5
822.587	14889.74
822.915	14823.07
823.243	14883.18
823.57	14801.6
823.898	14903.52
824.225	14772.9
824.553	14839.12
824.88	14877.31
825.207	14932.9
825.535	14812.9
825.862	14934.48
826.189	14854.48
826.516	14787.37
826.843	14908.27
827.17	14891.54
827.497	14854.93
827.824	14858.55
828.151	14926.57
828.478	14973.12
828.805	14937.42
829.131	14879.57
829.458	14834.82
829.785	14802.73
830.111	14942.16
830.438	14986
830.764	14870.53
831.09	14911.2
831.417	14894.03
831.743	14873.24
832.069	14908.94
832.395	14807.25
832.722	14845.22
833.048	14763.64
833.374	14806.57
833.7	14807.93
834.026	14786.91
834.351	14801.38
834.677	14846.8
835.003	14804.09
835.329	14787.14
835.654	14771.32
835.98	14647.03
836.306	14718.67
836.631	14634.6
836.956	14824.88
837.282	14659.23
837.607	14652.45
837.932	14564.55
838.258	14582.85
838.583	14643.41
838.908	14530.2
839.233	14593.02
839.558	14474.15
839.883	14427.6
840.208	14419.24
840.533	14345.57
840.858	14417.43
841.182	14380.82
841.507	14394.83
841.832	14325.46
842.156	14356.19
842.481	14276.42
842.805	14290.2
843.13	14204.1
843.454	14144.44
843.778	14139.02
844.103	14164.33
844.427	14043.66
844.751	14118.23
845.075	13980.61
845.399	13985.58
845.723	13878.91
846.047	14000.04
846.371	13782.42
846.695	13823.55
847.019	13660.16
847.343	13687.96
847.666	13566.83
847.99	13425.82
848.313	13471.69
848.637	13425.14
848.96	13366.61
849.284	13365.71
849.607	13228.08
849.931	13214.07
850.254	13154.64
850.577	13040.52
850.9	12989.22
851.223	13011.14
851.546	12977.7
851.869	12845.72
852.192	12887.08
852.515	12694.99
852.838	12774.09
853.161	12723.69
853.483	12597.82
853.806	12597.82
854.129	12687.53
854.451	12554.2
854.774	12515.33
855.096	12406.64
855.419	12420.2
855.741	12423.36
856.063	12359.86
856.385	12286.41
856.708	12250.48
857.03	12263.36
857.352	12268.11
857.674	12119.86
857.996	12105.18
858.318	12034.22
858.64	12099.98
858.961	12015.69
859.283	12042.8
859.605	11950.15
859.926	11947.44
860.248	11866.09
860.57	11869.48
860.891	11842.36
861.212	11739.31
861.534	11727.78
861.855	11732.3
862.176	11686.2
862.498	11741.34
862.819	11694.79
863.14	11719.2
863.461	11605.53
863.782	11650.95
864.103	11663.61
864.424	11515.81
864.745	11577.96
865.065	11506.1
865.386	11450.28
865.707	11440.56
866.027	11492.08
866.348	11473.1
866.668	11481.92
866.989	11402.6
867.309	11276.5
867.63	11354.01
867.95	11368.02
868.27	11349.04
868.59	11280.34
868.91	11313.33
869.23	11233.33
869.55	11178.87
869.87	11204.18
870.19	11185.2
870.51	11224.3
870.83	11193.34
871.15	11104.75
871.469	11093.23
871.789	11165.54
872.109	11158.31
872.428	11060.91
872.748	11134.13
873.067	11071.76
873.386	11037.63
873.706	11072.43
874.025	11004.87
874.344	10897.75
874.663	10984.53
874.982	10891.65
875.301	10976.62
875.62	10824.08
875.939	10834.02
876.258	10815.94
876.577	10817.53
876.896	10819.33
877.214	10819.33
877.533	10780.01
877.852	10759.9
878.17	10777.08
878.489	10750.86
878.807	10792.67
879.125	10756.51
879.444	10750.64
879.762	10726.68
880.08	10718.55
880.398	10652.11
880.716	10669.28
881.034	10546.12
881.352	10590.19
881.67	10543.18
881.988	10474.03
882.306	10551.77
882.624	10511.77
882.941	10458.67
883.259	10452.34
883.577	10382.74
883.894	10374.6
884.212	10408.95
884.529	10340.48
884.846	10365.11
885.164	10290.08
885.481	10283.76
885.798	10284.21
886.115	10221.84
886.432	10194.27
886.75	10147.49
887.067	10172.8
887.383	10065.23
887.7	10126.7
888.017	10069.07
888.334	10101.39
888.651	10095.96
888.967	9981.84
889.284	9917.44
889.6	9962.86
889.917	9873.14
890.233	9895.29
890.55	9803.77
890.866	9812.58
891.182	9827.95
891.498	9734.62
891.815	9756.09
892.131	9695.97
892.447	9648.29
892.763	9620.5
893.079	9636.77
893.395	9599.71
893.71	9559.25
894.026	9588.18
894.342	9541.18
894.657	9483.55
894.973	9439.48
895.289	9442.42
895.604	9383.67
895.92	9324.46
896.235	9299.15
896.55	9233.84
896.865	9212.6
897.181	9251.69
897.496	9208.76
897.811	9154.97
898.126	9166.27
898.441	9075.43
898.756	9007.18
899.071	8987.29
899.386	9025.71
899.7	8930.34
900.015	8912.72
900.33	8850.12
900.644	8829.78
900.959	8878.59
901.273	8789.11
901.588	8703.68
901.902	8711.14
902.216	8696.9
902.531	8721.99
902.845	8608.77
903.159	8579.17
903.473	8601.99
903.787	8503.46
904.101	8484.25
904.415	8478.6
904.729	8433.86
905.042	8425.95
905.356	8404.26
905.67	8403.8
905.984	8358.16
906.297	8328.33
906.611	8294.43
906.924	8255.56
907.237	8216.92
907.551	8179.86
907.864	8158.16
908.177	8120.42
908.491	8058.5
908.804	8081.33
909.117	7964.49
909.43	7983.7
909.743	7886.53
910.056	7879.3
910.368	7888.79
910.681	7875.91
910.994	7864.16
911.307	7791.39
911.619	7796.36
911.932	7775.57
912.244	7662.81
912.557	7673.2
912.869	7548.69
913.181	7598.85
913.494	7612.86
913.806	7437.05
914.118	7484.28
914.43	7413.77
914.742	7372.19
915.054	7383.49
915.366	7415.58
915.678	7405.86
915.99	7305.08
916.302	7250.61
916.613	7201.58
916.925	7233.44
917.236	7225.08
917.548	7160.22
917.859	7149.37
918.171	7129.94
918.482	7041.58
918.794	7000.45
919.105	7042.26
919.416	6976.27
919.727	6964.75
920.038	6964.52
920.349	6899.44
920.66	6869.38
920.971	6809.95
921.282	6814.47
921.593	6788.25
921.903	6765.43
922.214	6722.49
922.525	6701.48
922.835	6658.09
923.146	6632.55
923.456	6524.08
923.767	6589.84
924.077	6608.37
924.387	6553.68
924.697	6518.66
925.008	6480.01
925.318	6450.18
925.628	6470.07
925.938	6391.65
926.248	6412.67
926.558	6359.56
926.867	6311.66
927.177	6304.88
927.487	6269.62
927.796	6194.15
928.106	6223.97
928.416	6160.02
928.725	6181.26
929.034	6117.99
929.344	6199.12
929.653	6108.95
929.962	6078.44
930.271	6102.62
930.581	6034.6
930.89	6039.35
931.199	5992.34
931.508	5941.27
931.817	5988.05
932.125	5935.17
932.434	5876.19
932.743	5899.24
933.051	5788.73
933.36	5810.65
933.669	5742.18
933.977	5720.71
934.286	5708.73
934.594	5754.83
934.902	5726.36
935.21	5652.92
935.519	5650.66
935.827	5643.43
936.135	5625.8
936.443	5564.11
936.751	5516.87
937.059	5544.44
937.367	5510.1
937.674	5533.6
937.982	5446.59
938.29	5442.75
938.597	5453.15
938.905	5374.96
939.213	5316.43
939.52	5349.65
939.827	5340.83
940.135	5285.69
940.442	5263.77
940.749	5246.15
941.056	5252.02
941.363	5212.02
941.67	5162.53
941.977	5163.44
942.284	5099.71
942.591	5110.11
942.898	5026.27
943.205	5084.8
943.511	5038.47
943.818	5015.42
944.125	4993.5
944.431	4966.61
944.738	4951.92
945.044	4953.5
945.35	4900.62
945.657	4889.09
945.963	4885.03
946.269	4873.95
946.575	4829.44
946.881	4806.16
947.187	4836.44
947.493	4806.84
947.799	4803.67
948.105	4717.35
948.41	4675.54
948.716	4643.9
949.022	4676.67
949.327	4684.13
949.633	4607.97
949.938	4591.02
950.244	4596.67
950.549	4552.61
950.854	4544.02
951.16	4538.14
951.465	4498.14
951.77	4500.4
952.075	4468.99
952.38	4470.35
952.685	4449.78
952.99	4368.66
953.294	4413.4
953.599	4358.04
953.904	4333.85
954.209	4341.99
954.513	4357.58
954.818	4295.21
955.122	4314.19
955.426	4275.78
955.731	4233.97
956.035	4228.1
956.339	4184.48
956.643	4192.16
956.948	4154.65
957.252	4165.05
957.556	4148.55
957.86	4113.97
958.163	4095.44
958.467	4075.1
958.771	4056.35
959.075	4059.74
959.378	4069.46
959.682	4019.74
959.985	3989.01
960.289	4003.02
960.592	3993.07
960.896	3959.18
961.199	3948.33
961.502	3923.24
961.805	3912.4
962.108	3894.54
962.411	3859.52
962.714	3834.21
963.017	3827.2
963.32	3840.53
963.623	3782.68
963.926	3735.45
964.228	3796.69
964.531	3825.39
964.833	3742.23
965.136	3751.05
965.438	3694.55
965.741	3691.61
966.043	3687.32
966.345	3642.35
966.648	3662.46
966.95	3635.12
967.252	3593.54
967.554	3591.73
967.856	3584.95
968.158	3587.43
968.46	3556.25
968.761	3512.18
969.063	3556.93
969.365	3487.32
969.666	3458.4
969.968	3450.71
970.269	3437.61
970.571	3446.19
970.872	3427.21
971.174	3406.2
971.475	3392.86
971.776	3419.08
972.077	3344.28
972.378	3336.82
972.679	3365.29
972.98	3326.2
973.281	3335.24
973.582	3300.89
973.883	3304.28
974.183	3249.82
974.484	3265.41
974.785	3249.36
975.085	3220.89
975.386	3242.36
975.686	3212.75
975.986	3191.51
976.287	3168.24
976.587	3156.94
976.887	3118.97
977.187	3168.69
977.487	3101.8
977.787	3096.6
978.087	3117.62
978.387	3033.55
978.687	3084.62
978.987	3032.19
979.286	3024.96
979.586	3010.95
979.885	3002.14
980.185	2967.79
980.484	2971.4
980.784	2982.48
981.083	2950.16
981.382	2957.85
981.682	2932.76
981.981	2881.69
982.28	2881.69
982.579	2869.03
982.878	2879.43
983.177	2873.33
983.475	2829.49
983.774	2828.81
984.073	2791.3
984.372	2777.51
984.67	2786.33
984.969	2786.78
985.267	2775.7
985.566	2764.18
985.864	2753.78
986.162	2776.38
986.461	2713.78
986.759	2716.04
987.057	2697.06
987.355	2653.22
987.653	2667.46
987.951	2666.1
988.249	2662.03
988.547	2633.33
988.844	2607.57
989.142	2638.08
989.44	2576.16
989.737	2585.88
990.035	2565.54
990.332	2532.32
990.63	2556.95
990.927	2560.34
991.224	2530.96
991.521	2551.3
991.819	2510.17
992.116	2516.05
992.413	2493.45
992.71	2495.94
993.006	2454.81
993.303	2474.24
993.6	2450.74
993.897	2446.45
994.193	2438.09
994.49	2391.08
994.787	2401.93
995.083	2429.5
995.379	2341.36
995.676	2319.9
995.972	2362.61
996.268	2323.96
996.565	2355.38
996.861	2318.09
997.157	2329.84
997.453	2274.93
997.749	2291.87
998.044	2296.17
998.34	2272.44
998.636	2259.33
998.932	2218.2
999.227	2250.52
999.523	2192.22
999.818	2188.15
1000.114	2159
1000.409	2199.45
1000.704	2182.95
1001	2115.16
1001.295	2121.26
1001.59	2141.82
1001.885	2150.41
1002.18	2103.18
1002.475	2101.6
1002.77	2067.47
1003.065	2067.47
1003.359	2048.49
1003.654	2059.56
1003.949	2044.2
1004.243	2033.35
1004.538	2048.49
1004.832	2025.89
1005.127	2005.33
1005.421	1964.43
1005.715	1963.07
1006.009	1980.7
1006.304	1941.38
1006.598	1941.83
1006.892	1929.4
1007.186	1908.83
1007.48	1951.09
1007.773	1882.85
1008.067	1895.05
1008.361	1882.39
1008.655	1855.28
1008.948	1840.81
1009.242	1849.17
1009.535	1839.46
1009.829	1838.78
1010.122	1798.1
1010.415	1779.57
1010.708	1795.39
1011.001	1793.58
1011.295	1769.63
1011.588	1750.87
1011.881	1729.18
1012.173	1754.49
1012.466	1699.57
1012.759	1724.21
1013.052	1720.14
1013.344	1717.65
1013.637	1693.47
1013.93	1672.46
1014.222	1684.89
1014.514	1662.51
1014.807	1653.7
1015.099	1631.55
1015.391	1644.66
1015.683	1613.7
1015.976	1626.58
1016.268	1603.76
1016.56	1587.71
1016.851	1594.72
1017.143	1594.04
1017.435	1570.99
1017.727	1563.76
1018.018	1543.19
1018.31	1535.96
1018.602	1522.4
1018.893	1539.13
1019.185	1489.18
1019.476	1496.87
1019.767	1493.25
1020.058	1456.19
1020.35	1436.53
1020.641	1443.31
1020.932	1466.36
1021.223	1415.74
1021.514	1429.52
1021.804	1386.81
1022.095	1408.96
1022.386	1407.83
1022.677	1383.2
1022.967	1413.93
1023.258	1371
1023.548	1344.78
1023.839	1374.38
1024.129	1339.81
1024.419	1350.2
1024.709	1323.54
1025	1298.68
1025.29	1309.3
1025.58	1285.12
1025.87	1305.46
1026.16	1284.22
1026.449	1302.97
1026.739	1275.63
1027.029	1281.05
1027.319	1239.47
1027.608	1249.19
1027.898	1238.57
1028.187	1218
1028.477	1215.29
1028.766	1211.23
1029.055	1180.49
1029.344	1212.13
1029.634	1206.93
1029.923	1187.72
1030.212	1193.82
1030.501	1169.19
1030.79	1178.68
1031.078	1165.8
1031.367	1135.3
1031.656	1145.46
1031.945	1125.35
1032.233	1106.82
1032.522	1110.21
1032.81	1099.36
1033.099	1107.27
1033.387	1104.56
1033.675	1089.87
1033.963	1091.23
1034.251	1090.55
1034.54	1053.26
1034.828	1054.39
1035.116	1064.11
1035.403	1046.26
1035.691	1065.69
1035.979	1015.3
1036.267	1029.08
1036.554	999.93
1036.842	994.51
1037.129	1004.68
1037.417	994.28
1037.704	1019.59
1037.992	976.88
1038.279	993.6
1038.566	972.59
1038.853	972.59
1039.14	972.59
