Data from hue_300_FLMS001491_00086.txt Node
Date: Tue Feb 07 15:51:20 GMT 2017
User: dcchb
Spectrometer: FLMS00149
Trigger mode: 0
Integration Time (sec): 2.000000E-2
Scans to average: 10
Electric dark correction enabled: true
Nonlinearity correction enabled: false
Boxcar width: 0
XAxis mode: Wavelengths
Number of Pixels in Spectrum: 2048
>>>>>Begin Spectral Data<<<<<
341.393	-9.89
341.776	-9.89
342.16	-9.89
342.543	-74.29
342.927	-58.25
343.31	-67.29
343.693	-59.6
344.077	-86.04
344.46	-57.12
344.843	-40.17
345.226	-38.81
345.61	-34.97
345.993	-24.8
346.376	0.73
346.759	39.6
347.142	25.82
347.525	30.79
347.908	56.1
348.291	82.31
348.674	68.98
349.057	104.46
349.44	128.41
349.823	137.68
350.206	178.81
350.588	200.05
350.971	208.41
351.354	223.1
351.737	236.89
352.119	245.02
352.502	254.06
352.884	275.3
353.267	273.72
353.65	284.34
354.032	303.55
354.414	290.9
354.797	309.65
355.179	321.18
355.562	326.15
355.944	313.72
356.326	336.32
356.709	294.51
357.091	332.25
357.473	356.88
357.855	338.35
358.238	341.97
358.62	336.77
359.002	352.59
359.384	336.32
359.766	333.38
360.148	344
360.53	334.74
360.912	325.02
361.294	339.26
361.676	329.99
362.057	341.52
362.439	334.51
362.821	332.93
363.203	340.61
363.584	344.68
363.966	313.49
364.348	337.9
364.729	349.88
365.111	332.93
365.493	331.57
365.874	325.47
366.256	318.47
366.637	287.96
367.019	315.53
367.4	326.38
367.781	320.95
368.163	325.02
368.544	319.82
368.925	313.27
369.306	308.75
369.688	315.98
370.069	317.79
370.45	321.86
370.831	315.53
371.212	316.88
371.593	316.66
371.974	306.49
372.355	318.01
372.736	338.35
373.117	343.1
373.498	340.16
373.879	324.34
374.26	318.92
374.641	320.27
375.021	330.9
375.402	325.7
375.783	322.76
376.163	317.11
376.544	338.35
376.925	329.54
377.305	337.45
377.686	327.05
378.066	326.83
378.447	348.75
378.827	349.2
379.208	334.28
379.588	337.9
379.968	338.58
380.349	350.56
380.729	339.48
381.109	336.09
381.489	338.8
381.87	323.89
382.25	336.54
382.63	345.36
383.01	343.78
383.39	343.1
383.77	358.69
384.15	343.55
384.53	336.77
384.91	365.47
385.29	382.19
385.67	349.2
386.049	386.71
386.429	352.82
386.809	378.58
387.189	358.24
387.568	389.65
387.948	366.83
388.328	364.34
388.707	389.42
389.087	359.37
389.466	362.98
389.846	377.22
390.225	386.49
390.605	382.19
390.984	388.29
391.363	385.81
391.743	376.09
392.122	406.83
392.501	386.04
392.881	395.75
393.26	388.52
393.639	422.64
394.018	415.41
394.397	415.19
394.776	401.18
395.155	417.45
395.534	398.01
395.913	407.73
396.292	413.83
396.671	419.93
397.05	413.15
397.429	428.07
397.808	439.59
398.186	421.97
398.565	419.71
398.944	418.58
399.323	416.77
399.701	424.9
400.08	417.22
400.458	471.23
400.837	449.76
401.215	469.65
401.594	438.46
401.972	459.93
402.351	452.02
402.729	464
403.107	460.61
403.486	474.17
403.864	460.38
404.242	479.59
404.62	472.13
404.999	478.24
405.377	499.7
405.755	494.96
406.133	521.17
406.511	488.18
406.889	498.57
407.267	520.27
407.645	538.8
408.023	532.47
408.401	560.72
408.779	545.58
409.156	544
409.534	579.7
409.912	537.9
410.29	552.36
410.667	606.37
411.045	564.56
411.422	608.4
411.8	611.79
412.178	619.02
412.555	617.22
412.933	637.33
413.31	653.15
413.687	649.98
414.065	676.65
414.442	668.74
414.819	667.61
415.197	699.47
415.574	727.04
415.951	684.56
416.328	733.37
416.705	722.75
417.082	746.93
417.46	754.39
417.837	761.84
418.214	771.34
418.591	763.43
418.967	785.35
419.344	781.28
419.721	826.48
420.098	815.63
420.475	832.58
420.852	842.97
421.228	842.97
421.605	849.75
421.982	874.16
422.358	866.7
422.735	889.52
423.111	936.3
423.488	899.47
423.864	931.33
424.241	930.2
424.617	964.78
424.994	962.29
425.37	955.29
425.746	962.29
426.123	981.27
426.499	986.47
426.875	1016.75
427.251	1023.53
427.627	1040.71
428.003	1034.15
428.379	1064.21
428.756	1100.59
429.132	1129.07
429.507	1110.08
429.883	1098.56
430.259	1144.21
430.635	1115.06
431.011	1137.43
431.387	1162.51
431.763	1205.45
432.138	1188.73
432.514	1214.49
432.89	1227.59
433.265	1246.58
433.641	1294.03
434.016	1276.86
434.392	1319.12
434.767	1307.82
435.143	1330.19
435.518	1334.71
435.894	1353.92
436.269	1386.23
436.644	1383.3
437.02	1357.31
437.395	1379.68
437.77	1413.35
438.145	1450.87
438.52	1438.21
438.895	1469.62
439.271	1499
439.646	1474.82
440.021	1515.27
440.395	1487.48
440.77	1520.69
441.145	1522.5
441.52	1552.78
441.895	1535.16
442.27	1542.84
442.645	1563.41
443.019	1561.15
443.394	1558.21
443.769	1589.62
444.143	1592.11
444.518	1605.66
444.892	1582.84
445.267	1624.42
445.641	1604.99
446.016	1644.31
446.39	1624.65
446.764	1636.62
447.139	1641.14
447.513	1651.09
447.887	1626.45
448.262	1650.41
448.636	1658.32
449.01	1679.11
449.384	1669.39
449.758	1689.96
450.132	1721.37
450.506	1735.38
450.88	1708.03
451.254	1740.12
451.628	1725.89
452.002	1771.08
452.376	1750.07
452.75	1786
453.123	1774.25
453.497	1807.01
453.871	1815.6
454.244	1810.86
454.618	1844.08
454.992	1865.54
455.365	1856.5
455.739	1882.04
456.112	1888.37
456.486	1920.46
456.859	1931.08
457.232	1946.67
457.606	1963.62
457.979	1964.98
458.352	2002.26
458.725	2000.23
459.099	2002.49
459.472	2055.14
459.845	2048.14
460.218	2091.75
460.591	2069.83
460.964	2099.66
461.337	2135.82
461.71	2161.13
462.083	2159.55
462.456	2154.8
462.829	2149.38
463.201	2183.5
463.574	2196.83
463.947	2233.44
464.32	2248.13
464.692	2253.1
465.065	2295.59
465.438	2300.33
465.81	2314.57
466.183	2333.78
466.555	2371.29
466.928	2423.27
467.3	2392.54
467.672	2434.12
468.045	2456.72
468.417	2469.6
468.789	2496.71
469.161	2536.26
469.534	2502.59
469.906	2576.49
470.278	2553.66
470.65	2568.35
471.022	2613.55
471.394	2673.21
471.766	2698.52
472.138	2676.37
472.51	2738.74
472.882	2771.51
473.253	2766.09
473.625	2825.74
473.997	2859.42
474.369	2889.02
474.74	2885.18
475.112	2953.2
475.484	2983.25
475.855	3013.54
476.227	3024.84
476.598	3080.65
476.97	3085.17
477.341	3183.02
477.713	3141.89
478.084	3158.39
478.455	3269.58
478.827	3281.33
479.198	3341.66
479.569	3361.32
479.94	3374.66
480.311	3413.53
480.682	3468.21
481.053	3514.54
481.424	3577.36
481.795	3602.22
482.166	3640.64
482.537	3686.06
482.908	3759.05
483.279	3735.55
483.65	3781.65
484.021	3851.93
484.391	3847.64
484.762	3911.82
485.133	3905.49
485.503	3925.6
485.874	4021.65
486.244	4059.84
486.615	4055.09
486.985	4134.64
487.356	4167.63
487.726	4211.25
488.097	4265.71
488.467	4258.25
488.837	4378.7
489.207	4343.9
489.578	4455.98
489.948	4475.87
490.318	4496.89
490.688	4489.43
491.058	4520.84
491.428	4604.91
491.798	4614.17
492.168	4745.69
492.538	4699.37
492.908	4808.29
493.278	4775.07
493.648	4797.22
494.017	4844.45
494.387	4879.02
494.757	4894.84
495.126	4962.41
495.496	4954.05
495.866	4966.71
496.235	5000.38
496.605	5062.97
496.974	5015.97
497.344	5109.3
497.713	5114.95
498.082	5148.62
498.452	5203.99
498.821	5225.46
499.19	5190.88
499.559	5289.18
499.928	5278.34
500.298	5282.63
500.667	5319.01
501.036	5299.35
501.405	5383.64
501.774	5373.47
502.143	5412.57
502.512	5429.74
502.88	5407.15
503.249	5460.93
503.618	5529.18
503.987	5470.87
504.356	5518.33
504.724	5554.49
505.093	5572.57
505.462	5585.22
505.83	5627.71
506.199	5637.87
506.567	5681.72
506.936	5676.74
507.304	5730.98
507.672	5763.97
508.041	5718.1
508.409	5825.21
508.777	5791.32
509.145	5829.96
509.514	5867.02
509.882	5830.86
510.25	5902.73
510.618	5926
510.986	5905.44
511.354	5897.98
511.722	5930.07
512.09	5998.32
512.458	5974.81
512.826	6058.88
513.193	6048.03
513.561	6054.36
513.929	6096.39
514.297	6130.52
514.664	6165.32
515.032	6183.85
515.4	6210.74
515.767	6183.17
516.135	6205.09
516.502	6224.53
516.869	6278.31
517.237	6289.61
517.604	6294.13
517.972	6309.95
518.339	6351.3
518.706	6348.82
519.073	6368.48
519.44	6406.22
519.808	6403.73
520.175	6415.71
520.542	6500.45
520.909	6491.41
521.276	6489.6
521.643	6526.21
522.009	6550.17
522.376	6619.09
522.743	6638.98
523.11	6630.39
523.477	6703.61
523.843	6753.33
524.21	6757.17
524.577	6808.47
524.943	6820.67
525.31	6849.37
525.676	6898.63
526.043	6955.58
526.409	6954.45
526.776	7017.95
527.142	7061.57
527.508	7043.94
527.874	7116.25
528.241	7149.25
528.607	7187.66
528.973	7214.1
529.339	7191.73
529.705	7290.94
530.071	7324.38
530.437	7325.97
530.803	7372.52
531.169	7436.7
531.535	7383.14
531.901	7454.1
532.267	7476.02
532.632	7534.55
532.998	7501.55
533.364	7624.49
533.73	7648.67
534.095	7648.22
534.461	7716.92
534.826	7718.95
535.192	7794.2
535.557	7820.64
535.923	7896.35
536.288	7798.04
536.653	7851.38
537.019	7926.63
537.384	7916.46
537.749	8017.47
538.114	7958.94
538.479	8044.82
538.845	8046.85
539.21	8021.99
539.575	8066.74
539.94	8129.11
540.305	8165.49
540.67	8165.94
541.034	8209.33
541.399	8278.71
541.764	8280.52
542.129	8361.87
542.494	8327.97
542.858	8390.34
543.223	8444.35
543.587	8454.52
543.952	8450
544.316	8445.94
544.681	8527.06
545.045	8593.05
545.41	8631.47
545.774	8658.36
546.138	8685.93
546.503	8748.08
546.867	8699.26
547.231	8795.76
547.595	8751.01
547.959	8847.96
548.324	8847.73
548.688	8803.89
549.052	8890.22
549.416	8943.1
549.779	8973.38
550.143	8968.86
550.507	9064
550.871	9045.47
551.235	9115.75
551.599	9148.06
551.962	9163.88
552.326	9121.62
552.689	9252.24
553.053	9155.97
553.417	9198.91
553.78	9352.13
554.143	9259.02
554.507	9308.06
554.87	9321.39
555.234	9468.51
555.597	9373.82
555.96	9498.79
556.323	9443.2
556.686	9408.85
557.05	9550.99
557.413	9567.04
557.776	9543.53
558.139	9686.36
558.502	9627.37
558.865	9635.51
559.228	9722.96
559.59	9753.25
559.953	9720.7
560.316	9789.4
560.679	9784.21
561.041	9870.08
561.404	9958.44
561.767	9989.62
562.129	9946.69
562.492	10055.84
562.854	10023.07
563.217	10024.2
563.579	10037.31
563.941	10120.02
564.304	10095.38
564.666	10201.37
565.028	10157.98
565.39	10214.25
565.753	10297.41
566.115	10351.42
566.477	10331.08
566.839	10376.28
567.201	10415.83
567.563	10430.52
567.925	10558.42
568.287	10493.57
568.648	10531.76
569.01	10609.95
569.372	10647.69
569.734	10701.24
570.095	10788.47
570.457	10801.58
570.819	10874.57
571.18	10865.31
571.542	10936.04
571.903	10968.81
572.265	10968.81
572.626	11079.31
572.987	11105.53
573.349	11126.77
573.71	11275.24
574.071	11347.78
574.432	11354.33
574.794	11547.32
575.155	11604.72
575.516	11522.69
575.877	11722.01
576.238	11725.17
576.599	11892.85
576.96	11855.34
577.32	12012.62
577.681	12128.33
578.042	12332.16
578.403	12334.65
578.763	12410.58
579.124	12577.13
579.485	12754.07
579.845	12826.84
580.206	13025.02
580.566	13121.75
580.927	13284.23
581.287	13439.25
581.648	13610.55
582.008	13812.35
582.368	13977.54
582.728	14276.07
583.089	14311.54
583.449	14569.62
583.809	14726.9
584.169	14983.62
584.529	15151.07
584.889	15524.39
585.249	15607.1
585.609	15848.91
585.969	16177.03
586.329	16441.66
586.688	16620.18
587.048	16961.19
587.408	17210.23
587.768	17445.7
588.127	17684.79
588.487	18000.94
588.846	18384.88
589.206	18519.34
589.565	18925.21
589.925	19279.1
590.284	19591.63
590.643	19898.74
591.003	20183.03
591.362	20644.26
591.721	20834.76
592.08	21301.87
592.44	21647.85
592.799	21971.46
593.158	22309.98
593.517	22572.34
593.876	22999.45
594.235	23151.54
594.593	23581.81
594.952	23985.64
595.311	24186.99
595.67	24642.57
596.029	25028.78
596.387	25526.16
596.746	25850.45
597.104	26143.55
597.463	26283.43
597.822	26858.56
598.18	27067.82
598.538	27302.62
598.897	27818.31
599.255	27794.81
599.613	28623.71
599.972	28896.47
600.33	29137.37
600.688	29280.42
601.046	29820.74
601.404	30103.22
601.762	30491.91
602.12	30815.29
602.478	31086.7
602.836	31475.61
603.194	31474.26
603.552	32010.74
603.91	32091.64
604.268	32650.72
604.625	32757.61
604.983	33087.55
605.341	33113.76
605.698	33513.3
606.056	34040.07
606.413	34175.66
606.771	34528.87
607.128	34682.99
607.485	34787.16
607.843	35135.86
608.2	35555.73
608.557	35906.68
608.914	36059.9
609.272	36439.55
609.629	36626.89
609.986	37049.93
610.343	36886.54
610.7	37467.09
611.057	37447.43
611.414	37617.6
611.771	38115.89
612.127	38336.45
612.484	38404.92
612.841	38649.44
613.198	38606.05
613.554	38726.5
613.911	39205.35
614.267	39337.78
614.624	39444.67
614.98	39646.47
615.337	39972.56
615.693	40086.01
616.05	40209.85
616.406	40541.14
616.762	40539.1
617.118	40756.95
617.475	40812.54
617.831	41138.41
618.187	41133.66
618.543	41332.98
618.899	41597.61
619.255	41721.45
619.611	41712.86
619.967	41995.11
620.323	42138.84
620.678	42265.16
621.034	42104.26
621.39	42319.85
621.746	42405.95
622.101	42979.04
622.457	42588.99
622.812	42788.76
623.168	43046.16
623.523	43122.76
623.879	43293.38
624.234	42982.2
624.589	43265.36
624.945	43420.84
625.3	43503.09
625.655	43633.94
626.01	43719.13
626.365	43686.14
626.72	43842.75
627.075	43952.8
627.43	43814.5
627.785	43941.95
628.14	44115.05
628.495	44219.23
628.85	43932.01
629.205	44007.03
629.559	44228.5
629.914	44204.09
630.269	44222.62
630.623	44360.7
630.978	44121.83
631.332	44447.48
631.687	44430.07
632.041	44288.61
632.396	44486.12
632.75	44319.57
633.104	44335.61
633.459	44168.84
633.813	44225.56
634.167	44278.44
634.521	44337.65
634.875	44362.05
635.229	44438.89
635.583	44152.57
635.937	44176.3
636.291	44258.33
636.645	44340.81
636.999	44273.02
637.352	44416.52
637.706	44141.49
638.06	44502.62
638.413	44218.1
638.767	44152.79
639.121	44338.33
639.474	44067.15
639.828	44126.13
640.181	44226.69
640.534	44384.43
640.888	44100.82
641.241	44019.46
641.594	44106.24
641.947	44281.38
642.301	44041.38
642.654	44105.79
643.007	44172.23
643.36	43963.19
643.713	44056.98
644.066	44262.85
644.419	43908.51
644.771	43705.35
645.124	43215.87
645.477	43266.04
645.83	43076.66
646.182	42933.84
646.535	42938.81
646.888	42925.03
647.24	42756.22
647.593	42960.96
647.945	42995.31
648.298	42757.12
648.65	42698.37
649.002	42719.39
649.355	42864.01
649.707	42785.82
650.059	43044.8
650.411	43337.45
650.763	43440.27
651.115	43793.48
651.467	43748.74
651.819	43756.19
652.171	43575.18
652.523	43576.99
652.875	43638.23
653.227	43517.1
653.578	43657.89
653.93	43641.17
654.282	43468.97
654.633	43429.42
654.985	43505.58
655.337	43551.68
655.688	43577.67
656.039	43706.25
656.391	43360.95
656.742	43423.55
657.094	43458.8
657.445	43478.69
657.796	43353.27
658.147	43330.89
658.498	43446.82
658.849	43482.3
659.2	43431
659.551	43230.78
659.902	43339.26
660.253	43346.04
660.604	43374.96
660.955	43207.96
661.306	43393.04
661.656	43247.73
662.007	43302.42
662.358	43286.6
662.708	43293.61
663.059	43158.47
663.409	43033.28
663.76	43347.84
664.11	43052.26
664.461	43332.93
664.811	43288.41
665.161	43168.64
665.511	43160.96
665.862	43261.52
666.212	43281.18
666.562	43315.53
666.912	43186.72
667.262	43161.18
667.612	43143.33
667.962	43277.34
668.312	43162.99
668.662	43359.37
669.011	43200.5
669.361	43100.39
669.711	42993.95
670.06	43021.75
670.41	42960.28
670.76	42891.13
671.109	43141.97
671.459	43087.51
671.808	42940.62
672.157	43042.77
672.507	42793.51
672.856	42729.33
673.205	42989.66
673.554	42882.09
673.904	42731.36
674.253	43081.64
674.602	42924.13
674.951	42190.13
675.3	42076.01
675.649	42690.91
675.998	42833.05
676.346	42656.34
676.695	42779.72
677.044	42474.87
677.393	42574.76
677.741	42527.75
678.09	42545.6
678.438	42456.34
678.787	42565.04
679.135	42520.07
679.484	42207.31
679.832	42420.18
680.181	42095.67
680.529	42374.99
680.877	42196.46
681.225	42116.24
681.573	42361.88
681.922	42081.21
682.27	41930.93
682.618	42030.14
682.966	42051.15
683.314	41950.82
683.661	41876.92
684.009	41648.45
684.357	41684.38
684.705	41562.81
685.053	41615.23
685.4	41543.37
685.748	41300.67
686.095	41353.77
686.443	41128.01
686.79	41108.58
687.138	41260.21
687.485	41162.82
687.832	41112.42
688.18	41019.77
688.527	40830.4
688.874	40804.86
689.221	40825.42
689.568	40627.01
689.915	40574.13
690.262	40678.99
690.609	40288.71
690.956	40370.75
691.303	40249.17
691.65	40147.93
691.997	40150.41
692.344	39937.31
692.69	39876.97
693.037	39864.55
693.383	39606.02
693.73	39683.98
694.077	39520.15
694.423	39535.51
694.769	39418.46
695.116	39208.74
695.462	39194.96
695.808	39077.67
696.155	39257.78
696.501	38966.72
696.847	38875.19
697.193	38509.55
697.539	38673.39
697.885	38528.53
698.231	38328.09
698.577	38405.6
698.923	38318.37
699.269	38131.03
699.614	37943.01
699.96	37871.38
700.306	37887.42
700.651	37678.16
700.997	37708.22
701.342	37523.36
701.688	37469.13
702.033	37332.18
702.379	37377.6
702.724	37203.37
703.069	37328.34
703.415	36900.1
703.76	36992.08
704.105	36899.2
704.45	36832.31
704.795	36517.97
705.14	36444.97
705.485	36538.53
705.83	36300.57
706.175	36306.9
706.52	36179.67
706.865	36157.07
707.209	36203.4
707.554	35942.84
707.899	36000.24
708.243	35759.34
708.588	35783.3
708.932	35572
709.277	35626.69
709.621	35500.37
709.966	35310.31
710.31	35373.82
710.654	35175.18
710.998	35191.45
711.342	35242.52
711.687	35071.22
712.031	34875.75
712.375	34769.99
712.719	34877.56
713.063	34867.16
713.407	34957.56
713.75	34693.38
714.094	34526.83
714.438	34532.48
714.782	34630.33
715.125	34441.86
715.469	34414.74
715.812	34287.97
716.156	34079.84
716.499	34032.16
716.843	34047.52
717.186	33815.44
717.53	34072.61
717.873	33972.04
718.216	33866.74
718.559	33740.41
718.902	33550.81
719.246	33592.17
719.589	33534.99
719.932	33546.29
720.275	33394.43
720.617	33447.54
720.96	33282.12
721.303	33350.59
721.646	33370.7
721.989	33058.62
722.331	33192.4
722.674	33073.31
723.016	33101.56
723.359	33111.5
723.701	32982.01
724.044	32961.45
724.386	32657.95
724.729	32813.43
725.071	32686.2
725.413	32775.92
725.755	32680.33
726.097	32559.88
726.439	32369.6
726.782	32441.69
727.124	32565.98
727.465	32413.89
727.807	32449.82
728.149	32233.79
728.491	32240.11
728.833	32238.98
729.175	32106.56
729.516	32015.03
729.858	32021.14
730.199	31985.43
730.541	32111.08
730.882	31829.05
731.224	32019.33
731.565	31763.06
731.906	31815.27
732.248	31882.38
732.589	31622.05
732.93	31442.17
733.271	31616.4
733.612	31497.08
733.953	31569.17
734.294	31467.03
734.635	31315.39
734.976	31455.73
735.317	31235.17
735.658	31274.94
735.999	31249.4
736.339	31328.95
736.68	31187.94
737.021	31084.21
737.361	30985.68
737.702	31153.81
738.042	31097.54
738.383	31088.28
738.723	30980.26
739.063	31010.99
739.404	31007.15
739.744	30827.95
740.084	30780.94
740.424	30815.52
740.764	30764.9
741.104	30750.43
741.444	30698.68
741.784	30572.81
742.124	30763.32
742.464	30627.27
742.804	30558.58
743.143	30437.22
743.483	30528.07
743.823	30308.41
744.162	30273.61
744.502	30443.55
744.841	30176.44
745.181	30219.37
745.52	30243.78
745.86	30298.69
746.199	30152.71
746.538	30128.08
746.877	30152.94
747.216	30182.54
747.556	30034.3
747.895	29988.65
748.234	29935.99
748.573	29943.22
748.911	29937.8
749.25	29901.42
749.589	29794.08
749.928	29759.05
750.267	29823.91
750.605	29708.65
750.944	29704.13
751.283	29597.92
751.621	29720.63
751.96	29535.78
752.298	29533.97
752.636	29566.51
752.975	29420.98
753.313	29231.83
753.651	29506.17
753.989	29448.55
754.327	29318.61
754.666	29169.68
755.004	29226.41
755.342	29282.9
755.679	29239.06
756.017	29029.35
756.355	29007.2
756.693	28985.96
757.031	29027.32
757.368	28840.88
757.706	28857.6
758.044	28743.48
758.381	28793.42
758.719	28636.82
759.056	28830.03
759.394	28569.7
759.731	28433.66
760.068	28423.04
760.405	28372.87
760.743	28283.61
761.08	28345.98
761.417	28192.54
761.754	28166.77
762.091	28152.08
762.428	28014.24
762.765	27840.45
763.102	27953.22
763.438	27879.32
763.775	27572.44
764.112	27807.01
764.449	27648.14
764.785	27689.5
765.122	27322.5
765.458	27337.42
765.795	27253.8
766.131	27329.96
766.467	27133.35
766.804	27089.74
767.14	26967.03
767.476	26915.51
767.812	26844.1
768.148	26900.82
768.485	26658.79
768.821	26635.97
769.157	26582.41
769.492	26414.05
769.828	26506.48
770.164	26221.51
770.5	26137
770.836	26158.46
771.171	25944.91
771.507	25895.87
771.842	25725.48
772.178	25718.48
772.513	25669.66
772.849	25590.8
773.184	25476.22
773.519	25547.86
773.855	25351.25
774.19	25191.94
774.525	25112.39
774.86	25225.83
775.195	25203.46
775.53	25012.73
775.865	24845.28
776.2	24691.84
776.535	24626.3
776.87	24657.04
777.205	24414.33
777.539	24270.15
777.874	24467.89
778.209	24268.57
778.543	24237.84
778.878	24022.93
779.212	23925.98
779.547	23846.44
779.881	23890.05
780.215	23730.28
780.55	23806.66
780.884	23549.27
781.218	23493.9
781.552	23535.03
781.886	23476.05
782.22	23215.72
782.554	23138.43
782.888	22979.34
783.222	22962.39
783.556	23016.63
783.889	22860.25
784.223	22732.11
784.557	22593.59
784.89	22669.52
785.224	22524.66
785.557	22368.73
785.891	22311.79
786.224	22301.84
786.558	22258.68
786.891	21970.78
787.224	21933.27
787.557	21823.89
787.891	21879.03
788.224	21701.41
788.557	21859.14
788.89	21741.18
789.223	21728.07
789.556	21578.7
789.888	21477.91
790.221	21380.51
790.554	21221.65
790.887	21197.69
791.219	21156.11
791.552	21068.43
791.884	20992.27
792.217	20899.62
792.549	20762.22
792.882	20740.75
793.214	20566.3
793.546	20574.2
793.879	20489.46
794.211	20376.92
794.543	20412.63
794.875	20341.89
795.207	20386.64
795.539	20309.35
795.871	20264.16
796.203	19997.95
796.535	20011.51
796.867	19888.35
797.198	19909.59
797.53	19845.64
797.862	19818.97
798.193	19748.46
798.525	19558.86
798.856	19678.86
799.188	19437.74
799.519	19385.31
799.85	19264.63
800.182	19320.68
800.513	19253.79
800.844	19205.2
801.175	19194.35
801.506	19136.95
801.837	19017.41
802.168	19004.3
802.499	18946.45
802.83	18839.34
803.161	18799.79
803.491	18769.96
803.822	18682.28
804.153	18644.99
804.483	18512.56
804.814	18440.93
805.145	18478.21
805.475	18484.54
805.805	18427.59
806.136	18347.37
806.466	18255.4
806.796	18263.76
807.126	18155.96
807.457	18025.57
807.787	18080.26
808.117	17929.98
808.447	17970.21
808.777	17998.68
809.107	17875.29
809.436	17776.31
809.766	17885.24
810.096	17680.72
810.426	17597.79
810.755	17673.72
811.085	17608.63
811.414	17567.05
811.744	17452.25
812.073	17455.64
812.403	17480.5
812.732	17244.12
813.061	17340.17
813.39	17214.97
813.719	17218.36
814.049	17236.21
814.378	17193.28
814.707	17094.3
815.036	17082.77
815.365	17046.61
815.693	16793.29
816.022	16877.8
816.351	16690.92
816.68	16676.91
817.008	16761.88
817.337	16652.27
817.665	16561.2
817.994	16564.82
818.322	16556.01
818.651	16434.65
818.979	16424.26
819.307	16487.31
819.636	16506.74
819.964	16364.37
820.292	16377.48
820.62	16351.72
820.948	16222.23
821.276	16346.07
821.604	16227.65
821.932	16272.17
822.259	16309.68
822.587	16266.3
822.915	16183.36
823.243	16212.06
823.57	16207.31
823.898	16244.15
824.225	16163.25
824.553	16181.78
824.88	16149.46
825.207	16305.84
825.535	16186.07
825.862	16200.53
826.189	16151.72
826.516	16242.57
826.843	16165.51
827.17	16257.71
827.497	16241.21
827.824	16176.58
828.151	16177.26
828.478	16150.14
828.805	16258.16
829.131	16210.25
829.458	16163.25
829.785	15961.22
830.111	16118.05
830.438	16141.33
830.764	16139.29
831.09	16158.73
831.417	16083.93
831.743	16099.97
832.069	16047.54
832.395	15906.98
832.722	16097.26
833.048	16027.88
833.374	15972.29
833.7	15949.24
834.026	16000.09
834.351	15965.74
834.677	15971.39
835.003	15888
835.329	15936.59
835.654	15927.32
835.98	15831.96
836.306	15801
836.631	15793.77
836.956	15831.73
837.282	15873.31
837.607	15731.17
837.932	15695.69
838.258	15683.03
838.583	15693.43
838.908	15514.45
839.233	15623.37
839.558	15557.16
839.883	15610.72
840.208	15457.73
840.533	15403.49
840.858	15483.49
841.182	15502.47
841.507	15544.96
841.832	15391.97
842.156	15332.76
842.481	15421.57
842.805	15368.69
843.13	15288.02
843.454	15258.19
843.778	15241.24
844.103	15106.1
844.427	15070.62
844.751	15091.64
845.075	15019.1
845.399	14936.84
845.723	14955.14
846.047	14982.04
846.371	14767.8
846.695	14798.76
847.019	14646.23
847.343	14692.55
847.666	14575.27
847.99	14517.64
848.313	14507.02
848.637	14384.09
848.96	14326.46
849.284	14279.91
849.607	14203.3
849.931	14203.52
850.254	14151.32
850.577	14038.11
850.9	13982.74
851.223	13869.52
851.546	13899.58
851.869	13818.68
852.192	13874.49
852.515	13714.72
852.838	13609.87
853.161	13671.79
853.483	13556.08
853.806	13527.61
854.129	13445.35
854.451	13446.03
854.774	13356.99
855.096	13362.87
855.419	13341.63
855.741	13253.27
856.063	13200.84
856.385	13168.98
856.708	13231.12
857.03	13068.87
857.352	13066.38
857.674	12961.07
857.996	13013.05
858.318	12940.73
858.64	12913.62
858.961	12860.96
859.283	12818.02
859.605	12818.02
859.926	12722.66
860.248	12670.91
860.57	12737.57
860.891	12689.67
861.212	12661.64
861.534	12626.62
861.855	12609.44
862.176	12550.23
862.498	12611.48
862.819	12521.31
863.14	12567.86
863.461	12457.36
863.782	12335.78
864.103	12457.81
864.424	12394.98
864.745	12370.8
865.065	12261.43
865.386	12304.14
865.707	12270.24
866.027	12315.66
866.348	12226.63
866.668	12228.89
866.989	12195.67
867.309	12113.64
867.63	12207.87
867.95	12188.44
868.27	12060.76
868.59	12009.68
868.91	12022.79
869.23	12102.34
869.55	12014.66
869.87	12046.97
870.19	12022.57
870.51	11992.74
870.83	11955.45
871.15	11872.29
871.469	11935.79
871.789	11999.74
872.109	11890.37
872.428	11882
872.748	11823.47
873.067	11831.84
873.386	11853.76
873.706	11816.24
874.025	11689.24
874.344	11704.38
874.663	11748
874.982	11613.99
875.301	11725.17
875.62	11644.5
875.939	11605.18
876.258	11598.62
876.577	11575.57
876.896	11540.09
877.214	11468.23
877.533	11559.53
877.852	11542.35
878.17	11510.71
878.489	11506.42
878.807	11422.36
879.125	11425.52
879.444	11426.87
879.762	11380.77
880.08	11321.79
880.398	11346.65
880.716	11369.02
881.034	11313.21
881.352	11307.33
881.67	11223.94
881.988	11309.59
882.306	11135.81
882.624	11217.16
882.941	11129.26
883.259	11120.89
883.577	11109.37
883.894	11096.04
884.212	11095.36
884.529	11056.94
884.846	11013.33
885.164	11022.82
885.481	10973.33
885.798	10947.57
886.115	10844.52
886.432	10834.35
886.75	10875.02
887.067	10855.36
887.383	10764.07
887.7	10744.41
888.017	10756.61
888.334	10713.67
888.651	10705.09
888.967	10695.14
889.284	10602.26
889.6	10599.33
889.917	10588.48
890.233	10558.65
890.55	10512.77
890.866	10499.22
891.182	10447.24
891.498	10379.67
891.815	10396.39
892.131	10376.73
892.447	10335.83
892.763	10353.23
893.079	10281.82
893.395	10257.41
893.71	10182.39
894.026	10165.89
894.342	10216.74
894.657	10041.15
894.973	10130.41
895.289	10076.63
895.604	10051.54
895.92	9915.5
896.235	9896.75
896.55	9924.09
896.865	9854.94
897.181	9870.98
897.496	9824.88
897.811	9842.96
898.126	9786.47
898.441	9698.78
898.756	9738.56
899.071	9646.58
899.386	9618.11
899.7	9537.43
900.015	9551.22
900.33	9383.31
900.644	9482.97
900.959	9537.43
901.273	9386.25
901.588	9314.61
901.902	9267.61
902.216	9228.51
902.531	9259.7
902.845	9248.17
903.159	9162.08
903.473	9144.45
903.787	9101.96
904.101	9041.4
904.415	9015.41
904.729	9062.42
905.042	8926.15
905.356	8895.42
905.67	8945.13
905.984	8933.61
906.297	8921.4
906.611	8856.55
906.924	8759.37
907.237	8778.58
907.551	8764.12
907.864	8727.06
908.177	8653.39
908.491	8607.29
908.804	8614.75
909.117	8530.23
909.43	8519.15
909.743	8448.42
910.056	8432.15
910.368	8404.13
910.681	8392.6
910.994	8381.08
911.307	8317.58
911.619	8292.27
911.932	8291.14
912.244	8259.27
912.557	8154.42
912.869	8138.6
913.181	8153.06
913.494	8122.1
913.806	8044.59
914.118	8056.12
914.43	8020.64
914.742	8002.56
915.054	7917.81
915.366	7990.58
915.678	7869.23
915.99	7823.13
916.302	7820.64
916.613	7753.75
916.925	7691.83
917.236	7658.16
917.548	7708.78
917.859	7700.42
918.171	7570.48
918.482	7603.25
918.794	7476.7
919.105	7529.12
919.416	7474.44
919.727	7421.78
920.038	7393.53
920.349	7363.03
920.66	7290.03
920.971	7390.6
921.282	7294.78
921.593	7284.61
921.903	7186.08
922.214	7217.04
922.525	7152.18
922.835	7071.06
923.146	7082.13
923.456	7103.15
923.767	7017.73
924.077	6949.03
924.387	6957.16
924.697	6899.99
925.008	6881.91
925.318	6833.32
925.628	6856.15
925.938	6839.65
926.248	6780.22
926.558	6699.09
926.867	6680.33
927.177	6685.53
927.487	6659.77
927.796	6583.39
928.106	6569.6
928.416	6568.7
928.725	6562.14
929.034	6501.81
929.344	6471.98
929.653	6444.63
929.962	6385.88
930.271	6400.34
930.581	6359.44
930.89	6382.26
931.199	6324.64
931.508	6216.39
931.817	6293.68
932.125	6194.47
932.434	6212.1
932.743	6164.87
933.051	6191.08
933.36	6095.26
933.669	6055.94
933.977	6078.09
934.286	6066.11
934.594	6075.83
934.902	5995.83
935.21	5967.81
935.519	5949.5
935.827	5887.13
936.135	5855.04
936.443	5872.22
936.751	5785.67
937.059	5815.95
937.367	5800.58
937.674	5733.47
937.982	5782.5
938.29	5762.62
938.597	5751.54
938.905	5634.94
939.213	5655.05
939.52	5547.26
939.827	5650.98
940.135	5581.83
940.442	5580.25
940.749	5582.96
941.056	5542.51
941.363	5446.47
941.67	5429.74
941.977	5433.13
942.284	5414.15
942.591	5398.33
942.898	5359.46
943.205	5365.11
943.511	5274.95
943.818	5349.97
944.125	5280.37
944.431	5260.94
944.738	5245.79
945.044	5206.93
945.35	5175.74
945.657	5164.67
945.963	5164.89
946.269	5064.1
946.575	5114.05
946.881	5051.9
947.187	5094.84
947.493	5003.31
947.799	4946.59
948.105	4986.82
948.41	4950.66
948.716	4927.16
949.022	4934.16
949.327	4862.75
949.633	4806.94
949.938	4925.12
950.244	4819.59
950.549	4779.82
950.854	4781.85
951.16	4822.75
951.465	4742.98
951.77	4682.87
952.075	4675.19
952.38	4656.66
952.685	4645.13
952.99	4604.46
953.294	4593.61
953.599	4552.03
953.904	4532.14
954.209	4510.45
954.513	4514.51
954.818	4499.15
955.122	4484.91
955.426	4430
955.731	4465.02
956.035	4461.41
956.339	4430.45
956.643	4418.25
956.948	4356.1
957.252	4356.78
957.556	4357.23
957.86	4354.52
958.163	4288.31
958.467	4238.36
958.771	4261.64
959.075	4253.73
959.378	4186.61
959.682	4202.88
959.985	4181.19
960.289	4199.95
960.592	4154.3
960.896	4115.43
961.199	4120.85
961.502	4063.45
961.805	4085.37
962.108	4012.38
962.411	4037.92
962.714	3993.4
963.017	4017.8
963.32	4005.83
963.623	3960.4
963.926	3988.88
964.228	3968.99
964.531	3950.69
964.833	3895.55
965.136	3888.54
965.438	3831.37
965.741	3823.23
966.043	3817.36
966.345	3818.49
966.648	3824.59
966.95	3778.49
967.252	3744.14
967.554	3750.47
967.856	3715.89
968.158	3708.21
968.46	3699.39
968.761	3707.3
969.063	3656.01
969.365	3582.79
969.666	3625.95
969.968	3596.57
970.269	3620.07
970.571	3582.11
970.872	3572.84
971.174	3538.04
971.475	3540.3
971.776	3501.21
972.077	3517.93
972.378	3518.38
972.679	3512.28
972.98	3454.43
973.281	3469.57
973.582	3484.94
973.883	3395.67
974.183	3430.7
974.484	3375.79
974.785	3368.56
975.085	3336.69
975.386	3352.51
975.686	3314.32
975.986	3310.93
976.287	3298.27
976.587	3302.57
976.887	3252.85
977.187	3242.68
977.487	3258.73
977.787	3212.63
978.087	3206.3
978.387	3212.63
978.687	3199.52
978.987	3160.2
979.286	3123.59
979.586	3176.02
979.885	3123.82
980.185	3129.47
980.484	3073.2
980.784	3077.72
981.083	3065.29
981.382	3073.2
981.682	3090.37
981.981	2999.3
982.28	3007.21
982.579	2945.74
982.878	3032.07
983.177	3011.73
983.475	2969.02
983.774	2940.32
984.073	2902.35
984.372	2897.83
984.67	2908
984.969	2897.38
985.267	2874.33
985.566	2860.32
985.864	2838.17
986.162	2862.58
986.461	2838.85
986.759	2797.95
987.057	2796.82
987.355	2806.08
987.653	2818.74
987.951	2754.11
988.249	2731.96
988.547	2765.86
988.844	2720.66
989.142	2719.76
989.44	2716.82
989.737	2702.13
990.035	2677.95
990.332	2657.84
990.63	2645.64
990.927	2626.43
991.224	2622.81
991.521	2627.56
991.819	2598.18
992.116	2581.23
992.413	2592.3
992.71	2545.3
993.006	2550.5
993.303	2551.18
993.6	2517.5
993.897	2522.48
994.193	2488.35
994.49	2510.27
994.787	2482.48
995.083	2474.79
995.379	2438.64
995.676	2430.05
995.972	2429.82
996.268	2423.27
996.565	2391.86
996.861	2381.91
997.157	2375.36
997.453	2370.39
997.749	2343.05
998.044	2331.07
998.34	2329.49
998.636	2275.48
998.932	2305.76
999.227	2293.1
999.523	2272.31
999.818	2246.55
1000.114	2246.33
1000.409	2257.4
1000.704	2242.48
1001	2232.54
1001.295	2207
1001.59	2161.58
1001.885	2160.9
1002.18	2136.27
1002.475	2173.56
1002.77	2131.3
1003.065	2086.33
1003.359	2123.16
1003.654	2092.88
1003.949	2082.71
1004.243	2087.01
1004.538	2040.91
1004.832	2056.95
1005.127	2060.12
1005.421	2007.46
1005.715	2018.08
1006.009	2004.75
1006.304	2031.87
1006.598	1996.84
1006.892	2007.91
1007.186	1968.59
1007.48	1921.81
1007.773	1934.02
1008.067	1944.19
1008.361	1925.43
1008.655	1921.81
1008.948	1948.03
1009.242	1887.46
1009.535	1881.14
1009.829	1875.26
1010.122	1875.94
1010.415	1869.16
1010.708	1846.56
1011.001	1840.69
1011.295	1824.87
1011.588	1814.25
1011.881	1783.74
1012.173	1775.15
1012.466	1811.99
1012.759	1780.12
1013.052	1765.21
1013.344	1741.25
1013.637	1757.52
1013.93	1732.67
1014.222	1752.78
1014.514	1706
1014.807	1684.76
1015.099	1660.8
1015.391	1695.38
1015.683	1665.78
1015.976	1630.52
1016.268	1624.65
1016.56	1663.74
1016.851	1642.95
1017.143	1628.49
1017.435	1618.77
1017.727	1583.07
1018.018	1570.18
1018.31	1581.71
1018.602	1588.94
1018.893	1549.62
1019.185	1548.72
1019.476	1537.87
1019.767	1541.26
1020.058	1525.67
1020.35	1487.7
1020.641	1488.83
1020.932	1470.53
1021.223	1459.68
1021.514	1454.93
1021.804	1476.18
1022.095	1452
1022.386	1423.52
1022.677	1431.88
1022.967	1442.73
1023.258	1411.09
1023.548	1375.39
1023.839	1353.69
1024.129	1399.34
1024.419	1358.44
1024.709	1368.83
1025	1370.64
1025.29	1350.53
1025.58	1351.21
1025.87	1321.83
1026.16	1318.89
1026.449	1299.68
1026.739	1301.49
1027.029	1305.11
1027.319	1287.48
1027.608	1258.1
1027.898	1266.24
1028.187	1252
1028.477	1247.71
1028.766	1256.97
1029.055	1200.25
1029.344	1264.2
1029.634	1194.15
1029.923	1235.5
1030.212	1212.45
1030.501	1217.88
1030.79	1172
1031.078	1194.15
1031.367	1170.65
1031.656	1172.46
1031.945	1169.52
1032.233	1150.53
1032.522	1147.82
1032.81	1153.25
1033.099	1120.25
1033.387	1129.97
1033.675	1100.82
1033.963	1095.85
1034.251	1086.81
1034.54	1060.37
1034.828	1085.9
1035.116	1039.13
1035.403	1074.38
1035.691	1080.25
1035.979	1050.2
1036.267	1059.24
1036.554	1053.14
1036.842	1013.82
1037.129	1012.91
1037.417	1001.61
1037.704	1017.88
1037.992	1014.95
1038.279	1009.3
1038.566	989.41
1038.853	989.41
1039.14	989.41
