Data from hue_38_FLMS001491_00050.txt Node
Date: Tue Feb 07 17:31:34 GMT 2017
User: dcchb
Spectrometer: FLMS00149
Trigger mode: 0
Integration Time (sec): 2.000000E-2
Scans to average: 10
Electric dark correction enabled: true
Nonlinearity correction enabled: false
Boxcar width: 0
XAxis mode: Wavelengths
Number of Pixels in Spectrum: 2048
>>>>>Begin Spectral Data<<<<<
341.393	6.47
341.776	6.47
342.16	6.47
342.543	-39.63
342.927	-54.32
343.31	-67.65
343.693	-70.82
344.077	-47.99
344.46	-71.04
344.843	-59.97
345.226	-44.15
345.61	-37.6
345.993	-24.72
346.376	8.73
346.759	26.13
347.142	16.19
347.525	51.89
347.908	55.73
348.291	69.74
348.674	97.99
349.057	97.54
349.44	127.37
349.823	153.58
350.206	158.1
350.588	199.46
350.971	234.26
351.354	253.92
351.737	260.25
352.119	262.73
352.502	262.73
352.884	274.26
353.267	283.98
353.65	321.71
354.032	318.78
354.414	318.32
354.797	333.69
355.179	334.6
355.562	336.63
355.944	332.56
356.326	352.9
356.709	362.84
357.091	344.09
357.473	347.48
357.855	352.9
358.238	344.54
358.62	359
359.002	332.11
359.384	343.41
359.766	334.6
360.148	345.22
360.53	348.15
360.912	335.73
361.294	345.44
361.676	346.35
362.057	352.45
362.439	308.61
362.821	330.98
363.203	334.82
363.584	348.61
363.966	324.43
364.348	322.17
364.729	321.26
365.111	322.84
365.493	327.59
365.874	337.76
366.256	337.31
366.637	308.38
367.019	331.66
367.4	328.27
367.781	322.17
368.163	327.82
368.544	307.93
368.925	322.62
369.306	335.73
369.688	344.76
370.069	312.45
370.45	324.65
370.831	322.17
371.212	322.39
371.593	306.57
371.974	324.43
372.355	331.66
372.736	316.52
373.117	341.15
373.498	305.44
373.879	313.81
374.26	329.4
374.641	326.01
375.021	330.75
375.402	324.43
375.783	323.3
376.163	322.17
376.544	326.23
376.925	324.65
377.305	324.65
377.686	330.3
378.066	342.51
378.447	342.05
378.827	332.56
379.208	332.79
379.588	341.83
379.968	330.53
380.349	346.35
380.729	361.49
381.109	346.35
381.489	344.99
381.87	330.98
382.25	364.43
382.63	355.39
383.01	354.26
383.39	328.04
383.77	348.61
384.15	366.23
384.53	373.92
384.91	359
385.29	355.39
385.67	354.71
386.049	340.47
386.429	354.26
386.809	367.82
387.189	349.96
387.568	356.52
387.948	361.49
388.328	352.45
388.707	396.06
389.087	353.8
389.466	360.36
389.846	389.74
390.225	359.23
390.605	377.98
390.984	362.17
391.363	377.31
391.743	380.02
392.122	360.81
392.501	376.4
392.881	385.44
393.26	387.48
393.639	394.71
394.018	384.54
394.397	379.34
394.776	383.18
395.155	377.08
395.534	373.92
395.913	403.75
396.292	399.23
396.671	385.89
397.05	400.36
397.429	389.28
397.808	380.02
398.186	391.09
398.565	390.19
398.944	396.51
399.323	406.91
399.701	408.27
400.08	386.8
400.458	374.82
400.837	394.26
401.215	411.88
401.594	410.98
401.972	408.94
402.351	406.91
402.729	422.28
403.107	425.21
403.486	421.6
403.864	415.95
404.242	417.08
404.62	421.83
404.999	423.86
405.377	431.99
405.755	421.83
406.133	415.05
406.511	420.7
406.889	432.67
407.267	426.57
407.645	433.58
408.023	441.71
408.401	446.01
408.779	454.37
409.156	437.64
409.534	452.78
409.912	453.46
410.29	450.98
410.667	463.41
411.045	462.05
411.422	452.11
411.8	456.4
412.178	452.11
412.555	452.11
412.933	474.03
413.31	471.77
413.687	481.03
414.065	474.71
414.442	477.19
414.819	521.26
415.197	481.94
415.574	470.41
415.951	503.4
416.328	506.79
416.705	531.65
417.082	506.79
417.46	506.34
417.837	532.56
418.214	526.68
418.591	517.42
418.967	532.78
419.344	513.12
419.721	521.48
420.098	517.87
420.475	549.73
420.852	539.79
421.228	556.51
421.605	542.27
421.982	547.92
422.358	531.88
422.735	535.27
423.111	570.52
423.488	549.73
423.864	540.24
424.241	572.56
424.617	564.19
424.994	574.82
425.37	568.94
425.746	585.89
426.123	567.81
426.499	564.19
426.875	586.11
427.251	603.74
427.627	585.44
428.003	608.94
428.379	581.37
428.756	594.02
429.132	607.36
429.507	616.85
429.883	600.13
430.259	633.34
430.635	602.84
431.011	618.2
431.387	635.6
431.763	627.24
432.138	627.47
432.514	670.18
432.89	651.88
433.265	678.77
433.641	677.19
434.016	645.1
434.392	667.47
434.767	710.41
435.143	696.39
435.518	697.75
435.894	665.89
436.269	700.01
436.644	709.95
437.02	711.99
437.395	738.88
437.77	722.61
438.145	723.51
438.52	725.77
438.895	736.85
439.271	724.64
439.646	738.2
440.021	739.56
440.395	753.79
440.77	741.59
441.145	751.99
441.52	784.08
441.895	775.04
442.27	787.01
442.645	778.88
443.019	788.14
443.394	789.5
443.769	794.24
444.143	780.01
444.518	812.32
444.892	794.24
445.267	797.41
445.641	806
446.016	828.59
446.39	799.89
446.764	806.9
447.139	830.18
447.513	823.4
447.887	829.72
448.262	850.74
448.636	846.9
449.01	864.07
449.384	838.31
449.758	859.78
450.132	844.41
450.506	879.89
450.88	865.88
451.254	895.48
451.628	902.94
452.002	903.62
452.376	903.17
452.75	868.14
453.123	922.15
453.497	915.6
453.871	943.39
454.244	946.56
454.618	948.59
454.992	951.98
455.365	937.74
455.739	984.07
456.112	980.23
456.486	997.4
456.859	1011.64
457.232	1005.76
457.606	1004.63
457.979	1001.92
458.352	1023.62
458.725	1058.19
459.099	1058.87
459.472	1080.34
459.845	1083.5
460.218	1092.77
460.591	1125.08
460.964	1104.29
461.337	1132.77
461.71	1131.64
462.083	1155.59
462.456	1187.91
462.829	1142.71
463.201	1187
463.574	1185.87
463.947	1185.87
464.32	1236.49
464.692	1233.1
465.065	1241.69
465.438	1282.14
465.81	1265.64
466.183	1278.07
466.555	1340.9
466.928	1325.08
467.3	1355.13
467.672	1390.16
468.045	1412.53
468.417	1410.73
468.789	1419.31
469.161	1450.95
469.534	1477.84
469.906	1509.48
470.278	1517.16
470.65	1541.34
471.022	1580.89
471.394	1592.64
471.766	1600.78
472.138	1653.21
472.51	1669.93
472.882	1716.93
473.253	1741.34
473.625	1780.89
473.997	1808.91
474.369	1844.39
474.74	1860.88
475.112	1902.24
475.484	1957.83
475.855	1979.3
476.227	2032.4
476.598	2122.57
476.97	2146.3
477.341	2187.2
477.713	2247.09
478.084	2278.73
478.455	2343.36
478.827	2391.26
479.198	2469.23
479.569	2474.2
479.94	2583.35
480.311	2652.27
480.682	2699.28
481.053	2836.22
481.424	2862.44
481.795	2907.86
482.166	2944.92
482.537	3054.52
482.908	3163
483.279	3240.51
483.65	3276.44
484.021	3416.55
484.391	3471.24
484.762	3579.48
485.133	3629.65
485.503	3733.6
485.874	3814.5
486.244	3937.21
486.615	4002.07
486.985	4077.77
487.356	4205
487.726	4290.88
488.097	4384.21
488.467	4485.9
488.837	4614.71
489.207	4721.15
489.578	4823.07
489.948	4916.85
490.318	4998.2
490.688	5068.93
491.058	5227.8
491.428	5367.23
491.798	5411.98
492.168	5563.38
492.538	5604.74
492.908	5746.2
493.278	5890.83
493.648	5932.41
494.017	6080.43
494.387	6222.58
494.757	6270.71
495.126	6366.3
495.496	6426.41
495.866	6544.6
496.235	6688.33
496.605	6791.15
496.974	6853.52
497.344	6992.73
497.713	7069.79
498.082	7149.11
498.452	7219.39
498.821	7402.43
499.19	7435.88
499.559	7595.2
499.928	7617.57
500.298	7732.14
500.667	7904.79
501.036	7803.55
501.405	7999.7
501.774	8032.47
502.143	8205.35
502.512	8286.48
502.88	8373.93
503.249	8358.57
503.618	8465.91
503.987	8528.73
504.356	8631.1
504.724	8726.24
505.093	8860.25
505.462	8829.51
505.83	8957.87
506.199	9045.78
506.567	9274.25
506.936	9219.33
507.304	9319.9
507.672	9422.94
508.041	9408.26
508.409	9555.37
508.777	9662.26
509.145	9795.82
509.514	9693.45
509.882	9816.15
510.25	9857.06
510.618	9956.72
510.986	10048.01
511.354	10086.2
511.722	10236.71
512.09	10314.67
512.458	10301.79
512.826	10449.13
513.193	10495.01
513.561	10553.99
513.929	10625.17
514.297	10810.93
514.664	10826.52
515.032	10973.19
515.4	11003.92
515.767	11034.43
516.135	11114.43
516.502	10991.04
516.869	11226.74
517.237	11261.99
517.604	11221.77
517.972	11451.82
518.339	11447.75
518.706	11555.32
519.073	11559.16
519.44	11610.23
519.808	11800.73
520.175	11786.5
520.542	11942.43
520.909	11955.99
521.276	12040.05
521.643	12150.78
522.009	12121.18
522.376	12308.52
522.743	12354.62
523.11	12434.16
523.477	12558
523.843	12614.05
524.21	12726.36
524.577	12826.24
524.943	12856.98
525.31	12907.6
525.676	13070.31
526.043	13120.25
526.409	13090.87
526.776	13280.24
527.142	13322.05
527.508	13460.8
527.874	13554.59
528.241	13618.31
528.607	13680.23
528.973	13767.69
529.339	13785.99
529.705	13943.73
530.071	14050.17
530.437	14129.94
530.803	14154.35
531.169	14293.78
531.535	14324.74
531.901	14322.93
532.267	14396.82
532.632	14462.81
532.998	14508.46
533.364	14630.72
533.73	14682.24
534.095	14788.68
534.461	14881.33
534.826	14832.52
535.192	14933.76
535.557	15023.7
535.923	14999.52
536.288	15145.28
536.653	15204.94
537.019	15188.67
537.384	15244.49
537.749	15394.54
538.114	15429.34
538.479	15514.76
538.845	15554.08
539.21	15536.91
539.575	15681.54
539.94	15674.31
540.305	15798.14
540.67	15717.47
541.034	15806.05
541.399	15928.54
541.764	16029.32
542.129	16013.28
542.494	16100.73
542.858	16143.22
543.223	16167.85
543.587	16314.29
543.952	16250.79
544.316	16363.55
544.681	16472.48
545.045	16543.66
545.41	16627.73
545.774	16617.33
546.138	16659.36
546.503	16787.5
546.867	16796.99
547.231	16870.66
547.595	16968.28
547.959	17003.08
548.324	16984.1
548.688	17098.22
549.052	17212.12
549.416	17187.71
549.779	17245.34
550.143	17298.9
550.507	17441.94
550.871	17467.7
551.235	17490.75
551.599	17575.5
551.962	17606.01
552.326	17646.68
552.689	17809.84
553.053	17749.28
553.417	17742.27
553.78	18036.05
554.143	17921.93
554.507	18019.33
554.87	18054.13
555.234	18294.58
555.597	18131.64
555.96	18219.78
556.323	18376.16
556.686	18358.3
557.05	18478.53
557.413	18536.38
557.776	18628.58
558.139	18786.99
558.502	18739.76
558.865	18732.3
559.228	18894.79
559.59	18982.92
559.953	18979.08
560.316	19136.36
560.679	19191.73
561.041	19271.95
561.404	19395.11
561.767	19459.29
562.129	19480.31
562.492	19658.83
562.854	19554.43
563.217	19641.43
563.579	19688.89
563.941	19844.37
564.304	20000.75
564.666	20090.23
565.028	20050.91
565.39	20154.41
565.753	20240.06
566.115	20257.91
566.477	20321.87
566.839	20410.68
567.201	20490.22
567.563	20563.67
567.925	20739.03
568.287	20758.69
568.648	20765.7
569.01	20908.07
569.372	21038.46
569.734	21000.72
570.095	21104.67
570.457	21323.2
570.819	21348.51
571.18	21407.71
571.542	21550.99
571.903	21538.78
572.265	21703.53
572.626	21805.67
572.987	21746.01
573.349	21821.04
573.71	22007.02
574.071	22101.26
574.432	22167.92
574.794	22375.82
575.155	22419.89
575.516	22445.2
575.877	22539.89
576.238	22730.84
576.599	22813.1
576.96	22939.65
577.32	22937.84
577.681	23163.83
578.042	23279.98
578.403	23362.69
578.763	23503.48
579.124	23600.65
579.485	23893.75
579.845	23938.95
580.206	24081.09
580.566	24265.04
580.927	24470.23
581.287	24702.77
581.648	24571.02
582.008	24981.63
582.368	25063.21
582.728	25260.04
583.089	25373.94
583.449	25494.84
583.809	25687.6
584.169	25879.23
584.529	25989.06
584.889	26438.54
585.249	26452.78
585.609	26528.26
585.969	27001.01
586.329	27071.07
586.688	27295.02
587.048	27382.7
587.408	27544.28
587.768	27864.04
588.127	27886.87
588.487	28173.64
588.846	28585.38
589.206	28485.04
589.565	28737.46
589.925	29047.29
590.284	29152.14
590.643	29464
591.003	29682.07
591.362	30132.23
591.721	30041.39
592.08	30328.84
592.44	30529.73
592.799	30795.04
593.158	30786.22
593.517	31206.55
593.876	31274.12
594.235	31370.62
594.593	31678.63
594.952	31814.67
595.311	31937.38
595.67	32303.02
596.029	32684.71
596.387	32754.31
596.746	32957.92
597.104	33077.46
597.463	33168.76
597.822	33597.45
598.18	33631.35
598.538	33867.05
598.897	34140.03
599.255	34106.59
599.613	34647.14
599.972	34747.7
600.33	34999.22
600.688	34859.56
601.046	35145.88
601.404	35335.03
601.762	35526.89
602.12	35930.5
602.478	35928.46
602.836	36102.24
603.194	36000.55
603.552	36320.32
603.91	36317.38
604.268	36709.46
604.625	36665.39
604.983	36879.62
605.341	36854.77
605.698	37248.88
606.056	37389.67
606.413	37427.41
606.771	37750.79
607.128	37665.37
607.485	37741.52
607.843	37782.88
608.2	38049.76
608.557	38459.69
608.914	38356.65
609.272	38757.99
609.629	38671.44
609.986	38983.07
610.343	38974.94
610.7	39172.44
611.057	39124.54
611.414	39386.22
611.771	39505.09
612.127	39736.72
612.484	39799.09
612.841	39949.37
613.198	39913.44
613.554	40031.18
613.911	40401.56
614.267	40438.85
614.624	40439.53
614.98	40570.83
615.337	40732.18
615.693	40770.14
616.05	40771.72
616.406	41149.79
616.762	41008.55
617.118	41144.82
617.475	41212.84
617.831	41305.72
618.187	41416.45
618.543	41487.19
618.899	41735.09
619.255	41698.93
619.611	41735.99
619.967	41995.65
620.323	42059.83
620.678	41902.32
621.034	41966.04
621.39	42034.52
621.746	42144.34
622.101	42445.35
622.457	42263.66
622.812	42279.48
623.168	42567.61
623.523	42431.79
623.879	42678.57
624.234	42398.12
624.589	42683.54
624.945	42706.14
625.3	42798.79
625.655	42809.64
626.01	42811.22
626.365	42977.54
626.72	42736.19
627.075	42839.24
627.43	42906.36
627.785	42774.38
628.14	43107.93
628.495	43061.16
628.85	43105.67
629.205	42846.92
629.559	43074.94
629.914	43053.25
630.269	43099.57
630.623	42966.7
630.978	42788.85
631.332	43104.09
631.687	43217.08
632.041	43003.3
632.396	43183.19
632.75	43129.4
633.104	43156.29
633.459	43072
633.813	43187.93
634.167	43064.09
634.521	42947.03
634.875	43256.86
635.229	43198.78
635.583	43014.83
635.937	43121.95
636.291	43012.57
636.645	43076.97
636.999	42891.89
637.352	42897.77
637.706	42745.68
638.06	42963.98
638.413	42750.88
638.767	42846.02
639.121	42865.91
639.474	42656.19
639.828	42696.65
640.181	42852.8
640.534	42929.63
640.888	42571.45
641.241	42615.97
641.594	42666.82
641.947	42714.05
642.301	42628.85
642.654	42647.38
643.007	42647.16
643.36	42680.6
643.713	42515.41
644.066	42660.26
644.419	42422.75
644.771	42233.61
645.124	41895.99
645.477	41853.5
645.83	41760.17
646.182	41412.39
646.535	41357.25
646.888	41607.18
647.24	41291.03
647.593	41491.25
647.945	41463.91
648.298	41123.58
648.65	41212.16
649.002	41032.28
649.355	41241.77
649.707	41187.98
650.059	41438.37
650.411	41717.01
650.763	41796.1
651.115	42220.27
651.467	42106.15
651.819	42169.43
652.171	42090.11
652.523	41926.5
652.875	41885.14
653.227	41841.07
653.578	42128.98
653.93	41808.31
654.282	41741.42
654.633	41730.34
654.985	41853.28
655.337	41883.56
655.688	41788.87
656.039	42029.09
656.391	41688.76
656.742	41722.43
657.094	41854.18
657.445	42010.11
657.796	41710
658.147	41703.23
658.498	41816.67
658.849	41802.88
659.2	41716.11
659.551	41691.25
659.902	41808.76
660.253	41685.6
660.604	41645.15
660.955	41588.2
661.306	41770.79
661.656	41600.4
662.007	41544.13
662.358	41601.76
662.708	41626.39
663.059	41668.42
663.409	41299.17
663.76	41633.85
664.11	41678.14
664.461	41707.97
664.811	41585.04
665.161	41648.31
665.511	41550.01
665.862	41603.12
666.212	41624.36
666.562	41578.93
666.912	41491.25
667.262	41470.46
667.612	41604.02
667.962	41537.81
668.312	41476.11
668.662	41669.55
669.011	41537.35
669.361	41482.89
669.711	41435.66
670.06	41473.85
670.41	41371.03
670.76	41209
671.109	41443.8
671.459	41371.03
671.808	41365.61
672.157	41479.95
672.507	41132.62
672.856	41162.9
673.205	41234.54
673.554	41403.8
673.904	41055.33
674.253	41456.68
674.602	41270.69
674.951	40825.51
675.3	40400.66
675.649	41225.72
675.998	41190.7
676.346	41097.82
676.695	41342.78
677.044	40843.81
677.393	40993.19
677.741	41084.03
678.09	40916.81
678.438	40915.9
678.787	41012.62
679.135	40960.42
679.484	40661.9
679.832	40930.14
680.181	40578.74
680.529	40845.39
680.877	40593.42
681.225	40578.96
681.573	40871.83
681.922	40433.65
682.27	40383.03
682.618	40453.99
682.966	40249.7
683.314	40411.51
683.661	40155.47
684.009	40093.32
684.357	39949.37
684.705	40052.65
685.053	40119.09
685.4	39992.54
685.748	39773.33
686.095	39854.91
686.443	39655.14
686.79	39711.41
687.138	39737.85
687.485	39770.17
687.832	39607.01
688.18	39658.31
688.527	39331.99
688.874	39396.85
689.221	39240.92
689.568	39154.14
689.915	39040.7
690.262	39089.51
690.609	39082.05
690.956	38780.14
691.303	38803.87
691.65	38651.78
691.997	38685.9
692.344	38487.49
692.69	38530.2
693.037	38383.54
693.383	38265.35
693.73	38269.64
694.077	38139.03
694.423	38139.25
694.769	38066.48
695.116	37923.44
695.462	37906.04
695.808	37818.81
696.155	37691.58
696.501	37473.05
696.847	37507.18
697.193	37260.86
697.539	37513.73
697.885	37043.24
698.231	37107.64
698.577	36972.05
698.923	37064.03
699.269	36814.09
699.614	36588.78
699.96	36630.14
700.306	36546.07
700.651	36352.63
700.997	36352.86
701.342	36301.33
701.688	36166.87
702.033	36152.86
702.379	36234.44
702.724	36013.21
703.069	36028.12
703.415	35598.75
703.76	35685.53
704.105	35661.58
704.45	35638.75
704.795	35392.66
705.14	35269.72
705.485	35222.49
705.83	35093.46
706.175	35137.97
706.52	35034.7
706.865	34941.82
707.209	34955.61
707.554	34738.21
707.899	34919
708.243	34708.61
708.588	34632.68
708.932	34410.76
709.277	34408.28
709.621	34324.44
709.966	34200.37
710.31	34289.41
710.654	34064.33
710.998	34022.07
711.342	34107.27
711.687	33975.29
712.031	33762.19
712.375	33678.8
712.719	33686.94
713.063	33642.65
713.407	33744.79
713.75	33623.44
714.094	33489.2
714.438	33376.66
714.782	33396.1
715.125	33249.44
715.469	33343.22
715.812	33162.43
716.156	33078.82
716.499	33110.46
716.843	33063
717.186	32781.65
717.53	32944.13
717.873	32907.75
718.216	32768.77
718.559	32635.44
718.902	32552.05
719.246	32619.4
719.589	32343.7
719.932	32235.23
720.275	32407.42
720.617	32320.87
720.96	32210.37
721.303	32252.63
721.646	32304.6
721.989	32005.4
722.331	32144.38
722.674	32013.08
723.016	31921.11
723.359	31903.03
723.701	31913.2
724.044	31719.99
724.386	31501.69
724.729	31881.56
725.071	31575.81
725.413	31667.78
725.755	31665.52
726.097	31499.43
726.439	31425.3
726.782	31392.99
727.124	31542.14
727.465	31268.02
727.807	31260.34
728.149	31181.47
728.491	31263.5
728.833	31295.82
729.175	30940.8
729.516	30988.93
729.858	31074.35
730.199	30972.89
730.541	30875.04
730.882	30870.74
731.224	31028.93
731.565	30757.75
731.906	30695.83
732.248	30875.26
732.589	30502.84
732.93	30478.66
733.271	30539
733.612	30515.05
733.953	30447.48
734.294	30392.11
734.635	30394.6
734.976	30305.79
735.317	30268.95
735.658	30207.71
735.999	30134.04
736.339	30096.3
736.68	30077.32
737.021	30029.86
737.361	29943.31
737.702	30068.5
738.042	29955.96
738.383	29902.41
738.723	29978.56
739.063	29821.5
739.404	29852.46
739.744	29725.01
740.084	29751.68
740.424	29727.04
740.764	29663.09
741.104	29803.2
741.444	29489.99
741.784	29543.77
742.124	29647.05
742.464	29459.93
742.804	29414.74
743.143	29392.59
743.483	29315.08
743.823	29117.57
744.162	29199.6
744.502	29230.79
744.841	29153.95
745.181	29174.74
745.52	29101.97
745.86	29045.48
746.199	29079.15
746.538	29034.63
746.877	28876.9
747.216	28953.5
747.556	28942.88
747.895	28929.32
748.234	28691.36
748.573	28713.06
748.911	28734.53
749.25	28740.18
749.589	28431.71
749.928	28556.45
750.267	28574.53
750.605	28413.41
750.944	28364.82
751.283	28255.44
751.621	28358.27
751.96	28212.51
752.298	28173.64
752.636	28111.04
752.975	28080.76
753.313	27817.71
753.651	28145.62
753.989	27939.75
754.327	27889.58
754.666	27805.96
755.004	27818.17
755.342	27836.7
755.679	27735.01
756.017	27596.93
756.355	27642.35
756.693	27419.99
757.031	27551.28
757.368	27312.42
757.706	27221.35
758.044	27238.07
758.381	27251.85
758.719	27175.47
759.056	27199.88
759.394	27067
759.731	26927.79
760.068	26881.24
760.405	26695.26
760.743	26686.22
761.08	26875.59
761.417	26593.34
761.754	26579.33
762.091	26539.78
762.428	26316.29
762.765	26258.43
763.102	26283.29
763.438	26076.97
763.775	26040.59
764.112	26036.97
764.449	26078.55
764.785	25853.47
765.122	25710.88
765.458	25668.62
765.795	25606.7
766.131	25557.21
766.467	25462.75
766.804	25243.32
767.14	25284
767.476	25170.55
767.812	25058.69
768.148	25021.63
768.485	24942.54
768.821	24806.04
769.157	24779.38
769.492	24729.89
769.828	24690.11
770.164	24570.79
770.5	24406.05
770.836	24454.41
771.171	24225.04
771.507	24261.65
771.842	24025.05
772.178	24020.3
772.513	24065.27
772.849	24022.11
773.184	23842.23
773.519	23825.96
773.855	23723.13
774.19	23590.48
774.525	23451.95
774.86	23519.75
775.195	23483.14
775.53	23345.74
775.865	23099.87
776.2	23117.27
776.535	22869.14
776.87	22926.77
777.205	22859.88
777.539	22613.11
777.874	22740.11
778.209	22507.8
778.543	22519.32
778.878	22377.63
779.212	22416.27
779.547	22239.56
779.881	22238.88
780.215	22070.75
780.55	22223.74
780.884	21892.67
781.218	21845.67
781.552	21880.7
781.886	21811.32
782.22	21722.51
782.554	21654.49
782.888	21374.04
783.222	21305.8
783.556	21263.08
783.889	21169.08
784.223	21028.74
784.557	20971.12
784.89	21053.82
785.224	20871.91
785.557	20812.25
785.891	20837.79
786.224	20813.61
786.558	20723.89
786.891	20540.17
787.224	20438.93
787.557	20360.96
787.891	20280.74
788.224	20299.72
788.557	20276.22
788.89	20188.08
789.223	20233.28
789.556	20047.3
789.888	19975.44
790.221	19905.83
790.554	19762.33
790.887	19766.4
791.219	19642.79
791.552	19684.6
791.884	19482.57
792.217	19443.7
792.549	19372.74
792.882	19275.79
793.214	19116.02
793.546	19213.2
793.879	19078.28
794.211	18963.48
794.543	18995.35
794.875	18915.35
795.207	18962.35
795.539	18826.31
795.871	18829.25
796.203	18650.5
796.535	18501.8
796.867	18525.53
797.198	18475.81
797.53	18505.64
797.862	18408.92
798.193	18443.72
798.525	18243.73
798.856	18320.11
799.188	18110.85
799.519	18009.39
799.85	18048.93
800.182	17943.4
800.513	17988.37
800.844	17751.99
801.175	17849.16
801.506	17797.87
801.837	17758.77
802.168	17781.14
802.499	17628.83
802.83	17563.97
803.161	17476.52
803.491	17512.9
803.822	17544.54
804.153	17426.58
804.483	17227.03
804.814	17170.09
805.145	17126.02
805.475	17116.53
805.805	17110.88
806.136	17054.83
806.466	17028.62
806.796	17009.64
807.126	16819.13
807.457	16873.14
807.787	16883.09
808.117	16767.61
808.447	16638.12
808.777	16646.26
809.107	16625.24
809.436	16615.98
809.766	16537.56
810.096	16448.97
810.426	16378.47
810.755	16437
811.085	16378.02
811.414	16402.2
811.744	16222.77
812.073	16158.59
812.403	16165.59
812.732	16076.78
813.061	16156.55
813.39	15942.55
813.719	16029.32
814.049	16061.64
814.378	15920.85
814.707	15859.16
815.036	15800.4
815.365	15792.27
815.693	15601.54
816.022	15597.47
816.351	15525.16
816.68	15505.72
817.008	15612.61
817.337	15457.81
817.665	15377.59
817.994	15440.87
818.322	15343.47
818.651	15418.72
818.979	15237.25
819.307	15291.26
819.636	15285.84
819.964	15121.55
820.292	15187.76
820.62	15181.89
820.948	15049.24
821.276	15260.3
821.604	15112.96
821.932	15143.92
822.259	15222.34
822.587	15159.29
822.915	15149.12
823.243	15147.31
823.57	15140.99
823.898	15133.3
824.225	15053.53
824.553	15022.57
824.88	15014.21
825.207	15122.46
825.535	15143.25
825.862	15064.15
826.189	15049.01
826.516	15144.83
826.843	15106.18
827.17	15056.02
827.497	15091.27
827.824	15026.19
828.151	15116.58
828.478	15079.29
828.805	15196.35
829.131	15038.16
829.458	15023.93
829.785	14900.31
830.111	15013.31
830.438	15029.35
830.764	15049.46
831.09	15091.72
831.417	14899.86
831.743	15005.85
832.069	15007.43
832.395	14969.01
832.722	14999.97
833.048	14955
833.374	14858.28
833.7	14798.17
834.026	14907.32
834.351	14845.63
834.677	14922.01
835.003	14868
835.329	14804.72
835.654	14809.02
835.98	14781.45
836.306	14824.84
836.631	14757.49
836.956	14841.78
837.282	14813.31
837.607	14646.08
837.932	14670.49
838.258	14646.76
838.583	14646.76
838.908	14541
839.233	14592.07
839.558	14496.94
839.883	14470.72
840.208	14482.02
840.533	14406.54
840.858	14435.69
841.182	14467.33
841.507	14433.66
841.832	14275.47
842.156	14309.37
842.481	14268.92
842.805	14244.29
843.13	14259.43
843.454	14192.54
843.778	14162.93
844.103	14066.89
844.427	14121.13
844.751	14043.84
845.075	13999.77
845.399	13911.41
845.723	13962.49
846.047	13980.56
846.371	13814.47
846.695	13766.78
847.019	13730.18
847.343	13727.92
847.666	13626
847.99	13583.29
848.313	13546.23
848.637	13454.25
848.96	13459.9
849.284	13401.6
849.607	13275.5
849.931	13244.54
850.254	13141.72
850.577	13083.64
850.9	13044.77
851.223	12985.56
851.546	12928.16
851.869	12857.88
852.192	12944.66
852.515	12825.57
852.838	12735.17
853.161	12744.44
853.483	12669.41
853.806	12695.4
854.129	12565.69
854.451	12625.57
854.774	12478.23
855.096	12449.98
855.419	12431.9
855.741	12425.13
856.063	12317.56
856.385	12217.67
856.708	12325.47
857.03	12222.42
857.352	12253.38
857.674	12195.75
857.996	12089.77
858.318	12067.85
858.64	12064.46
858.961	12114.85
859.283	11915.99
859.605	11969.09
859.926	11888.42
860.248	11898.13
860.57	11834.63
860.891	11810.9
861.212	11720.29
861.534	11727.74
861.855	11684.58
862.176	11731.81
862.498	11558.93
862.819	11707.63
863.14	11608.88
863.461	11557.8
863.782	11520.52
864.103	11596.9
864.424	11602.1
864.745	11570.01
865.065	11424.25
865.386	11428.77
865.707	11474.42
866.027	11424.7
866.348	11466.05
866.668	11434.87
866.989	11360.29
867.309	11284.59
867.63	11273.74
867.95	11314.87
868.27	11226.74
868.59	11291.82
868.91	11210.02
869.23	11244.82
869.55	11152.16
869.87	11210.69
870.19	11189
870.51	11142.22
870.83	11225.16
871.15	11126.4
871.469	11123.92
871.789	11139.51
872.109	11114.43
872.428	11076.69
872.748	11044.6
873.067	11070.58
873.386	11125.05
873.706	11019.29
874.025	10987.2
874.344	10913.98
874.663	10888.67
874.982	10909.01
875.301	10954.43
875.62	10843.7
875.939	10850.93
876.258	10846.86
876.577	10792.17
876.896	10805.51
877.214	10774.77
877.533	10751.04
877.852	10752.4
878.17	10756.69
878.489	10744.04
878.807	10729.58
879.125	10723.25
879.444	10633.31
879.762	10633.08
880.08	10604.61
880.398	10578.39
880.716	10585.17
881.034	10485.06
881.352	10532.75
881.67	10552.18
881.988	10509.7
882.306	10460.66
882.624	10418.62
882.941	10413.2
883.259	10340.21
883.577	10310.38
883.894	10396.48
884.212	10392.41
884.529	10310.83
884.846	10258.63
885.164	10281.9
885.481	10231.51
885.798	10227.44
886.115	10154
886.432	10226.31
886.75	10099.08
887.067	10128.46
887.383	10022.25
887.7	10142.25
888.017	10047.56
888.334	10074
888.651	9989.94
888.967	9982.48
889.284	9894.34
889.6	9933.21
889.917	9885.31
890.233	9882.14
890.55	9765.99
890.866	9786.1
891.182	9815.7
891.498	9683.95
891.815	9742.26
892.131	9716.72
892.447	9659.77
892.763	9606.67
893.079	9619.32
893.395	9524.18
893.71	9471.98
894.026	9541.81
894.342	9503.39
894.657	9436.96
894.973	9413.23
895.289	9390.4
895.604	9426.33
895.92	9298.43
896.235	9277.41
896.55	9289.16
896.865	9247.36
897.181	9208.03
897.496	9145.21
897.811	9114.7
898.126	9150.64
898.441	9057.3
898.756	9080.58
899.071	8979.34
899.386	9006.23
899.7	8953.13
900.015	8919.91
900.33	8868.61
900.644	8862.28
900.959	8886.01
901.273	8826.58
901.588	8747.26
901.902	8745.9
902.216	8690.53
902.531	8663.64
902.845	8598.33
903.159	8590.2
903.473	8641.5
903.787	8502.52
904.101	8482.4
904.415	8474.72
904.729	8477.88
905.042	8395.4
905.356	8368.06
905.67	8344.55
905.984	8318.57
906.297	8297.32
906.611	8254.84
906.924	8291.67
907.237	8216.65
907.551	8182.07
907.864	8130.55
908.177	8141.4
908.491	8051.23
908.804	8047.84
909.117	7967.84
909.43	7938.92
909.743	7942.76
910.056	7917.22
910.368	7836.32
910.681	7840.39
910.994	7799.48
911.307	7753.16
911.619	7700.5
911.932	7750.22
912.244	7682.2
912.557	7640.17
912.869	7605.82
913.181	7603.33
913.494	7562.2
913.806	7517.01
914.118	7498.02
914.43	7479.72
914.742	7430.68
915.054	7396.78
915.366	7413.96
915.678	7370.34
915.99	7321.08
916.302	7240.4
916.613	7240.85
916.925	7192.27
917.236	7225.71
917.548	7168.54
917.859	7156.34
918.171	7143.46
918.482	7079.5
918.794	7006.06
919.105	7007.87
919.416	6963.35
919.727	6954.76
920.038	6982.78
920.349	6891.49
920.66	6880.19
920.971	6816.23
921.282	6841.32
921.593	6792.28
921.903	6739.85
922.214	6748.21
922.525	6786.63
922.835	6662.34
923.146	6586.63
923.456	6608.1
923.767	6605.17
924.077	6551.61
924.387	6586.63
924.697	6516.81
925.008	6506.64
925.318	6468.22
925.628	6394.32
925.938	6455.11
926.248	6412.18
926.558	6314.78
926.867	6303.48
927.177	6296.47
927.487	6241.33
927.796	6220.32
928.106	6236.36
928.416	6154.78
928.725	6127.89
929.034	6156.36
929.344	6124.5
929.653	6108.23
929.962	6063.48
930.271	6024.39
930.581	5970.83
930.89	5958.63
931.199	5954.56
931.508	5920.66
931.817	5902.13
932.125	5895.13
932.434	5867.11
932.743	5724.74
933.051	5830.95
933.36	5750.95
933.669	5690.61
933.977	5709.82
934.286	5672.99
934.594	5701.69
934.902	5650.16
935.21	5588.47
935.519	5634.12
935.827	5560.22
936.135	5580.56
936.443	5501.69
936.751	5466.89
937.059	5437.51
937.367	5438.19
937.674	5432.77
937.982	5452.43
938.29	5388.93
938.597	5400.68
938.905	5405.87
939.213	5322.71
939.52	5280.23
939.827	5257.4
940.135	5259.66
940.442	5245.43
940.749	5175.6
941.056	5217.41
941.363	5127.46
941.67	5115.94
941.977	5099.67
942.284	5064.64
942.591	5044.53
942.898	5066.9
943.205	5062.61
943.511	5027.58
943.818	5001.37
944.125	4979.22
944.431	4926.34
944.738	4938.32
945.044	4922.5
945.35	4903.06
945.657	4861.48
945.963	4824.2
946.269	4797.08
946.575	4837.3
946.881	4781.26
947.187	4769.28
947.493	4723.18
947.799	4712.11
948.105	4732.67
948.41	4686.12
948.716	4665.1
949.022	4644.09
949.327	4640.92
949.633	4539
949.938	4587.82
950.244	4572.45
950.549	4521.6
950.854	4504.2
951.16	4515.73
951.465	4475.28
951.77	4454.04
952.075	4443.64
952.38	4449.29
952.685	4403.42
952.99	4362.74
953.294	4377.65
953.599	4345.79
953.904	4325.23
954.209	4319.8
954.513	4310.08
954.818	4289.75
955.122	4261.27
955.426	4212.46
955.731	4212.01
956.035	4188.05
956.339	4162.29
956.643	4155.29
956.948	4126.81
957.252	4115.06
957.556	4098.56
957.86	4070.32
958.163	4092.01
958.467	4066.93
958.771	4045.46
959.075	4026.48
959.378	4030.32
959.682	4015.4
959.985	3974.5
960.289	3974.05
960.592	3901.06
960.896	3886.59
961.199	3905.58
961.502	3831.68
961.805	3863.32
962.108	3879.36
962.411	3808.85
962.714	3825.13
963.017	3828.74
963.32	3761.17
963.623	3743.09
963.926	3776.99
964.228	3712.81
964.531	3744.68
964.833	3669.2
965.136	3671.91
965.438	3645.7
965.741	3633.04
966.043	3619.03
966.345	3597.11
966.648	3604.57
966.95	3553.72
967.252	3586.04
967.554	3526.6
967.856	3527.96
968.158	3534.29
968.46	3482.76
968.761	3513.27
969.063	3457.45
969.365	3463.78
969.666	3452.71
969.968	3443.89
970.269	3409.54
970.571	3419.49
970.872	3351.92
971.174	3334.52
971.475	3351.24
971.776	3369.77
972.077	3364.57
972.378	3294.07
972.679	3331.58
972.98	3287.96
973.281	3232.6
973.582	3266.27
973.883	3199.38
974.183	3185.82
974.484	3195.99
974.785	3201.64
975.085	3184.24
975.386	3202.54
975.686	3209.55
975.986	3141.75
976.287	3118.7
976.587	3138.59
976.887	3088.42
977.187	3064.24
977.487	3084.13
977.787	3083.9
978.087	3053.62
978.387	3057.01
978.687	3009.1
978.987	2986.05
979.286	2973.4
979.586	3007.75
979.885	2970.91
980.185	2945.37
980.484	2962.32
980.784	2913.74
981.083	2878.94
981.382	2893.62
981.682	2892.49
981.981	2899.27
982.28	2901.53
982.579	2857.92
982.878	2846.39
983.177	2816.34
983.475	2842.1
983.774	2816.11
984.073	2777.7
984.372	2726.4
984.67	2797.13
984.969	2801.88
985.267	2748.77
985.566	2717.58
985.864	2727.75
986.162	2731.82
986.461	2721.2
986.759	2673.97
987.057	2676.46
987.355	2629.9
987.653	2628.32
987.951	2642.33
988.249	2586.29
988.547	2610.24
988.844	2631.71
989.142	2603.69
989.44	2551.94
989.737	2581.99
990.035	2559.17
990.332	2553.29
990.63	2546.29
990.927	2522.56
991.224	2515.78
991.521	2487.53
991.819	2486.18
992.116	2461.09
992.413	2453.86
992.71	2441.43
993.006	2433.98
993.303	2425.84
993.6	2400.3
993.897	2386.07
994.193	2387.88
994.49	2367.31
994.787	2346.07
995.083	2379.74
995.379	2327.09
995.676	2331.15
995.972	2310.59
996.268	2308.78
996.565	2299.06
996.861	2316.92
997.157	2296.58
997.453	2251.38
997.749	2238.73
998.044	2236.92
998.34	2243.92
998.636	2207.09
998.932	2193.76
999.227	2192.63
999.523	2189.91
999.818	2166.41
1000.114	2127.54
1000.409	2180.42
1000.704	2123.02
1001	2146.98
1001.295	2107.88
1001.59	2100.88
1001.885	2091.84
1002.18	2085.51
1002.475	2072.4
1002.77	2071.27
1003.065	2064.27
1003.359	2039.86
1003.654	2042.57
1003.949	2003.03
1004.243	2031.27
1004.538	1998.73
1004.832	1971.39
1005.127	1979.75
1005.421	1983.59
1005.715	1952.86
1006.009	1938.17
1006.304	1939.3
1006.598	1949.02
1006.892	1903.37
1007.186	1911.5
1007.48	1879.87
1007.773	1853.88
1008.067	1886.65
1008.361	1851.84
1008.655	1856.14
1008.948	1863.6
1009.242	1819.08
1009.535	1832.41
1009.829	1779.53
1010.122	1811.39
1010.415	1790.15
1010.708	1736.14
1011.001	1776.82
1011.295	1746.08
1011.588	1773.65
1011.881	1705.63
1012.173	1725.29
1012.466	1705.86
1012.759	1717.16
1013.052	1712.86
1013.344	1696.37
1013.637	1702.92
1013.93	1652.98
1014.222	1668.12
1014.514	1620.44
1014.807	1631.28
1015.099	1635.35
1015.391	1628.12
1015.683	1601.68
1015.976	1612.98
1016.268	1604.17
1016.56	1593.77
1016.851	1566.43
1017.143	1560.78
1017.435	1551.51
1017.727	1524.39
1018.018	1548.58
1018.31	1514.9
1018.602	1536.37
1018.893	1492.98
1019.185	1523.04
1019.476	1495.47
1019.767	1475.36
1020.058	1465.64
1020.35	1460.22
1020.641	1458.41
1020.932	1461.12
1021.223	1428.8
1021.514	1456.15
1021.804	1394.45
1022.095	1396.49
1022.386	1394.68
1022.677	1365.98
1022.967	1372.99
1023.258	1356.04
1023.548	1338.86
1023.839	1349.94
1024.129	1336.15
1024.419	1337.96
1024.709	1334.34
1025	1322.82
1025.29	1300.9
1025.58	1332.08
1025.87	1304.74
1026.16	1262.03
1026.449	1255.7
1026.739	1266.1
1027.029	1249.15
1027.319	1248.47
1027.608	1204.86
1027.898	1220.45
1028.187	1230.17
1028.477	1231.97
1028.766	1198.3
1029.055	1207.79
1029.344	1180.68
1029.634	1157.85
1029.923	1176.61
1030.212	1159.88
1030.501	1174.8
1030.79	1149.94
1031.078	1139.32
1031.367	1136.16
1031.656	1136.38
1031.945	1137.29
1032.233	1115.59
1032.522	1117.4
1032.81	1105.2
1033.099	1095.93
1033.387	1108.13
1033.675	1060
1033.963	1067.91
1034.251	1066.1
1034.54	1072.43
1034.828	1036.05
1035.116	1053.67
1035.403	1023.62
1035.691	1038.98
1035.979	1034.92
1036.267	1019.32
1036.554	1017.52
1036.842	1005.99
1037.129	993.11
1037.417	970.74
1037.704	999.66
1037.992	981.36
1038.279	959.89
1038.566	980.68
1038.853	980.68
1039.14	980.68
