Data from hue_38_FLMS001491_00092.txt Node
Date: Tue Feb 07 17:32:13 GMT 2017
User: dcchb
Spectrometer: FLMS00149
Trigger mode: 0
Integration Time (sec): 2.000000E-2
Scans to average: 10
Electric dark correction enabled: true
Nonlinearity correction enabled: false
Boxcar width: 0
XAxis mode: Wavelengths
Number of Pixels in Spectrum: 2048
>>>>>Begin Spectral Data<<<<<
341.393	-26.02
341.776	-26.02
342.16	-26.02
342.543	-60.14
342.927	-68.05
343.31	-74.83
343.693	-75.05
344.077	-66.69
344.46	-63.08
344.843	-54.04
345.226	-41.16
345.61	-27.15
345.993	-40.48
346.376	11.95
346.759	12.4
347.142	20.08
347.525	21.44
347.908	67.99
348.291	88.78
348.674	100.08
349.057	119.74
349.44	126.97
349.823	146.18
350.206	177.59
350.588	192.06
350.971	202
351.354	237.93
351.737	260.08
352.119	246.97
352.502	276.8
352.884	285.39
353.267	286.97
353.65	296.46
354.032	310.02
354.414	317.03
354.797	309.57
355.179	316.8
355.562	320.19
355.944	330.13
356.326	323.35
356.709	342.34
357.091	342.34
357.473	364.26
357.855	337.14
358.238	340.08
358.62	351.83
359.002	355.44
359.384	358.83
359.766	354.31
360.148	355.22
360.53	338.04
360.912	357.25
361.294	343.69
361.676	338.49
362.057	332.62
362.439	346.63
362.821	331.71
363.203	326.52
363.584	339.17
363.966	336.01
364.348	329.45
364.729	309.57
365.111	330.58
365.493	352.73
365.874	313.18
366.256	348.44
366.637	320.64
367.019	338.04
367.4	328.1
367.781	326.74
368.163	327.65
368.544	315.9
368.925	308.44
369.306	331.71
369.688	332.62
370.069	330.58
370.45	310.02
370.831	324.93
371.212	323.35
371.593	305.5
371.974	310.02
372.355	325.39
372.736	332.62
373.117	343.01
373.498	331.49
373.879	324.48
374.26	299.85
374.641	336.23
375.021	316.57
375.402	314.77
375.783	328.32
376.163	324.03
376.544	353.18
376.925	339.17
377.305	331.71
377.686	333.3
378.066	323.35
378.447	355.89
378.827	352.28
379.208	353.18
379.588	339.62
379.968	350.47
380.349	336.01
380.729	342.11
381.109	348.66
381.489	340.53
381.87	331.26
382.25	364.93
382.63	363.8
383.01	374.65
383.39	338.95
383.77	357.7
384.15	369.68
384.53	338.95
384.91	376.69
385.29	370.36
385.67	348.21
386.049	353.18
386.429	350.47
386.809	358.83
387.189	359.51
387.568	378.49
387.948	351.83
388.328	391.15
388.707	361.77
389.087	376.46
389.466	374.43
389.846	379.4
390.225	385.27
390.605	360.87
390.984	372.39
391.363	394.31
391.743	389.57
392.122	361.09
392.501	385.27
392.881	380.75
393.26	377.59
393.639	413.52
394.018	381.43
394.397	378.04
394.776	378.49
395.155	377.81
395.534	391.6
395.913	378.94
396.292	407.64
396.671	400.64
397.05	402
397.429	388.21
397.808	410.13
398.186	413.75
398.565	369.68
398.944	409.23
399.323	385.5
399.701	405.61
400.08	407.19
400.458	409.68
400.837	422.79
401.215	449.23
401.594	422.56
401.972	409.45
402.351	418.49
402.729	417.36
403.107	427.98
403.486	416.01
403.864	425.5
404.242	422.79
404.62	418.27
404.999	439.51
405.377	431.37
405.755	414.65
406.133	435.89
406.511	444.48
406.889	454.88
407.267	469.34
407.645	446.51
408.023	448.32
408.401	458.72
408.779	475.44
409.156	470.69
409.534	456.68
409.912	466.85
410.29	480.41
410.667	464.37
411.045	480.41
411.422	497.36
411.8	479.51
412.178	477.93
412.555	501.2
412.933	506.85
413.31	489.22
413.687	481.09
414.065	506.4
414.442	505.04
414.819	536.68
415.197	513.18
415.574	523.57
415.951	541.43
416.328	521.54
416.705	528.32
417.082	506.4
417.46	532.84
417.837	533.29
418.214	518.6
418.591	547.75
418.967	540.75
419.344	541.65
419.721	550.47
420.098	566.28
420.475	560.41
420.852	552.27
421.228	560.86
421.605	571.48
421.982	566.28
422.358	571.48
422.735	576.91
423.111	586.4
423.488	584.14
423.864	584.59
424.241	586.62
424.617	595.21
424.994	598.37
425.37	608.32
425.746	593.63
426.123	615.77
426.499	604.48
426.875	620.75
427.251	614.19
427.627	632.05
428.003	622.55
428.379	646.28
428.756	625.49
429.132	670.01
429.507	645.6
429.883	668.43
430.259	652.84
430.635	665.72
431.011	673.63
431.387	672.95
431.763	709.33
432.138	696.68
432.514	714.08
432.89	694.64
433.265	694.19
433.641	697.13
434.016	724.02
434.392	730.35
434.767	740.29
435.143	749.56
435.518	717.69
435.894	772.61
436.269	759.95
436.644	762.66
437.02	775.54
437.395	758.14
437.77	804.02
438.145	819.16
438.52	815.54
438.895	795.88
439.271	792.72
439.646	790.46
440.021	805.37
440.395	819.61
440.77	834.07
441.145	836.56
441.52	844.7
441.895	858.25
442.27	872.04
442.645	866.62
443.019	869.55
443.394	854.19
443.769	865.71
444.143	867.75
444.518	870.68
444.892	865.49
445.267	899.38
445.641	905.48
446.016	893.96
446.39	893.06
446.764	892.83
447.139	897.8
447.513	925.6
447.887	958.14
448.262	920.4
448.636	937.35
449.01	917.46
449.384	949.33
449.758	971.7
450.132	976.67
450.506	952.26
450.88	978.48
451.254	980.06
451.628	960.85
452.002	995.43
452.376	973.28
452.75	1005.6
453.123	1042.66
453.497	1026.61
453.871	1038.36
454.244	1055.09
454.618	1061.41
454.992	1079.94
455.365	1072.49
455.739	1105.25
456.112	1123.56
456.486	1111.13
456.859	1109.32
457.232	1139.15
457.606	1150
457.979	1164.46
458.352	1169.88
458.725	1174.18
459.099	1168.08
459.472	1222.54
459.845	1215.53
460.218	1237.91
460.591	1276.55
460.964	1267.06
461.337	1276.77
461.71	1304.12
462.083	1309.32
462.456	1311.12
462.829	1319.94
463.201	1347.51
463.574	1354.51
463.947	1375.08
464.32	1399.26
464.692	1418.24
465.065	1412.59
465.438	1460.72
465.81	1456.43
466.183	1481.29
466.555	1538.24
466.928	1522.64
467.3	1535.07
467.672	1562.42
468.045	1614.39
468.417	1615.75
468.789	1593.15
469.161	1651.23
469.534	1678.8
469.906	1695.07
470.278	1714.73
470.65	1742.98
471.022	1805.8
471.394	1806.48
471.766	1832.92
472.138	1870.88
472.51	1918.57
472.882	1916.53
473.253	1955.4
473.625	2036.75
473.997	2040.14
474.369	2103.19
474.74	2102.97
475.112	2158.56
475.484	2232.46
475.855	2255.28
476.227	2274.04
476.598	2396.74
476.97	2420.47
477.341	2453.69
477.713	2494.82
478.084	2534.59
478.455	2633.12
478.827	2651.88
479.198	2754.02
479.569	2764.42
479.94	2900.91
480.311	2952.44
480.682	3001.25
481.053	3087.57
481.424	3174.35
481.795	3251.86
482.166	3288.47
482.537	3353.78
482.908	3448.92
483.279	3525.08
483.65	3601.01
484.021	3712.64
484.391	3789.25
484.762	3885.97
485.133	3901.79
485.503	4011.17
485.874	4156.02
486.244	4223.14
486.615	4333.64
486.985	4388.1
487.356	4532.73
487.726	4606.86
488.097	4762.56
488.467	4804.14
488.837	4897.7
489.207	5044.13
489.578	5153.06
489.948	5258.59
490.318	5366.16
490.688	5426.95
491.058	5581.07
491.428	5647.28
491.798	5746.04
492.168	5937.89
492.538	6019.25
492.908	6117.78
493.278	6197.77
493.648	6267.6
494.017	6375.85
494.387	6490.42
494.757	6607.26
495.126	6708.5
495.496	6776.52
495.866	6828.72
496.235	6930.86
496.605	7049.28
496.974	7155.04
497.344	7279.1
497.713	7371.3
498.082	7475.03
498.452	7550.51
498.821	7674.57
499.19	7702.37
499.559	7821.91
499.928	7871.63
500.298	7955.47
500.667	8100.32
501.036	8171.06
501.405	8232.75
501.774	8232.98
502.143	8461.9
502.512	8450.37
502.88	8589.58
503.249	8604.72
503.618	8686.07
503.987	8738.95
504.356	8892.62
504.724	8916.8
505.093	9043.58
505.462	9051.94
505.83	9148.66
506.199	9290.35
506.567	9405.37
506.936	9388.43
507.304	9525.82
507.672	9554.97
508.041	9659.6
508.409	9802.88
508.777	9816.44
509.145	9873.61
509.514	9882.2
509.882	9996.09
510.25	10009.2
510.618	10145.24
510.986	10195.64
511.354	10249.42
511.722	10391.56
512.09	10471.11
512.458	10479.92
512.826	10525.8
513.193	10609.18
513.561	10687.15
513.929	10732.12
514.297	10883.53
514.664	10949.51
515.032	10987.71
515.4	11104.09
515.767	11144.31
516.135	11267.7
516.502	11213.01
516.869	11337.98
517.237	11420.69
517.604	11388.15
517.972	11562.15
518.339	11578.2
518.706	11618.42
519.073	11626.33
519.44	11713.11
519.808	11885.99
520.175	11907
520.542	12020.22
520.909	12051.86
521.276	12095.47
521.643	12217.05
522.009	12287.56
522.376	12457.72
522.743	12397.39
523.11	12576.82
523.477	12685.97
523.843	12786.75
524.21	12903.59
524.577	12918.73
524.943	12988.1
525.31	13063.58
525.676	13172.96
526.043	13263.58
526.409	13269.68
526.776	13470.35
527.142	13456.12
527.508	13521.42
527.874	13673.51
528.241	13759.84
528.607	13802.09
528.973	13872.83
529.339	13883.67
529.705	14065.14
530.071	14182.65
530.437	14246.38
530.803	14329.31
531.169	14398.46
531.535	14398.46
531.901	14414.06
532.267	14501.51
532.632	14634.39
532.998	14673.03
533.364	14764.1
533.73	14814.5
534.095	14889.52
534.461	14922.74
534.826	15081.38
535.192	15047.94
535.557	15276.18
535.923	15170.19
536.288	15257.65
536.653	15317.76
537.019	15420.36
537.384	15401.83
537.749	15511.2
538.114	15582.84
538.479	15551.2
538.845	15640.24
539.21	15635.72
539.575	15734.7
539.94	15763.63
540.305	15991.64
540.67	15948.25
541.034	15978.99
541.399	16043.62
541.764	16124.29
542.129	16155.71
542.494	16209.49
542.858	16286.1
543.223	16307.34
543.587	16447.22
543.952	16478.18
544.316	16547.11
544.681	16614.45
545.045	16675.24
545.41	16745.07
545.774	16812.41
546.138	16897.61
546.503	16879.08
546.867	16883.14
547.231	17043.37
547.595	17048.79
547.959	17120.65
548.324	17025.51
548.688	17182.8
549.052	17242.46
549.416	17258.5
549.779	17324.71
550.143	17432.06
550.507	17415.33
550.871	17533.75
551.235	17566.52
551.599	17761.09
551.962	17690.58
552.326	17800.63
552.689	17855.1
553.053	17785.49
553.417	17919.73
553.78	18240.17
554.143	18075.2
554.507	18138.25
554.87	18283.78
555.234	18384.57
555.597	18204.69
555.96	18338.92
556.323	18486.27
556.686	18460.96
557.05	18601.52
557.413	18685.58
557.776	18726.03
558.139	18824.34
558.502	18837.22
558.865	18914.28
559.228	19012.81
559.59	19102.07
559.953	19194.27
560.316	19304.1
560.679	19238.56
561.041	19317.66
561.404	19423.64
561.767	19637.65
562.129	19470.42
562.492	19724.65
562.854	19666.8
563.217	19740.02
563.579	19866.79
563.941	19960.8
564.304	19996.51
564.666	20148.37
565.028	20135.26
565.39	20229.27
565.753	20303.17
566.115	20396.5
566.477	20380.9
566.839	20525.99
567.201	20632.42
567.563	20620.22
567.925	20854.11
568.287	20919.2
568.648	20943.38
569.01	21046.88
569.372	21150.6
569.734	21124.16
570.095	21240.77
570.457	21380.88
570.819	21359.86
571.18	21341.33
571.542	21586.75
571.903	21611.15
572.265	21792.39
572.626	21788.1
572.987	21869.45
573.349	21864.93
573.71	22013.4
574.071	22151.03
574.432	22247.07
574.794	22515.31
575.155	22412.72
575.516	22547.63
575.877	22711.01
576.238	22769.54
576.599	22937
576.96	22981.97
577.32	23128.63
577.681	23289.53
578.042	23392.13
578.403	23531.56
578.763	23651.33
579.124	23803.19
579.485	23845.67
579.845	24123.41
580.206	24226.45
580.566	24355.49
580.927	24420.12
581.287	24659.21
581.648	24722.94
582.008	25019.2
582.368	25134.23
582.728	25176.26
583.089	25472.07
583.449	25463.93
583.809	25740.99
584.169	26033.64
584.529	26025.5
584.889	26455.77
585.249	26490.57
585.609	26567.63
585.969	26962.43
586.329	27073.16
586.688	27292.81
587.048	27356.99
587.408	27558.8
587.768	27921.05
588.127	28048.05
588.487	28157.2
588.846	28606.23
589.206	28669.05
589.565	28857.29
589.925	29231.75
590.284	29279.88
590.643	29710.15
591.003	29817.72
591.362	29949.92
591.721	30123.47
592.08	30339.96
592.44	30651.37
592.799	30769.78
593.158	30925.49
593.517	31070.79
593.876	31443.89
594.235	31564.11
594.593	31816.08
594.952	32007.04
595.311	32155.96
595.67	32361.83
596.029	32737.87
596.387	32756.85
596.746	33106.67
597.104	33279.32
597.463	33361.13
597.822	33790.5
598.18	33757.73
598.538	34056.25
598.897	34194.78
599.255	34188.45
599.613	34932.39
599.972	34722.67
600.33	34961.09
600.688	34955.66
601.046	35352.71
601.404	35538.7
601.762	35600.84
602.12	36023.21
602.478	36084.22
602.836	36186.36
603.194	36290.09
603.552	36453.25
603.91	36406.47
604.268	36769.17
604.625	36921.26
604.983	37239.9
605.341	37036.96
605.698	37338.88
606.056	37609.83
606.413	37690.96
606.771	37874.23
607.128	38139.31
607.485	38089.37
607.843	38102.25
608.2	38406.19
608.557	38622.69
608.914	38609.35
609.272	38804.6
609.629	38967.53
609.986	39155.1
610.343	39130.92
610.7	39433.51
611.057	39432.16
611.414	39650
611.771	39732.03
612.127	39907.85
612.484	39993.04
612.841	40103.55
613.198	40093.83
613.554	40430.77
613.911	40471.22
614.267	40626.47
614.624	40520.49
614.98	40770.88
615.337	41043.41
615.693	40875.28
616.05	41116.63
616.406	41352.78
616.762	41301.71
617.118	41344.87
617.475	41334.7
617.831	41671.64
618.187	41654.24
618.543	41704.41
618.899	41914.58
619.255	42040.9
619.611	42071.18
619.967	42242.02
620.323	42263.95
620.678	42151.86
621.034	42189.6
621.39	42153.89
621.746	42365.86
622.101	42865.74
622.457	42513.2
622.812	42517.05
623.168	42784.84
623.523	42788.68
623.879	42931.95
624.234	42672.75
624.589	43103.92
624.945	42993.87
625.3	43053.98
625.655	43080.42
626.01	43136.46
626.365	43204.03
626.72	43155.45
627.075	43244.03
627.43	43167.65
627.785	43022.57
628.14	43136.92
628.495	43319.96
628.85	43227.99
629.205	43133.75
629.559	43383.24
629.914	43370.36
630.269	43337.82
630.623	43437.47
630.978	43250.59
631.332	43540.52
631.687	43489.68
632.041	43348.21
632.396	43420.75
632.75	43359.96
633.104	43403.58
633.459	43232.51
633.813	43192.96
634.167	43287.65
634.521	43311.15
634.875	43359.06
635.229	43339.4
635.583	43197.25
635.937	43166.52
636.291	43102.79
636.645	43220.53
636.999	43219.85
637.352	43204.49
637.706	43060.31
638.06	43166.29
638.413	43138.05
638.767	43000.65
639.121	43317.25
639.474	42853.08
639.828	42943.7
640.181	42909.8
640.534	43053.98
640.888	42793.87
641.241	42759.53
641.594	42816.02
641.947	43010.37
642.301	42801.33
642.654	42745.06
643.007	42887.88
643.36	42836.13
643.713	42894.44
644.066	42901.89
644.419	42717.49
644.771	42275.24
645.124	42086.77
645.477	42167.9
645.83	41754.35
646.182	41726.11
646.535	41600.01
646.888	41656.05
647.24	41548.26
647.593	41667.8
647.945	41588.03
648.298	41388.71
648.65	41224.65
649.002	41329.05
649.355	41423.06
649.707	41379.9
650.059	41525.21
650.411	41933.11
650.763	42020.34
651.115	42463.26
651.467	42261.01
651.819	42348.01
652.171	42336.03
652.523	42189.82
652.875	42182.82
653.227	42038.87
653.578	42262.82
653.93	42185.76
654.282	42164.74
654.633	41967.23
654.985	41960.9
655.337	42015.82
655.688	41996.16
656.039	42198.86
656.391	41798.19
656.742	41892.43
657.094	41857.63
657.445	42118.64
657.796	41793.45
658.147	41903.05
658.498	41855.37
658.849	41931.52
659.2	41858.76
659.551	41791.64
659.902	41980.79
660.253	41857.85
660.604	41880
660.955	41694.24
661.306	41903.05
661.656	41835.26
662.007	41810.85
662.358	41823.28
662.708	41825.76
663.059	41718.65
663.409	41569.27
663.76	41842.94
664.11	41781.02
664.461	41888.59
664.811	41769.95
665.161	41752.77
665.511	41584.19
665.862	41791.87
666.212	41850.17
666.562	41844.75
666.912	41666.9
667.262	41641.59
667.612	41574.7
667.962	41655.6
668.312	41658.99
668.662	41861.7
669.011	41720.23
669.361	41752.77
669.711	41637.52
670.06	41662.61
670.41	41544.87
670.76	41540.35
671.109	41647.46
671.459	41547.58
671.808	41500.58
672.157	41570.4
672.507	41315.5
672.856	41366.57
673.205	41456.96
673.554	41539.67
673.904	41284.76
674.253	41638.2
674.602	41508.94
674.951	40926.35
675.3	40832.8
675.649	41396.17
675.998	41379.67
676.346	41251.54
676.695	41381.71
677.044	41118.89
677.393	41181.04
677.741	41117.53
678.09	41181.04
678.438	41004.32
678.787	41249.51
679.135	41051.32
679.484	40825.79
679.832	40974.26
680.181	40769.07
680.529	40940.36
680.877	40828.05
681.225	40755.28
681.573	40942.85
681.922	40541.5
682.27	40621.5
682.618	40616.08
682.966	40432.13
683.314	40539.02
683.661	40523.43
684.009	40264.22
684.357	40212.02
684.705	40225.13
685.053	40091.8
685.4	40212.7
685.748	39895.87
686.095	39967.51
686.443	39840.96
686.79	39794.86
687.138	39854.97
687.485	39839.15
687.832	39706.5
688.18	39679.38
688.527	39459.73
688.874	39457.47
689.221	39521.64
689.568	39378.6
689.915	39167.53
690.262	39313.97
690.609	39325.27
690.956	39048.44
691.303	38996.69
691.65	38822.91
691.997	38828.78
692.344	38496.36
692.69	38652.51
693.037	38695
693.383	38337.04
693.73	38391.5
694.077	38180.66
694.423	38180.66
694.769	37927.79
695.116	37968.46
695.462	37923.95
695.808	37838.07
696.155	37910.84
696.501	37678.3
696.847	37551.3
697.193	37339.55
697.539	37471.53
697.885	37396.05
698.231	37075.83
698.577	37209.39
698.923	37168.49
699.269	36959.9
699.614	36738.67
699.96	36721.94
700.306	36753.13
700.651	36552.46
700.997	36491.22
701.342	36460.03
701.688	36271.79
702.033	36345
702.379	36036.31
702.724	36092.58
703.069	36043.09
703.415	35844
703.76	35896.43
704.105	35839.93
704.45	35718.35
704.795	35513.39
705.14	35490.11
705.485	35317.46
705.83	35255.54
706.175	35372.38
706.52	35377.57
706.865	35045.83
707.209	34983.46
707.554	34917.25
707.899	34914.31
708.243	34856.68
708.588	34781.43
708.932	34593.41
709.277	34592.73
709.621	34541.89
709.966	34348.9
710.31	34456.01
710.654	34049.92
710.998	34199.75
711.342	34216.7
711.687	34103.03
712.031	33938.29
712.375	33696.26
712.719	33984.39
713.063	33765.64
713.407	33832.3
713.75	33698.97
714.094	33673.89
714.438	33421.24
714.782	33481.58
715.125	33347.34
715.469	33317.29
715.812	33108.25
716.156	33101.93
716.499	33133.79
716.843	33142.83
717.186	32806.57
717.53	33029.84
717.873	33007.47
718.216	32807.24
718.559	32676.85
718.902	32686.12
719.246	32567.7
719.589	32446.58
719.932	32385.56
720.275	32410.87
720.617	32439.12
720.96	32280.03
721.303	32390.98
721.646	32257.88
721.989	32148.73
722.331	32278.67
722.674	32087.26
723.016	32229.86
723.359	32134.04
723.701	32195.51
724.044	31848.85
724.386	31787.16
724.729	31899.7
725.071	31795.52
725.413	31642.98
725.755	31836.87
726.097	31622.87
726.439	31507.17
726.782	31502.19
727.124	31588.29
727.465	31395.08
727.807	31430.78
728.149	31381.29
728.491	31324.35
728.833	31343.1
729.175	31159.15
729.516	31182.43
729.858	31132.26
730.199	31111.92
730.541	31040.96
730.882	30967.52
731.224	31015.2
731.565	30845.94
731.906	30831.7
732.248	30860.18
732.589	30742.44
732.93	30515.55
733.271	30653.4
733.612	30600.07
733.953	30645.04
734.294	30518.94
734.635	30466.06
734.976	30532.28
735.317	30255.67
735.658	30363.69
735.999	30231.04
736.339	30185.17
736.68	30367.08
737.021	30129.12
737.361	30061.1
737.702	30048
738.042	30068.11
738.383	30041.22
738.723	30074.44
739.063	29812.52
739.404	29991.05
739.744	29951.5
740.084	29720.55
740.424	29914.67
740.764	29718.06
741.104	29763.93
741.444	29681
741.784	29486.2
742.124	29545.41
742.464	29654.79
742.804	29407.56
743.143	29456.82
743.483	29586.09
743.823	29286.21
744.162	29347.9
744.502	29339.77
744.841	29149.04
745.181	29215.25
745.52	29331.86
745.86	29283.04
746.199	29087.57
746.538	29150.84
746.877	29175.02
747.216	29108.58
747.556	29063.61
747.895	29011.41
748.234	28784.75
748.573	28856.39
748.911	28860.91
749.25	28734.81
749.589	28704.75
749.928	28722.15
750.267	28710.86
750.605	28606.45
750.944	28480.35
751.283	28389.73
751.621	28455.95
751.96	28295.95
752.298	28301.15
752.636	28259.12
752.975	28297.08
753.313	28157.88
753.651	28204.43
753.989	27998.33
754.327	27972.8
754.666	27922.4
755.004	27954.72
755.342	27829.52
755.679	27960.37
756.017	27641.73
756.355	27906.81
756.693	27647.15
757.031	27702.75
757.368	27439.48
757.706	27459.36
758.044	27412.58
758.381	27384.79
758.719	27296.43
759.056	27288.07
759.394	27139.82
759.731	27081.07
760.068	27040.62
760.405	26927.63
760.743	26783.67
761.08	26790.45
761.417	26783.22
761.754	26647.86
762.091	26592.49
762.428	26571.93
762.765	26373.29
763.102	26450.12
763.438	26346.4
763.775	26200.19
764.112	26210.58
764.449	26184.37
764.785	26030.25
765.122	25885.84
765.458	25821.44
765.795	25689.01
766.131	25659.41
766.467	25544.61
766.804	25464.84
767.14	25436.14
767.476	25430.72
767.812	25281.57
768.148	25264.62
768.485	25071.85
768.821	25083.15
769.157	24963.84
769.492	24965.87
769.828	24825.99
770.164	24739.21
770.5	24534.69
770.836	24675.26
771.171	24465.09
771.507	24281.59
771.842	24212.67
772.178	24271.65
772.513	24203.63
772.849	24164.99
773.184	23961.6
773.519	23971.54
773.855	23914.37
774.19	23690.87
774.525	23654.27
774.86	23659.69
775.195	23606.13
775.53	23445.23
775.865	23433.25
776.2	23246.59
776.535	23048.86
776.87	23101.29
777.205	22899.48
777.539	22890.44
777.874	22908.07
778.209	22650.22
778.543	22661.52
778.878	22593.95
779.212	22623.11
779.547	22463.34
779.881	22427.86
780.215	22301.31
780.55	22280.29
780.884	22155.77
781.218	21954.2
781.552	22140.63
781.886	21965.27
782.22	21855.67
782.554	21784.26
782.888	21673.98
783.222	21456.36
783.556	21345.85
783.889	21379.97
784.223	21191.73
784.557	21164.39
784.89	21213.88
785.224	20971.17
785.557	21005.52
785.891	20974.34
786.224	20926.65
786.558	20922.59
786.891	20664.29
787.224	20627.23
787.557	20568.24
787.891	20613.89
788.224	20455.71
788.557	20426.33
788.89	20401.92
789.223	20378.64
789.556	20165.09
789.888	20066.34
790.221	20067.69
790.554	19949.28
790.887	19895.27
791.219	19820.02
791.552	19849.39
791.884	19631.55
792.217	19578.67
792.549	19491.21
792.882	19380.71
793.214	19335.73
793.546	19383.87
793.879	19231.1
794.211	19149.52
794.543	19253.25
794.875	19181.16
795.207	19143.42
795.539	19015.52
795.871	19080.37
796.203	18776.2
796.535	18761.06
796.867	18719.71
797.198	18702.76
797.53	18688.97
797.862	18595.19
798.193	18545.47
798.525	18481.97
798.856	18498.69
799.188	18272.03
799.519	18248.76
799.85	18098.93
800.182	18200.85
800.513	18103.9
800.844	17928.99
801.175	18031.81
801.506	18014.19
801.837	17946.39
802.168	17883.8
802.499	17832.72
802.83	17621.43
803.161	17603.35
803.491	17552.96
803.822	17621.43
804.153	17489.46
804.483	17337.82
804.814	17363.58
805.145	17315.22
805.475	17238.61
805.805	17215.56
806.136	17197.26
806.466	17263.47
806.796	17140.09
807.126	17012.86
807.457	16950.49
807.787	17024.61
808.117	16843.14
808.447	16794.78
808.777	16861
809.107	16705.07
809.436	16722.7
809.766	16649.48
810.096	16549.37
810.426	16575.81
810.755	16560.21
811.085	16472.98
811.414	16451.74
811.744	16360.9
812.073	16298.3
812.403	16280.22
812.732	16189.38
813.061	16171.3
813.39	16152.09
813.719	16122.26
814.049	16126.33
814.378	16167.91
814.707	16007.23
815.036	15935.82
815.365	15934.02
815.693	15680.01
816.022	15788.26
816.351	15659.67
816.68	15613.57
817.008	15757.98
817.337	15547.13
817.665	15529.28
817.994	15534.48
818.322	15560.47
818.651	15482.05
818.979	15393.69
819.307	15486.57
819.636	15367.7
819.964	15320.7
820.292	15447.48
820.62	15374.03
820.948	15247.48
821.276	15373.13
821.604	15270.76
821.932	15294.94
822.259	15276.86
822.587	15223.98
822.915	15146.47
823.243	15236.63
823.57	15247.25
823.898	15257.65
824.225	15167.71
824.553	15193.92
824.88	15223.07
825.207	15170.19
825.535	15153.02
825.862	15184.21
826.189	15212.23
826.516	15217.2
826.843	15274.82
827.17	15180.14
827.497	15319.34
827.824	15242.28
828.151	15336.74
828.478	15176.97
828.805	15228.05
829.131	15143.75
829.458	15130.65
829.785	15079.35
830.111	15077.99
830.438	15175.39
830.764	15107.82
831.09	15214.71
831.417	14993.02
831.743	15182.17
832.069	15173.81
832.395	15066.69
832.722	15153.92
833.048	15106.69
833.374	15122.96
833.7	14916.42
834.026	15006.13
834.351	15018.56
834.677	15053.81
835.003	15062.85
835.329	15014.72
835.654	14973.82
835.98	14931.56
836.306	15029.86
836.631	14888.17
836.956	14872.58
837.282	14901.27
837.607	14807.49
837.932	14724.78
838.258	14722.75
838.583	14809.98
838.908	14709.19
839.233	14721.39
839.558	14675.97
839.883	14631
840.208	14639.13
840.533	14579.48
840.858	14529.31
841.182	14439.82
841.507	14413.83
841.832	14417.9
842.156	14386.49
842.481	14395.98
842.805	14420.16
843.13	14392.36
843.454	14328.63
843.778	14280.73
844.103	14238.69
844.427	14128.87
844.751	14152.37
845.075	14166.15
845.399	14115.53
845.723	14047.51
846.047	14157.34
846.371	13909.89
846.695	13919.15
847.019	13862.88
847.343	13784.69
847.666	13720.29
847.99	13615.21
848.313	13619.73
848.637	13558.49
848.96	13518.71
849.284	13457.92
849.607	13410.24
849.931	13362.11
850.254	13190.36
850.577	13191.72
850.9	13001.21
851.223	13176.35
851.546	12990.59
851.869	13031.72
852.192	12984.94
852.515	12938.39
852.838	12819.3
853.161	12754.89
853.483	12740.2
853.806	12673.31
854.129	12658.17
854.451	12660.66
854.774	12534.56
855.096	12488.91
855.419	12489.36
855.741	12431.06
856.063	12457.95
856.385	12359.19
856.708	12394
857.03	12306.09
857.352	12269.71
857.674	12311.96
857.996	12224.28
858.318	12082.59
858.64	12115.13
858.961	12100.44
859.283	11979.32
859.605	11937.74
859.926	11995.36
860.248	11956.49
860.57	11979.77
860.891	11875.14
861.212	11877.4
861.534	11827.68
861.855	11780.23
862.176	11802.6
862.498	11810.51
862.819	11710.62
863.14	11683.73
863.461	11687.57
863.782	11609.38
864.103	11730.06
864.424	11612.1
864.745	11596.95
865.065	11527.58
865.386	11506.34
865.707	11503.85
866.027	11543.4
866.348	11522.83
866.668	11566.67
866.989	11455.94
867.309	11380.46
867.63	11467.92
867.95	11357.19
868.27	11333.69
868.59	11300.92
868.91	11290.3
869.23	11286.45
869.55	11207.59
869.87	11370.75
870.19	11255.04
870.51	11256.85
870.83	11267.25
871.15	11189.73
871.469	11144.31
871.789	11155.38
872.109	11171.43
872.428	11137.53
872.748	11191.77
873.067	11095.95
873.386	11138.21
873.706	11069.29
874.025	10961.94
874.344	10959.01
874.663	10966.92
874.982	10967.82
875.301	10957.88
875.62	10889.18
875.939	10883.98
876.258	10853.92
876.577	10806.02
876.896	10892.11
877.214	10778.9
877.533	10826.58
877.852	10811.21
878.17	10861.16
878.489	10809.86
878.807	10787.94
879.125	10779.35
879.444	10658.45
879.762	10734.6
880.08	10692.35
880.398	10653.7
880.716	10664.78
881.034	10590.88
881.352	10602.63
881.67	10602.63
881.988	10605.57
882.306	10552.91
882.624	10450.54
882.941	10448.96
883.259	10460.49
883.577	10482.63
883.894	10401.73
884.212	10376.87
884.529	10361.73
884.846	10403.54
885.164	10305.46
885.481	10287.84
885.798	10264.56
886.115	10198.8
886.432	10236.76
886.75	10157.67
887.067	10194.05
887.383	10192.25
887.7	10137.56
888.017	10116.77
888.334	10126.49
888.651	9988.41
888.967	10036.77
889.284	9919.94
889.6	9974.4
889.917	9805.36
890.233	9902.08
890.55	9868.86
890.866	9864.57
891.182	9839.49
891.498	9772.37
891.815	9830.9
892.131	9726.95
892.447	9708.64
892.763	9660.73
893.079	9717.91
893.395	9632.49
893.71	9567.18
894.026	9521.08
894.342	9579.38
894.657	9484.02
894.973	9492.38
895.289	9521.08
895.604	9427.29
895.92	9383
896.235	9366.28
896.55	9292.16
896.865	9296.22
897.181	9293.74
897.496	9275.21
897.811	9202.67
898.126	9192.05
898.441	9074.99
898.756	9143.23
899.071	9098.26
899.386	9112.73
899.7	9013.97
900.015	8975.78
900.33	8895.11
900.644	8923.8
900.959	8924.03
901.273	8853.98
901.588	8846.52
901.902	8794.77
902.216	8713.19
902.531	8755.45
902.845	8727.65
903.159	8677.71
903.473	8569.92
903.787	8549.13
904.101	8471.16
904.415	8531.27
904.729	8511.16
905.042	8519.75
905.356	8437.94
905.67	8431.39
905.984	8397.04
906.297	8309.81
906.611	8316.82
906.924	8310.04
907.237	8254.67
907.551	8236.14
907.864	8198.63
908.177	8131.06
908.491	8173.09
908.804	8105.75
909.117	8048.57
909.43	7990.27
909.743	7967.67
910.056	7971.74
910.368	7942.81
910.681	7861.23
910.994	7855.81
911.307	7810.39
911.619	7755.47
911.932	7739.43
912.244	7702.82
912.557	7727.68
912.869	7689.26
913.181	7609.26
913.494	7639.09
913.806	7569.94
914.118	7554.35
914.43	7508.47
914.742	7486.78
915.054	7509.83
915.366	7503.96
915.678	7394.13
915.99	7327.69
916.302	7284.75
916.613	7240.46
916.925	7283.17
917.236	7235.26
917.548	7227.8
917.859	7198.88
918.171	7129.05
918.482	7157.07
918.794	7081.82
919.105	7097.41
919.416	7014.48
919.727	7018.32
920.038	6988.49
920.349	6953.69
920.66	6889.06
920.971	6891.99
921.282	6838.89
921.593	6830.3
921.903	6871.66
922.214	6781.49
922.525	6832.56
922.835	6742.17
923.146	6663.98
923.456	6683.41
923.767	6638.44
924.077	6590.08
924.387	6568.16
924.697	6543.53
925.008	6539.69
925.318	6489.74
925.628	6521.16
925.938	6486.35
926.248	6396.19
926.558	6401.16
926.867	6329.07
927.177	6324.33
927.487	6332.69
927.796	6254.72
928.106	6253.14
928.416	6191.67
928.725	6173.14
929.034	6169.08
929.344	6163.65
929.653	6082.98
929.962	6056.08
930.271	6031.23
930.581	5974.96
930.89	5944.22
931.199	5930.89
931.508	5977.89
931.817	5919.36
932.125	5904
932.434	5948.29
932.743	5846.37
933.051	5812.02
933.36	5844.79
933.669	5776.32
933.977	5737.9
934.286	5697.45
934.594	5760.72
934.902	5667.62
935.21	5619.49
935.519	5652.25
935.827	5624.91
936.135	5578.81
936.443	5530.67
936.751	5535.87
937.059	5522.31
937.367	5538.13
937.674	5507.17
937.982	5472.14
938.29	5389.66
938.597	5394.41
938.905	5326.39
939.213	5312.37
939.52	5305.59
939.827	5362.54
940.135	5343.79
940.442	5241.19
940.749	5229.44
941.056	5314.86
941.363	5158.25
941.67	5164.13
941.977	5115.77
942.284	5100.63
942.591	5132.04
942.898	5069.44
943.205	5079.39
943.511	5007.98
943.818	5013.4
944.125	5006.85
944.431	4987.86
944.738	4920.29
945.044	4963.91
945.35	4930.01
945.657	4868.54
945.963	4871.03
946.269	4831.03
946.575	4840.3
946.881	4777.25
947.187	4783.57
947.493	4751.49
947.799	4741.32
948.105	4722.11
948.41	4689.11
948.716	4729.34
949.022	4694.09
949.327	4692.5
949.633	4584.71
949.938	4644.6
950.244	4590.13
950.549	4535.22
950.854	4478.05
951.16	4469.91
951.465	4443.47
951.77	4497.71
952.075	4471.04
952.38	4472.17
952.685	4425.62
952.99	4416.8
953.294	4341.1
953.599	4360.54
953.904	4330.03
954.209	4308.56
954.513	4309.46
954.818	4290.71
955.122	4299.29
955.426	4258.39
955.731	4217.04
956.035	4210.48
956.339	4186.3
956.643	4191.95
956.948	4124.61
957.252	4173.42
957.556	4125.51
957.86	4111.28
958.163	4142.46
958.467	4081.67
958.771	4127.77
959.075	4069.92
959.378	4035.12
959.682	4002.8
959.985	3959.87
960.289	3945.86
960.592	3909.7
960.896	3923.71
961.199	3911.96
961.502	3932.75
961.805	3909.02
962.108	3857.72
962.411	3855.46
962.714	3853.88
963.017	3810.04
963.32	3844.84
963.623	3759.65
963.926	3776.6
964.228	3755.58
964.531	3755.35
964.833	3745.86
965.136	3704.51
965.438	3659.99
965.741	3641.46
966.043	3680.55
966.345	3625.19
966.648	3622.93
966.95	3639.65
967.252	3570.27
967.554	3574.34
967.856	3560.33
968.158	3565.3
968.46	3536.15
968.761	3497.96
969.063	3487.11
969.365	3463.16
969.666	3486.89
969.968	3485.08
970.269	3455.7
970.571	3423.38
970.872	3416.83
971.174	3355.36
971.475	3407.11
971.776	3360.56
972.077	3368.24
972.378	3319.43
972.679	3299.55
972.98	3290.51
973.281	3309.04
973.582	3292.09
973.883	3282.6
974.183	3268.13
974.484	3267.23
974.785	3234.01
975.085	3208.93
975.386	3220.9
975.686	3166.22
975.986	3165.09
976.287	3166.89
976.587	3160.11
976.887	3124.86
977.187	3127.57
977.487	3125.99
977.787	3039.21
978.087	3076.28
978.387	3041.25
978.687	3068.37
978.987	3025.2
979.286	3017.07
979.586	2992.21
979.885	2985.43
980.185	2963.96
980.484	2951.31
980.784	2958.99
981.083	2914.92
981.382	2882.16
981.682	2917.18
981.981	2875.83
982.28	2839.45
982.579	2866.11
982.878	2861.82
983.177	2893.45
983.475	2818.2
983.774	2814.14
984.073	2830.18
984.372	2808.94
984.67	2747.02
984.969	2761.48
985.267	2815.26
985.566	2754.48
985.864	2729.84
986.162	2715.83
986.461	2703.86
986.759	2688.71
987.057	2681.94
987.355	2670.64
987.653	2650.3
987.951	2633.8
988.249	2599.68
988.547	2620.02
988.844	2624.54
989.142	2617.53
989.44	2577.76
989.737	2608.72
990.035	2553.35
990.332	2566.68
990.63	2533.46
990.927	2547.7
991.224	2519.68
991.521	2504.54
991.819	2498.21
992.116	2499.79
992.413	2447.59
992.71	2433.58
993.006	2453.92
993.303	2463.41
993.6	2416.41
993.897	2437.87
994.193	2418.21
994.49	2432.9
994.787	2383.41
995.083	2358.55
995.379	2349.74
995.676	2337.54
995.972	2375.05
996.268	2325.56
996.565	2335.96
996.861	2336.18
997.157	2295.96
997.453	2258.44
997.749	2301.61
998.044	2286.69
998.34	2239.91
998.636	2220.25
998.932	2222.51
999.227	2194.49
999.523	2216.86
999.818	2175.96
1000.114	2176.41
1000.409	2176.64
1000.704	2125.34
1001	2166.69
1001.295	2114.72
1001.59	2100.93
1001.885	2146.58
1002.18	2108.84
1002.475	2091.22
1002.77	2057.77
1003.065	2076.3
1003.359	2051.67
1003.654	2056.41
1003.949	2035.17
1004.243	2009.86
1004.538	2020.26
1004.832	2008.28
1005.127	1986.13
1005.421	1972.58
1005.715	1971.9
1006.009	1937.55
1006.304	1963.99
1006.598	1940.49
1006.892	1930.09
1007.186	1899.81
1007.48	1913.59
1007.773	1876.31
1008.067	1913.82
1008.361	1873.37
1008.655	1893.03
1008.948	1872.01
1009.242	1851.22
1009.535	1875.4
1009.829	1831.79
1010.122	1815.74
1010.415	1807.16
1010.708	1795.63
1011.001	1764.22
1011.295	1761.28
1011.588	1797.89
1011.881	1734.62
1012.173	1753.6
1012.466	1751.34
1012.759	1714.95
1013.052	1706.59
1013.344	1717.44
1013.637	1707.27
1013.93	1679.48
1014.222	1666.14
1014.514	1639.93
1014.807	1657.56
1015.099	1640.38
1015.391	1611.23
1015.683	1625.47
1015.976	1610.55
1016.268	1601.06
1016.56	1599.48
1016.851	1582.98
1017.143	1563.55
1017.435	1561.74
1017.727	1516.32
1018.018	1522.42
1018.31	1560.16
1018.602	1517.9
1018.893	1527.39
1019.185	1499.59
1019.476	1487.62
1019.767	1475.87
1020.058	1491.23
1020.35	1476.77
1020.641	1448.07
1020.932	1449.2
1021.223	1436.32
1021.514	1431.12
1021.804	1425.92
1022.095	1402.65
1022.386	1427.5
1022.677	1367.17
1022.967	1373.49
1023.258	1391.35
1023.548	1388.64
1023.839	1373.49
1024.129	1370.33
1024.419	1345.7
1024.709	1341.86
1025	1307.06
1025.29	1323.1
1025.58	1309.54
1025.87	1302.76
1026.16	1272.48
1026.449	1269.99
1026.739	1255.76
1027.029	1259.6
1027.319	1281.52
1027.608	1273.61
1027.898	1207.62
1028.187	1254.63
1028.477	1235.19
1028.766	1207.85
1029.055	1222.31
1029.344	1170.11
1029.634	1209.66
1029.923	1173.27
1030.212	1191.58
1030.501	1187.29
1030.79	1140.05
1031.078	1150.45
1031.367	1115.65
1031.656	1155.87
1031.945	1132.6
1032.233	1133.05
1032.522	1119.26
1032.81	1105.48
1033.099	1127.85
1033.387	1097.8
1033.675	1081.98
1033.963	1079.72
1034.251	1072.26
1034.54	1077.91
1034.828	1051.47
1035.116	1061.64
1035.403	1049.44
1035.691	1031.58
1035.979	1020.74
1036.267	1009.66
1036.554	1023.67
1036.842	1016.89
1037.129	1021.41
1037.417	991.36
1037.704	978.48
1037.992	992.26
1038.279	989.32
1038.566	985.71
1038.853	985.71
1039.14	985.71
