Data from hue_250_FLMS001491_00004.txt Node
Date: Tue Feb 07 16:00:27 GMT 2017
User: dcchb
Spectrometer: FLMS00149
Trigger mode: 0
Integration Time (sec): 2.000000E-2
Scans to average: 10
Electric dark correction enabled: true
Nonlinearity correction enabled: false
Boxcar width: 0
XAxis mode: Wavelengths
Number of Pixels in Spectrum: 2048
>>>>>Begin Spectral Data<<<<<
341.393	-13.97
341.776	-13.97
342.16	-13.97
342.543	-61.88
342.927	-53.06
343.31	-61.2
343.693	-66.4
344.077	-57.58
344.46	-72.27
344.843	-47.87
345.226	-36.11
345.61	-35.66
345.993	-32.05
346.376	8.63
346.759	-13.97
347.142	29.42
347.525	54.96
347.908	52.7
348.291	62.64
348.674	96.99
349.057	117.78
349.44	121.4
349.823	136.99
350.206	167.95
350.588	171.56
350.971	188.96
351.354	208.62
351.737	213.14
352.119	249.53
352.502	251.34
352.884	252.01
353.267	284.33
353.65	285.91
354.032	294.72
354.414	286.59
354.797	315.06
355.179	315.51
355.562	317.77
355.944	316.64
356.326	317.1
356.709	318.45
357.091	341.28
357.473	353.03
357.855	345.8
358.238	321.62
358.62	321.84
359.002	341.28
359.384	325.46
359.766	322.75
360.148	315.97
360.53	333.14
360.912	322.97
361.294	349.41
361.676	306.47
362.057	340.15
362.439	317.55
362.821	311.9
363.203	321.62
363.584	315.51
363.966	331.79
364.348	314.84
364.729	322.97
365.111	319.36
365.493	316.19
365.874	313.93
366.256	303.09
366.637	299.47
367.019	309.19
367.4	300.15
367.781	291.79
368.163	294.27
368.544	315.06
368.925	297.89
369.306	318.45
369.688	324.55
370.069	301.5
370.45	303.76
370.831	286.81
371.212	304.67
371.593	296.08
371.974	310.32
372.355	292.46
372.736	307.83
373.117	313.03
373.498	309.86
373.879	301.5
374.26	295.63
374.641	307.38
375.021	315.51
375.402	303.54
375.783	303.99
376.163	301.05
376.544	301.05
376.925	297.44
377.305	300.37
377.686	299.02
378.066	315.51
378.447	324.55
378.827	353.25
379.208	335.63
379.588	325.91
379.968	314.61
380.349	309.64
380.729	322.75
381.109	332.69
381.489	309.19
381.87	320.26
382.25	307.83
382.63	325.68
383.01	335.63
383.39	339.92
383.77	329.75
384.15	341.05
384.53	341.28
384.91	327.04
385.29	344.67
385.67	325.23
386.049	321.62
386.429	375.17
386.809	364.1
387.189	358.45
387.568	349.19
387.948	360.26
388.328	346.47
388.707	361.39
389.087	344.89
389.466	357.1
389.846	348.51
390.225	337.89
390.605	349.86
390.984	366.81
391.363	380.15
391.743	349.86
392.122	368.39
392.501	365.68
392.881	357.55
393.26	386.47
393.639	373.82
394.018	355.51
394.397	372.91
394.776	384.44
395.155	369.3
395.534	378.56
395.913	390.77
396.292	381.28
396.671	371.33
397.05	371.56
397.429	385.12
397.808	402.07
398.186	373.14
398.565	382.18
398.944	388.28
399.323	403.42
399.701	385.79
400.08	417.21
400.458	391.22
400.837	399.13
401.215	407.26
401.594	384.67
401.972	405.91
402.351	410.65
402.729	423.53
403.107	416.08
403.486	417.43
403.864	412.01
404.242	409.98
404.62	425.57
404.999	421.73
405.377	449.52
405.755	410.2
406.133	435.74
406.511	427.38
406.889	447.71
407.267	449.07
407.645	464.21
408.023	440.71
408.401	466.47
408.779	474.15
409.156	465.79
409.534	462.4
409.912	479.35
410.29	488.62
410.667	499.24
411.045	496.3
411.422	499.69
411.8	504.44
412.178	517.77
412.555	512.8
412.933	540.14
413.31	543.53
413.687	544.89
414.065	555.96
414.442	540.59
414.819	553.7
415.197	547.82
415.574	575.62
415.951	572.91
416.328	580.59
416.705	586.02
417.082	614.26
417.46	596.86
417.837	609.74
418.214	598.22
418.591	620.82
418.967	589.63
419.344	638.44
419.721	626.69
420.098	634.38
420.475	626.69
420.852	648.61
421.228	672.12
421.605	679.8
421.982	673.47
422.358	667.6
422.735	697.65
423.111	701.27
423.488	705.11
423.864	714.37
424.241	740.14
424.617	764.09
424.994	747.14
425.37	761.38
425.746	783.3
426.123	798.44
426.499	793.92
426.875	779.68
427.251	801.6
427.627	797.76
428.003	824.43
428.379	833.47
428.756	836.63
429.132	847.7
429.507	861.71
429.883	880.25
430.259	880.92
430.635	885.44
431.011	896.06
431.387	890.19
431.763	899
432.138	913.01
432.514	938.77
432.89	944.88
433.265	967.47
433.641	985.78
434.016	994.14
434.392	1028.49
434.767	1033.24
435.143	1054.03
435.518	1046.34
435.894	1054.25
436.269	1100.58
436.644	1101.26
437.02	1147.58
437.395	1119.33
437.77	1136.51
438.145	1165.44
438.52	1158.2
438.895	1194.36
439.271	1211.31
439.646	1223.29
440.021	1243.85
440.395	1228.71
440.77	1260.35
441.145	1271.65
441.52	1288.82
441.895	1294.92
442.27	1277.3
442.645	1300.35
443.019	1332.89
443.394	1342.15
443.769	1361.59
444.143	1334.47
444.518	1365.43
444.892	1356.16
445.267	1362.94
445.641	1385.99
446.016	1413.79
446.39	1414.02
446.764	1403.85
447.139	1411.98
447.513	1437.97
447.887	1433.68
448.262	1433.9
448.636	1453.79
449.01	1471.64
449.384	1472.32
449.758	1485.65
450.132	1513.9
450.506	1504.86
450.88	1530.62
451.254	1555.26
451.628	1578.08
452.002	1560.91
452.376	1566.33
452.75	1570.85
453.123	1634.35
453.497	1629.83
453.871	1601.58
454.244	1659.43
454.618	1678.19
454.992	1717.74
455.365	1726.55
455.739	1753.67
456.112	1766.32
456.486	1755.7
456.859	1758.19
457.232	1774.91
457.606	1786.21
457.979	1811.29
458.352	1848.36
458.725	1879.77
459.099	1869.6
459.472	1901.24
459.845	1920.9
460.218	1946.21
460.591	1968.13
460.964	1943.04
461.337	2004.28
461.71	2001.12
462.083	2055.13
462.456	2056.26
462.829	2056.03
463.201	2107.11
463.574	2094.68
463.947	2141.45
464.32	2164.73
464.692	2202.7
465.065	2173.54
465.438	2253.09
465.81	2234.33
466.183	2265.07
466.555	2326.53
466.928	2320.43
467.3	2360.66
467.672	2344.84
468.045	2414.89
468.417	2473.88
468.789	2445.18
469.161	2483.14
469.534	2483.37
469.906	2530.6
470.278	2503.48
470.65	2579.86
471.022	2618.05
471.394	2663.02
471.766	2670.71
472.138	2688.79
472.51	2756.35
472.882	2788.67
473.253	2823.47
473.625	2819.63
473.997	2912.96
474.369	2899.18
474.74	2948.89
475.112	2978.27
475.484	3042
475.855	3074.54
476.227	3107.76
476.598	3151.37
476.97	3210.81
477.341	3247.41
477.713	3304.36
478.084	3293.97
478.455	3380.74
478.827	3400.4
479.198	3531.02
479.569	3531.7
479.94	3588.65
480.311	3600.17
480.682	3650.79
481.053	3747.74
481.424	3787.06
481.795	3823.67
482.166	3834.52
482.537	3843.78
482.908	4017.11
483.279	4009.65
483.65	4088.07
484.021	4110.67
484.391	4132.59
484.762	4200.61
485.133	4187.28
485.503	4289.2
485.874	4362.64
486.244	4325.8
486.615	4446.03
486.985	4551.11
487.356	4524.44
487.726	4564.89
488.097	4669.52
488.467	4695.06
488.837	4749.97
489.207	4785.45
489.578	4838.11
489.948	4836.3
490.318	4958.1
490.688	4920.36
491.058	5043.53
491.428	5082.62
491.798	5122.85
492.168	5137.53
492.538	5205.78
492.908	5256.4
493.278	5301.82
493.648	5295.5
494.017	5399.9
494.387	5426.57
494.757	5427.24
495.126	5502.27
495.496	5542.27
495.866	5547.92
496.235	5580.46
496.605	5612.78
496.974	5672.89
497.344	5668.37
497.713	5756.05
498.082	5704.75
498.452	5840.79
498.821	5801.02
499.19	5840.57
499.559	5892.54
499.928	5838.98
500.298	5935.71
500.667	5989.26
501.036	5950.39
501.405	6017.74
501.774	5963.05
502.143	6019.55
502.512	6038.3
502.88	6080.56
503.249	6111.29
503.618	6147.68
503.987	6125.98
504.356	6184.74
504.724	6145.87
505.093	6213.44
505.462	6278.07
505.83	6249.82
506.199	6321.01
506.567	6337.73
506.936	6320.55
507.304	6379.31
507.672	6406.88
508.041	6437.84
508.409	6435.81
508.777	6493.88
509.145	6538.4
509.514	6483.26
509.882	6488.46
510.25	6461.79
510.618	6437.61
510.986	6538.18
511.354	6627.21
511.722	6661.56
512.09	6633.77
512.458	6641
512.826	6657.95
513.193	6671.73
513.561	6738.17
513.929	6693.2
514.297	6760.99
514.664	6794.44
515.032	6763.03
515.4	6783.59
515.767	6804.38
516.135	6837.6
516.502	6794.44
516.869	6888.22
517.237	6876.92
517.604	6884.38
517.972	6818.39
518.339	6882.35
518.706	6940.88
519.073	6908.34
519.44	6953.08
519.808	6955.11
520.175	7003.93
520.542	7041.44
520.909	7011.84
521.276	6988.79
521.643	7021.33
522.009	7065.17
522.376	7163.47
522.743	7045.05
523.11	7178.38
523.477	7142.45
523.843	7167.31
524.21	7228.78
524.577	7261.32
524.943	7259.74
525.31	7285.27
525.676	7234.2
526.043	7272.85
526.409	7316.01
526.776	7365.27
527.142	7354.43
527.508	7342.45
527.874	7421.99
528.241	7375.89
528.607	7366.85
528.973	7398.49
529.339	7427.87
529.705	7450.47
530.071	7514.42
530.437	7506.06
530.803	7527.3
531.169	7521.88
531.535	7434.65
531.901	7452.28
532.267	7475.78
532.632	7527.53
532.998	7517.81
533.364	7536.57
533.73	7518.94
534.095	7517.58
534.461	7533.86
534.826	7517.58
535.192	7555.78
535.557	7544.93
535.923	7496.57
536.288	7525.95
536.653	7601.65
537.019	7485.5
537.384	7490.47
537.749	7495.44
538.114	7487.53
538.479	7469.68
538.845	7576.79
539.21	7491.14
539.575	7523.46
539.94	7514.42
540.305	7561.88
540.67	7516.45
541.034	7557.81
541.399	7512.39
541.764	7477.36
542.129	7520.97
542.494	7478.72
542.858	7494.53
543.223	7466.29
543.587	7553.52
543.952	7416.12
544.316	7476
544.681	7473.52
545.045	7497.92
545.41	7511.03
545.774	7437.13
546.138	7415.21
546.503	7425.84
546.867	7390.58
547.231	7477.36
547.595	7398.72
547.959	7465.16
548.324	7434.65
548.688	7428.32
549.052	7370.7
549.416	7368.66
549.779	7392.16
550.143	7363.24
550.507	7451.82
550.871	7389.23
551.235	7363.01
551.599	7413.86
551.962	7384.03
552.326	7358.72
552.689	7397.36
553.053	7319.17
553.417	7340.19
553.78	7433.75
554.143	7326.86
554.507	7416.12
554.87	7351.26
555.234	7462.22
555.597	7375.22
555.96	7415.44
556.323	7371.37
556.686	7357.36
557.05	7414.08
557.413	7452.05
557.776	7400.98
558.139	7442.33
558.502	7414.08
558.865	7394.88
559.228	7478.04
559.59	7467.87
559.953	7433.29
560.316	7488.89
560.679	7447.3
561.041	7575.21
561.404	7544.7
561.767	7546.74
562.129	7521.65
562.492	7599.39
562.854	7545.83
563.217	7573.85
563.579	7602.33
563.941	7600.75
564.304	7656.79
564.666	7734.3
565.028	7682.55
565.39	7647.98
565.753	7606.4
566.115	7718.94
566.477	7753.96
566.839	7733.85
567.201	7736.34
567.563	7815.43
567.925	7791.93
568.287	7786.5
568.648	7854.53
569.01	7895.88
569.372	7892.04
569.734	7874.19
570.095	7954.86
570.457	7972.26
570.819	7881.42
571.18	7971.13
571.542	7979.27
571.903	7981.53
572.265	8018.14
572.626	8065.82
572.987	8057.23
573.349	8116.21
573.71	8077.57
574.071	8146.49
574.432	8076.44
574.794	8205.93
575.155	8151.01
575.516	8138.13
575.877	8255.87
576.238	8157.57
576.599	8244.57
576.96	8242.09
577.32	8272.59
577.681	8295.19
578.042	8317.34
578.403	8352.59
578.763	8336.55
579.124	8361.86
579.485	8368.41
579.845	8403.21
580.206	8427.84
580.566	8420.39
580.927	8461.06
581.287	8452.7
581.648	8526.82
582.008	8522.53
582.368	8447.73
582.728	8501.06
583.089	8445.92
583.449	8517.56
583.809	8596.2
584.169	8521.63
584.529	8547.84
584.889	8610.21
585.249	8589.87
585.609	8573.83
585.969	8629.19
586.329	8655.18
586.688	8612.02
587.048	8626.93
587.408	8558.91
587.768	8694.28
588.127	8647.95
588.487	8623.54
588.846	8751.9
589.206	8724.78
589.565	8727.27
589.925	8743.32
590.284	8723.88
590.643	8751
591.003	8793.26
591.362	8725.46
591.721	8742.19
592.08	8762.98
592.44	8862.63
592.799	8848.62
593.158	8775.4
593.517	8857.89
593.876	8834.16
594.235	8847.49
594.593	8850.21
594.952	8831.45
595.311	8829.19
595.67	8848.17
596.029	8871
596.387	8862.18
596.746	8947.38
597.104	8869.41
597.463	8902.18
597.822	8909.19
598.18	8929.53
598.538	8953.25
598.897	8927.49
599.255	8849.3
599.613	9021.05
599.972	9025.34
600.33	9000.71
600.688	8936.98
601.046	8984.44
601.404	9009.3
601.762	8966.59
602.12	9054.04
602.478	9042.06
602.836	9027.15
603.194	9051.33
603.552	8985.79
603.91	8970.43
604.268	8987.38
604.625	9005.23
604.983	9081.16
605.341	9028.73
605.698	9034.61
606.056	9126.58
606.413	9118.45
606.771	9128.62
607.128	9172.91
607.485	9078.22
607.843	9083.87
608.2	9150.99
608.557	9121.61
608.914	9130.42
609.272	9166.36
609.629	9248.39
609.986	9221.04
610.343	9165.23
610.7	9191.67
611.057	9175.39
611.414	9244.32
611.771	9187.37
612.127	9220.36
612.484	9195.28
612.841	9264.88
613.198	9185.11
613.554	9259.46
613.911	9253.81
614.267	9217.2
614.624	9309.18
614.98	9285.9
615.337	9266.24
615.693	9251.32
616.05	9253.81
616.406	9376.52
616.762	9326.35
617.118	9313.24
617.475	9400.7
617.831	9356.41
618.187	9365.45
618.543	9313.47
618.899	9385.11
619.255	9365.22
619.611	9345.11
619.967	9335.16
620.323	9383.07
620.678	9327.03
621.034	9348.05
621.39	9365.67
621.746	9360.93
622.101	9431.21
622.457	9367.03
622.812	9479.12
623.168	9412.45
623.523	9456.06
623.879	9425.78
624.234	9339.01
624.589	9484.54
624.945	9429.62
625.3	9371.77
625.655	9466.23
626.01	9378.1
626.365	9429.4
626.72	9366.8
627.075	9339.23
627.43	9329.97
627.785	9291.78
628.14	9364.54
628.495	9345.79
628.85	9326.58
629.205	9343.3
629.559	9397.31
629.914	9316.41
630.269	9316.41
630.623	9300.81
630.978	9293.58
631.332	9325.45
631.687	9338.55
632.041	9258.33
632.396	9267.14
632.75	9224.88
633.104	9222.62
633.459	9224.43
633.813	9240.93
634.167	9225.79
634.521	9117.99
634.875	9144.21
635.229	9081.39
635.583	9100.37
635.937	9157.77
636.291	9139.69
636.645	9170.42
636.999	9097.66
637.352	9115.28
637.706	9093.36
638.06	9165.68
638.413	9071.67
638.767	9054.04
639.121	9082.29
639.474	9070.76
639.828	9043.87
640.181	9040.26
640.534	9061.27
640.888	9011.78
641.241	8948.73
641.594	8990.31
641.947	9022.63
642.301	9021.95
642.654	8994.16
643.007	9026.02
643.36	9005.91
643.713	8967.94
644.066	8971.11
644.419	8906.93
644.771	8772.24
645.124	8740.15
645.477	8734.5
645.83	8732.69
646.182	8728.63
646.535	8607.27
646.888	8647.27
647.24	8609.08
647.593	8648.18
647.945	8654.73
648.298	8633.94
648.65	8647.95
649.002	8551
649.355	8629.87
649.707	8621.74
650.059	8634.39
650.411	8763.43
650.763	8687.5
651.115	8762.07
651.467	8782.64
651.819	8839.36
652.171	8814.27
652.523	8759.59
652.875	8772.69
653.227	8752.58
653.578	8772.92
653.93	8792.81
654.282	8739.93
654.633	8717.1
654.985	8716.42
655.337	8776.53
655.688	8795.97
656.039	8757.78
656.391	8760.72
656.742	8754.39
657.094	8752.35
657.445	8786.25
657.796	8772.02
658.147	8711.9
658.498	8787.83
658.849	8817.21
659.2	8731.79
659.551	8737.44
659.902	8722.3
660.253	8747.38
660.604	8781.05
660.955	8699.7
661.306	8800.04
661.656	8725.01
662.007	8729.3
662.358	8805.01
662.708	8741.06
663.059	8743.77
663.409	8682.98
663.76	8786.03
664.11	8748.29
664.461	8746.93
664.811	8755.97
665.161	8734.5
665.511	8715.29
665.862	8744.9
666.212	8730.43
666.562	8859.02
666.912	8745.12
667.262	8773.82
667.612	8783.09
667.962	8805.46
668.312	8748.51
668.662	8837.32
669.011	8736.76
669.361	8705.35
669.711	8724.11
670.06	8697.67
670.41	8733.15
670.76	8648.4
671.109	8669.19
671.459	8723.2
671.808	8639.82
672.157	8709.64
672.507	8672.13
672.856	8631.91
673.205	8693.15
673.554	8641.85
673.904	8698.12
674.253	8711.68
674.602	8623.77
674.951	8554.85
675.3	8484.34
675.649	8665.35
675.998	8605.92
676.346	8543.09
676.695	8594.62
677.044	8549.2
677.393	8553.26
677.741	8567.27
678.09	8488.63
678.438	8528.86
678.787	8473.94
679.135	8550.33
679.484	8486.6
679.832	8475.07
680.181	8432.81
680.529	8493.6
680.877	8434.4
681.225	8422.42
681.573	8508.52
681.922	8400.73
682.27	8360.5
682.618	8447.73
682.966	8368.64
683.314	8430.1
683.661	8348.75
684.009	8344.68
684.357	8336.77
684.705	8302.87
685.053	8333.61
685.4	8322.76
685.748	8211.8
686.095	8270.56
686.443	8160.05
686.79	8238.24
687.138	8218.36
687.485	8155.99
687.832	8147.62
688.18	8187.62
688.527	8151.24
688.874	8066.72
689.221	8068.08
689.568	7998.7
689.915	8026.05
690.262	7975.65
690.609	7936.1
690.956	7939.72
691.303	7951.92
691.65	7870.12
691.997	7920.06
692.344	7836.9
692.69	7854.98
693.037	7827.63
693.383	7767.75
693.73	7793.51
694.077	7729.56
694.423	7694.98
694.769	7708.99
695.116	7638.26
695.462	7716.68
695.808	7597.58
696.155	7684.13
696.501	7626.06
696.847	7582.44
697.193	7535.89
697.539	7543.35
697.885	7526.4
698.231	7517.36
698.577	7462.9
698.923	7460.86
699.269	7457.02
699.614	7349.23
699.96	7355.1
700.306	7282.34
700.651	7336.12
700.997	7254.09
701.342	7284.82
701.688	7248.67
702.033	7202.11
702.379	7204.37
702.724	7118.5
703.069	7163.24
703.415	7075.34
703.76	7114.21
704.105	7101.1
704.45	7072.17
704.795	6998.28
705.14	6989.69
705.485	6967.09
705.83	7005.51
706.175	6964.38
706.52	6911.95
706.865	6918.5
707.209	6863.36
707.554	6874.44
707.899	6876.02
708.243	6835.12
708.588	6824.95
708.932	6735.46
709.277	6753.54
709.621	6789.92
709.966	6741.56
710.31	6741.11
710.654	6701.34
710.998	6666.76
711.342	6697.04
711.687	6631.05
712.031	6627.66
712.375	6634.67
712.719	6568.23
713.063	6605.29
713.407	6566.2
713.75	6581.11
714.094	6585.63
714.438	6548.34
714.782	6547.89
715.125	6545.41
715.469	6553.54
715.812	6469.7
716.156	6472.41
716.499	6484.84
716.843	6511.28
717.186	6401
717.53	6449.36
717.873	6449.36
718.216	6442.81
718.559	6382.47
718.902	6425.86
719.246	6410.95
719.589	6396.03
719.932	6383.6
720.275	6350.16
720.617	6347.67
720.96	6312.42
721.303	6305.64
721.646	6325.53
721.989	6287.56
722.331	6359.88
722.674	6288.24
723.016	6293.89
723.359	6278.3
723.701	6350.38
724.044	6238.97
724.386	6274.68
724.729	6278.75
725.071	6233.78
725.413	6320.33
725.755	6250.95
726.097	6257.96
726.439	6246.21
726.782	6245.08
727.124	6277.84
727.465	6227.45
727.807	6177.73
728.149	6242.14
728.491	6179.54
728.833	6234.68
729.175	6169.37
729.516	6190.16
729.858	6197.85
730.199	6196.26
730.541	6126.43
730.882	6147
731.224	6174.12
731.565	6153.78
731.906	6135.02
732.248	6162.82
732.589	6109.03
732.93	6135.93
733.271	6099.99
733.612	6131.63
733.953	6153.1
734.294	6107.9
734.635	6148.13
734.976	6115.36
735.317	6158.07
735.658	6128.69
735.999	6140.9
736.339	6097.96
736.68	6203.72
737.021	6149.71
737.361	6109.94
737.702	6146.1
738.042	6199.2
738.383	6128.47
738.723	6131.86
739.063	6174.12
739.404	6163.72
739.744	6163.5
740.084	6147.23
740.424	6157.62
740.764	6146.32
741.104	6231.29
741.444	6176.6
741.784	6194.46
742.124	6169.6
742.464	6201.24
742.804	6199.2
743.143	6209.6
743.483	6263.61
743.823	6189.26
744.162	6243.04
744.502	6261.8
744.841	6281.69
745.181	6331.4
745.52	6324.62
745.86	6398.07
746.199	6354.9
746.538	6336.82
746.877	6377.73
747.216	6450.49
747.556	6454.79
747.895	6488.69
748.234	6508.8
748.573	6483.04
748.911	6548.57
749.25	6544.73
749.589	6599.87
749.928	6670.38
750.267	6733.2
750.605	6799.19
750.944	6775.01
751.283	6869.01
751.621	6939.07
751.96	6981.1
752.298	7035.56
752.636	7086.18
752.975	7167.31
753.313	7154.88
753.651	7231.49
753.989	7320.08
754.327	7382.45
754.666	7466.29
755.004	7526.62
755.342	7646.17
755.679	7723.68
756.017	7824.7
756.355	7815.66
756.693	7933.62
757.031	8093.16
757.368	8097.23
757.706	8283.21
758.044	8247.51
758.381	8422.65
758.719	8520.72
759.056	8621.96
759.394	8678.68
759.731	8763.43
760.068	8878.68
760.405	8910.54
760.743	9009.07
761.08	9274.15
761.417	9249.52
761.754	9422.85
762.091	9479.34
762.428	9552.33
762.765	9711.2
763.102	9753.23
763.438	9908.71
763.775	10007.01
764.112	10115.26
764.449	10176.95
764.785	10295.36
765.122	10336.72
765.458	10432.99
765.795	10489.26
766.131	10602.02
766.467	10729.48
766.804	10826.65
767.14	10872.52
767.476	10946.2
767.812	11016.7
768.148	11120.88
768.485	11075.46
768.821	11196.58
769.157	11318.39
769.492	11390.93
769.828	11450.14
770.164	11514.77
770.5	11529.23
770.836	11633.41
771.171	11729.68
771.507	11787.3
771.842	11751.37
772.178	11932.38
772.513	11983.91
772.849	11962.89
773.184	11907.07
773.519	12034.98
773.855	12096.9
774.19	12126.05
774.525	12103.9
774.86	12257.12
775.195	12247.63
775.53	12284.69
775.865	12238.82
776.2	12211.25
776.535	12216.22
776.87	12294.41
777.205	12278.14
777.539	12160.4
777.874	12287.18
778.209	12201.08
778.543	12281.08
778.878	12287.63
779.212	12331.02
779.547	12348.87
779.881	12432.26
780.215	12314.75
780.55	12382.09
780.884	12318.36
781.218	12375.08
781.552	12398.59
781.886	12378.7
782.22	12376.89
782.554	12308.42
782.888	12298.93
783.222	12281.08
783.556	12278.82
783.889	12250.79
784.223	12118.59
784.557	12212.15
784.89	12256.67
785.224	12223.9
785.557	12172.15
785.891	12194.98
786.224	12133.51
786.558	12199.27
786.891	12121.31
787.224	12076.11
787.557	12091.48
787.891	12034.75
788.224	11972.16
788.557	12117.92
788.89	12041.08
789.223	12124.7
789.556	12031.36
789.888	11979.61
790.221	12006.73
790.554	11885.38
790.887	11903.68
791.219	11808.32
791.552	11813.74
791.884	11708.89
792.217	11786.4
792.549	11805.83
792.882	11663.24
793.214	11668.21
793.546	11662.56
793.879	11628.21
794.211	11547.76
794.543	11620.53
794.875	11510.47
795.207	11605.84
795.539	11552.28
795.871	11562
796.203	11466.86
796.535	11435.45
796.867	11462.57
797.198	11402.68
797.53	11402.68
797.862	11390.93
798.193	11347.99
798.525	11233.65
798.856	11289.46
799.188	11099.86
799.519	11171.5
799.85	11057.6
800.182	11184.38
800.513	11125.4
800.844	11130.15
801.175	11144.38
801.506	11129.47
801.837	11060.09
802.168	11030.94
802.499	10988
802.83	10916.37
803.161	10885.63
803.491	10930.15
803.822	10999.3
804.153	10823.26
804.483	10777.61
804.814	10760.21
805.145	10722.7
805.475	10813.32
805.805	10713.43
806.136	10705.07
806.466	10682.7
806.796	10710.04
807.126	10576.04
807.457	10554.79
807.787	10590.95
808.117	10566.32
808.447	10588.46
808.777	10520.9
809.107	10502.37
809.436	10434.57
809.766	10434.57
810.096	10357.28
810.426	10445.64
810.755	10383.05
811.085	10373.78
811.414	10379.88
811.744	10230.06
812.073	10309.38
812.403	10237.29
812.732	10220.34
813.061	10196.16
813.39	10212.66
813.719	10212.2
814.049	10157.74
814.378	10204.29
814.707	10116.39
815.036	10113.45
815.365	10104.86
815.693	10042.94
816.022	10077.07
816.351	9992.32
816.68	9975.6
817.008	9975.83
817.337	9839.78
817.665	9873.46
817.994	9929.27
818.322	9897.41
818.651	9853.57
818.979	9750.97
819.307	9859.9
819.636	9821.93
819.964	9763.18
820.292	9820.12
820.62	9729.28
820.948	9756.62
821.276	9842.04
821.604	9816.51
821.932	9715.49
822.259	9742.61
822.587	9698.77
822.915	9754.59
823.243	9798.88
823.57	9704.65
823.898	9741.26
824.225	9707.36
824.553	9742.39
824.88	9765.21
825.207	9729.05
825.535	9720.69
825.862	9807.24
826.189	9691.31
826.516	9762.5
826.843	9768.37
827.17	9764.76
827.497	9790.97
827.824	9827.13
828.151	9717.98
828.478	9759.56
828.805	9786
829.131	9746.23
829.458	9691.99
829.785	9709.84
830.111	9787.13
830.438	9775.38
830.764	9728.15
831.09	9840.46
831.417	9696.74
831.743	9733.35
832.069	9762.95
832.395	9667.13
832.722	9774.25
833.048	9681.14
833.374	9703.06
833.7	9670.97
834.026	9686.57
834.351	9753.68
834.677	9763.4
835.003	9691.54
835.329	9712.56
835.654	9654.25
835.98	9622.39
836.306	9555.72
836.631	9550.75
836.956	9619.9
837.282	9577.42
837.607	9611.32
837.932	9558.44
838.258	9567.7
838.583	9528.38
838.908	9416.97
839.233	9545.33
839.558	9507.36
839.883	9444.99
840.208	9363.41
840.533	9385.78
840.858	9436.4
841.182	9414.03
841.507	9416.74
841.832	9340.59
842.156	9278.89
842.481	9360.7
842.805	9329.74
843.13	9345.33
843.454	9259.91
843.778	9259.91
844.103	9258.78
844.427	9162.29
844.751	9183.08
845.075	9155.06
845.399	9173.81
845.723	9092.91
846.047	9177.2
846.371	9017.88
846.695	9092.91
847.019	9097.2
847.343	8970.88
847.666	8951.22
847.99	8798.91
848.313	8880.26
848.637	8802.75
848.96	8770.89
849.284	8748.29
849.607	8708.97
849.931	8726.59
850.254	8607.73
850.577	8581.06
850.9	8595.75
851.223	8540.61
851.546	8519.59
851.869	8434.17
852.192	8456.54
852.515	8399.6
852.838	8349.88
853.161	8450.89
853.483	8353.27
853.806	8321.18
854.129	8317.11
854.451	8216.32
854.774	8256.77
855.096	8294.97
855.419	8206.61
855.741	8155.08
856.063	8137.68
856.385	8163.9
856.708	8097.68
857.03	8110.11
857.352	8035.09
857.674	8001.64
857.996	7972.94
858.318	7956.22
858.64	7997.12
858.961	7945.82
859.283	7931.59
859.605	7840.51
859.926	7879.38
860.248	7891.59
860.57	7837.8
860.891	7837.35
861.212	7748.09
861.534	7725.49
861.855	7725.71
862.176	7750.35
862.498	7748.77
862.819	7767.97
863.14	7725.04
863.461	7668.77
863.782	7668.54
864.103	7626.51
864.424	7662.21
864.745	7678.71
865.065	7539.51
865.386	7568.43
865.707	7558.71
866.027	7608.88
866.348	7584.7
866.668	7598.26
866.989	7588.09
867.309	7426.51
867.63	7523.01
867.95	7452.5
868.27	7463.12
868.59	7475.33
868.91	7421.32
869.23	7429.45
869.55	7369.11
869.87	7417.47
870.19	7369.79
870.51	7421.32
870.83	7411.37
871.15	7316.01
871.469	7288.66
871.789	7316.23
872.109	7334.31
872.428	7258.83
872.748	7398.04
873.067	7318.04
873.386	7335.44
873.706	7255.67
874.025	7254.99
874.344	7258.16
874.663	7222.23
874.982	7174.54
875.301	7165.05
875.62	7164.37
875.939	7215.22
876.258	7141.78
876.577	7204.82
876.896	7213.19
877.214	7104.94
877.533	7135.9
877.852	7058.16
878.17	7147.43
878.489	7135.45
878.807	7108.78
879.125	7049.12
879.444	7074.66
879.762	7029.46
880.08	7025.39
880.398	7000.76
880.716	7022.68
881.034	7035.56
881.352	6996.02
881.67	6972.06
881.988	6962.57
882.306	6918.28
882.624	6918.73
882.941	6904.72
883.259	6976.81
883.577	6838.05
883.894	6887.32
884.212	6861.1
884.529	6818.62
884.846	6831.95
885.164	6768.68
885.481	6797.15
885.798	6812.97
886.115	6791.95
886.432	6716.48
886.75	6747.66
887.067	6714.22
887.383	6720.54
887.7	6740.66
888.017	6665.4
888.334	6627.89
888.651	6663.37
888.967	6622.47
889.284	6596.48
889.6	6596.48
889.917	6563.94
890.233	6543.37
890.55	6520.77
890.866	6465.18
891.182	6521
891.498	6517.39
891.815	6428.57
892.131	6411.4
892.447	6369.37
892.763	6405.75
893.079	6416.37
893.395	6404.62
893.71	6351.74
894.026	6348.8
894.342	6324.4
894.657	6249.6
894.973	6278.75
895.289	6237.62
895.604	6248.01
895.92	6237.62
896.235	6162.82
896.55	6172.99
896.865	6154.68
897.181	6145.19
897.496	6114.46
897.811	6082.37
898.126	6081.92
898.441	6091.41
898.756	6040.56
899.071	6022.71
899.386	5973.44
899.7	5937.74
900.015	5929.83
900.33	5910.4
900.644	5902.03
900.959	5882.15
901.273	5884.86
901.588	5827.23
901.902	5783.85
902.216	5775.71
902.531	5793.56
902.845	5761.25
903.159	5737.97
903.473	5722.38
903.787	5683.73
904.101	5602.61
904.415	5655.71
904.729	5660.91
905.042	5587.24
905.356	5624.3
905.67	5578.88
905.984	5567.35
906.297	5547.92
906.611	5498.88
906.924	5471.76
907.237	5450.52
907.551	5506.79
907.864	5484.42
908.177	5446
908.491	5436.06
908.804	5357.42
909.117	5334.82
909.43	5327.13
909.743	5300.24
910.056	5264.76
910.368	5279.23
910.681	5219.11
910.994	5229.96
911.307	5183.41
911.619	5196.06
911.932	5209.85
912.244	5131.43
912.557	5129.63
912.869	5119.46
913.181	5082.85
913.494	5062.51
913.806	5071.77
914.118	5022.06
914.43	4990.42
914.742	5009.18
915.054	4926.92
915.366	4938.44
915.678	4889.86
915.99	4891.67
916.302	4889.41
916.613	4833.14
916.925	4857.77
917.236	4821.61
917.548	4815.06
917.859	4788.62
918.171	4794.94
918.482	4755.17
918.794	4790.2
919.105	4764.66
919.416	4696.87
919.727	4693.7
920.038	4718.34
920.349	4631.56
920.66	4636.53
920.971	4631.56
921.282	4606.7
921.593	4561.05
921.903	4581.39
922.214	4526.48
922.525	4529.19
922.835	4507.95
923.146	4461.17
923.456	4469.3
923.767	4456.42
924.077	4412.13
924.387	4445.58
924.697	4399.02
925.008	4380.04
925.318	4392.02
925.628	4328.74
925.938	4369.19
926.248	4310.89
926.558	4301.17
926.867	4260.5
927.177	4251
927.487	4220.72
927.796	4188.86
928.106	4181.63
928.416	4164.45
928.725	4148.63
929.034	4159.71
929.344	4158.35
929.653	4163.32
929.962	4105.92
930.271	4076.09
930.581	4064.12
930.89	4016.89
931.199	4011.46
931.508	4040.61
931.817	4000.84
932.125	3998.81
932.434	4002.87
932.743	3924.01
933.051	3900.28
933.36	3904.57
933.669	3900.73
933.977	3897.57
934.286	3897.34
934.594	3846.49
934.902	3851.92
935.21	3825.25
935.519	3837.68
935.827	3841.07
936.135	3785.03
936.443	3750.68
936.751	3800.62
937.059	3743.67
937.367	3755.65
937.674	3689.44
937.982	3694.86
938.29	3661.87
938.597	3682.43
938.905	3624.35
939.213	3633.62
939.52	3631.59
939.827	3592.72
940.135	3613.73
940.442	3637.69
940.749	3564.24
941.056	3591.36
941.363	3518.59
941.67	3524.02
941.977	3428.88
942.284	3504.36
942.591	3460.74
942.898	3463.45
943.205	3423.46
943.511	3441.99
943.818	3429.33
944.125	3408.31
944.431	3391.14
944.738	3369.45
945.044	3362.89
945.35	3348.43
945.657	3359.05
945.963	3313.18
946.269	3282.44
946.575	3336.45
946.881	3271.37
947.187	3315.89
947.493	3267.75
947.799	3230.47
948.105	3234.53
948.41	3232.95
948.716	3220.52
949.022	3193.4
949.327	3174.2
949.633	3164.93
949.938	3160.19
950.244	3142.33
950.549	3123.35
950.854	3112.5
951.16	3081.32
951.465	3073.63
951.77	3098.94
952.075	3036.57
952.38	3050.36
952.685	3053.52
952.99	2988.89
953.294	2973.07
953.599	2974.65
953.904	2996.12
954.209	2966.74
954.513	2949.34
954.818	2921.55
955.122	2926.07
955.426	2909.34
955.731	2896.24
956.035	2895.33
956.339	2888.1
956.643	2902.79
956.948	2828.22
957.252	2855.56
957.556	2868.89
957.86	2791.83
958.163	2847.43
958.467	2788.22
958.771	2811.72
959.075	2787.54
959.378	2746.86
959.682	2742.8
959.985	2750.7
960.289	2673.19
960.592	2729.91
960.896	2714.1
961.199	2719.52
961.502	2644.49
961.805	2696.02
962.108	2684.49
962.411	2653.08
962.714	2665.73
963.017	2607.88
963.32	2643.36
963.623	2629.8
963.926	2609.69
964.228	2561.78
964.531	2592.74
964.833	2578.96
965.136	2561.56
965.438	2572.18
965.741	2533.99
966.043	2548.45
966.345	2508.68
966.648	2503.71
966.95	2514.33
967.252	2495.57
967.554	2470.03
967.856	2497.83
968.158	2456.93
968.46	2451.96
968.761	2425.52
969.063	2421.22
969.365	2404.95
969.666	2404.27
969.968	2406.08
970.269	2379.87
970.571	2411.73
970.872	2349.13
971.174	2329.47
971.475	2382.35
971.776	2375.35
972.077	2321.56
972.378	2322.47
972.679	2324.5
972.98	2305.29
973.281	2269.81
973.582	2293.09
973.883	2275.69
974.183	2256.48
974.484	2279.53
974.785	2261.45
975.085	2261.23
975.386	2235.01
975.686	2216.48
975.986	2215.58
976.287	2187.1
976.587	2188.69
976.887	2172.41
977.187	2191.85
977.487	2182.13
977.787	2136.26
978.087	2147.78
978.387	2130.61
978.687	2102.81
978.987	2117.27
979.286	2106.43
979.586	2127.9
979.885	2079.31
980.185	2092.87
980.484	2060.33
980.784	2067.56
981.083	2073.66
981.382	2051.74
981.682	2059.42
981.981	2025.07
982.28	2030.95
982.579	2010.38
982.878	2010.38
983.177	2001.12
983.475	1983.95
983.774	1999.31
984.073	1981.23
984.372	1947.11
984.67	1952.31
984.969	1956.15
985.267	1992.76
985.566	1941.46
985.864	1923.83
986.162	1921.12
986.461	1906.43
986.759	1928.13
987.057	1893.55
987.355	1863.04
987.653	1869.6
987.951	1854.46
988.249	1874.8
988.547	1884.96
988.844	1863.5
989.142	1838.41
989.44	1865.53
989.737	1805.64
990.035	1796.83
990.332	1787.79
990.63	1825.98
990.927	1785.53
991.224	1803.38
991.521	1769.71
991.819	1757.28
992.116	1748.7
992.413	1757.96
992.71	1735.36
993.006	1732.65
993.303	1746.21
993.6	1727.45
993.897	1701.69
994.193	1698.75
994.49	1710.05
994.787	1689.94
995.083	1653.78
995.379	1674.57
995.676	1688.36
995.972	1649.72
996.268	1640.68
996.565	1662.37
996.861	1659.66
997.157	1644.29
997.453	1633.9
997.749	1621.02
998.044	1613.79
998.34	1584.41
998.636	1557.52
998.932	1566.55
999.227	1580.34
999.523	1571.3
999.818	1573.79
1000.114	1559.55
1000.409	1558.19
1000.704	1569.72
1001	1544.63
1001.295	1515.93
1001.59	1521.58
1001.885	1522.49
1002.18	1492.66
1002.475	1500.57
1002.77	1474.35
1003.065	1452.89
1003.359	1449.5
1003.654	1477.97
1003.949	1444.52
1004.243	1438.87
1004.538	1426.67
1004.832	1447.01
1005.127	1432.1
1005.421	1413.56
1005.715	1418.31
1006.009	1411.76
1006.304	1388.93
1006.598	1411.98
1006.892	1374.02
1007.186	1370.4
1007.48	1374.02
1007.773	1361.14
1008.067	1334.92
1008.361	1342.38
1008.655	1343.51
1008.948	1325.88
1009.242	1332.66
1009.535	1303.06
1009.829	1309.84
1010.122	1281.36
1010.415	1292.44
1010.708	1275.72
1011.001	1297.86
1011.295	1260.35
1011.588	1277.75
1011.881	1249.28
1012.173	1267.58
1012.466	1256.96
1012.759	1241.82
1013.052	1244.76
1013.344	1226.9
1013.637	1225.32
1013.93	1221.71
1014.222	1221.93
1014.514	1176.73
1014.807	1211.31
1015.099	1170.18
1015.391	1161.59
1015.683	1184.42
1015.976	1173.12
1016.268	1135.15
1016.56	1159.56
1016.851	1171.31
1017.143	1129.73
1017.435	1137.41
1017.727	1153.01
1018.018	1134.7
1018.31	1128.83
1018.602	1117.75
1018.893	1088.38
1019.185	1074.14
1019.476	1066.91
1019.767	1093.57
1020.058	1095.83
1020.35	1074.82
1020.641	1052.67
1020.932	1064.2
1021.223	1036.85
1021.514	1042.95
1021.804	1032.56
1022.095	1027.13
1022.386	1016.74
1022.677	1020.35
1022.967	1030.98
1023.258	996.17
1023.548	982.62
1023.839	1009.28
1024.129	994.59
1024.419	957.76
1024.709	988.04
1025	1005.67
1025.29	986.46
1025.58	973.58
1025.87	957.53
1026.16	959.79
1026.449	958.66
1026.739	934.48
1027.029	948.49
1027.319	934.26
1027.608	929.74
1027.898	942.16
1028.187	923.86
1028.477	911.88
1028.766	899.91
1029.055	894.48
1029.344	896.97
1029.634	898.32
1029.923	899.23
1030.212	879.12
1030.501	868.95
1030.79	866.01
1031.078	877.76
1031.367	848.61
1031.656	853.13
1031.945	845.22
1032.233	846.35
1032.522	841.6
1032.81	840.25
1033.099	844.77
1033.387	840.7
1033.675	833.92
1033.963	826.01
1034.251	819.91
1034.54	805.44
1034.828	812
1035.116	812
1035.403	791.43
1035.691	792.34
1035.979	787.14
1036.267	811.09
1036.554	816.97
1036.842	769.74
1037.129	790.3
1037.417	766.58
1037.704	772.9
1037.992	767.71
1038.279	752.11
1038.566	749.4
1038.853	749.4
1039.14	749.4
