Data from hue_140_FLMS001491_00023.txt Node
Date: Tue Feb 07 16:55:39 GMT 2017
User: dcchb
Spectrometer: FLMS00149
Trigger mode: 0
Integration Time (sec): 2.000000E-2
Scans to average: 10
Electric dark correction enabled: true
Nonlinearity correction enabled: false
Boxcar width: 0
XAxis mode: Wavelengths
Number of Pixels in Spectrum: 2048
>>>>>Begin Spectral Data<<<<<
341.393	-29.87
341.776	-29.87
342.16	-29.87
342.543	-46.82
342.927	-58.35
343.31	-56.99
343.693	-60.61
344.077	-68.97
344.46	-61.06
344.843	-66.71
345.226	-44.33
345.61	-24.67
345.993	-24.22
346.376	2.67
346.759	28.66
347.142	36.34
347.525	38.15
347.908	46.96
348.291	59.62
348.674	91.25
349.057	103.91
349.44	131.71
349.823	133.29
350.206	165.38
350.588	204.7
350.971	199.95
351.354	234.3
351.737	242.66
352.119	260.97
352.502	282.66
352.884	275.66
353.267	278.59
353.65	286.73
354.032	286.73
354.414	318.59
354.797	325.37
355.179	340.74
355.562	328.54
355.944	339.16
356.326	344.13
356.709	346.84
357.091	336.9
357.473	337.58
357.855	359.5
358.238	326.28
358.62	344.36
359.002	345.94
359.384	340.06
359.766	330.57
360.148	352.04
360.53	342.55
360.912	324.47
361.294	337.58
361.676	307.29
362.057	319.95
362.439	349.1
362.821	312.94
363.203	338.71
363.584	336.9
363.966	323.56
364.348	323.34
364.729	324.24
365.111	313.85
365.493	327.63
365.874	323.79
366.256	331.7
366.637	334.64
367.019	332.6
367.4	327.18
367.781	327.41
368.163	326.5
368.544	322.44
368.925	280.85
369.306	324.69
369.688	303.23
370.069	330.34
370.45	291.93
370.831	310.68
371.212	321.08
371.593	322.89
371.974	321.31
372.355	314.75
372.736	336.22
373.117	324.47
373.498	332.83
373.879	317.92
374.26	319.05
374.641	327.86
375.021	344.58
375.402	327.41
375.783	297.8
376.163	314.07
376.544	326.95
376.925	324.69
377.305	322.66
377.686	318.14
378.066	356.78
378.447	322.44
378.827	334.64
379.208	335.54
379.588	339.61
379.968	352.72
380.349	330.12
380.729	333.06
381.109	349.55
381.489	347.97
381.87	334.41
382.25	343.23
382.63	327.63
383.01	343.45
383.39	328.99
383.77	333.28
384.15	342.32
384.53	345.03
384.91	359.27
385.29	337.8
385.67	330.34
386.049	365.37
386.429	363.79
386.809	348.65
387.189	355.43
387.568	364.24
387.948	373.73
388.328	362.43
388.707	360.63
389.087	359.95
389.466	374.64
389.846	384.81
390.225	362.43
390.605	361.53
390.984	374.19
391.363	370.57
391.743	372.6
392.122	365.82
392.501	380.74
392.881	377.12
393.26	381.19
393.639	370.57
394.018	372.15
394.397	384.81
394.776	386.61
395.155	386.61
395.534	393.17
395.913	386.39
396.292	375.77
396.671	396.11
397.05	393.62
397.429	402.88
397.808	400.85
398.186	406.05
398.565	418.7
398.944	407.63
399.323	405.6
399.701	399.5
400.08	394.75
400.458	393.85
400.837	418.7
401.215	423.9
401.594	414.41
401.972	401.98
402.351	404.47
402.729	429.78
403.107	427.29
403.486	417.57
403.864	425.48
404.242	431.36
404.62	417.12
404.999	426.39
405.377	429.32
405.755	446.5
406.133	419.61
406.511	413.28
406.889	434.3
407.267	425.71
407.645	463.67
408.023	431.81
408.401	441.75
408.779	439.27
409.156	447.18
409.534	465.71
409.912	439.04
410.29	462.32
410.667	445.6
411.045	452.38
411.422	467.74
411.8	470.45
412.178	468.87
412.555	462.77
412.933	489.44
413.31	461.41
413.687	475.65
414.065	495.31
414.442	493.05
414.819	503.22
415.197	504.35
415.574	510.9
415.951	492.37
416.328	519.04
416.705	495.99
417.082	484.46
417.46	531.02
417.837	533.28
418.214	518.59
418.591	504.58
418.967	519.04
419.344	511.36
419.721	542.32
420.098	550
420.475	545.25
420.852	538.25
421.228	523.33
421.605	546.61
421.982	577.34
422.358	541.86
422.735	567.17
423.111	557.23
423.488	524.69
423.864	572.37
424.241	575.31
424.617	584.12
424.994	569.43
425.37	584.12
425.746	577.8
426.123	590.45
426.499	602.2
426.875	594.07
427.251	578.25
427.627	615.08
428.003	602.65
428.379	612.14
428.756	616.44
429.132	615.99
429.507	631.35
429.883	639.49
430.259	636.1
430.635	660.28
431.011	651.47
431.387	635.2
431.763	677
432.138	662.77
432.514	662.99
432.89	666.83
433.265	693.05
433.641	690.79
434.016	694.63
434.392	708.41
434.767	714.97
435.143	717.68
435.518	722.2
435.894	709.77
436.269	754.74
436.644	732.59
437.02	735.76
437.395	743.21
437.77	719.71
438.145	752.93
438.52	767.62
438.895	763.33
439.271	781.18
439.646	780.05
440.021	807.62
440.395	787.28
440.77	793.84
441.145	806.49
441.52	819.37
441.895	792.03
442.27	794.29
442.645	826.15
443.019	824.12
443.394	841.07
443.769	844
444.143	825.92
444.518	826.15
444.892	837
445.267	852.59
445.641	839.03
446.016	872.93
446.39	873.61
446.764	883.55
447.139	887.84
447.513	902.76
447.887	888.75
448.262	851.46
448.636	897.34
449.01	892.36
449.384	928.52
449.758	905.24
450.132	911.12
450.506	932.81
450.88	930.55
451.254	952.25
451.628	956.99
452.002	950.22
452.376	976.66
452.75	993.83
453.123	979.14
453.497	1005.58
453.871	1033.83
454.244	1013.94
454.618	1039.25
454.992	1022.08
455.365	1047.61
455.739	1070.44
456.112	1096.65
456.486	1063.21
456.859	1091.91
457.232	1140.72
457.606	1093.49
457.979	1107.95
458.352	1150.44
458.725	1167.61
459.099	1156.09
459.472	1215.74
459.845	1178.01
460.218	1190.21
460.591	1233.82
460.964	1229.08
461.337	1240.15
461.71	1274.5
462.083	1294.61
462.456	1278.12
462.829	1309.08
463.201	1324.67
463.574	1337.1
463.947	1340.04
464.32	1387.04
464.692	1416.64
465.065	1416.64
465.438	1427.04
465.81	1410.54
466.183	1474.04
466.555	1465
466.928	1508.17
467.3	1503.42
467.672	1541.39
468.045	1592.68
468.417	1566.24
468.789	1610.76
469.161	1597.66
469.534	1677.43
469.906	1695.28
470.278	1717.43
470.65	1746.35
471.022	1789.06
471.394	1827.03
471.766	1841.04
472.138	1866.8
472.51	1925.78
472.882	1971.88
473.253	1999.23
473.625	2068.38
473.997	2103.63
474.369	2114.7
474.74	2133.69
475.112	2207.81
475.484	2261.14
475.855	2301.37
476.227	2347.92
476.598	2409.84
476.97	2464.75
477.341	2523.28
477.713	2601.47
478.084	2628.59
478.455	2751.07
478.827	2745.87
479.198	2881.46
479.569	2916.72
479.94	3011.63
480.311	3088.69
480.682	3159.87
481.053	3285.52
481.424	3355.8
481.795	3452.3
482.166	3516.93
482.537	3598.73
482.908	3685.51
483.279	3776.36
483.65	3936.58
484.021	4020.64
484.391	4111.04
484.762	4178.38
485.133	4282.1
485.503	4412.5
485.874	4534.53
486.244	4672.15
486.615	4800.74
486.985	4882.32
487.356	5064.01
487.726	5152.14
488.097	5291.12
488.467	5355.07
488.837	5515.74
489.207	5673.48
489.578	5761.61
489.948	5896.75
490.318	6065.79
490.688	6143.3
491.058	6311.2
491.428	6460.35
491.798	6570.41
492.168	6775.15
492.538	6843.39
492.908	6934.92
493.278	7113.67
493.648	7244.06
494.017	7331.29
494.387	7471.4
494.757	7674.78
495.126	7845.85
495.496	7847.43
495.866	8001.33
496.235	8116.58
496.605	8278.16
496.974	8380.98
497.344	8549.79
497.713	8617.36
498.082	8679.5
498.452	8830.46
498.821	8968.99
499.19	9063.67
499.559	9198.36
499.928	9290.56
500.298	9387.51
500.667	9471.57
501.036	9564.23
501.405	9667.5
501.774	9776.65
502.143	9912.47
502.512	10006.7
502.88	10076.08
503.249	10173.48
503.618	10226.13
503.987	10316.75
504.356	10482.39
504.724	10494.6
505.093	10585.89
505.462	10585.22
505.83	10728.49
506.199	10868.15
506.567	11023.85
506.936	11000.8
507.304	11156.27
507.672	11141.36
508.041	11187.69
508.409	11349.94
508.777	11367.57
509.145	11431.75
509.514	11547
509.882	11548.13
510.25	11511.29
510.618	11698.41
510.986	11735.02
511.354	11812.75
511.722	11880.1
512.09	11986.76
512.458	12019.75
512.826	12098.62
513.193	12163.93
513.561	12172.07
513.929	12210.48
514.297	12285.96
514.664	12340.2
515.032	12381.33
515.4	12400.31
515.767	12455.22
516.135	12507.43
516.502	12439.63
516.869	12629
517.237	12660.42
517.604	12529.35
517.972	12742.9
518.339	12745.84
518.706	12785.61
519.073	12803.91
519.44	12806.85
519.808	12909.9
520.175	12885.95
520.542	13052.27
520.909	13012.72
521.276	13087.52
521.643	13200.97
522.009	13186.73
522.376	13140.86
522.743	13214.98
523.11	13289.55
523.477	13357.35
523.843	13309.66
524.21	13497.46
524.577	13493.39
524.943	13515.31
525.31	13569.09
525.676	13686.6
526.043	13634.4
526.409	13638.92
526.776	13723.44
527.142	13743.33
527.508	13756.88
527.874	13830.55
528.241	13807.73
528.607	13809.31
528.973	13864.23
529.339	13739.71
529.705	13873.49
530.071	13964.34
530.437	13903.77
530.803	13922.76
531.169	13979.48
531.535	13895.19
531.901	13883.21
532.267	13800.27
532.632	13893.83
532.998	13936.77
533.364	13944.22
533.73	13896.32
534.095	14038.68
534.461	13904.9
534.826	13892.25
535.192	13956.65
535.557	14010.89
535.923	13800.27
536.288	13927.5
536.653	13929.99
537.019	13797.33
537.384	13760.27
537.749	13791.23
538.114	13805.92
538.479	13757.34
538.845	13637.11
539.21	13661.29
539.575	13650.67
539.94	13682.99
540.305	13665.81
540.67	13644.34
541.034	13540.17
541.399	13565.93
541.764	13533.84
542.129	13533.84
542.494	13557.12
542.858	13520.05
543.223	13443.45
543.587	13473.28
543.952	13377.01
544.316	13367.52
544.681	13351.92
545.045	13382.88
545.41	13295.88
545.774	13281.42
546.138	13178.82
546.503	13250.46
546.867	13161.65
547.231	13139.5
547.595	13155.32
547.959	13146.05
548.324	13075.32
548.688	13112.38
549.052	12960.52
549.416	13007.07
549.779	12950.8
550.143	12941.09
550.507	13086.39
550.871	12916
551.235	12824.03
551.599	12889.34
551.962	12807.53
552.326	12864.7
552.689	12924.14
553.053	12753.97
553.417	12739.28
553.78	12879.17
554.143	12758.72
554.507	12799.85
554.87	12757.14
555.234	12781.54
555.597	12656.12
555.96	12659.74
556.323	12665.84
556.686	12700.19
557.05	12665.16
557.413	12647.76
557.776	12680.53
558.139	12685.73
558.502	12627.65
558.865	12673.07
559.228	12678.04
559.59	12666.29
559.953	12646.86
560.316	12722.33
560.679	12607.54
561.041	12700.87
561.404	12698.15
561.767	12768.21
562.129	12614.09
562.492	12739.06
562.854	12736.35
563.217	12619.96
563.579	12683.92
563.941	12711.26
564.304	12751.71
564.666	12848.66
565.028	12738.61
565.39	12800.07
565.753	12756.91
566.115	12799.85
566.477	12813.41
566.839	12851.37
567.201	12835.78
567.563	12870.35
567.925	12872.39
568.287	12912.16
568.648	12961.88
569.01	12851.82
569.372	12999.62
569.734	12926.4
570.095	13071.25
570.457	13075.09
570.819	13026.28
571.18	13023.8
571.542	13085.72
571.903	13111.7
572.265	13052.5
572.626	13022.67
572.987	13066.96
573.349	13080.29
573.71	13114.19
574.071	13063.34
574.432	13171.36
574.794	13199.16
575.155	13293.85
575.516	13110.12
575.877	13191.7
576.238	13138.14
576.599	13267.18
576.96	13195.32
577.32	13219.72
577.681	13215.2
578.042	13276.22
578.403	13171.59
578.763	13219.95
579.124	13295.43
579.485	13267.63
579.845	13320.29
580.206	13273.96
580.566	13221.98
580.927	13188.76
581.287	13226.95
581.648	13252.26
582.008	13300.4
582.368	13295.2
582.728	13238.93
583.089	13266.95
583.449	13191.7
583.809	13197.12
584.169	13209.33
584.529	13177.69
584.889	13257.01
585.249	13165.04
585.609	13125.49
585.969	13177.46
586.329	13174.98
586.688	13174.98
587.048	13115.77
587.408	13066.51
587.768	13168.88
588.127	13115.32
588.487	13106.05
588.846	13202.77
589.206	13117.8
589.565	13093.4
589.925	13161.65
590.284	13131.82
590.643	13110.8
591.003	13179.72
591.362	13123.68
591.721	13016.79
592.08	13080.07
592.44	13119.61
592.799	13038.48
593.158	13042.33
593.517	13077.35
593.876	13127.3
594.235	12994.87
594.593	13022.67
594.952	13062.44
595.311	12907.64
595.67	13039.39
596.029	13029.22
596.387	13054.3
596.746	13000.29
597.104	12977.92
597.463	12985.83
597.822	13000.75
598.18	12981.31
598.538	12917.81
598.897	13012.04
599.255	12871.48
599.613	13088.43
599.972	12989.22
600.33	13036.45
600.688	12982.22
601.046	12937.7
601.404	13056.11
601.762	12999.62
602.12	13058.6
602.478	12962.78
602.836	13015.89
603.194	12924.82
603.552	13068.99
603.91	12937.24
604.268	13023.12
604.625	12953.97
604.983	13020.41
605.341	12992.38
605.698	13015.21
606.056	12981.99
606.413	13047.98
606.771	13016.11
607.128	13058.15
607.485	12973.85
607.843	12961.2
608.2	13097.92
608.557	13104.25
608.914	12996.23
609.272	13043.91
609.629	13122.1
609.986	13096.79
610.343	13143.34
610.7	13216.79
611.057	13184.24
611.414	13143.11
611.771	13148.54
612.127	13193.96
612.484	13150.57
612.841	13277.35
613.198	13215.43
613.554	13128.43
613.911	13260.63
614.267	13219.05
614.624	13166.62
614.98	13315.99
615.337	13262.89
615.693	13276.22
616.05	13282.32
616.406	13348.08
616.762	13277.12
617.118	13316.9
617.475	13267.18
617.831	13375.2
618.187	13359.61
618.543	13384.24
618.899	13350.79
619.255	13414.07
619.611	13423.33
619.967	13395.54
620.323	13423.56
620.678	13407.51
621.034	13348.99
621.39	13401.64
621.746	13348.76
622.101	13476.21
622.457	13409.1
622.812	13457.46
623.168	13461.75
623.523	13447.51
623.879	13446.16
624.234	13336.78
624.589	13442.77
624.945	13412.26
625.3	13369.1
625.655	13437.34
626.01	13581.3
626.365	13393.96
626.72	13536.78
627.075	13441.64
627.43	13352.6
627.785	13393.96
628.14	13358.7
628.495	13392.6
628.85	13380.4
629.205	13337.23
629.559	13294.52
629.914	13291.59
630.269	13361.19
630.623	13284.35
630.978	13276.9
631.332	13285.03
631.687	13329.32
632.041	13245.94
632.396	13272.15
632.75	13231.7
633.104	13268.08
633.459	13241.64
633.813	13213.62
634.167	13286.39
634.521	13248.42
634.875	13208.65
635.229	13183.57
635.583	13107.86
635.937	13182.66
636.291	13140.63
636.645	13063.12
636.999	13069.67
637.352	13059.95
637.706	13014.53
638.06	12974.98
638.413	12973.85
638.767	12971.59
639.121	13026.73
639.474	12853.18
639.828	12934.53
640.181	12929.11
640.534	13023.34
640.888	12855.21
641.241	12834.2
641.594	12869.68
641.947	12868.55
642.301	12898.15
642.654	12865.61
643.007	12870.81
643.36	12798.27
643.713	12809.34
644.066	12883.23
644.419	12800.53
644.771	12731.83
645.124	12574.77
645.477	12659.29
645.83	12545.84
646.182	12486.18
646.535	12456.13
646.888	12443.25
647.24	12426.3
647.593	12446.64
647.945	12387.88
648.298	12361.44
648.65	12278.28
649.002	12288.45
649.355	12283.02
649.707	12444.6
650.059	12425.62
650.411	12579.97
650.763	12561.89
651.115	12807.76
651.467	12668.33
651.819	12650.7
652.171	12605.28
652.523	12646.63
652.875	12670.58
653.227	12567.99
653.578	12663.35
653.93	12615.22
654.282	12585.62
654.633	12575.9
654.985	12648.89
655.337	12618.38
655.688	12610.93
656.039	12671.94
656.391	12514.2
656.742	12604.37
657.094	12644.82
657.445	12680.75
657.796	12690.92
658.147	12548.33
658.498	12674.65
658.849	12666.52
659.2	12604.6
659.551	12613.19
659.902	12696.57
660.253	12592.62
660.604	12687.53
660.955	12627.65
661.306	12652.28
661.656	12558.05
662.007	12660.42
662.358	12595.56
662.708	12636.24
663.059	12637.14
663.409	12617.25
663.76	12657.7
664.11	12688.21
664.461	12672.39
664.811	12684.82
665.161	12652.05
665.511	12641.66
665.862	12639.85
666.212	12654.31
666.562	12723.24
666.912	12679.62
667.262	12643.24
667.612	12660.19
667.962	12725.72
668.312	12651.6
668.662	12654.77
669.011	12733.18
669.361	12660.64
669.711	12671.49
670.06	12610.93
670.41	12602.11
670.76	12608.67
671.109	12620.19
671.459	12568.44
671.808	12593.07
672.157	12596.24
672.507	12544.26
672.856	12518.5
673.205	12557.82
673.554	12533.64
673.904	12508.1
674.253	12526.86
674.602	12527.99
674.951	12393.08
675.3	12341.55
675.649	12447.09
675.998	12457.71
676.346	12546.97
676.695	12558.5
677.044	12420.87
677.393	12464.71
677.741	12489.8
678.09	12530.48
678.438	12381.1
678.787	12446.86
679.135	12368.22
679.484	12317.15
679.832	12304.72
680.181	12280.09
680.529	12285.28
680.877	12244.16
681.225	12176.13
681.573	12300.2
681.922	12148.11
682.27	12158.51
682.618	12197.83
682.966	12179.98
683.314	12170.94
683.661	12145.63
684.009	12057.72
684.357	12096.14
684.705	12017.04
685.053	12010.94
685.4	12014.56
685.748	11943.82
686.095	11903.37
686.443	11892.07
686.79	11860.89
687.138	11844.84
687.485	11940.21
687.832	11756.03
688.18	11752.19
688.527	11802.59
688.874	11798.52
689.221	11717.62
689.568	11721.91
689.915	11619.09
690.262	11627
690.609	11647.79
690.956	11499.54
691.303	11530.73
691.65	11446.21
691.997	11527.11
692.344	11445.31
692.69	11417.74
693.037	11377.06
693.383	11242.6
693.73	11268.36
694.077	11135.03
694.423	11161.92
694.769	11120.8
695.116	11103.62
695.462	11157.63
695.808	11001.25
696.155	11015.04
696.501	10979.56
696.847	10948.14
697.193	10859.11
697.539	10916.73
697.885	10842.84
698.231	10791.09
698.577	10749.28
698.923	10767.13
699.269	10699.79
699.614	10615.72
699.96	10547.02
700.306	10622.5
700.651	10545.67
700.997	10434.26
701.342	10445.56
701.688	10428.84
702.033	10433.81
702.379	10388.61
702.724	10342.51
703.069	10359.69
703.415	10221.38
703.76	10253.7
704.105	10249.63
704.45	10217.32
704.795	10142.06
705.14	10086.02
705.485	10111.33
705.83	10005.8
706.175	10055.06
706.52	9995.4
706.865	9956.31
707.209	9937.55
707.554	9916.53
707.899	9939.58
708.243	9857.33
708.588	9796.54
708.932	9834.5
709.277	9753.15
709.621	9779.14
709.966	9672.92
710.31	9740.27
710.654	9614.17
710.998	9697.78
711.342	9616.2
711.687	9648.29
712.031	9566.71
712.375	9529.2
712.719	9546.83
713.063	9530.33
713.407	9601.74
713.75	9487.84
714.094	9517.22
714.438	9466.15
714.782	9408.07
715.125	9411.46
715.469	9427.51
715.812	9386.15
716.156	9306.15
716.499	9367.62
716.843	9367.62
717.186	9275.87
717.53	9328.3
717.873	9358.13
718.216	9321.75
718.559	9266.61
718.902	9188.64
719.246	9154.75
719.589	9154.52
719.932	9154.29
720.275	9169.66
720.617	9113.62
720.96	9127.18
721.303	9190
721.646	9128.31
721.989	9106.61
722.331	9133.95
722.674	9113.84
723.016	9082.43
723.359	9049.89
723.701	9041.08
724.044	9064.8
724.386	8973.73
724.729	9000.4
725.071	9011.7
725.413	8976.44
725.755	8981.64
726.097	8908.88
726.439	8855.32
726.782	8919.27
727.124	9016.22
727.465	8828.65
727.807	8907.75
728.149	8894.86
728.491	8895.99
728.833	8938.93
729.175	8923.79
729.516	8887.18
729.858	8950.68
730.199	8901.42
730.541	8893.96
730.882	8889.22
731.224	8877.01
731.565	8884.24
731.906	8804.47
732.248	8917.69
732.589	8848.31
732.93	8778.94
733.271	8846.5
733.612	8822.1
733.953	8876.56
734.294	8866.62
734.635	8790.01
734.976	8799.73
735.317	8831.59
735.658	8782.33
735.999	8830.91
736.339	8877.46
736.68	8863
737.021	8881.76
737.361	8806.96
737.702	8835.21
738.042	8778.94
738.383	8825.04
738.723	8887.41
739.063	8838.82
739.404	8880.4
739.744	8826.84
740.084	8826.17
740.424	8857.35
740.764	8906.62
741.104	8968.31
741.444	8878.37
741.784	8900.74
742.124	8959.72
742.464	8888.76
742.804	8967.18
743.143	8952.49
743.483	8989.55
743.823	9006.95
744.162	8959.5
744.502	9066.61
744.841	9099.83
745.181	9173.73
745.52	9106.84
745.86	9208.3
746.199	9239.71
746.538	9269.09
746.877	9272.26
747.216	9320.84
747.556	9348.41
747.895	9403.1
748.234	9426.83
748.573	9474.74
748.911	9606.26
749.25	9609.2
749.589	9666.6
749.928	9742.53
750.267	9782.3
750.605	9833.82
750.944	9916.08
751.283	10015.06
751.621	10108.39
751.96	10103.87
752.298	10177.09
752.636	10336.41
752.975	10427.71
753.313	10519.46
753.651	10595.39
753.989	10655.04
754.327	10731.2
754.666	10852.33
755.004	11021.81
755.342	11174.13
755.679	11215.26
756.017	11335.48
756.355	11533.44
756.693	11524.4
757.031	11734.56
757.368	11786.99
757.706	12047.55
758.044	12071.05
758.381	12244.16
758.719	12347.2
759.056	12568.89
759.394	12686.4
759.731	12749.68
760.068	12969.33
760.405	13095.88
760.743	13223.34
761.08	13393.5
761.417	13474.41
761.754	13769.31
762.091	13829.88
762.428	13963.21
762.765	14037.1
763.102	14327.72
763.438	14429.86
763.775	14571.33
764.112	14797.76
764.449	14866.46
764.785	15072.1
765.122	15026.68
765.458	15251.76
765.795	15439.33
766.131	15621.24
766.467	15666.21
766.804	15854.23
767.14	15968.58
767.476	16078.63
767.812	16144.62
768.148	16357.49
768.485	16353.65
768.821	16463.03
769.157	16649.01
769.492	16815.11
769.828	16969.23
770.164	16980.53
770.5	17019.85
770.836	17145.95
771.171	17195.44
771.507	17298.49
771.842	17425.94
772.178	17422.78
772.513	17533.73
772.849	17573.05
773.184	17691.47
773.519	17812.14
773.855	17865.7
774.19	17898.24
774.525	17893.5
774.86	17943.21
775.195	18043.1
775.53	18193.15
775.865	18095.98
776.2	18011.91
776.535	18093.04
776.87	18150.89
777.205	18231.79
777.539	18119.48
777.874	18222.3
778.209	18216.43
778.543	18197.22
778.878	18279.03
779.212	18289.87
779.547	18220.5
779.881	18476.08
780.215	18420.94
780.55	18468.85
780.884	18435.18
781.218	18356.76
781.552	18394.28
781.886	18341.17
782.22	18323.32
782.554	18401.51
782.888	18223.21
783.222	18239.93
783.556	18225.02
783.889	18173.27
784.223	18263.21
784.557	18250.55
784.89	18241.06
785.224	18133.72
785.557	18122.42
785.891	18110.67
786.224	18044
786.558	18149.31
786.891	17982.08
787.224	18000.84
787.557	17968.75
787.891	17930.11
788.224	17993.83
788.557	17968.75
788.89	17889.66
789.223	17986.83
789.556	17887.4
789.888	17845.82
790.221	17899.15
790.554	17726.27
790.887	17831.13
791.219	17700.51
791.552	17667.52
791.884	17531.47
792.217	17589.1
792.549	17534.64
792.882	17543.68
793.214	17529.67
793.546	17487.63
793.879	17343.46
794.211	17288.32
794.543	17444.24
794.875	17268.43
795.207	17437.69
795.539	17341.65
795.871	17342.33
796.203	17187.53
796.535	17157.7
796.867	17127.19
797.198	16983.01
797.53	16972.17
797.862	16983.69
798.193	16980.98
798.525	16830.48
798.856	16936.01
799.188	16748.44
799.519	16710.25
799.85	16527.88
800.182	16615.11
800.513	16656.02
800.844	16551.39
801.175	16642.23
801.506	16538.73
801.837	16490.37
802.168	16433.42
802.499	16386.65
802.83	16337.61
803.161	16309.81
803.491	16392.97
803.822	16288.34
804.153	16287.44
804.483	16090.61
804.814	16018.29
805.145	16055.81
805.475	15992.53
805.805	15893.1
806.136	15955.02
806.466	15981.68
806.796	15896.49
807.126	15783.05
807.457	15798.86
807.787	15799.32
808.117	15756.38
808.447	15714.8
808.777	15738.53
809.107	15676.83
809.436	15615.37
809.766	15578.53
810.096	15606.78
810.426	15469.16
810.755	15471.19
811.085	15444.98
811.414	15436.16
811.744	15384.86
812.073	15345.77
812.403	15334.02
812.732	15280.91
813.061	15198.65
813.39	15222.61
813.719	15164.76
814.049	15283.4
814.378	15096.28
814.707	15103.06
815.036	15125.44
815.365	14971.77
815.693	14854.71
816.022	14929.06
816.351	14934.71
816.68	14821.26
817.008	14974.93
817.337	14810.87
817.665	14797.08
817.994	14721.15
818.322	14808.61
818.651	14682.51
818.979	14612
819.307	14725.22
819.636	14667.59
819.964	14653.13
820.292	14693.58
820.62	14598.22
820.948	14541.95
821.276	14743.75
821.604	14603.64
821.932	14599.12
822.259	14650.65
822.587	14656.52
822.915	14507.82
823.243	14562.51
823.57	14581.27
823.898	14623.75
824.225	14487.49
824.553	14495.85
824.88	14520.48
825.207	14630.31
825.535	14483.19
825.862	14565.68
826.189	14557.99
826.516	14614.94
826.843	14530.65
827.17	14567.26
827.497	14633.7
827.824	14610.87
828.151	14529.29
828.478	14495.4
828.805	14639.57
829.131	14540.82
829.458	14547.82
829.785	14386.92
830.111	14604.77
830.438	14577.2
830.764	14541.27
831.09	14598.22
831.417	14577.65
831.743	14587.6
832.069	14586.01
832.395	14477.77
832.722	14525.68
833.048	14540.59
833.374	14502.18
833.7	14456.3
834.026	14440.93
834.351	14481.16
834.677	14495.17
835.003	14445
835.329	14397.77
835.654	14423.99
835.98	14391.67
836.306	14314.84
836.631	14343.99
836.956	14386.92
837.282	14406.58
837.607	14284.78
837.932	14300.37
838.258	14282.29
838.583	14207.49
838.908	14239.81
839.233	14242.75
839.558	14180.83
839.883	14076.88
840.208	14094.73
840.533	14071
840.858	14050.89
841.182	14125.91
841.507	14022.41
841.832	13909.2
842.156	13951.68
842.481	13941.96
842.805	13863.32
843.13	13896.99
843.454	13887.73
843.778	13775.41
844.103	13829.88
844.427	13752.36
844.751	13686.38
845.075	13654.51
845.399	13593.72
845.723	13558.47
846.047	13604.57
846.371	13435.76
846.695	13487.96
847.019	13440.28
847.343	13268.99
847.666	13178.37
847.99	13138.37
848.313	13205.03
848.637	13123.91
848.96	13061.99
849.284	13135.66
849.607	12990.35
849.931	12889.79
850.254	12833.97
850.577	12747.65
850.9	12678.72
851.223	12651.6
851.546	12664.26
851.869	12608.44
852.192	12587.65
852.515	12479.63
852.838	12506.75
853.161	12421.1
853.483	12374.55
853.806	12285.28
854.129	12313.53
854.451	12274.89
854.774	12230.14
855.096	12241.9
855.419	12163.48
855.741	12087.1
856.063	12030.83
856.385	12105.63
856.708	11966.42
857.03	11914.67
857.352	11846.2
857.674	11834.67
857.996	11866.31
858.318	11802.36
858.64	11709.25
858.961	11655.47
859.283	11712.42
859.605	11643.27
859.926	11621.35
860.248	11599.88
860.57	11555.13
860.891	11568.92
861.212	11456.83
861.534	11467.45
861.855	11434.23
862.176	11501.8
862.498	11424.97
862.819	11439.43
863.14	11390.84
863.461	11356.5
863.782	11368.7
864.103	11316.72
864.424	11345.65
864.745	11242.37
865.065	11243.05
865.386	11157.63
865.707	11150.62
866.027	11217.52
866.348	11219.55
866.668	11116.5
866.989	11188.14
867.309	11112.43
867.63	11052.77
867.95	11151.3
868.27	11061.59
868.59	11014.36
868.91	10998.09
869.23	11070.63
869.55	10964.64
869.87	10957.64
870.19	10979.78
870.51	10964.42
870.83	10967.13
871.15	10868.37
871.469	10809.16
871.789	10813.01
872.109	10859.33
872.428	10806
872.748	10909.05
873.067	10766
873.386	10851.2
873.706	10827.92
874.025	10696.63
874.344	10677.19
874.663	10719.68
874.982	10683.29
875.301	10620.02
875.62	10648.27
875.939	10589.06
876.258	10644.2
876.577	10612.11
876.896	10582.05
877.214	10599.9
877.533	10572.11
877.852	10501.38
878.17	10562.17
878.489	10553.13
878.807	10545.67
879.125	10440.81
879.444	10434.94
879.762	10457.31
880.08	10425.22
880.398	10361.72
880.716	10399.91
881.034	10327.6
881.352	10414.6
881.67	10266.13
881.988	10403.98
882.306	10322.62
882.624	10264.09
882.941	10221.38
883.259	10156.75
883.577	10218.9
883.894	10157.66
884.212	10164.66
884.529	10125.57
884.846	10096.19
885.164	10029.3
885.481	10024.1
885.798	10014.61
886.115	9999.02
886.432	9981.39
886.75	9974.16
887.067	9940.26
887.383	9894.84
887.7	9883.99
888.017	9919.24
888.334	9883.99
888.651	9800.38
888.967	9760.6
889.284	9762.64
889.6	9711.11
889.917	9639.03
890.233	9670.21
890.55	9557.67
890.866	9642.64
891.182	9579.14
891.498	9583.21
891.815	9521.06
892.131	9483.32
892.447	9429.09
892.763	9459.37
893.079	9388.64
893.395	9430.44
893.71	9382.99
894.026	9312.26
894.342	9292.14
894.657	9246.49
894.973	9205.37
895.289	9230.45
895.604	9180.73
895.92	9129.66
896.235	9043.56
896.55	9080.62
896.865	9027.97
897.181	8997.91
897.496	8994.75
897.811	8946.16
898.126	8885.37
898.441	8874.53
898.756	8895.99
899.071	8820.52
899.386	8834.98
899.7	8753.4
900.015	8754.76
900.33	8547.08
900.644	8734.64
900.959	8697.58
901.273	8584.14
901.588	8543.91
901.902	8525.16
902.216	8498.49
902.531	8488.55
902.845	8506.17
903.159	8404.03
903.473	8469.57
903.787	8331.49
904.101	8297.14
904.415	8326.07
904.729	8252.4
905.042	8204.94
905.356	8204.49
905.67	8132.17
905.984	8122.46
906.297	8133.76
906.611	8081.33
906.924	8122
907.237	8039.07
907.551	8009.01
907.864	7886.08
908.177	7946.42
908.491	7915.23
908.804	7837.27
909.117	7807.44
909.43	7789.81
909.743	7746.19
910.056	7720.43
910.368	7684.28
910.681	7632.07
910.994	7634.79
911.307	7585.97
911.619	7584.84
911.932	7530.61
912.244	7501.68
912.557	7490.38
912.869	7441.34
913.181	7390.72
913.494	7371.74
913.806	7324.51
914.118	7340.1
914.43	7258.07
914.742	7232.31
915.054	7241.8
915.366	7204.51
915.678	7200.67
915.99	7143.95
916.302	7044.97
916.613	7043.16
916.925	7031.86
917.236	6985.76
917.548	6956.38
917.859	6998.42
918.171	6952.77
918.482	6899.89
918.794	6870.06
919.105	6856.5
919.416	6796.16
919.727	6832.55
920.038	6760.23
920.349	6737.18
920.66	6704.19
920.971	6697.18
921.282	6614.7
921.593	6621.7
921.903	6598.43
922.214	6592.1
922.525	6543.51
922.835	6498.09
923.146	6487.92
923.456	6451.54
923.767	6442.73
924.077	6415.16
924.387	6400.69
924.697	6359.56
925.008	6292.22
925.318	6310.75
925.628	6343.75
925.938	6264.65
926.248	6237.31
926.558	6178.33
926.867	6195.5
927.177	6232.34
927.487	6117.76
927.796	6090.42
928.106	6097.42
928.416	6035.28
928.725	6060.59
929.034	5989.4
929.344	6047.26
929.653	5991.21
929.962	5909.18
930.271	5879.35
930.581	5867.6
930.89	5889.52
931.199	5832.8
931.508	5822.63
931.817	5815.4
932.125	5743.08
932.434	5770.65
932.743	5709.19
933.051	5733.82
933.36	5715.51
933.669	5632.35
933.977	5664.89
934.286	5622.86
934.594	5573.37
934.902	5581.51
935.21	5491.11
935.519	5515.74
935.827	5502.19
936.135	5480.27
936.443	5432.81
936.751	5454.05
937.059	5400.72
937.367	5389.42
937.674	5353.26
937.982	5355.3
938.29	5285.02
938.597	5358.01
938.905	5252.93
939.213	5242.31
939.52	5203.44
939.827	5238.46
940.135	5180.84
940.442	5099.94
940.749	5157.11
941.056	5124.34
941.363	5087.06
941.67	5117.34
941.977	5042.31
942.284	4988.98
942.591	4996.21
942.898	4958.02
943.205	4985.36
943.511	4953.27
943.818	4916.89
944.125	4906.95
944.431	4870.79
944.738	4852.03
945.044	4848.19
945.35	4810.45
945.657	4781.98
945.963	4763
946.269	4757.8
946.575	4736.56
946.881	4747.86
947.187	4649.33
947.493	4671.02
947.799	4661.98
948.105	4639.61
948.41	4610.01
948.716	4593.51
949.022	4578.82
949.327	4539.5
949.633	4513.96
949.938	4525.94
950.244	4501.08
950.549	4476.68
950.854	4447.07
951.16	4422.21
951.465	4414.53
951.77	4403.91
952.075	4353.52
952.38	4325.27
952.685	4359.84
952.99	4315.55
953.294	4318.71
953.599	4267.64
953.904	4262.44
954.209	4261.09
954.513	4259.28
954.818	4179.51
955.122	4215.44
955.426	4160.53
955.731	4189.45
956.035	4135.44
956.339	4150.81
956.643	4095.67
956.948	4058.16
957.252	4060.64
957.556	4063.81
957.86	4009.12
958.163	4038.04
958.467	4005.5
958.771	3994.43
959.075	3984.26
959.378	3930.48
959.682	3933.87
959.985	3894.77
960.289	3879.63
960.592	3900.65
960.896	3896.58
961.199	3855.9
961.502	3855
961.805	3782.01
962.108	3817.94
962.411	3784.72
962.714	3788.33
963.017	3789.91
963.32	3751.5
963.623	3730.48
963.926	3707.66
964.228	3691.39
964.531	3638.51
964.833	3614.78
965.136	3686.19
965.438	3634.44
965.741	3597.15
966.043	3596.25
966.345	3596.7
966.648	3568.68
966.95	3508.34
967.252	3531.39
967.554	3516.25
967.856	3471.73
968.158	3479.19
968.46	3512.41
968.761	3479.64
969.063	3409.81
969.365	3436.25
969.666	3435.35
969.968	3395.8
970.269	3358.97
970.571	3374.33
970.872	3389.25
971.174	3375.46
971.475	3307.67
971.776	3336.14
972.077	3288.01
972.378	3311.06
972.679	3277.61
972.98	3253.43
973.281	3267.67
973.582	3188.8
973.883	3188.8
974.183	3191.74
974.484	3176.82
974.785	3186.09
975.085	3182.02
975.386	3134.11
975.686	3187.9
975.986	3097.96
976.287	3152.87
976.587	3074.23
976.887	3075.13
977.187	3072.87
977.487	3087.11
977.787	3021.57
978.087	3005.3
978.387	3037.84
978.687	3002.14
978.987	2974.57
979.286	3003.49
979.586	2963.27
979.885	2888.02
980.185	2950.61
980.484	2929.15
980.784	2878.98
981.083	2912.65
981.382	2876.27
981.682	2851.63
981.981	2849.37
982.28	2855.48
982.579	2839.66
982.878	2805.08
983.177	2799.21
983.475	2770.73
983.774	2752.88
984.073	2783.39
984.372	2733.67
984.67	2716.04
984.969	2732.54
985.267	2750.17
985.566	2711.3
985.864	2674.69
986.162	2681.92
986.461	2674.01
986.759	2669.72
987.057	2658.19
987.355	2635.82
987.653	2653
987.951	2595.6
988.249	2613.45
988.547	2573
988.844	2557.63
989.142	2556.95
989.44	2511.08
989.737	2515.82
990.035	2504.52
990.332	2523.06
990.63	2513.34
990.927	2533.22
991.224	2481.47
991.521	2473.34
991.819	2450.29
992.116	2453
992.413	2416.17
992.71	2409.84
993.006	2449.84
993.303	2402.61
993.6	2379.78
993.897	2385.66
994.193	2363.74
994.49	2372.55
994.787	2305.66
995.083	2318.54
995.379	2307.69
995.676	2309.5
995.972	2292.33
996.268	2299.33
996.565	2253.01
996.861	2255.04
997.157	2259.11
997.453	2242.84
997.749	2241.71
998.044	2275.83
998.34	2203.06
998.636	2179.79
998.932	2229.73
999.227	2150.64
999.523	2159.45
999.818	2157.19
1000.114	2135.72
1000.409	2112.44
1000.704	2131.88
1001	2094.37
1001.295	2110.18
1001.59	2111.54
1001.885	2089.62
1002.18	2043.07
1002.475	2023.86
1002.77	2055.72
1003.065	2010.3
1003.359	2000.58
1003.654	2003.52
1003.949	2009.62
1004.243	1983.41
1004.538	1983.63
1004.832	1973.24
1005.127	1960.13
1005.421	1943.41
1005.715	1913.58
1006.009	1924.43
1006.304	1907.48
1006.598	1919.46
1006.892	1919.46
1007.186	1861.15
1007.48	1908.38
1007.773	1862.06
1008.067	1857.08
1008.361	1828.38
1008.655	1839.23
1008.948	1837.2
1009.242	1800.14
1009.535	1808.5
1009.829	1787.26
1010.122	1794.03
1010.415	1774.15
1010.708	1776.63
1011.001	1779.35
1011.295	1731.66
1011.588	1723.98
1011.881	1714.26
1012.173	1723.3
1012.466	1661.83
1012.759	1643.98
1013.052	1714.26
1013.344	1677.65
1013.637	1647.6
1013.93	1657.99
1014.222	1641.5
1014.514	1608.05
1014.807	1633.81
1015.099	1621.84
1015.391	1591.33
1015.683	1615.51
1015.976	1581.38
1016.268	1572.57
1016.56	1529.18
1016.851	1533.02
1017.143	1546.36
1017.435	1534.15
1017.727	1549.3
1018.018	1496.64
1018.31	1519.47
1018.602	1505.23
1018.893	1491.67
1019.185	1473.59
1019.476	1478.79
1019.767	1475.17
1020.058	1462.52
1020.35	1444.21
1020.641	1439.02
1020.932	1455.51
1021.223	1413.03
1021.514	1419.81
1021.804	1385.23
1022.095	1400.37
1022.386	1418
1022.677	1375.97
1022.967	1354.05
1023.258	1383.88
1023.548	1367.61
1023.839	1310.66
1024.129	1352.69
1024.419	1319.24
1024.709	1291.45
1025	1299.13
1025.29	1290.77
1025.58	1267.49
1025.87	1266.14
1026.16	1268.85
1026.449	1244.44
1026.739	1249.87
1027.029	1245.57
1027.319	1229.53
1027.608	1206.71
1027.898	1233.15
1028.187	1234.95
1028.477	1185.92
1028.766	1192.69
1029.055	1187.95
1029.344	1187.95
1029.634	1169.42
1029.923	1150.89
1030.212	1169.19
1030.501	1149.76
1030.79	1141.62
1031.078	1124.67
1031.367	1137.33
1031.656	1137.55
1031.945	1111.79
1032.233	1106.82
1032.522	1077.67
1032.81	1091.91
1033.099	1106.82
1033.387	1078.57
1033.675	1077.44
1033.963	1079.93
1034.251	1081.29
1034.54	1072.02
1034.828	1025.02
1035.116	1009.42
1035.403	1025.02
1035.691	1015.3
1035.979	1042.42
1036.267	1044.45
1036.554	1026.15
1036.842	1014.85
1037.129	999.48
1037.417	986.37
1037.704	971.01
1037.992	976.66
1038.279	963.32
1038.566	961.51
1038.853	961.51
1039.14	961.51
