Data from hue_28_FLMS001491_00016.txt Node
Date: Tue Feb 07 17:16:55 GMT 2017
User: dcchb
Spectrometer: FLMS00149
Trigger mode: 0
Integration Time (sec): 2.000000E-2
Scans to average: 10
Electric dark correction enabled: true
Nonlinearity correction enabled: false
Boxcar width: 0
XAxis mode: Wavelengths
Number of Pixels in Spectrum: 2048
>>>>>Begin Spectral Data<<<<<
341.393	-25.75
341.776	-25.75
342.16	-25.75
342.543	-56.26
342.927	-80.89
343.31	-70.04
343.693	-55.35
344.077	-50.15
344.46	-63.94
344.843	-71.17
345.226	-30.95
345.61	-36.6
345.993	-16.26
346.376	-15.13
346.759	22.61
347.142	11.09
347.525	32.56
347.908	60.13
348.291	81.37
348.674	86.34
349.057	115.49
349.44	124.53
349.823	133.8
350.206	155.26
350.588	192.55
350.971	208.14
351.354	214.47
351.737	229.16
352.119	253.11
352.502	270.74
352.884	246.56
353.267	269.39
353.65	297.63
354.032	306.67
354.414	319.33
354.797	329.5
355.179	324.98
355.562	331.08
355.944	324.75
356.326	316.39
356.709	344.64
357.091	347.58
357.473	346.9
357.855	342.38
358.238	332.21
358.62	349.38
359.002	342.83
359.384	339.67
359.766	343.06
360.148	357.52
360.53	331.53
360.912	336.05
361.294	320.68
361.676	325.43
362.057	339.21
362.439	325.88
362.821	338.76
363.203	331.98
363.584	320.23
363.966	333.56
364.348	330.17
364.729	346.22
365.111	323.17
365.493	309.38
365.874	311.64
366.256	320.01
366.637	315.03
367.019	308.93
367.4	322.72
367.781	288.59
368.163	303.28
368.544	295.83
368.925	287.01
369.306	321.14
369.688	308.03
370.069	332.89
370.45	319.1
370.831	301.7
371.212	296.28
371.593	320.01
371.974	308.93
372.355	329.27
372.736	301.93
373.117	326.56
373.498	291.98
373.879	315.94
374.26	313.45
374.641	314.58
375.021	343.73
375.402	319.55
375.783	334.02
376.163	306.22
376.544	322.94
376.925	315.26
377.305	324.75
377.686	315.26
378.066	333.11
378.447	336.05
378.827	320.23
379.208	327.69
379.588	340.8
379.968	332.21
380.349	317.75
380.729	328.59
381.109	344.41
381.489	354.36
381.87	336.05
382.25	348.48
382.63	341.7
383.01	336.73
383.39	340.12
383.77	341.93
384.15	346.22
384.53	356.16
384.91	356.84
385.29	343.28
385.67	343.06
386.049	350.74
386.429	340.12
386.809	352.55
387.189	341.25
387.568	347.58
387.948	338.31
388.328	343.28
388.707	368.37
389.087	363.39
389.466	372.89
389.846	340.8
390.225	354.58
390.605	349.84
390.984	355.26
391.363	345.09
391.743	369.04
392.122	365.88
392.501	381.02
392.881	355.94
393.26	364.3
393.639	379.44
394.018	383.28
394.397	390.74
394.776	381.92
395.155	377.41
395.534	403.17
395.913	379.89
396.292	374.92
396.671	388.48
397.05	388.7
397.429	368.14
397.808	379.89
398.186	396.84
398.565	391.19
398.944	385.09
399.323	418.99
399.701	406.33
400.08	397.97
400.458	388.93
400.837	406.56
401.215	396.39
401.594	391.19
401.972	399.78
402.351	395.71
402.729	383.51
403.107	421.92
403.486	405.88
403.864	406.11
404.242	391.64
404.62	396.16
404.999	428.25
405.377	417.86
405.755	395.94
406.133	421.7
406.511	397.74
406.889	416.27
407.267	407.46
407.645	420.34
408.023	435.48
408.401	425.99
408.779	437.29
409.156	432.77
409.534	434.13
409.912	417.63
410.29	454.24
410.667	449.49
411.045	446.1
411.422	450.17
411.8	459.89
412.178	464.18
412.555	472.77
412.933	483.39
413.31	466.44
413.687	461.02
414.065	482.94
414.442	488.36
414.819	482.94
415.197	495.82
415.574	493.33
415.951	465.99
416.328	477.97
416.705	486.33
417.082	480.23
417.46	494.46
417.837	514.8
418.214	483.84
418.591	489.72
418.967	509.83
419.344	496.27
419.721	476.39
420.098	502.6
420.475	513.45
420.852	517.51
421.228	528.81
421.605	513.9
421.982	530.62
422.358	520.23
422.735	548.47
423.111	526.78
423.488	528.59
423.864	537.4
424.241	536.72
424.617	533.11
424.994	534.46
425.37	559.32
425.746	547.12
426.123	557.29
426.499	549.15
426.875	570.17
427.251	564.07
427.627	568.36
428.003	577.4
428.379	561.36
428.756	584.86
429.132	606.55
429.507	578.08
429.883	575.82
430.259	597.51
430.635	560.45
431.011	617.63
431.387	612.2
431.763	624.86
432.138	618.98
432.514	659.88
432.89	651.3
433.265	641.13
433.641	640.9
434.016	648.13
434.392	651.07
434.767	683.16
435.143	673.89
435.518	665.31
435.894	662.82
436.269	673.44
436.644	691.52
437.02	685.42
437.395	668.25
437.77	688.36
438.145	714.12
438.52	703.72
438.895	710.96
439.271	722.03
439.646	719.77
440.021	714.35
440.395	722.71
440.77	738.75
441.145	715.7
441.52	746.21
441.895	726.32
442.27	765.19
442.645	748.92
443.019	759.09
443.394	762.93
443.769	762.25
444.143	757.96
444.518	740.79
444.892	744.85
445.267	751.63
445.641	762.25
446.016	790.95
446.39	811.07
446.764	807.9
447.139	789.6
447.513	796.15
447.887	832.76
448.262	799.32
448.636	814.23
449.01	790.05
449.384	803.61
449.758	819.88
450.132	829.6
450.506	848.58
450.88	842.48
451.254	870.73
451.628	845.64
452.002	860.33
452.376	848.58
452.75	844.29
453.123	877.96
453.497	867.34
453.871	902.82
454.244	910.72
454.618	911.85
454.992	918.41
455.365	929.26
455.739	941.01
456.112	942.81
456.486	960.21
456.859	960.89
457.232	961.12
457.606	960.21
457.979	967.45
458.352	991.85
458.725	1010.38
459.099	1036.82
459.472	1036.82
459.845	1033.43
460.218	1051.96
460.591	1054
460.964	1080.66
461.337	1068.46
461.71	1100.78
462.083	1104.39
462.456	1104.39
462.829	1111.17
463.201	1108.91
463.574	1143.03
463.947	1129.7
464.32	1173.77
464.692	1192.53
465.065	1195.01
465.438	1221.45
465.81	1228.46
466.183	1247.21
466.555	1267.33
466.928	1240.66
467.3	1276.14
467.672	1295.57
468.045	1292.64
468.417	1314.56
468.789	1320.66
469.161	1339.41
469.534	1358.85
469.906	1381.9
470.278	1385.51
470.65	1416.7
471.022	1471.16
471.394	1447.66
471.766	1481.78
472.138	1469.35
472.51	1521.56
472.882	1559.07
473.253	1566.75
473.625	1610.59
473.997	1630.48
474.369	1620.54
474.74	1660.31
475.112	1678.61
475.484	1727.43
475.855	1773.75
476.227	1795.67
476.598	1815.56
476.97	1856.46
477.341	1889
477.713	1944.37
478.084	1934.2
478.455	1973.75
478.827	2038.83
479.198	2085.61
479.569	2080.19
479.94	2164.93
480.311	2188.43
480.682	2252.84
481.053	2249.9
481.424	2324.7
481.795	2366.96
482.166	2403.57
482.537	2454.19
482.908	2464.13
483.279	2529.44
483.65	2566.05
484.021	2647.18
484.391	2672.94
484.762	2752.03
485.133	2792.71
485.503	2794.29
485.874	2864.12
486.244	2946.38
486.615	3004
486.985	3008.3
487.356	3082.87
487.726	3130.55
488.097	3182.76
488.467	3241.74
488.837	3310.66
489.207	3351.34
489.578	3397.21
489.948	3494.39
490.318	3565.12
490.688	3572.58
491.058	3620.71
491.428	3724.44
491.798	3731.67
492.168	3809.18
492.538	3817.99
492.908	3875.84
493.278	3931.66
493.648	4007.82
494.017	4014.82
494.387	4073.58
494.757	4096.63
495.126	4154.03
495.496	4180.24
495.866	4245.78
496.235	4289.17
496.605	4284.87
496.974	4356.74
497.344	4427.02
497.713	4516.96
498.082	4551.53
498.452	4577.97
498.821	4594.7
499.19	4622.94
499.559	4655.03
499.928	4700.91
500.298	4719.89
500.667	4825.2
501.036	4795.82
501.405	4846.89
501.774	4855.93
502.143	4911.75
502.512	4958.53
502.88	4975.93
503.249	4996.04
503.618	5041.69
503.987	5057.06
504.356	5118.98
504.724	5110.16
505.093	5172.08
505.462	5138.86
505.83	5218.63
506.199	5279.88
506.567	5319.65
506.936	5288.46
507.304	5365.75
507.672	5399.87
508.041	5372.98
508.409	5417.5
508.777	5488.46
509.145	5522.58
509.514	5526.2
509.882	5546.99
510.25	5582.92
510.618	5578.17
510.986	5583.37
511.354	5669.7
511.722	5734.1
512.09	5781.78
512.458	5804.16
512.826	5778.17
513.193	5821.56
513.561	5823.14
513.929	5854.78
514.297	5954.43
514.664	5939.29
515.032	5966.64
515.4	6003.02
515.767	5972.51
516.135	6050.93
516.502	6010.03
516.869	6120.53
517.237	6121.44
517.604	6102.23
517.972	6151.94
518.339	6233.75
518.706	6170.25
519.073	6235.56
519.44	6242.11
519.808	6294.09
520.175	6279.17
520.542	6338.15
520.909	6374.31
521.276	6372.28
521.643	6423.8
522.009	6500.41
522.376	6540.41
522.743	6554.87
523.11	6615.21
523.477	6660.86
523.843	6690.23
524.21	6697.92
524.577	6769.78
524.943	6713.28
525.31	6835.99
525.676	6873.05
526.043	6798.25
526.409	6939.72
526.776	6992.15
527.142	6996.89
527.508	6996.21
527.874	7047.96
528.241	7129.54
528.607	7105.14
528.973	7175.64
529.339	7171.35
529.705	7262.87
530.071	7289.77
530.437	7302.87
530.803	7384.23
531.169	7387.84
531.535	7387.16
531.901	7424.23
532.267	7453.83
532.632	7497.22
532.998	7566.37
533.364	7630.32
533.73	7603.66
534.095	7673.48
534.461	7719.81
534.826	7713.94
535.192	7765.46
535.557	7794.61
535.923	7873.03
536.288	7854.95
536.653	7888.62
537.019	7862.63
537.384	7894.72
537.749	7998
538.114	8033.48
538.479	8032.8
538.845	8066.92
539.21	8063.53
539.575	8100.82
539.94	8112.57
540.305	8198.22
540.67	8198.89
541.034	8247.71
541.399	8280.7
541.764	8210.19
542.129	8319.8
542.494	8364.99
542.858	8468.04
543.223	8420.36
543.587	8445.22
543.952	8445.89
544.316	8513.69
544.681	8518.66
545.045	8620.8
545.41	8589.17
545.774	8599.56
546.138	8670.07
546.503	8751.65
546.867	8710.97
547.231	8850.18
547.595	8784.19
547.959	8869.84
548.324	8858.09
548.688	8856.28
549.052	8920.46
549.416	8937.86
549.779	8935.82
550.143	8927.46
550.507	9067.12
550.871	9086.55
551.235	9092.88
551.599	9207.23
551.962	9241.35
552.326	9177.4
552.689	9208.59
553.053	9248.58
553.417	9230.96
553.78	9417.62
554.143	9376.04
554.507	9337.85
554.87	9408.35
555.234	9582.36
555.597	9458.3
555.96	9473.44
556.323	9515.47
556.686	9562.47
557.05	9594.79
557.413	9633.43
557.776	9635.02
558.139	9735.13
558.502	9748.91
558.865	9731.96
559.228	9798.63
559.59	9838.4
559.953	9796.14
560.316	9960.43
560.679	9901.22
561.041	9977.15
561.404	10056.92
561.767	10096.25
562.129	10132.18
562.492	10174.89
562.854	10101.67
563.217	10211.05
563.579	10145.06
563.941	10244.72
564.304	10235.68
564.666	10400.42
565.028	10277.94
565.39	10347.31
565.753	10455.56
566.115	10440.19
566.477	10450.59
566.839	10444.26
567.201	10518.38
567.563	10547.53
567.925	10642.9
568.287	10685.38
568.648	10674.54
569.01	10707.76
569.372	10849.22
569.734	10791.82
570.095	10818.71
570.457	10916.79
570.819	10960.18
571.18	10937.81
571.542	11049.22
571.903	11069.78
572.265	11114.52
572.626	11194.75
572.987	11282.2
573.349	11292.37
573.71	11373.73
574.071	11346.16
574.432	11509.99
574.794	11588.86
575.155	11668.86
575.516	11671.8
575.877	11769.87
576.238	11776.65
576.599	11885.8
576.96	12010.77
577.32	12093.03
577.681	12118.79
578.042	12300.48
578.403	12301.84
578.763	12477.65
579.124	12581.15
579.485	12718.32
579.845	12864.99
580.206	12951.54
580.566	12999.45
580.927	13158.99
581.287	13275.82
581.648	13341.58
582.008	13581.35
582.368	13750.39
582.728	13963.49
583.089	14077.84
583.449	14224.27
583.809	14473.53
584.169	14549.46
584.529	14705.39
584.889	15014.76
585.249	15105.15
585.609	15263.12
585.969	15666.95
586.329	15688.19
586.688	15976.09
587.048	16266.25
587.408	16332.92
587.768	16715.96
588.127	16890.19
588.487	17201.37
588.846	17516.62
589.206	17732.2
589.565	17863.5
589.925	18252.42
590.284	18447.44
590.643	18813.98
591.003	19068.67
591.362	19352.95
591.721	19579.84
592.08	19913.39
592.44	20092.37
592.799	20484.22
593.158	20631.11
593.517	20909.29
593.876	21300.7
594.235	21577.75
594.593	21865.88
594.952	22265.64
595.311	22411.4
595.67	22750.15
596.029	23196.92
596.387	23486.63
596.746	23722.55
597.104	23951.47
597.463	24243.9
597.822	24639.37
598.18	24817.21
598.538	25156.41
598.897	25534.71
599.255	25646.12
599.613	26346.21
599.972	26268.7
600.33	26683.15
600.688	26861.23
601.046	27253.99
601.404	27623.02
601.762	27775.33
602.12	28277.01
602.478	28437.01
602.836	28693.04
603.194	28916.99
603.552	29049.42
603.91	29381.61
604.268	29688.73
604.625	29831.32
604.983	30236.28
605.341	30264.76
605.698	30674.24
606.056	31042.14
606.413	31247.55
606.771	31491.16
607.128	31817.03
607.485	31920.3
607.843	32119.4
608.2	32586.95
608.557	32862.2
608.914	32764.35
609.272	33164.57
609.629	33320.49
609.986	33714.16
610.343	33643.42
610.7	34066.69
611.057	34264.42
611.414	34403.63
611.771	34616.73
612.127	34970.62
612.484	35055.36
612.841	35284.51
613.198	35316.83
613.554	35569.7
613.911	35887.88
614.267	36096.47
614.624	36132.17
614.98	36274.99
615.337	36662.33
615.693	36818.03
616.05	36746.84
616.406	37091.47
616.762	37222.99
617.118	37319.26
617.475	37484.68
617.831	37585.69
618.187	37872.24
618.543	37967.38
618.899	38237.88
619.255	38169.41
619.611	38305.45
619.967	38557.42
620.323	38719.45
620.678	38746.79
621.034	38665.66
621.39	38866.79
621.746	38781.82
622.101	39382.03
622.457	39201.47
622.812	39236.27
623.168	39370.73
623.523	39471.29
623.879	39705.18
624.234	39551.29
624.589	39699.76
624.945	39932.75
625.3	40019.3
625.655	40014.1
626.01	40001.45
626.365	40328.9
626.72	40235.79
627.075	40278.5
627.43	40398.05
627.785	40357.82
628.14	40525.5
628.495	40637.36
628.85	40545.16
629.205	40368.22
629.559	40696.12
629.914	40668.32
630.269	40662.22
630.623	40614.77
630.978	40784.93
631.332	40905.61
631.687	41131.36
632.041	40765.72
632.396	40930.24
632.75	40814.99
633.104	40937.92
633.459	40793.29
633.813	40916.45
634.167	40871.26
634.521	40910.35
634.875	41080.97
635.229	40923.68
635.583	40827.42
635.937	40814.53
636.291	40884.59
636.645	41036.9
636.999	40825.16
637.352	40975.66
637.706	40712.39
638.06	41037.81
638.413	40838.71
638.767	40818.83
639.121	40861.09
639.474	40635.78
639.828	40751.26
640.181	40908.54
640.534	40770.47
640.888	40795.33
641.241	40704.93
641.594	40741.77
641.947	40819.05
642.301	40708.55
642.654	40790.81
643.007	40748.32
643.36	40784.7
643.713	40637.36
644.066	40928.43
644.419	40530.7
644.771	40449.35
645.124	40115.34
645.477	39962.81
645.83	39740.21
646.182	39546.54
646.535	39531.4
646.888	39504.96
647.24	39394.68
647.593	39775.01
647.945	39580.89
648.298	39407.79
648.65	39385.87
649.002	39360.11
649.355	39421.58
649.707	39391.29
650.059	39609.82
650.411	40010.94
650.763	40003.26
651.115	40520.76
651.467	40440.76
651.819	40316.02
652.171	40294.55
652.523	40187.88
652.875	40313.53
653.227	40087.77
653.578	40319.86
653.93	40255.45
654.282	40023.14
654.633	40016.36
654.985	40061.33
655.337	40136.81
655.688	40144.04
656.039	40135.46
656.391	39916.25
656.742	39925.07
657.094	40122.12
657.445	40238.05
657.796	40161.44
658.147	40138.62
658.498	40043.26
658.849	40116.7
659.2	40041
659.551	39905.86
659.902	40089.58
660.253	40093.65
660.604	40096.81
660.955	39728.91
661.306	40147.21
661.656	39866.31
662.007	40037.38
662.358	40056.14
662.708	40020.88
663.059	39814.79
663.409	39765.52
663.76	40049.13
664.11	39909.02
664.461	39892.98
664.811	40009.13
665.161	39857.05
665.511	39975.01
665.862	39959.42
666.212	39944.73
666.562	39939.75
666.912	39871.51
667.262	39878.74
667.612	39908.57
667.962	40001.9
668.312	39871.28
668.662	40022.01
669.011	39922.81
669.361	39926.2
669.711	39824.73
670.06	39849.59
670.41	39753.55
670.76	39732.53
671.109	39826.76
671.459	39756.03
671.808	39557.62
672.157	39723.72
672.507	39401.24
672.856	39509.94
673.205	39662.93
673.554	39753.09
673.904	39515.81
674.253	39912.19
674.602	39565.75
674.951	39049.38
675.3	39012.77
675.649	39446.43
675.998	39587.9
676.346	39513.55
676.695	39547.9
677.044	39372.76
677.393	39514.23
677.741	39502.7
678.09	39350.84
678.438	39316.49
678.787	39309.94
679.135	39366.44
679.484	39082.38
679.832	39233.33
680.181	39017.75
680.529	39171.64
680.877	39016.62
681.225	39149.49
681.573	39333.67
681.922	38986.33
682.27	38911.76
682.618	38819.78
682.966	38836.06
683.314	38977.07
683.661	38729.17
684.009	38564.42
684.357	38501.37
684.705	38464.99
685.053	38456.18
685.4	38543.18
685.748	38250.08
686.095	38258.67
686.443	38195.39
686.79	38137.09
687.138	38239.46
687.485	38129.86
687.832	37988.85
688.18	38048.51
688.527	37792.69
688.874	37745.69
689.221	37742.52
689.568	37581.4
689.915	37577.78
690.262	37652.36
690.609	37524.23
690.956	37385.92
691.303	37438.8
691.65	37166.49
691.997	37178.92
692.344	37065.03
692.69	36892.38
693.037	37045.59
693.383	36613.97
693.73	36760.63
694.077	36594.53
694.423	36694.19
694.769	36593.18
695.116	36459.17
695.462	36288.33
695.808	36212.62
696.155	36294.65
696.501	36058.28
696.847	35966.98
697.193	35967.66
697.539	35938.73
697.885	35668.45
698.231	35467.78
698.577	35649.02
698.923	35399.54
699.269	35432.98
699.614	35291.29
699.96	35096.04
700.306	35050.62
700.651	35007.46
700.997	34934.69
701.342	34836.84
701.688	34816.27
702.033	34600.91
702.379	34661.48
702.724	34496.96
703.069	34648.59
703.415	34221.04
703.76	34415.83
704.105	34320.92
704.45	34114.15
704.795	33993.92
705.14	33883.64
705.485	33926.13
705.83	33781.27
706.175	33845.45
706.52	33642.07
706.865	33607.72
707.209	33574.5
707.554	33461.96
707.899	33478
708.243	33291.34
708.588	33247.5
708.932	32995.3
709.277	33091.12
709.621	33044.79
709.966	32806.84
710.31	32991.92
710.654	32673.73
710.998	32713.5
711.342	32751.02
711.687	32718.25
712.031	32495.66
712.375	32237.13
712.719	32413.4
713.063	32304.7
713.407	32365.94
713.75	32278.26
714.094	32196.46
714.438	32062
714.782	31974.99
715.125	31885.5
715.469	31980.64
715.812	31823.13
716.156	31646.41
716.499	31726.19
716.843	31713.98
717.186	31518.96
717.53	31658.84
717.873	31769.35
718.216	31538.62
718.559	31417.72
718.902	31201.91
719.246	31371.17
719.589	31211.85
719.932	31184.28
720.275	31228.35
720.617	31103.6
720.96	30937.05
721.303	30935.25
721.646	31031.29
721.989	30799.43
722.331	30892.76
722.674	30871.97
723.016	30854.34
723.359	30727.34
723.701	30740.9
724.044	30551.53
724.386	30342.49
724.729	30427.69
725.071	30493.68
725.413	30384.53
725.755	30387.69
726.097	30283.29
726.439	30119.67
726.782	30247.13
727.124	30232.67
727.465	30108.6
727.807	30053.91
728.149	29874.71
728.491	30021.82
728.833	29935.72
729.175	29894.37
729.516	29914.48
729.858	29745.67
730.199	29765.33
730.541	29714.26
730.882	29797.2
731.224	29839.23
731.565	29645.79
731.906	29579.58
732.248	29530.09
732.589	29410.77
732.93	29489.86
733.271	29345.46
733.612	29339.58
733.953	29371.9
734.294	29245.8
734.635	29207.38
734.976	29223.43
735.317	29152.02
735.658	29158.57
735.999	29152.24
736.339	28921.06
736.68	29241.96
737.021	29027.27
737.361	28755.64
737.702	28915.19
738.042	28850.78
738.383	28861.18
738.723	28872.7
739.063	28667.06
739.404	28845.58
739.744	28782.08
740.084	28590
740.424	28699.6
740.764	28560.39
741.104	28656.21
741.444	28480.17
741.784	28552.26
742.124	28617.79
742.464	28402.21
742.804	28369.21
743.143	28221.19
743.483	28357.01
743.823	28091.03
744.162	28109.33
744.502	28180.29
744.841	27976.68
745.181	28032.27
745.52	28117.92
745.86	28063.68
746.199	27919.73
746.538	27861.2
746.877	27972.39
747.216	27908.21
747.556	27846.74
747.895	27845.16
748.234	27754.54
748.573	27730.13
748.911	27660.98
749.25	27538.27
749.589	27506.18
749.928	27516.35
750.267	27545.05
750.605	27513.64
750.944	27357.03
751.283	27309.35
751.621	27443.59
751.96	27367.88
752.298	27285.17
752.636	27251.95
752.975	27141.45
753.313	27066.2
753.651	27077.27
753.989	26944.84
754.327	26994.56
754.666	26743.04
755.004	26799.76
755.342	26847.44
755.679	26768.12
756.017	26691.74
756.355	26698.75
756.693	26566.32
757.031	26569.94
757.368	26407.91
757.706	26421.92
758.044	26326.33
758.381	26310.96
758.719	26289.72
759.056	26228.93
759.394	26153.9
759.731	26019.89
760.068	25791.43
760.405	25877.75
760.743	25728.38
761.08	25828.26
761.417	25618.78
761.754	25574.71
762.091	25607.25
762.428	25514.37
762.765	25392.11
763.102	25438.67
763.438	25420.36
763.775	25227.83
764.112	25237.09
764.449	25333.81
764.785	25107.38
765.122	24946.93
765.458	24827.84
765.795	24901.73
766.131	24858.34
766.467	24666.71
766.804	24617.45
767.14	24567.05
767.476	24531.8
767.812	24440.05
768.148	24332.93
768.485	24190.79
768.821	24075.77
769.157	24026.95
769.492	24000.29
769.828	24027.86
770.164	23838.03
770.5	23705.61
770.836	23705.61
771.171	23473.07
771.507	23478.72
771.842	23332.96
772.178	23448.66
772.513	23316.01
772.849	23159.86
773.184	23232.4
773.519	23125.73
773.855	22901.33
774.19	22928.22
774.525	22757.61
774.86	22748.57
775.195	22814.56
775.53	22685.52
775.865	22405.98
776.2	22377.73
776.535	22318.07
776.87	22226.1
777.205	22130.05
777.539	21995.82
777.874	21948.82
778.209	21797.86
778.543	21788.14
778.878	21655.04
779.212	21606
779.547	21517.19
779.881	21589.05
780.215	21488.26
780.55	21512.89
780.884	21357.64
781.218	21250.53
781.552	21324.2
781.886	21123.75
782.22	21061.61
782.554	20933.93
782.888	20760.82
783.222	20665.69
783.556	20644.22
783.889	20606.93
784.223	20460.04
784.557	20398.12
784.89	20457.33
785.224	20334.17
785.557	20329.42
785.891	20060.28
786.224	20031.58
786.558	20104.57
786.891	19827.52
787.224	19818.7
787.557	19780.51
787.891	19777.8
788.224	19721.98
788.557	19597.69
788.89	19658.03
789.223	19683.79
789.556	19440.41
789.888	19470.91
790.221	19296.23
790.554	19177.81
790.887	19128.1
791.219	19109.34
791.552	19050.36
791.884	19033.86
792.217	18874.09
792.549	18881.55
792.882	18700.54
793.214	18630.26
793.546	18654.21
793.879	18548.45
794.211	18534.67
794.543	18616.47
794.875	18385.07
795.207	18461
795.539	18348.91
795.871	18278.63
796.203	18150.05
796.535	18085.64
796.867	18039.77
797.198	17943.95
797.53	18002.48
797.862	17803.39
798.193	17830.73
798.525	17701.47
798.856	17787.12
799.188	17566.33
799.519	17588.48
799.85	17386
800.182	17485.43
800.513	17423.06
800.844	17225.32
801.175	17377.41
801.506	17380.12
801.837	17252.22
802.168	17256.28
802.499	17202.27
802.83	17092.45
803.161	17016.29
803.491	17008.83
803.822	17005.89
804.153	16855.84
804.483	16731.33
804.814	16720.48
805.145	16655.85
805.475	16594.61
805.805	16639.12
806.136	16626.47
806.466	16568.62
806.796	16424.89
807.126	16409.75
807.457	16359.81
807.787	16312.81
808.117	16233.94
808.447	16195.29
808.777	16265.35
809.107	16138.57
809.436	16040.27
809.766	16103.77
810.096	15973.61
810.426	15973.83
810.755	15927.28
811.085	15958.24
811.414	15812.03
811.744	15716.66
812.073	15738.58
812.403	15748.07
812.732	15661.75
813.061	15673.27
813.39	15538.14
813.719	15521.64
814.049	15608.19
814.378	15532.04
814.707	15444.58
815.036	15389.44
815.365	15307.63
815.693	15198.26
816.022	15316.67
816.351	15187.41
816.68	15097.47
817.008	15137.92
817.337	15017.02
817.665	14956.01
817.994	15013.63
818.322	15069
818.651	14904.48
818.979	14871.94
819.307	14878.72
819.636	14791.72
819.964	14746.97
820.292	14825.16
820.62	14820.64
820.948	14709.23
821.276	14784.26
821.604	14784.03
821.932	14741.55
822.259	14683.47
822.587	14723.47
822.915	14635.11
823.243	14773.41
823.57	14620.19
823.898	14695.22
824.225	14591.49
824.553	14625.17
824.88	14717.82
825.207	14728.67
825.535	14561.44
825.862	14675.79
826.189	14631.72
826.516	14582.68
826.843	14691.38
827.17	14696.8
827.497	14714.88
827.824	14617.03
828.151	14684.15
828.478	14596.47
828.805	14699.74
829.131	14687.31
829.458	14661.32
829.785	14554.66
830.111	14586.98
830.438	14718.27
830.764	14543.59
831.09	14688.89
831.417	14581.55
831.743	14599.86
832.069	14551.95
832.395	14518.28
832.722	14629.23
833.048	14502.68
833.374	14552.17
833.7	14359.41
834.026	14464.49
834.351	14413.65
834.677	14427.43
835.003	14380.43
835.329	14460.65
835.654	14377.94
835.98	14401.44
836.306	14378.39
836.631	14328.45
836.956	14340.43
837.282	14348.56
837.607	14268.11
837.932	14252.97
838.258	14161.68
838.583	14209.58
838.908	14098.4
839.233	14101.79
839.558	14183.14
839.883	14055.24
840.208	14021.34
840.533	14065.18
840.858	14006.88
841.182	13980.44
841.507	13971.4
841.832	14000.32
842.156	13848.69
842.481	13874.9
842.805	13853.89
843.13	13848.46
843.454	13829.26
843.778	13724.63
844.103	13667.9
844.427	13688.24
844.751	13680.78
845.075	13712.42
845.399	13559.21
845.723	13516.72
846.047	13493.44
846.371	13415.48
846.695	13387.91
847.019	13276.73
847.343	13265.65
847.666	13277.41
847.99	13228.14
848.313	13201.7
848.637	13022.72
848.96	13006.45
849.284	12984.31
849.607	12919.22
849.931	12927.58
850.254	12780.92
850.577	12765.78
850.9	12623.41
851.223	12636.29
851.546	12637.42
851.869	12488.73
852.192	12516.07
852.515	12445.56
852.838	12365.79
853.161	12380.48
853.483	12242.86
853.806	12289.86
854.129	12310.42
854.451	12206.02
854.774	12173.93
855.096	12168.96
855.419	12051.45
855.741	12031.11
856.063	11931.23
856.385	12020.49
856.708	11865.46
857.03	11955.18
857.352	11855.07
857.674	11906.82
857.996	11810.33
858.318	11750.67
858.64	11729.88
858.961	11662.53
859.283	11672.93
859.605	11574.17
859.926	11612.82
860.248	11505.7
860.57	11500.95
860.891	11536.43
861.212	11420.28
861.534	11373.5
861.855	11351.35
862.176	11408.98
862.498	11401.3
862.819	11413.05
863.14	11300.96
863.461	11307.51
863.782	11307.97
864.103	11327.17
864.424	11203.79
864.745	11227.97
865.065	11224.8
865.386	11103.45
865.707	11105.48
866.027	11172.15
866.348	11168.08
866.668	11052.15
866.989	11013.51
867.309	11075.88
867.63	11046.5
867.95	10979.16
868.27	10954.75
868.59	10998.14
868.91	10916.56
869.23	10943.46
869.55	10876.79
869.87	10931.93
870.19	10890.12
870.51	10877.24
870.83	10879.5
871.15	10773.52
871.469	10759.73
871.789	10797.47
872.109	10749.34
872.428	10780.3
872.748	10708.43
873.067	10771.93
873.386	10651.03
873.706	10682.67
874.025	10649.68
874.344	10634.31
874.663	10635.44
874.982	10596.35
875.301	10602.67
875.62	10623.92
875.939	10619.17
876.258	10613.52
876.577	10543.24
876.896	10506.86
877.214	10453.98
877.533	10568.32
877.852	10420.08
878.17	10487.42
878.489	10435.45
878.807	10532.39
879.125	10343.47
879.444	10441.1
879.762	10297.14
880.08	10364.94
880.398	10228.9
880.716	10322
881.034	10315.9
881.352	10234.77
881.67	10235
881.988	10144.38
882.306	10215.34
882.624	10187.54
882.941	10159.52
883.259	10103.25
883.577	10090.82
883.894	10060.99
884.212	10084.27
884.529	10028.45
884.846	9950.49
885.164	9998.4
885.481	9979.41
885.798	9919.98
886.115	9825.07
886.432	9848.57
886.75	9842.24
887.067	9859.42
887.383	9790.72
887.7	9828
888.017	9714.33
888.334	9753.43
888.651	9693.09
888.967	9743.71
889.284	9608.8
889.6	9629.14
889.917	9615.35
890.233	9495.81
890.55	9532.42
890.866	9536.49
891.182	9506.66
891.498	9417.17
891.815	9437.28
892.131	9450.61
892.447	9370.39
892.763	9419.2
893.079	9318.87
893.395	9246.1
893.71	9217.85
894.026	9207
894.342	9290.17
894.657	9184.63
894.973	9174.01
895.289	9148.47
895.604	9156.61
895.92	9029.38
896.235	9048.36
896.55	9055.37
896.865	9027.12
897.181	8986.9
897.496	8929.04
897.811	8890.85
898.126	8818.31
898.441	8806.56
898.756	8743.97
899.071	8723.4
899.386	8822.61
899.7	8642.95
900.015	8599.34
900.33	8576.06
900.644	8606.57
900.959	8630.07
901.273	8576.74
901.588	8515.72
901.902	8462.62
902.216	8454.71
902.531	8443.18
902.845	8482.05
903.159	8358.89
903.473	8343.3
903.787	8296.75
904.101	8266.01
904.415	8316.41
904.729	8262.62
905.042	8187.37
905.356	8183.3
905.67	8108.28
905.984	8131.78
906.297	8060.59
906.611	7981.05
906.924	8003.65
907.237	8029.86
907.551	7911.9
907.864	7897.21
908.177	7892.46
908.491	7894.5
908.804	7823.31
909.117	7743.54
909.43	7767.72
909.743	7747.61
910.056	7757.55
910.368	7673.03
910.681	7655.41
910.994	7625.35
911.307	7532.25
911.619	7567.05
911.932	7557.33
912.244	7426.49
912.557	7475.75
912.869	7365.7
913.181	7365.47
913.494	7399.82
913.806	7311.69
914.118	7298.81
914.43	7288.86
914.742	7284.12
915.054	7248.64
915.366	7205.02
915.678	7159.83
915.99	7163.89
916.302	7049.09
916.613	7073.5
916.925	7053.39
917.236	7013.39
917.548	6989.21
917.859	6985.37
918.171	6951.47
918.482	6946.05
918.794	6876.44
919.105	6846.39
919.416	6781.3
919.727	6825.15
920.038	6763.68
920.349	6691.36
920.66	6682.55
920.971	6659.05
921.282	6678.48
921.593	6640.74
921.903	6541.31
922.214	6520.75
922.525	6497.92
922.835	6506.28
923.146	6490.69
923.456	6450.47
923.767	6396
924.077	6359.62
924.387	6391.03
924.697	6314.2
925.008	6330.7
925.318	6278.95
925.628	6244.37
925.938	6229.68
926.248	6126.63
926.558	6181.32
926.867	6173.86
927.177	6149
927.487	6104.49
927.796	6005.05
928.106	6025.84
928.416	5989.69
928.725	5988.78
929.034	5998.5
929.344	5968.67
929.653	5916.47
929.962	5861.33
930.271	5842.57
930.581	5779.75
930.89	5765.29
931.199	5775.46
931.508	5729.13
931.817	5734.55
932.125	5738.17
932.434	5732.07
932.743	5648.45
933.051	5625.63
933.36	5682.35
933.669	5601
933.977	5515.12
934.286	5557.38
934.594	5512.86
934.902	5491.17
935.21	5432.19
935.519	5401.91
935.827	5467.22
936.135	5424.28
936.443	5370.27
936.751	5381.34
937.059	5352.64
937.367	5320.78
937.674	5290.04
937.982	5340.66
938.29	5228.35
938.597	5231.06
938.905	5162.14
939.213	5183.83
939.52	5188.8
939.827	5187.22
940.135	5120.78
940.442	5101.35
940.749	5068.13
941.056	5074.46
941.363	5017.74
941.67	5030.84
941.977	4982.03
942.284	4974.57
942.591	4961.24
942.898	4875.59
943.205	4872.2
943.511	4876.72
943.818	4829.49
944.125	4838.98
944.431	4840.56
944.738	4799.21
945.044	4788.36
945.35	4779.32
945.657	4752.43
945.963	4698.87
946.269	4701.13
946.575	4643.28
946.881	4655.94
947.187	4639.21
947.493	4608.48
947.799	4617.07
948.105	4601.93
948.41	4566.45
948.716	4520.35
949.022	4532.55
949.327	4521.48
949.633	4404.19
949.938	4476.96
950.244	4442.84
950.549	4435.15
950.854	4350.86
951.16	4372.78
951.465	4324.87
951.77	4361.48
952.075	4290.3
952.38	4279.45
952.685	4292.33
952.99	4231.32
953.294	4280.81
953.599	4217.76
953.904	4198.77
954.209	4177.53
954.513	4213.24
954.818	4121.26
955.122	4135.5
955.426	4104.76
955.731	4103.18
956.035	4146.12
956.339	4041.04
956.643	4058.21
956.948	4059.12
957.252	4007.37
957.556	3968.27
957.86	3933.02
958.163	3950.19
958.467	3915.17
958.771	3923.3
959.075	3908.39
959.378	3919.91
959.682	3841.95
959.985	3836.3
960.289	3836.3
960.592	3816.41
960.896	3815.28
961.199	3827.26
961.502	3761.95
961.805	3740.48
962.108	3737.32
962.411	3732.35
962.714	3705.91
963.017	3710.65
963.32	3675.62
963.623	3661.16
963.926	3633.14
964.228	3638.34
964.531	3636.53
964.833	3601.95
965.136	3555.85
965.438	3580.71
965.741	3560.37
966.043	3515.63
966.345	3518.57
966.648	3498
966.95	3507.27
967.252	3481.73
967.554	3475.85
967.856	3484.67
968.158	3428.4
968.46	3402.64
968.761	3411.9
969.063	3360.6
969.365	3376.87
969.666	3367.16
969.968	3325.35
970.269	3325.12
970.571	3290.1
970.872	3260.72
971.174	3271.57
971.475	3273.15
971.776	3261.17
972.077	3256.65
972.378	3214.39
972.679	3231.57
972.98	3188.86
973.281	3199.48
973.582	3178.91
973.883	3152.7
974.183	3183.21
974.484	3150.67
974.785	3133.04
975.085	3109.08
975.386	3116.77
975.686	3059.82
975.986	3104.11
976.287	3048.97
976.587	3039.48
976.887	3036.54
977.187	3057.33
977.487	3008.75
977.787	2976.43
978.087	2971.01
978.387	2930.11
978.687	2950.9
978.987	2906.15
979.286	2932.14
979.586	2956.32
979.885	2898.47
980.185	2887.4
980.484	2873.61
980.784	2835.19
981.083	2839.04
981.382	2839.49
981.682	2804.46
981.981	2811.69
982.28	2784.12
982.579	2801.3
982.878	2776.89
983.177	2757
983.475	2728.76
983.774	2731.92
984.073	2714.07
984.372	2697.8
984.67	2681.98
984.969	2701.41
985.267	2685.82
985.566	2635.65
985.864	2650.11
986.162	2630.45
986.461	2618.7
986.759	2569.44
987.057	2575.77
987.355	2586.16
987.653	2571.25
987.951	2602.66
988.249	2532.83
988.547	2540.29
988.844	2518.59
989.142	2521.98
989.44	2492.15
989.737	2484.02
990.035	2478.82
990.332	2480.17
990.63	2470.01
990.927	2439.05
991.224	2431.81
991.521	2456.45
991.819	2445.83
992.116	2373.51
992.413	2395.21
992.71	2359.5
993.006	2376.67
993.303	2369.9
993.6	2350.23
993.897	2351.14
994.193	2323.57
994.49	2327.86
994.787	2309.11
995.083	2287.64
995.379	2271.14
995.676	2276.56
995.972	2285.83
996.268	2281.31
996.565	2227.07
996.861	2219.84
997.157	2214.19
997.453	2250.35
997.749	2211.93
998.044	2203.35
998.34	2165.83
998.636	2166.74
998.932	2151.6
999.227	2153.18
999.523	2145.04
999.818	2100.75
1000.114	2110.02
1000.409	2124.93
1000.704	2101.88
1001	2098.26
1001.295	2065.95
1001.59	2086.06
1001.885	2069.79
1002.18	2038.38
1002.475	2028.89
1002.77	2035.44
1003.065	1999.28
1003.359	2013.97
1003.654	1981.2
1003.949	1934.65
1004.243	1976.23
1004.538	1939.4
1004.832	1950.7
1005.127	1972.84
1005.421	1918.38
1005.715	1908.66
1006.009	1893.75
1006.304	1881.77
1006.598	1851.04
1006.892	1860.53
1007.186	1876.35
1007.48	1823.69
1007.773	1857.82
1008.067	1844.49
1008.361	1820.53
1008.655	1792.06
1008.948	1816.69
1009.242	1767.2
1009.535	1792.28
1009.829	1771.27
1010.122	1764.04
1010.415	1755.45
1010.708	1759.29
1011.001	1712.29
1011.295	1685.17
1011.588	1689.24
1011.881	1680.2
1012.173	1682.68
1012.466	1675.9
1012.759	1664.15
1013.052	1666.64
1013.344	1655.79
1013.637	1633.42
1013.93	1625.96
1014.222	1603.14
1014.514	1559.97
1014.807	1590.93
1015.099	1583.02
1015.391	1573.53
1015.683	1562.91
1015.976	1593.42
1016.268	1516.13
1016.56	1525.85
1016.851	1535.57
1017.143	1503.48
1017.435	1498.05
1017.727	1514.32
1018.018	1489.69
1018.31	1492.86
1018.602	1459.18
1018.893	1487.21
1019.185	1457.38
1019.476	1436.59
1019.767	1441.11
1020.058	1437.72
1020.35	1443.59
1020.641	1414.44
1020.932	1408.11
1021.223	1423.48
1021.514	1401.33
1021.804	1364.05
1022.095	1385.74
1022.386	1350.04
1022.677	1365.4
1022.967	1354.55
1023.258	1347.78
1023.548	1342.35
1023.839	1322.24
1024.129	1304.84
1024.419	1302.8
1024.709	1259.87
1025	1284.95
1025.29	1289.25
1025.58	1298.74
1025.87	1256.48
1026.16	1253.31
1026.449	1230.49
1026.739	1242.24
1027.029	1236.14
1027.319	1216.93
1027.608	1216.93
1027.898	1195.01
1028.187	1193.43
1028.477	1177.16
1028.766	1169.02
1029.055	1161.57
1029.344	1152.07
1029.634	1157.5
1029.923	1128.12
1030.212	1147.78
1030.501	1124.96
1030.79	1155.01
1031.078	1120.89
1031.367	1099.19
1031.656	1120.44
1031.945	1091.51
1032.233	1079.31
1032.522	1082.7
1032.81	1068.01
1033.099	1080.89
1033.387	1083.38
1033.675	1039.99
1033.963	1038.18
1034.251	1059.87
1034.54	1022.81
1034.828	1034.11
1035.116	1019.87
1035.403	1011.29
1035.691	1012.19
1035.979	1009.93
1036.267	1006.99
1036.554	977.84
1036.842	981.23
1037.129	979.65
1037.417	985.07
1037.704	968.58
1037.992	958.86
1038.279	968.58
1038.566	958.18
1038.853	958.18
1039.14	958.18
