Data from hue_24_FLMS001491_00016.txt Node
Date: Tue Feb 07 17:11:51 GMT 2017
User: dcchb
Spectrometer: FLMS00149
Trigger mode: 0
Integration Time (sec): 2.000000E-2
Scans to average: 10
Electric dark correction enabled: true
Nonlinearity correction enabled: false
Boxcar width: 0
XAxis mode: Wavelengths
Number of Pixels in Spectrum: 2048
>>>>>Begin Spectral Data<<<<<
341.393	-15.68
341.776	-15.68
342.16	-15.68
342.543	-52.96
342.927	-72.17
343.31	-73.98
343.693	-72.4
344.077	-62.46
344.46	-59.52
344.843	-47.99
345.226	-50.93
345.61	-39.41
345.993	-5.28
346.376	-9.35
346.759	18.45
347.142	28.62
347.525	45.56
347.908	59.12
348.291	78.33
348.674	86.69
349.057	104.55
349.44	133.7
349.823	148.16
350.206	187.71
350.588	197.2
350.971	217.54
351.354	232.9
351.737	230.42
352.119	255.28
352.502	276.74
352.884	296.86
353.267	278.33
353.65	302.51
354.032	318.32
354.414	301.6
354.797	328.04
355.179	330.75
355.562	331.21
355.944	323.75
356.326	335.73
356.709	334.37
357.091	350.64
357.473	352.67
357.855	352.22
358.238	353.35
358.62	344.31
359.002	350.87
359.384	352.22
359.766	350.64
360.148	352.67
360.53	356.29
360.912	354.26
361.294	342.96
361.676	340.7
362.057	342.51
362.439	317.42
362.821	327.82
363.203	347.25
363.584	343.64
363.966	330.98
364.348	320.13
364.729	322.62
365.111	321.26
365.493	327.36
365.874	311.55
366.256	335.95
366.637	312.68
367.019	298.44
367.4	302.28
367.781	320.58
368.163	333.92
368.544	341.6
368.925	338.89
369.306	324.43
369.688	305.67
370.069	332.79
370.45	329.85
370.831	317.87
371.212	315.16
371.593	326.01
371.974	323.52
372.355	329.4
372.736	319.45
373.117	327.36
373.498	322.84
373.879	325.78
374.26	333.69
374.641	319.68
375.021	325.1
375.402	331.21
375.783	337.31
376.163	344.54
376.544	327.36
376.925	334.82
377.305	319.23
377.686	337.08
378.066	336.4
378.447	320.58
378.827	311.32
379.208	339.79
379.588	340.7
379.968	340.92
380.349	361.26
380.729	336.86
381.109	346.35
381.489	330.98
381.87	332.34
382.25	361.94
382.63	333.92
383.01	348.83
383.39	361.71
383.77	350.87
384.15	353.8
384.53	381.83
384.91	349.06
385.29	356.74
385.67	346.12
386.049	346.8
386.429	361.71
386.809	338.89
387.189	360.58
387.568	384.31
387.948	345.44
388.328	360.81
388.707	385.67
389.087	373.01
389.466	370.98
389.846	375.95
390.225	372.79
390.605	381.15
390.984	374.37
391.363	386.57
391.743	391.54
392.122	402.84
392.501	396.74
392.881	387.48
393.26	388.15
393.639	414.14
394.018	388.61
394.397	385.44
394.776	401.71
395.155	367.36
395.534	396.97
395.913	392.22
396.292	389.28
396.671	395.16
397.05	412.11
397.429	426.57
397.808	430.41
398.186	412.33
398.565	414.59
398.944	410.53
399.323	421.37
399.701	418.21
400.08	426.57
400.458	414.82
400.837	415.5
401.215	428.38
401.594	420.02
401.972	428.6
402.351	430.41
402.729	431.09
403.107	411.43
403.486	423.41
403.864	431.77
404.242	428.83
404.62	439
404.999	458.66
405.377	453.69
405.755	449.39
406.133	450.98
406.511	443.07
406.889	448.49
407.267	479.45
407.645	445.55
408.023	472.22
408.401	465.67
408.779	461.6
409.156	492.56
409.534	467.25
409.912	472.45
410.29	467.25
410.667	486
411.045	485.55
411.422	489.85
411.8	490.52
412.178	495.95
412.555	486
412.933	495.04
413.31	505.89
413.687	511.99
414.065	516.06
414.442	500.69
414.819	520.81
415.197	538.66
415.574	533.69
415.951	532.56
416.328	523.07
416.705	519.9
417.082	500.02
417.46	525.1
417.837	541.14
418.214	563.06
418.591	554.48
418.967	541.6
419.344	561.71
419.721	555.83
420.098	550.41
420.475	565.78
420.852	548.38
421.228	580.69
421.605	556.74
421.982	564.65
422.358	568.71
422.735	588.6
423.111	579.56
423.488	602.39
423.864	577.98
424.241	583.4
424.617	579.11
424.994	619.79
425.37	602.84
425.746	595.38
426.123	608.71
426.499	606.68
426.875	628.6
427.251	634.93
427.627	634.93
428.003	635.83
428.379	651.42
428.756	643.06
429.132	651.42
429.507	654.81
429.883	666.56
430.259	686.9
430.635	685.77
431.011	673.57
431.387	691.87
431.763	699.33
432.138	702.04
432.514	698.88
432.89	701.59
433.265	713.79
433.641	744.3
434.016	744.3
434.392	748.14
434.767	737.75
435.143	744.53
435.518	750.18
435.894	729.61
436.269	755.6
436.644	761.25
437.02	819.78
437.395	786.56
437.77	797.86
438.145	779.56
438.52	795.15
438.895	829.95
439.271	828.59
439.646	840.57
440.021	818.42
440.395	839.22
440.77	823.62
441.145	844.19
441.52	867.69
441.895	859.78
442.27	866.11
442.645	842.83
443.019	894.13
443.394	878.76
443.769	887.8
444.143	893.45
444.518	897.29
444.892	894.58
445.267	886.9
445.641	928.03
446.016	877.63
446.39	896.16
446.764	899.78
447.139	900.68
447.513	914.47
447.887	940.23
448.262	904.98
448.636	906.78
449.01	943.39
449.384	964.86
449.758	962.6
450.132	968.48
450.506	952.88
450.88	974.35
451.254	976.61
451.628	987.91
452.002	1006.67
452.376	999.89
452.75	1018.65
453.123	1014.13
453.497	1038.76
453.871	1033.56
454.244	1056.84
454.618	1052.77
454.992	1065.88
455.365	1087.34
455.739	1058.64
456.112	1099.32
456.486	1110.62
456.859	1111.3
457.232	1132.54
457.606	1144.07
457.979	1163.5
458.352	1161.24
458.725	1202.37
459.099	1202.6
459.472	1218.87
459.845	1213.67
460.218	1244.4
460.591	1243.05
460.964	1252.76
461.337	1285.08
461.71	1291.18
462.083	1314.23
462.456	1285.08
462.829	1317.85
463.201	1312.65
463.574	1358.75
463.947	1368.01
464.32	1391.97
464.692	1402.14
465.065	1449.14
465.438	1458.18
465.81	1424.96
466.183	1470.84
466.555	1483.49
466.928	1509.48
467.3	1528.69
467.672	1512.42
468.045	1565.98
468.417	1553.55
468.789	1570.72
469.161	1605.07
469.534	1615.24
469.906	1660.21
470.278	1685.75
470.65	1710.15
471.022	1715.12
471.394	1755.58
471.766	1761.68
472.138	1786.53
472.51	1836.93
472.882	1879.19
473.253	1876.7
473.625	1895.23
473.997	1945.4
474.369	1965.06
474.74	1971.39
475.112	2054.1
475.484	2071.27
475.855	2111.95
476.227	2116.92
476.598	2165.28
476.97	2195.56
477.341	2247.31
477.713	2309.69
478.084	2292.28
478.455	2382
478.827	2362.79
479.198	2477.36
479.569	2462.45
479.94	2529.57
480.311	2566.63
480.682	2605.5
481.053	2678.26
481.424	2721.43
481.795	2788.54
482.166	2828.54
482.537	2859.73
482.908	2947.41
483.279	3012.04
483.65	2995.99
484.021	3099.04
484.391	3151.92
484.762	3151.47
485.133	3193.05
485.503	3304.91
485.874	3365.93
486.244	3381.97
486.615	3435.76
486.985	3486.6
487.356	3572.02
487.726	3601.18
488.097	3686.6
488.467	3732.92
488.837	3802.08
489.207	3820.38
489.578	3917.78
489.948	3935.63
490.318	4023.99
490.688	4060.83
491.058	4139.69
491.428	4177.88
491.798	4219.69
492.168	4280.25
492.538	4377.88
492.908	4348.28
493.278	4463.53
493.648	4474.15
494.017	4530.19
494.387	4627.59
494.757	4616.07
495.126	4718.89
495.496	4776.96
495.866	4726.12
496.235	4817.19
496.605	4820.13
496.974	4872.78
497.344	4930.86
497.713	4964.76
498.082	5012.44
498.452	5076.17
498.821	5106.9
499.19	5119.1
499.559	5217.18
499.928	5201.36
500.298	5207.01
500.667	5265.09
501.036	5299.89
501.405	5371.3
501.774	5341.7
502.143	5388.93
502.512	5424.86
502.88	5503.5
503.249	5535.36
503.618	5529.94
503.987	5647.9
504.356	5592.76
504.724	5640.22
505.093	5655.13
505.462	5640.67
505.83	5754.34
506.199	5811.74
506.567	5876.14
506.936	5839.54
507.304	5919.76
507.672	5916.6
508.041	5889.03
508.409	5986.88
508.777	6057.61
509.145	6042.69
509.514	6058.29
509.882	6158.17
510.25	6140.77
510.618	6179.41
510.986	6195.01
511.354	6206.76
511.722	6285.17
512.09	6305.96
512.458	6314.33
512.826	6415.57
513.193	6344.61
513.561	6412.85
513.929	6437.49
514.297	6525.62
514.664	6545.73
515.032	6545.51
515.4	6648.33
515.767	6540.08
516.135	6611.94
516.502	6610.59
516.869	6698.95
517.237	6739.17
517.604	6730.13
517.972	6764.71
518.339	6786.18
518.706	6804.26
519.073	6836.12
519.44	6825.05
519.808	6924.03
520.175	6961.31
520.542	7054.65
520.909	7034.53
521.276	7026.4
521.643	7100.29
522.009	7127.64
522.376	7155.21
522.743	7188.43
523.11	7249.44
523.477	7340.51
523.843	7310.68
524.21	7353.39
524.577	7436.33
524.943	7495.09
525.31	7506.38
525.676	7570.11
526.043	7635.19
526.409	7666.15
526.776	7738.92
527.142	7720.84
527.508	7770.56
527.874	7852.36
528.241	7828.41
528.607	7881.29
528.973	7999.48
529.339	7954.51
529.705	8022.76
530.071	8102.3
530.437	8132.58
530.803	8221.62
531.169	8216.87
531.535	8220.26
531.901	8259.81
532.267	8345.91
532.632	8317.44
532.998	8250.55
533.364	8404.89
533.73	8384.33
534.095	8568.73
534.461	8552.68
534.826	8612.34
535.192	8663.42
535.557	8628.39
535.923	8702.06
536.288	8672.68
536.653	8770.31
537.019	8836.52
537.384	8775.28
537.749	8779.35
538.114	8832
538.479	8890.53
538.845	8941.15
539.21	8927.36
539.575	9013.46
539.94	8950.41
540.305	9002.84
540.67	9031.54
541.034	9096.4
541.399	9210.75
541.764	9175.72
542.129	9230.41
542.494	9210.07
542.858	9236.51
543.223	9363.06
543.587	9374.81
543.952	9360.35
544.316	9406
544.681	9432.89
545.045	9467.91
545.41	9599.66
545.774	9555.37
546.138	9641.24
546.503	9632.66
546.867	9634.01
547.231	9732.09
547.595	9773.22
547.959	9788.81
548.324	9797.17
548.688	9812.09
549.052	9830.62
549.416	9847.79
549.779	9889.82
550.143	9945.19
550.507	10081.68
550.871	10033.78
551.235	9971.4
551.599	10163.49
551.962	10120.78
552.326	10134.79
552.689	10252.98
553.053	10193.55
553.417	10200.55
553.78	10312.41
554.143	10312.19
554.507	10380.66
554.87	10360.32
555.234	10545.17
555.597	10369.36
555.96	10460.88
556.323	10509.47
556.686	10476.02
557.05	10629.92
557.413	10634.21
557.776	10643.25
558.139	10737.49
558.502	10765.51
558.865	10746.07
559.228	10817.26
559.59	10867.43
559.953	10884.83
560.316	10962.56
560.679	11022.9
561.041	11021.09
561.404	11055.67
561.767	11103.13
562.129	11074.2
562.492	11142.45
562.854	11211.82
563.217	11160.53
563.579	11231.71
563.941	11340.41
564.304	11384.93
564.666	11463.12
565.028	11358.71
565.39	11499.73
565.753	11529.1
566.115	11575.66
566.477	11659.04
566.839	11684.81
567.201	11773.39
567.563	11755.76
567.925	11803.45
568.287	11821.75
568.648	11867.63
569.01	11976.32
569.372	12045.25
569.734	11956.44
570.095	12055.87
570.457	12092.25
570.819	12133.16
571.18	12197.11
571.542	12265.13
571.903	12216.32
572.265	12380.38
572.626	12377.89
572.987	12404.33
573.349	12479.14
573.71	12590.77
574.071	12610.21
574.432	12666.02
574.794	12818.34
575.155	12731.56
575.516	12797.77
575.877	12882.06
576.238	13032.79
576.599	13102.17
576.96	13197.99
577.32	13211.55
577.681	13353.91
578.042	13423.74
578.403	13606.79
578.763	13626.68
579.124	13734.92
579.485	13837.97
579.845	13947.12
580.206	13987.12
580.566	14182.37
580.927	14339.88
581.287	14372.19
581.648	14478.63
582.008	14737.83
582.368	14805.18
582.728	15034.77
583.089	15163.13
583.449	15305.95
583.809	15496.46
584.169	15644.48
584.529	15864.13
584.889	16074.52
585.249	16296.66
585.609	16310.9
585.969	16618.46
586.329	16804.67
586.688	17034.72
587.048	17209.18
587.408	17452.79
587.768	17655.95
588.127	17946.11
588.487	18142.26
588.846	18578.86
589.206	18727.56
589.565	18909.02
589.925	19267.43
590.284	19429.46
590.643	19727.08
591.003	20095.21
591.362	20349.21
591.721	20573.61
592.08	20807.5
592.44	21264.89
592.799	21535.17
593.158	21721.83
593.517	22140.12
593.876	22423.51
594.235	22673.22
594.593	22897.17
594.952	23359.75
595.311	23555
595.67	23872.06
596.029	24259.39
596.387	24578.03
596.746	24919.49
597.104	25148.63
597.463	25353.15
597.822	25836.75
598.18	26018.21
598.538	26369.39
598.897	26718.99
599.255	26862.03
599.613	27494.33
599.972	27607.32
600.33	28001.44
600.688	28233.07
601.046	28665.83
601.404	28990.11
601.762	29206.6
602.12	29683.65
602.478	29953.93
602.836	30191.44
603.194	30388.72
603.552	30689.73
603.91	30646.57
604.268	31199.32
604.625	31338.07
604.983	31801.79
605.341	31940.77
605.698	32398.84
606.056	32743.01
606.413	32896.9
606.771	33119.5
607.128	33448.08
607.485	33625.7
607.843	33901.62
608.2	34323.98
608.557	34585.9
608.914	34592.9
609.272	35036.96
609.629	35287.12
609.986	35456.16
610.343	35643.05
610.7	36177.5
611.057	36236.25
611.414	36256.59
611.771	36530.93
612.127	36972.73
612.484	37179.28
612.841	37475.54
613.198	37464.92
613.554	37693.39
613.911	37875.76
614.267	38122.08
614.624	38229.19
614.98	38407.04
615.337	38701.5
615.693	38816.75
616.05	38912.34
616.406	39350.52
616.762	39354.59
617.118	39412.89
617.475	39703.5
617.831	39818.98
618.187	40203.15
618.543	40286.31
618.899	40505.97
619.255	40647.21
619.611	40689.01
619.967	41014.66
620.323	41236.57
620.678	41076.8
621.034	41095.33
621.39	41286.74
621.746	41407.41
622.101	41838.82
622.457	41626.17
622.812	41636.56
623.168	41923.78
623.523	42132.14
623.879	42217.56
624.234	42123.55
624.589	42374.39
624.945	42471.79
625.3	42533.49
625.655	42586.59
626.01	42579.81
626.365	42798.11
626.72	42769.41
627.075	42715.85
627.43	42905.45
627.785	42898
628.14	43009.86
628.495	43136.86
628.85	43075.62
629.205	42990.42
629.559	43452.11
629.914	43065.45
630.269	43258.44
630.623	43276.52
630.978	43269.74
631.332	43356.74
631.687	43641.03
632.041	43491.2
632.396	43630.41
632.75	43390.64
633.104	43433.35
633.459	43462.5
633.813	43410.3
634.167	43649.61
634.521	43561.48
634.875	43613.68
635.229	43583.63
635.583	43409.17
635.937	43556.51
636.291	43402.62
636.645	43497.53
636.999	43467.7
637.352	43708.37
637.706	43467.92
638.06	43704.53
638.413	43590.86
638.767	43534.59
639.121	43557.41
639.474	43321.94
639.828	43412.11
640.181	43530.75
640.534	43537.3
640.888	43417.53
641.241	43329.62
641.594	43338.21
641.947	43527.13
642.301	43501.6
642.654	43393.58
643.007	43476.74
643.36	43561.26
643.713	43506.34
644.066	43528.04
644.419	43350.87
644.771	43135.28
645.124	42807.6
645.477	42700.94
645.83	42387.5
646.182	42316.99
646.535	42283.32
646.888	42438.35
647.24	42057.57
647.593	42328.75
647.945	42157.9
648.298	42009.43
648.65	42091.92
649.002	41956.78
649.355	42156.77
649.707	42197
650.059	42207.39
650.411	42726.7
650.763	42789.07
651.115	43321.26
651.467	42977.54
651.819	42941.84
652.171	42924.21
652.523	42722.41
652.875	42883.76
653.227	42799.24
653.578	43038.11
653.93	42990.2
654.282	42895.96
654.633	42820.71
654.985	42810.09
655.337	42894.38
655.688	42868.62
656.039	43098.67
656.391	42763.54
656.742	42683.99
657.094	42701.62
657.445	42869.52
657.796	42879.01
658.147	42690.77
658.498	42620.72
658.849	42850.09
659.2	42755.85
659.551	42621.62
659.902	42697.78
660.253	42657.55
660.604	42784.55
660.955	42537.78
661.306	42719.47
661.656	42677.44
662.007	42660.49
662.358	42644.22
662.708	42554.5
663.059	42657.55
663.409	42517.22
663.76	42596.08
664.11	42702.75
664.461	42682.86
664.811	42697.78
665.161	42550.89
665.511	42435.64
665.862	42602.64
666.212	42690.54
666.562	42673.6
666.912	42619.81
667.262	42478.35
667.612	42523.99
667.962	42548.18
668.312	42522.86
668.662	42702.07
669.011	42630.21
669.361	42539.81
669.711	42461.85
670.06	42483.54
670.41	42433.6
670.76	42389.08
671.109	42480.15
671.459	42418.69
671.808	42251.91
672.157	42364.68
672.507	42255.98
672.856	42218.47
673.205	42321.06
673.554	42412.13
673.904	42185.47
674.253	42386.37
674.602	42344.11
674.951	41843.56
675.3	41547.3
675.649	42159.94
675.998	42032.93
676.346	42024.57
676.695	42208.75
677.044	41807.86
677.393	42097.11
677.741	42187.05
678.09	41980.28
678.438	42057.57
678.787	42070.45
679.135	42001.07
679.484	41782.09
679.832	42043.78
680.181	41771.92
680.529	41823.9
680.877	41663.68
681.225	41638.37
681.573	41899.83
681.922	41505.94
682.27	41553.85
682.618	41500.07
682.966	41345.49
683.314	41494.19
683.661	41344.36
684.009	41177.59
684.357	41082.68
684.705	41089
685.053	40914.77
685.4	41011.27
685.748	40931.95
686.095	40951.83
686.443	40658.73
686.79	40612.18
687.138	40783.25
687.485	40646.08
687.832	40524.05
688.18	40724.49
688.527	40479.3
688.874	40351.17
689.221	40324.28
689.568	40247.44
689.915	40104.62
690.262	40181.68
690.609	40054
690.956	39921.58
691.303	39906.44
691.65	39671.41
691.997	39700.34
692.344	39461.93
692.69	39275.49
693.037	39450.18
693.383	39097.42
693.73	39230.97
694.077	38983.3
694.423	39068.94
694.769	38866.24
695.116	38867.59
695.462	38792.12
695.808	38774.94
696.155	38833.24
696.501	38522.07
696.847	38474.61
697.193	38249.31
697.539	38430.32
697.885	38221.06
698.231	37990.78
698.577	38073.49
698.923	37974.06
699.269	37880.28
699.614	37636.21
699.96	37541.3
700.306	37526.61
700.651	37520.06
700.997	37461.3
701.342	37450.91
701.688	37418.14
702.033	37101.76
702.379	37086.85
702.724	36944.03
703.069	37118.26
703.415	36615.9
703.76	36772.73
704.105	36745.39
704.45	36635.11
704.795	36415.68
705.14	36217.72
705.485	36257.04
705.83	36070.83
706.175	36230.6
706.52	35968.01
706.865	35926.43
707.209	35927.78
707.554	35798.07
707.899	35803.04
708.243	35562.82
708.588	35489.6
708.932	35386.78
709.277	35175.26
709.621	35345.2
709.966	35177.07
710.31	35158.76
710.654	34862.95
710.998	34834.71
711.342	34980.24
711.687	34806.68
712.031	34732.34
712.375	34535.96
712.719	34724.2
713.063	34496.41
713.407	34648.5
713.75	34351.78
714.094	34486.47
714.438	34356.75
714.782	34338.45
715.125	34182.52
715.469	34293.7
715.812	34034.5
716.156	33823.43
716.499	33909.08
716.843	34017.33
717.186	33675.64
717.53	33924
717.873	33843.32
718.216	33764.45
718.559	33677
718.902	33456.21
719.246	33503.89
719.589	33391.81
719.932	33353.61
720.275	33290.11
720.617	33302.54
720.96	33281.3
721.303	33154.3
721.646	33138.48
721.989	33016.67
722.331	32983.68
722.674	32934.42
723.016	32983.23
723.359	33016.67
723.701	32742.78
724.044	32594.31
724.386	32435.67
724.729	32654.88
725.071	32488.55
725.413	32629.57
725.755	32557.48
726.097	32376.69
726.439	32189.13
726.782	32227.99
727.124	32339.86
727.465	32218.73
727.807	32271.61
728.149	32175.57
728.491	31984.16
728.833	32142.57
729.175	31924.95
729.516	31884.05
729.858	31919.75
730.199	31937.38
730.541	31856.25
730.882	31857.16
731.224	31793.43
731.565	31651.29
731.906	31644.51
732.248	31608.8
732.589	31488.35
732.93	31237.96
733.271	31429.82
733.612	31359.32
733.953	31515.24
734.294	31244.74
734.635	31193.45
734.976	31299.66
735.317	31133.33
735.658	31123.39
735.999	31124.07
736.339	31009.95
736.68	31065.54
737.021	30950.29
737.361	30842.49
737.702	30994.58
738.042	30857.63
738.383	30685.89
738.723	30835.04
739.063	30716.17
739.404	30802.95
739.744	30665.55
740.084	30557.98
740.424	30587.81
740.764	30551.88
741.104	30620.35
741.444	30347.37
741.784	30442.28
742.124	30366.12
742.464	30475.95
742.804	30166.58
743.143	30224.21
743.483	30200.03
743.823	30002.29
744.162	30073.25
744.502	30096.07
744.841	29977.21
745.181	30115.73
745.52	29986.02
745.86	29918.45
746.199	29931.33
746.538	29915.96
746.877	29985.12
747.216	29793.48
747.556	29761.39
747.895	29856.76
748.234	29688.85
748.573	29514.62
748.911	29593.26
749.25	29536.99
749.589	29457.45
749.928	29520.27
750.267	29575.18
750.605	29431.91
750.944	29442.08
751.283	29195.31
751.621	29341.97
751.96	29208.64
752.298	29239.15
752.636	29115.08
752.975	29165.48
753.313	29013.84
753.651	29157.11
753.989	28722.32
754.327	28807.52
754.666	28631.93
755.004	28751.25
755.342	28764.36
755.679	28740.18
756.017	28540.63
756.355	28683.45
756.693	28461.54
757.031	28503.35
757.368	28280.08
757.706	28345.16
758.044	28181.55
758.381	28214.77
758.719	28172.51
759.056	28156.46
759.394	28011.16
759.731	27801.22
760.068	27886.19
760.405	27739.98
760.743	27641.9
761.08	27772.74
761.417	27588.57
761.754	27511.28
762.091	27434.67
762.428	27420.21
762.765	27104.97
763.102	27335.92
763.438	27238.97
763.775	27149.03
764.112	27094.57
764.449	27081.01
764.785	26958.98
765.122	26816.16
765.458	26636.5
765.795	26641.25
766.131	26603.06
766.467	26495.26
766.804	26389.05
767.14	26302.27
767.476	26303.4
767.812	26040.36
768.148	26097.99
768.485	25833.81
768.821	25886.24
769.157	25777.32
769.492	25797.66
769.828	25712.01
770.164	25452.35
770.5	25481.96
770.836	25378.68
771.171	25275.86
771.507	25277.89
771.842	25011.46
772.178	25133.04
772.513	25008.52
772.849	24918.81
773.184	24773.05
773.519	24823.9
773.855	24597.91
774.19	24565.15
774.525	24418.48
774.86	24449.22
775.195	24444.7
775.53	24279.5
775.865	24125.38
776.2	24089.23
776.535	23817.37
776.87	23822.11
777.205	23774.43
777.539	23763.81
777.874	23689.91
778.209	23507.32
778.543	23445.85
778.878	23302.58
779.212	23227.1
779.547	23211.51
779.881	23335.8
780.215	22982.36
780.55	23063.04
780.884	22818.52
781.218	22903.72
781.552	22915.47
781.886	22741.46
782.22	22572.88
782.554	22557.29
782.888	22364.75
783.222	22310.97
783.556	22217.86
783.889	22127.02
784.223	22072.1
784.557	21906.01
784.89	21936.29
785.224	21915.95
785.557	21751.21
785.891	21629.85
786.224	21537.88
786.558	21696.52
786.891	21375.85
787.224	21292.69
787.557	21226.25
787.891	21244.78
788.224	21179.25
788.557	21169.53
788.89	21077.1
789.223	21045.92
789.556	20851.34
789.888	20770.67
790.221	20789.2
790.554	20604.35
790.887	20562.99
791.219	20531.35
791.552	20487.29
791.884	20295.43
792.217	20246.61
792.549	20318.25
792.882	20206.62
793.214	19976.34
793.546	20125.71
793.879	19972.72
794.211	19822.22
794.543	19940.86
794.875	19879.84
795.207	19913.06
795.539	19716.46
795.871	19742.45
796.203	19514.88
796.535	19346.75
796.867	19323.7
797.198	19281.67
797.53	19289.35
797.862	19183.82
798.193	19226.3
798.525	19127.77
798.856	19021.34
799.188	18896.59
799.519	18845.52
799.85	18734.79
800.182	18720.55
800.513	18761
800.844	18547.22
801.175	18678.07
801.506	18648.46
801.837	18521.46
802.168	18403.73
802.499	18356.49
802.83	18244.63
803.161	18274.69
803.491	18158.99
803.822	18208.7
804.153	18075.15
804.483	18008.03
804.814	17973.23
805.145	17918.77
805.475	17921.48
805.805	17834.7
806.136	17755.15
806.466	17767.36
806.796	17734.82
807.126	17658.21
807.457	17588.83
807.787	17635.16
808.117	17487.82
808.447	17495.5
808.777	17426.35
809.107	17377.09
809.436	17273.13
809.766	17331.44
810.096	17270.65
810.426	17185.68
810.755	17177.77
811.085	17034.72
811.414	17062.74
811.744	16904.33
812.073	16800.83
812.403	16830.21
812.732	16819.59
813.061	16829.98
813.39	16672.02
813.719	16605.58
814.049	16773.71
814.378	16562.87
814.707	16504.79
815.036	16602.19
815.365	16478.13
815.693	16373.04
816.022	16420.73
816.351	16226.38
816.68	16278.36
817.008	16204.69
817.337	16124.01
817.665	16045.37
817.994	16165.82
818.322	16143.22
818.651	15987.74
818.979	15813.28
819.307	16018.25
819.636	15929.67
819.964	15817.13
820.292	15944.13
820.62	15929.89
820.948	15823.45
821.276	15928.31
821.604	15811.25
821.932	15773.96
822.259	15804.47
822.587	15852.83
822.915	15762.44
823.243	15804.92
823.57	15689.45
823.898	15683.34
824.225	15566.51
824.553	15651.71
824.88	15769.67
825.207	15749.11
825.535	15694.64
825.862	15723.57
826.189	15690.8
826.516	15781.87
826.843	15838.37
827.17	15699.16
827.497	15737.81
827.824	15736.68
828.151	15779.84
828.478	15691.25
828.805	15767.86
829.131	15648.54
829.458	15738.71
829.785	15564.25
830.111	15679.73
830.438	15721.08
830.764	15683.34
831.09	15700.29
831.417	15638.15
831.743	15672.95
832.069	15658.26
832.395	15476.57
832.722	15623.46
833.048	15538.49
833.374	15700.75
833.7	15540.75
834.026	15610.35
834.351	15575.32
834.677	15598.83
835.003	15554.31
835.329	15484.03
835.654	15509.11
835.98	15405.61
836.306	15472.73
836.631	15399.74
836.956	15506.17
837.282	15450.36
837.607	15311.6
837.932	15293.75
838.258	15336.24
838.583	15210.59
838.908	15199.06
839.233	15234.32
839.558	15216.01
839.883	15144.15
840.208	15077.48
840.533	15062.12
840.858	15037.71
841.182	15091.04
841.507	15024.83
841.832	14985.96
842.156	14880.88
842.481	14907.09
842.805	14831.39
843.13	14911.61
843.454	14879.07
843.778	14770.6
844.103	14694.44
844.427	14693.09
844.751	14682.47
845.075	14705.97
845.399	14613.09
845.723	14577.39
846.047	14505.52
846.371	14392.53
846.695	14470.95
847.019	14305.75
847.343	14301.91
847.666	14213.55
847.99	14153.89
848.313	14058.3
848.637	13972.66
848.96	14008.36
849.284	13950.28
849.607	13808.14
849.931	13825.54
850.254	13695.83
850.577	13587.35
850.9	13559.11
851.223	13545.1
851.546	13486.34
851.869	13394.82
852.192	13484.98
852.515	13354.14
852.838	13286.12
853.161	13293.8
853.483	13155.73
853.806	13164.99
854.129	13152.56
854.451	13084.09
854.774	13003.19
855.096	12927.03
855.419	12936.07
855.741	12976.3
856.063	12907.6
856.385	12828.5
856.708	12759.81
857.03	12718.9
857.352	12772.46
857.674	12736.53
857.996	12665.12
858.318	12586.48
858.64	12580.15
858.961	12505.12
859.283	12466.03
859.605	12397.56
859.926	12395.75
860.248	12458.34
860.57	12362.08
860.891	12414.05
861.212	12295.86
861.534	12170.22
861.855	12234.17
862.176	12243.21
862.498	12224.9
862.819	12217.67
863.14	12140.61
863.461	12148.3
863.782	12047.06
864.103	12046.83
864.424	12023.55
864.745	12028.75
865.065	11920.96
865.386	11933.84
865.707	11997.79
866.027	11958.47
866.348	11850.68
866.668	11930.45
866.989	11819.27
867.309	11788.53
867.63	11835.31
867.95	11781.07
868.27	11676.22
868.59	11772.49
868.91	11667.41
869.23	11687.97
869.55	11666.5
869.87	11703.79
870.19	11633.51
870.51	11683.9
870.83	11677.57
871.15	11602.1
871.469	11576.56
871.789	11642.77
872.109	11635.54
872.428	11499.95
872.748	11521.65
873.067	11539.05
873.386	11483
873.706	11448.65
874.025	11360.07
874.344	11398.71
874.663	11509.44
874.982	11337.7
875.301	11384.25
875.62	11330.24
875.939	11338.15
876.258	11346.06
876.577	11220.64
876.896	11256.79
877.214	11257.25
877.533	11171.37
877.852	11202.33
878.17	11206.17
878.489	11229.68
878.807	11220.41
879.125	11055.9
879.444	11112.62
879.762	11042.79
880.08	11114.88
880.398	11080.98
880.716	11067.87
881.034	10978.16
881.352	10966.63
881.67	10931.38
881.988	10894.32
882.306	10906.3
882.624	10828.33
882.941	10811.38
883.259	10770.03
883.577	10764.6
883.894	10792.4
884.212	10826.07
884.529	10833.08
884.846	10686.87
885.164	10675.79
885.481	10716.02
885.798	10675.34
886.115	10632.63
886.432	10662.69
886.75	10570.48
887.067	10575.68
887.383	10524.84
887.7	10526.42
888.017	10462.24
888.334	10576.81
888.651	10422.24
888.967	10416.14
889.284	10344.28
889.6	10387.89
889.917	10322.13
890.233	10341.56
890.55	10202.13
890.866	10279.42
891.182	10288.91
891.498	10138.18
891.815	10129.14
892.131	10095.69
892.447	10053.89
892.763	10029.71
893.079	10070.38
893.395	10014.57
893.71	9885.76
894.026	9934.57
894.342	9851.41
894.657	9896.38
894.973	9740.22
895.289	9822.48
895.604	9788.36
895.92	9649.38
896.235	9703.84
896.55	9598.31
896.865	9688.7
897.181	9582.04
897.496	9636.27
897.811	9576.84
898.126	9561.47
898.441	9498.2
898.756	9447.12
899.071	9409.16
899.386	9447.58
899.7	9313.57
900.015	9339.33
900.33	9164.87
900.644	9234.7
900.959	9147.47
901.273	9144.53
901.588	9127.13
901.902	9115.16
902.216	9084.42
902.531	9034.71
902.845	9046.01
903.159	8932.34
903.473	8924.65
903.787	8887.37
904.101	8839.68
904.415	8870.19
904.729	8788.16
905.042	8781.83
905.356	8771.44
905.67	8782.51
905.984	8711.1
906.297	8683.98
906.611	8660.7
906.924	8622.74
907.237	8585.23
907.551	8498.45
907.864	8520.6
908.177	8427.72
908.491	8475.62
908.804	8386.36
909.117	8386.14
909.43	8302.75
909.743	8289.87
910.056	8316.31
910.368	8265.23
910.681	8199.02
910.994	8175.97
911.307	8157.67
911.619	8068.18
911.932	8068.4
912.244	8069.53
912.557	7998.57
912.869	7969.2
913.181	7872.93
913.494	7914.96
913.806	7853.49
914.118	7821.86
914.43	7777.34
914.742	7699.6
915.054	7698.47
915.366	7660.96
915.678	7675.65
915.99	7610.56
916.302	7581.41
916.613	7548.42
916.925	7503.22
917.236	7528.76
917.548	7409.44
917.859	7429.55
918.171	7437.91
918.482	7368.99
918.794	7309.55
919.105	7369.66
919.416	7314.07
919.727	7228.43
920.038	7184.36
920.349	7218.71
920.66	7195.66
920.971	7122.44
921.282	7180.07
921.593	7133.51
921.903	7008.09
922.214	7062.55
922.525	6976
922.835	6979.39
923.146	6849.45
923.456	6877.7
923.767	6853.75
924.077	6837.93
924.387	6827.08
924.697	6744.14
925.008	6748.66
925.318	6720.42
925.628	6688.33
925.938	6654.66
926.248	6664.82
926.558	6587.09
926.867	6565.17
927.177	6530.82
927.487	6529.24
927.796	6502.8
928.106	6468.22
928.416	6411.72
928.725	6409.24
929.034	6331.5
929.344	6359.75
929.653	6353.42
929.962	6263.93
930.271	6272.52
930.581	6223.48
930.89	6245.4
931.199	6170.6
931.508	6144.61
931.817	6197.49
932.125	6134.9
932.434	6153.65
932.743	6004.28
933.051	6067.1
933.36	5972.19
933.669	5983.49
933.977	5967.89
934.286	5970.38
934.594	5957.27
934.902	5839.99
935.21	5890.83
935.519	5871.85
935.827	5800.67
936.135	5775.58
936.443	5757.73
936.751	5742.36
937.059	5691.97
937.367	5734.68
937.674	5662.14
937.982	5642.93
938.29	5663.72
938.597	5649.03
938.905	5529.71
939.213	5451.07
939.52	5467.57
939.827	5524.74
940.135	5504.63
940.442	5403.16
940.749	5399.77
941.056	5424.86
941.363	5333.11
941.67	5401.36
941.977	5325.88
942.284	5241.81
942.591	5300.11
942.898	5237.29
943.205	5236.16
943.511	5171.76
943.818	5197.52
944.125	5145.54
944.431	5171.98
944.738	5131.31
945.044	5100.8
945.35	5056.96
945.657	5066.67
945.963	5043.62
946.269	4978.09
946.575	4982.84
946.881	4996.17
947.187	4970.86
947.493	4951.42
947.799	4907.13
948.105	4889.73
948.41	4814.03
948.716	4858.09
949.022	4847.7
949.327	4802.5
949.633	4732.45
949.938	4763.41
950.244	4716.63
950.549	4699
950.854	4710.98
951.16	4642.28
951.465	4664.43
951.77	4635.27
952.075	4620.13
952.38	4574.26
952.685	4592.56
952.99	4567.7
953.294	4574.48
953.599	4487.03
953.904	4461.27
954.209	4466.46
954.513	4437.31
954.818	4475.96
955.122	4384.88
955.426	4365.22
955.731	4384.43
956.035	4371.1
956.339	4347.37
956.643	4325.45
956.948	4289.07
957.252	4290.88
957.556	4224.89
957.86	4208.84
958.163	4220.6
958.467	4188.51
958.771	4245.23
959.075	4198
959.378	4149.64
959.682	4162.97
959.985	4120.26
960.289	4091.33
960.592	4082.29
960.896	4076.19
961.199	4044.55
961.502	4035.74
961.805	4019.02
962.108	3952.13
962.411	3936.76
962.714	3964.78
963.017	3901.51
963.32	3959.81
963.623	3915.07
963.926	3899.02
964.228	3854.05
964.531	3835.52
964.833	3878.01
965.136	3849.98
965.438	3845.92
965.741	3795.97
966.043	3768.86
966.345	3748.07
966.648	3744.9
966.95	3747.61
967.252	3746.94
967.554	3657.9
967.856	3671.46
968.158	3653.6
968.46	3700.38
968.761	3622.64
969.063	3591.23
969.365	3638.69
969.666	3607.96
969.968	3546.94
970.269	3555.98
970.571	3526.83
970.872	3514.4
971.174	3491.8
971.475	3482.54
971.776	3475.53
972.077	3475.08
972.378	3447.73
972.679	3448.64
972.98	3441.41
973.281	3416.77
973.582	3385.59
973.883	3373.16
974.183	3373.61
974.484	3350.56
974.785	3308.98
975.085	3315.08
975.386	3302.88
975.686	3291.58
975.986	3257.46
976.287	3265.14
976.587	3254.52
976.887	3240.96
977.187	3249.77
977.487	3188.53
977.787	3186.27
978.087	3176.33
978.387	3125.71
978.687	3147.4
978.987	3113.96
979.286	3133.62
979.586	3089.33
979.885	3084.81
980.185	3047.74
980.484	3043
980.784	2998.03
981.083	3056.33
981.382	3015.88
981.682	3027.41
981.981	3014.75
982.28	2988.09
982.579	2947.86
982.878	2967.75
983.177	2922.78
983.475	2895.43
983.774	2869.44
984.073	2864.92
984.372	2879.39
984.67	2881.87
984.969	2836.45
985.267	2855.89
985.566	2847.75
985.864	2823.57
986.162	2809.11
986.461	2800.52
986.759	2763.68
987.057	2781.54
987.355	2737.47
987.653	2774.53
987.951	2741.54
988.249	2680.97
988.547	2718.49
988.844	2688.43
989.142	2685.95
989.44	2662.9
989.737	2657.25
990.035	2663.8
990.332	2650.02
990.63	2626.29
990.927	2613.86
991.224	2589
991.521	2605.5
991.819	2580.64
992.116	2598.49
992.413	2541.09
992.71	2522.11
993.006	2521.66
993.303	2503.13
993.6	2517.82
993.897	2488.66
994.193	2507.42
994.49	2467.42
994.787	2460.87
995.083	2444.14
995.379	2414.09
995.676	2396.24
995.972	2443.69
996.268	2389.91
996.565	2414.32
996.861	2374.77
997.157	2340.87
997.453	2340.42
997.749	2331.61
998.044	2308.1
998.34	2330.93
998.636	2311.27
998.932	2317.37
999.227	2298.39
999.523	2276.47
999.818	2258.84
1000.114	2255.9
1000.409	2226.75
1000.704	2237.82
1001	2226.98
1001.295	2197.6
1001.59	2155.79
1001.885	2164.38
1002.18	2136.81
1002.475	2165.73
1002.77	2143.81
1003.065	2120.99
1003.359	2095
1003.654	2113.98
1003.949	2069.24
1004.243	2080.09
1004.538	2080.54
1004.832	2092.52
1005.127	2050.03
1005.421	2022.69
1005.715	2021.11
1006.009	1990.37
1006.304	1999.64
1006.598	2010.26
1006.892	1997.6
1007.186	1958.96
1007.48	1957.83
1007.773	1959.41
1008.067	1916.02
1008.361	1909.24
1008.655	1915.12
1008.948	1933.88
1009.242	1872.18
1009.535	1851.17
1009.829	1857.27
1010.122	1866.53
1010.415	1849.13
1010.708	1837.61
1011.001	1819.08
1011.295	1830.15
1011.588	1808.46
1011.881	1795.57
1012.173	1819.98
1012.466	1765.29
1012.759	1769.81
1013.052	1763.48
1013.344	1755.35
1013.637	1739.08
1013.93	1725.97
1014.222	1714.45
1014.514	1697.05
1014.807	1679.19
1015.099	1692.07
1015.391	1684.16
1015.683	1688.91
1015.976	1615.92
1016.268	1652.08
1016.56	1619.08
1016.851	1643.49
1017.143	1609.59
1017.435	1585.86
1017.727	1595.81
1018.018	1591.96
1018.31	1590.83
1018.602	1586.09
1018.893	1565.75
1019.185	1558.74
1019.476	1546.99
1019.767	1523.49
1020.058	1538.41
1020.35	1492.76
1020.641	1503.38
1020.932	1488.24
1021.223	1493.44
1021.514	1470.84
1021.804	1469.48
1022.095	1439.2
1022.386	1456.37
1022.677	1427.67
1022.967	1432.42
1023.258	1395.13
1023.548	1405.53
1023.839	1390.39
1024.129	1396.71
1024.419	1380.22
1024.709	1362.14
1025	1334.34
1025.29	1356.72
1025.58	1334.57
1025.87	1319.88
1026.16	1312.2
1026.449	1302.03
1026.739	1303.84
1027.029	1306.77
1027.319	1301.58
1027.608	1247.11
1027.898	1292.54
1028.187	1290.5
1028.477	1241.01
1028.766	1259.09
1029.055	1261.58
1029.344	1219.32
1029.634	1251.18
1029.923	1198.53
1030.212	1205.31
1030.501	1192.43
1030.79	1181.81
1031.078	1177.51
1031.367	1172.77
1031.656	1184.06
1031.945	1158.3
1032.233	1148.81
1032.522	1152.65
1032.81	1160.56
1033.099	1147.23
1033.387	1102.26
1033.675	1142.48
1033.963	1094.35
1034.251	1106.1
1034.54	1099.77
1034.828	1082.15
1035.116	1097.29
1035.403	1081.47
1035.691	1069.27
1035.979	1037.4
1036.267	1041.92
1036.554	1055.71
1036.842	1049.83
1037.129	1009.15
1037.417	1022.04
1037.704	1022.49
1037.992	1008.25
1038.279	1017.97
1038.566	994.69
1038.853	994.69
1039.14	994.69
