Data from hue_30_FLMS001491_52.txt Node
Date: Mon Feb 06 15:05:35 GMT 2017
User: dcchb
Spectrometer: FLMS00149
Trigger mode: 0
Integration Time (sec): 2.000000E-2
Scans to average: 10
Electric dark correction enabled: true
Nonlinearity correction enabled: false
Boxcar width: 0
XAxis mode: Wavelengths
Number of Pixels in Spectrum: 2048
>>>>>Begin Spectral Data<<<<<
341.393	1.16
341.776	1.16
342.16	1.16
342.543	-50.14
342.927	-57.6
343.31	-60.31
343.693	-72.96
344.077	-78.84
344.46	-65.96
344.843	-65.05
345.226	-32.29
345.61	-32.74
345.993	3.42
346.376	-3.59
346.759	12.68
347.142	39.12
347.525	34.6
347.908	57.88
348.291	75.05
348.674	94.72
349.057	94.26
349.44	125.67
349.823	159.8
350.206	152.34
350.588	205.9
350.971	213.36
351.354	224.88
351.737	233.47
352.119	246.35
352.502	271.43
352.884	291.55
353.267	297.42
353.65	294.03
354.032	307.36
354.414	309.62
354.797	321.38
355.179	329.96
355.562	341.04
355.944	340.36
356.326	322.51
356.709	334.03
357.091	328.83
357.473	340.36
357.855	350.53
358.238	361.83
358.62	329.96
359.002	372.9
359.384	361.6
359.766	331.32
360.148	341.49
360.53	340.13
360.912	351.43
361.294	343.97
361.676	348.27
362.057	350.08
362.439	325.67
362.821	326.12
363.203	333.58
363.584	320.7
363.966	333.58
364.348	345.56
364.729	351.21
365.111	324.54
365.493	313.24
365.874	327.7
366.256	304.65
366.637	328.38
367.019	322.05
367.4	313.69
367.781	292.9
368.163	310.75
368.544	310.98
368.925	307.36
369.306	326.35
369.688	334.48
370.069	312.56
370.45	324.77
370.831	321.83
371.212	338.32
371.593	339.91
371.974	314.37
372.355	321.38
372.736	326.8
373.117	319.57
373.498	344.2
373.879	317.76
374.26	332
374.641	344.65
375.021	298.78
375.402	315.95
375.783	313.92
376.163	328.16
376.544	334.71
376.925	329.74
377.305	330.64
377.686	342.17
378.066	321.15
378.447	342.62
378.827	333.13
379.208	335.16
379.588	318.89
379.968	331.77
380.349	322.73
380.729	339.45
381.109	332
381.489	354.37
381.87	353.01
382.25	344.2
382.63	350.75
383.01	367.7
383.39	336.97
383.77	342.17
384.15	344.65
384.53	347.36
384.91	349.4
385.29	341.49
385.67	361.15
386.049	337.65
386.429	366.35
386.809	353.92
387.189	357.76
387.568	364.54
387.948	363.41
388.328	342.39
388.707	358.89
389.087	376.06
389.466	347.59
389.846	388.49
390.225	359.57
390.605	364.09
390.984	388.49
391.363	375.16
391.743	366.35
392.122	388.04
392.501	368.61
392.881	379
393.26	352.34
393.639	365.89
394.018	373.8
394.397	374.48
394.776	365.89
395.155	384.88
395.534	376.97
395.913	374.03
396.292	371.32
396.671	398.89
397.05	393.24
397.429	384.42
397.808	399.57
398.186	400.92
398.565	406.8
398.944	401.37
399.323	396.18
399.701	392.33
400.08	416.97
400.458	418.77
400.837	397.31
401.215	402.96
401.594	411.54
401.972	401.6
402.351	420.81
402.729	405.22
403.107	397.53
403.486	404.09
403.864	397.76
404.242	410.64
404.62	394.82
404.999	423.52
405.377	420.81
405.755	400.24
406.133	417.19
406.511	415.61
406.889	437.08
407.267	431.43
407.645	418.1
408.023	416.97
408.401	418.1
408.779	447.25
409.156	428.27
409.534	434.14
409.912	455.84
410.29	451.09
410.667	465.1
411.045	458.55
411.422	452.22
411.8	458.55
412.178	457.87
412.555	449.06
412.933	460.58
413.31	472.56
413.687	474.14
414.065	482.05
414.442	491.09
414.819	481.82
415.197	491.77
415.574	468.26
415.951	481.37
416.328	484.54
416.705	488.15
417.082	497.19
417.46	495.16
417.837	480.47
418.214	515.04
418.591	498.55
418.967	504.42
419.344	500.13
419.721	504.87
420.098	519.34
420.475	520.24
420.852	534.93
421.228	540.13
421.605	536.96
421.982	535.16
422.358	522.05
422.735	533.57
423.111	534.93
423.488	530.18
423.864	533.35
424.241	526.79
424.617	533.12
424.994	542.16
425.37	562.5
425.746	549.62
426.123	564.31
426.499	552.33
426.875	565.44
427.251	560.24
427.627	571.99
428.003	556.17
428.379	562.5
428.756	575.38
429.132	588.94
429.507	588.71
429.883	593.68
430.259	593.46
430.635	617.64
431.011	619.22
431.387	626
431.763	642.5
432.138	632.78
432.514	647.02
432.89	658.99
433.265	647.24
433.641	651.99
434.016	663.51
434.392	653.8
434.767	660.8
435.143	651.08
435.518	685.43
435.894	671.65
436.269	671.65
436.644	674.59
437.02	682.95
437.395	683.4
437.77	714.36
438.145	732.66
438.52	699.9
438.895	715.72
439.271	692.89
439.646	720.69
440.021	729.73
440.395	728.82
440.77	710.07
441.145	707.81
441.52	731.99
441.895	756.84
442.27	759.1
442.645	719.56
443.019	779.67
443.394	754.81
443.769	759.1
444.143	750.52
444.518	753
444.892	783.06
445.267	798.88
445.641	777.63
446.016	796.62
446.39	796.62
446.764	787.35
447.139	785.77
447.513	805.2
447.887	806.56
448.262	819.67
448.636	797.3
449.01	835.26
449.384	817.63
449.758	830.97
450.132	827.58
450.506	838.88
450.88	833.45
451.254	840.23
451.628	854.24
452.002	860.12
452.376	885.43
452.75	868.03
453.123	868.48
453.497	879.78
453.871	892.21
454.244	890.63
454.618	885.2
454.992	914.35
455.365	931.3
455.739	931.3
456.112	940.12
456.486	937.63
456.859	977.63
457.232	947.35
457.606	971.75
457.979	995.71
458.352	994.13
458.725	1008.59
459.099	1003.39
459.472	1019.44
459.845	1028.48
460.218	1027.57
460.591	1062.83
460.964	1064.86
461.337	1086.1
461.71	1077.51
462.083	1112.32
462.456	1074.58
462.829	1115.25
463.201	1142.82
463.574	1114.8
463.947	1138.76
464.32	1132.43
464.692	1171.3
465.065	1185.08
465.438	1190.28
465.81	1223.95
466.183	1215.14
466.555	1235.25
466.928	1252.88
467.3	1263.05
467.672	1283.38
468.045	1320.45
468.417	1311.18
468.789	1302.82
469.161	1354.12
469.534	1344.17
469.906	1409.26
470.278	1408.58
470.65	1408.35
471.022	1458.07
471.394	1448.13
471.766	1477.73
472.138	1497.16
472.51	1533.77
472.882	1587.56
473.253	1573.77
473.625	1611.51
473.997	1638.4
474.369	1651.51
474.74	1633.88
475.112	1708.68
475.484	1737.61
475.855	1752.3
476.227	1799.3
476.598	1810.15
476.97	1858.74
477.341	1868.91
477.713	1907.1
478.084	1957.94
478.455	2009.47
478.827	2015.57
479.198	2086.98
479.569	2101.67
479.94	2147.32
480.311	2191.61
480.682	2267.99
481.053	2310.25
481.424	2372.4
481.795	2392.06
482.166	2413.52
482.537	2492.84
482.908	2535.55
483.279	2607.87
483.65	2627.3
484.021	2712.5
484.391	2747.07
484.762	2794.98
485.133	2814.87
485.503	2892.38
485.874	2969.44
486.244	3027.75
486.615	3043.34
486.985	3102.55
487.356	3204.92
487.726	3219.15
488.097	3305.25
488.467	3303.9
488.837	3401.29
489.207	3465.25
489.578	3506.6
489.948	3618.46
490.318	3628.86
490.688	3705.24
491.058	3759.93
491.428	3837.89
491.798	3909.53
492.168	3952.01
492.538	3993.82
492.908	4086.47
493.278	4120.15
493.648	4173.48
494.017	4275.4
494.387	4282.18
494.757	4306.58
495.126	4414.38
495.496	4436.3
495.866	4440.36
496.235	4548.61
496.605	4578.21
496.974	4599.46
497.344	4712.45
497.713	4750.19
498.082	4818.88
498.452	4863.4
498.821	4899.33
499.19	4864.76
499.559	4984.3
499.928	5056.84
500.298	5008.03
500.667	5115.6
501.036	5126.22
501.405	5221.81
501.774	5187.69
502.143	5259.32
502.512	5264.07
502.88	5344.07
503.249	5367.12
503.618	5408.02
503.987	5445.08
504.356	5493.9
504.724	5489.38
505.093	5576.6
505.462	5572.76
505.83	5634.23
506.199	5662.7
506.567	5699.54
506.936	5728.47
507.304	5782.02
507.672	5800.55
508.041	5822.7
508.409	5938.18
508.777	6002.13
509.145	6003.49
509.514	6007.33
509.882	6023.82
510.25	6063.6
510.618	6035.58
510.986	6137.04
511.354	6213.65
511.722	6222.24
512.09	6244.84
512.458	6240.77
512.826	6311.05
513.193	6355.34
513.561	6374.1
513.929	6375.91
514.297	6451.38
514.664	6505.62
515.032	6541.78
515.4	6519.86
515.767	6553.98
516.135	6573.87
516.502	6602.79
516.869	6672.17
517.237	6744.03
517.604	6699.74
517.972	6771.15
518.339	6804.6
518.706	6816.12
519.073	6815.67
519.44	6899.06
519.808	6915.33
520.175	6906.06
520.542	6988.09
520.909	7042.1
521.276	7043.01
521.643	7109.67
522.009	7111.25
522.376	7106.73
522.743	7187.41
523.11	7264.24
523.477	7319.16
523.843	7340.63
524.21	7418.36
524.577	7459.72
524.943	7484.58
525.31	7475.09
525.676	7589.89
526.043	7545.82
526.409	7644.8
526.776	7693.84
527.142	7749.88
527.508	7724.34
527.874	7835.75
528.241	7833.27
528.607	7828.3
528.973	7954.17
529.339	7960.27
529.705	7974.28
530.071	8077.78
530.437	8112.58
530.803	8175.86
531.169	8210.89
531.535	8179.47
531.901	8208.85
532.267	8272.13
532.632	8337.21
532.998	8327.49
533.364	8360.94
533.73	8402.75
534.095	8484.78
534.461	8516.87
534.826	8565.9
535.192	8520.03
535.557	8649.97
535.923	8637.32
536.288	8736.07
536.653	8747.14
537.019	8695.17
537.384	8819.91
537.749	8791.89
538.114	8827.37
538.479	8917.08
538.845	8895.39
539.21	8974.26
539.575	8997.98
539.94	9011.09
540.305	9076.85
540.67	9096.06
541.034	9037.98
541.399	9136.96
541.764	9159.79
542.129	9194.14
542.494	9203.63
542.858	9327.01
543.223	9289.5
543.587	9360.69
543.952	9383.96
544.316	9459.89
544.681	9389.84
545.045	9471.64
545.41	9541.47
545.774	9635.71
546.138	9635.03
546.503	9633.9
546.867	9641.13
547.231	9750.51
547.595	9816.95
547.959	9752.31
548.324	9760.9
548.688	9863.95
549.052	9838.41
549.416	9882.03
549.779	9881.58
550.143	9918.41
550.507	10050.84
550.871	10101.23
551.235	10075.02
551.599	10154.34
551.962	10183.49
552.326	10203.83
552.689	10236.6
553.053	10216.48
553.417	10286.31
553.78	10356.14
554.143	10345.07
554.507	10354.11
554.87	10369.25
555.234	10389.36
555.597	10470.94
555.96	10492.18
556.323	10514.33
556.686	10582.57
557.05	10604.5
557.413	10611.5
557.776	10659.86
558.139	10746.64
558.502	10721.1
558.865	10738.05
559.228	10891.04
559.59	10918.39
559.953	10870.48
560.316	11071.6
560.679	11019.17
561.041	11104.14
561.404	11050.13
561.767	11254.87
562.129	11101.66
562.492	11230.24
562.854	11198.15
563.217	11229.79
563.579	11250.35
563.941	11312.95
564.304	11340.3
564.666	11340.97
565.028	11400.41
565.39	11454.42
565.753	11480.63
566.115	11557.24
566.477	11653.96
566.839	11649.67
567.201	11697.35
567.563	11727.63
567.925	11777.12
568.287	11754.75
568.648	11831.36
569.01	11886.95
569.372	12068.86
569.734	11978.92
570.095	12100.95
570.457	12210.78
570.819	12183.21
571.18	12170.1
571.542	12223.89
571.903	12252.14
572.265	12364.9
572.626	12397.89
572.987	12489.19
573.349	12495.07
573.71	12578
574.071	12576.65
574.432	12754.5
574.794	12847.37
575.155	12891.67
575.516	12900.71
575.877	12975.73
576.238	13071.1
576.599	13111.1
576.96	13220.7
577.32	13346.34
577.681	13350.19
578.042	13511.99
578.403	13587.69
578.763	13657.3
579.124	13819.1
579.485	13994.01
579.845	14117.62
580.206	14160.79
580.566	14303.15
580.927	14401.01
581.287	14601.9
581.648	14626.08
582.008	14942.46
582.368	14986.98
582.728	15196.24
583.089	15233.3
583.449	15450.47
583.809	15502.22
584.169	15927.97
584.529	15904.69
584.889	16266.95
585.249	16293.61
585.609	16522.31
585.969	16767.95
586.329	16886.14
586.688	17252.46
587.048	17395.28
587.408	17615.61
587.768	17747.81
588.127	17995.71
588.487	18235.25
588.846	18585.53
589.206	18678.18
589.565	18903.49
589.925	19118.85
590.284	19467.31
590.643	19674.09
591.003	19894.19
591.362	20208.31
591.721	20395.2
592.08	20656.43
592.44	20861.63
592.799	21176.19
593.158	21450.54
593.517	21657.31
593.876	22003.97
594.235	22136.62
594.593	22357.86
594.952	22752.2
595.311	22984.96
595.67	23164.84
596.029	23583.59
596.387	23780.87
596.746	24126.4
597.104	24263.57
597.463	24400.74
597.822	24804.57
598.18	24947.39
598.538	25220.83
598.897	25637.77
599.255	25580.82
599.613	26091.09
599.972	26092.9
600.33	26538.54
600.688	26661.7
601.046	26937.4
601.404	27247.67
601.762	27451.96
602.12	27797.94
602.478	28002.68
602.836	28306.63
603.194	28373.75
603.552	28688.09
603.91	28703
604.268	29111.81
604.625	29187.51
604.983	29512.47
605.341	29564.9
605.698	29979.8
606.056	30083.53
606.413	30307.93
606.771	30515.84
607.128	30817.75
607.485	30736.85
607.843	30996.05
608.2	31325.08
608.557	31583.38
608.914	31613.21
609.272	31913.09
609.629	32088.68
609.986	32285.06
610.343	32390.14
610.7	32717.59
611.057	32835.55
611.414	32841.65
611.771	33086.39
612.127	33410.45
612.484	33347.17
612.841	33619.71
613.198	33670.56
613.554	33788.74
613.911	34183.54
614.267	34158.45
614.624	34292.23
614.98	34444.77
615.337	34619.91
615.693	34790.98
616.05	34913.46
616.406	35093.57
616.762	35047.69
617.118	35145.09
617.475	35349.38
617.831	35425.09
618.187	35642.93
618.543	35635.25
618.899	36122.24
619.255	36148.46
619.611	36101.45
619.967	36238.85
620.323	36454.66
620.678	36351.39
621.034	36228.68
621.39	36444.04
621.746	36529.69
622.101	37081.99
622.457	36762.23
622.812	36841.77
623.168	37104.36
623.523	37124.02
623.879	37132.84
624.234	37007.64
624.589	37225.04
624.945	37330.57
625.3	37276.11
625.655	37321.76
626.01	37639.26
626.365	37543.9
626.72	37523.11
627.075	37640.62
627.43	37585.48
627.785	37635.42
628.14	37745.48
628.495	37780.5
628.85	37789.77
629.205	37710.22
629.559	38117.9
629.914	37818.47
630.269	37880.84
630.623	37792.03
630.978	37843.55
631.332	38064.56
631.687	38044.45
632.041	37924.23
632.396	38024.79
632.75	38081.29
633.104	38055.75
633.459	37968.97
633.813	37902.99
634.167	38004.9
634.521	38004.9
634.875	38067.95
635.229	37933.72
635.583	37917.68
635.937	37980.27
636.291	37970.56
636.645	37934.85
636.999	37857.34
637.352	37932.14
637.706	37800.62
638.06	38008.07
638.413	37919.26
638.767	37793.38
639.121	37891.91
639.474	37777.57
639.828	37744.12
640.181	37745.7
640.534	37861.63
640.888	37864.57
641.241	37616.67
641.594	37800.16
641.947	37864.8
642.301	37693.05
642.654	37863.67
643.007	37734.18
643.36	37590.23
643.713	37662.54
644.066	37864.34
644.419	37466.84
644.771	37244.92
645.124	37005.38
645.477	36983.24
645.83	36675.67
646.182	36653.08
646.535	36468.45
646.888	36579.63
647.24	36418.96
647.593	36646.52
647.945	36577.6
648.298	36394.78
648.65	36384.16
649.002	36310.49
649.355	36349.58
649.707	36380.99
650.059	36482.01
650.411	36907.98
650.763	36993.63
651.115	37293.06
651.467	37291.03
651.819	37251.25
652.171	37148.66
652.523	37102.1
652.875	37074.76
653.227	36894.65
653.578	37171.03
653.93	37144.36
654.282	37015.78
654.633	36871.83
654.985	36911.37
655.337	37047.87
655.688	36998.83
656.039	37163.8
656.391	36812.17
656.742	36826.86
657.094	36946.63
657.445	37026.17
657.796	36917.93
658.147	36820.3
658.498	36867.76
658.849	36846.07
659.2	36806.74
659.551	36828.66
659.902	36944.14
660.253	36876.57
660.604	36771.94
660.955	36693.07
661.306	36820.76
661.656	36824.14
662.007	36738.72
662.358	36750.02
662.708	36648.56
663.059	36768.1
663.409	36488.79
663.76	36785.5
664.11	36775.56
664.461	36794.09
664.811	36816.24
665.161	36749.8
665.511	36566.3
665.862	36666.18
666.212	36774.65
666.562	36703.02
666.912	36671.38
667.262	36627.31
667.612	36679.06
667.962	36783.24
668.312	36756.58
668.662	36836.12
669.011	36611.49
669.361	36606.98
669.711	36648.78
670.06	36650.36
670.41	36517.03
670.76	36406.53
671.109	36780.76
671.459	36563.81
671.808	36512.97
672.157	36569.46
672.507	36373.99
672.856	36379.41
673.205	36389.81
673.554	36439.07
673.904	36495.11
674.253	36643.13
674.602	36428.9
674.951	35924.73
675.3	35767.9
675.649	36436.13
675.998	36287.66
676.346	36265.74
676.695	36400.65
677.044	36160.21
677.393	36071.85
677.741	36170.6
678.09	36146.65
678.438	36074.79
678.787	36145.52
679.135	36132.86
679.484	36007.22
679.832	36186.2
680.181	35762.03
680.529	35992.75
680.877	35812.87
681.225	35796.83
681.573	36075.69
681.922	35734.23
682.27	35642.03
682.618	35714.12
682.966	35609.94
683.314	35734.91
683.661	35659.88
684.009	35366.33
684.357	35443.16
684.705	35327.23
685.053	35497.17
685.4	35214.7
685.748	35117.97
686.095	35228.03
686.443	35004.31
686.79	34886.79
687.138	35119.56
687.485	34884.31
687.832	34718.21
688.18	34834.59
688.527	34664.65
688.874	34650.64
689.221	34584.43
689.568	34449.52
689.915	34449.29
690.262	34387.6
690.609	34274.16
690.956	34279.8
691.303	34163.88
691.65	34075.29
691.997	34124.78
692.344	33823.09
692.69	33778.58
693.037	33892.47
693.383	33508.07
693.73	33629.88
694.077	33416.1
694.423	33599.6
694.769	33346.27
695.116	33293.62
695.462	33285.71
695.808	33219.04
696.155	33084.13
696.501	32981.76
696.847	32946.05
697.193	32770.47
697.539	32712.39
697.885	32584.03
698.231	32461.32
698.577	32496.57
698.923	32693.63
699.269	32346.97
699.614	32194.21
699.96	32205.06
700.306	32101.33
700.651	32067.66
700.997	31835.8
701.342	31834.9
701.688	31807.78
702.033	31700.44
702.379	31573.89
702.724	31605.75
703.069	31677.39
703.415	31298.19
703.76	31403.95
704.105	31402.59
704.45	31191.75
704.795	31096.39
705.14	31043.96
705.485	30968.93
705.83	30894.36
706.175	30838.54
706.52	30693.46
706.865	30822.95
707.209	30670.18
707.554	30533.69
707.899	30481.94
708.243	30364.65
708.588	30413.92
708.932	30114.49
709.277	30020.26
709.621	30168.73
709.966	29864.55
710.31	30014.83
710.654	29795.63
710.998	29895.06
711.342	29893.48
711.687	29718.79
712.031	29589.31
712.375	29522.87
712.719	29469.99
713.063	29478.35
713.407	29479.25
713.75	29350.22
714.094	29399.93
714.438	29147.96
714.782	29261.18
715.125	29133.73
715.469	29183.44
715.812	28950.45
716.156	28913.84
716.499	28960.4
716.843	28917.91
717.186	28729.22
717.53	28866.39
717.873	28770.57
718.216	28764.47
718.559	28619.84
718.902	28372.16
719.246	28520.18
719.589	28359.51
719.932	28290.58
720.275	28287.19
720.617	28303.01
720.96	28127.65
721.303	28272.51
721.646	28230.7
721.989	28070.48
722.331	28113.41
722.674	28031.16
723.016	28044.49
723.359	27994.77
723.701	27926.53
724.044	27840.2
724.386	27739.19
724.729	27829.8
725.071	27633.43
725.413	27732.86
725.755	27792.52
726.097	27640.88
726.439	27582.58
726.782	27431.62
727.124	27686.31
727.465	27388.69
727.807	27424.84
728.149	27321.57
728.491	27282.93
728.833	27340.33
729.175	27325.64
729.516	27211.97
729.858	27139.43
730.199	27313.21
730.541	27041.13
730.882	27100.33
731.224	27114.34
731.565	26878.19
731.906	26890.62
732.248	26913.9
732.589	26714.35
732.93	26739.89
733.271	26704.41
733.612	26726.56
733.953	26629.84
734.294	26465.77
734.635	26542.16
734.976	26616.96
735.317	26456.96
735.658	26474.13
735.999	26334.93
736.339	26246.8
736.68	26423.97
737.021	26344.87
737.361	26178.77
737.702	26378.09
738.042	26139.68
738.383	26259.22
738.723	26228.27
739.063	26077.99
739.404	26208.83
739.744	25979.91
740.084	26011.1
740.424	26014.26
740.764	25908.05
741.104	25986.46
741.444	25878.22
741.784	25793.02
742.124	25822.4
742.464	25766.58
742.804	25800.03
743.143	25683.42
743.483	25651.56
743.823	25633.93
744.162	25600.03
744.502	25555.74
744.841	25487.72
745.181	25565.01
745.52	25416.54
745.86	25493.37
746.199	25397.33
746.538	25325.01
746.877	25410.43
747.216	25428.96
747.556	25296.76
747.895	25263.54
748.234	25212.25
748.573	25166.82
748.911	25162.98
749.25	25074.62
749.589	24960.5
749.928	24949.2
750.267	25028.97
750.605	24913.27
750.944	24988.75
751.283	24817.45
751.621	24924.12
751.96	24751.24
752.298	24704.92
752.636	24768.64
752.975	24496.33
753.313	24504.69
753.651	24655.43
753.989	24454.07
754.327	24507.41
754.666	24297.92
755.004	24365.49
755.342	24393.74
755.679	24289.56
756.017	24236.23
756.355	24077.59
756.693	24158.04
757.031	24186.96
757.368	24061.54
757.706	23973.86
758.044	23870.59
758.381	23830.36
758.719	23865.39
759.056	23738.39
759.394	23719.18
759.731	23554.44
760.068	23568.9
760.405	23559.41
760.743	23390.83
761.08	23421.79
761.417	23261.34
761.754	23258.4
762.091	23259.3
762.428	23012.08
762.765	22958.07
763.102	23113.09
763.438	23019.76
763.775	22828.35
764.112	22819.09
764.449	22837.17
764.785	22732.09
765.122	22589.26
765.458	22425.43
765.795	22456.39
766.131	22366.22
766.467	22341.59
766.804	22312.44
767.14	22216.17
767.476	22129.84
767.812	22068.15
768.148	22109.96
768.485	21857.98
768.821	21867.48
769.157	21783.18
769.492	21762.62
769.828	21702.06
770.164	21491.89
770.5	21533.93
770.836	21522.85
771.171	21387.71
771.507	21334.16
771.842	21290.09
772.178	21126.93
772.513	21076.54
772.849	21033.37
773.184	20945.69
773.519	20981.17
773.855	20738.92
774.19	20761.06
774.525	20691.24
774.86	20678.81
775.195	20597.45
775.53	20542.09
775.865	20379.15
776.2	20242.89
776.535	20133.06
776.87	20105.04
777.205	19993.4
777.539	19945.72
777.874	19943.68
778.209	19784.37
778.543	19744.59
778.878	19636.8
779.212	19666.18
779.547	19583.47
779.881	19570.81
780.215	19405.39
780.55	19521.1
780.884	19270.26
781.218	19266.41
781.552	19229.35
781.886	19148.9
782.22	19034.33
782.554	19014.9
782.888	18726.54
783.222	18799.31
783.556	18675.7
783.889	18682.25
784.223	18569.94
784.557	18568.81
784.89	18562.25
785.224	18368.58
785.557	18309.15
785.891	18252.43
786.224	18187.35
786.558	18257.18
786.891	18019.44
787.224	17934.7
787.557	17931.53
787.891	17897.64
788.224	17921.14
788.557	17862.61
788.89	17801.14
789.223	17676.4
789.556	17537.19
789.888	17488.83
790.221	17536.74
790.554	17290.65
790.887	17299.46
791.219	17238.22
791.552	17282.29
791.884	17173.81
792.217	17114.61
792.549	16941.96
792.882	16968.62
793.214	16860.6
793.546	16940.83
793.879	16835.52
794.211	16682.98
794.543	16738.35
794.875	16746.71
795.207	16658.12
795.539	16568.86
795.871	16566.82
796.203	16367.96
796.535	16360.28
796.867	16360.95
797.198	16261.52
797.53	16189.66
797.862	16201.18
798.193	16174.74
798.525	16050.68
798.856	16076.89
799.188	15891.81
799.519	15887.52
799.85	15770.24
800.182	15808.65
800.513	15815.43
800.844	15644.81
801.175	15748.31
801.506	15720.97
801.837	15505.38
802.168	15519.62
802.499	15505.38
802.83	15405.5
803.161	15312.85
803.491	15380.64
803.822	15365.5
804.153	15204.15
804.483	15101.1
804.814	15062.68
805.145	15014.77
805.475	15071.5
805.805	14912.18
806.136	15040.76
806.466	14971.16
806.796	14866.76
807.126	14782.46
807.457	14746.99
807.787	14735.46
808.117	14713.77
808.447	14591.73
808.777	14655.24
809.107	14518.52
809.436	14562.58
809.766	14512.42
810.096	14472.64
810.426	14382.47
810.755	14419.76
811.085	14419.08
811.414	14256.38
811.744	14195.81
812.073	14207.79
812.403	14244.85
812.732	14125.76
813.061	14175.7
813.39	14132.09
813.719	13973.67
814.049	14054.35
814.378	14032.65
814.707	13938.87
815.036	13913.33
815.365	13834.92
815.693	13728.93
816.022	13709.05
816.351	13734.58
816.68	13699.1
817.008	13655.94
817.337	13642.61
817.665	13499.33
817.994	13624.75
818.322	13538.66
818.651	13442.16
818.979	13462.27
819.307	13486.68
819.636	13482.61
819.964	13359
820.292	13464.76
820.62	13470.86
820.948	13409.85
821.276	13337.08
821.604	13351.77
821.932	13331.43
822.259	13337.76
822.587	13267.02
822.915	13267.02
823.243	13355.38
823.57	13225.67
823.898	13277.65
824.225	13294.59
824.553	13166.69
824.88	13213.47
825.207	13223.41
825.535	13164.65
825.862	13271.54
826.189	13147.71
826.516	13241.94
826.843	13221.83
827.17	13318.55
827.497	13290.98
827.824	13298.89
828.151	13227.25
828.478	13248.49
828.805	13311.32
829.131	13171.66
829.458	13236.74
829.785	13123.75
830.111	13181.15
830.438	13227.48
830.764	13194.71
831.09	13247.59
831.417	13150.42
831.743	13201.04
832.069	13217.53
832.395	13170.3
832.722	13140.02
833.048	13142.73
833.374	13110.19
833.7	13039.46
834.026	13100.93
834.351	13114.49
834.677	13038.78
835.003	13088.05
835.329	13047.59
835.654	13019.57
835.98	12969.18
836.306	13003.3
836.631	12951.78
836.956	12935.06
837.282	12946.35
837.607	12838.11
837.932	12861.84
838.258	12832.01
838.583	12873.81
838.908	12816.19
839.233	12823.65
839.558	12853.7
839.883	12662.07
840.208	12711.11
840.533	12692.8
840.858	12663.65
841.182	12610.32
841.507	12679.02
841.832	12607.61
842.156	12579.13
842.481	12604.22
842.805	12592.24
843.13	12554.5
843.454	12425.24
843.778	12429.76
844.103	12386.14
844.427	12384.56
844.751	12413.71
845.075	12324.9
845.399	12281.51
845.723	12274.28
846.047	12271.12
846.371	12154.28
846.695	12096.43
847.019	12053.72
847.343	12006.72
847.666	11984.12
847.99	11874.97
848.313	11875.2
848.637	11719.49
848.96	11778.93
849.284	11720.17
849.607	11652.15
849.931	11672.26
850.254	11572.15
850.577	11472.04
850.9	11443.8
851.223	11408.54
851.546	11441.31
851.869	11330.8
852.192	11302.78
852.515	11246.96
852.838	11163.58
853.161	11176.91
853.483	11082.67
853.806	11122.45
854.129	11090.13
854.451	11037.48
854.774	10948.89
855.096	10941.66
855.419	10939.63
855.741	10876.13
856.063	10823.25
856.385	10755.68
856.708	10747.54
857.03	10656.25
857.352	10722.01
857.674	10740.08
857.996	10635.23
858.318	10570.82
858.64	10611.5
858.961	10536.47
859.283	10535.57
859.605	10447.44
859.926	10469.13
860.248	10444.95
860.57	10382.13
860.891	10406.76
861.212	10317.27
861.534	10301.9
861.855	10283.37
862.176	10359.08
862.498	10347.33
862.819	10265.3
863.14	10210.16
863.461	10234.56
863.782	10105.07
864.103	10195.47
864.424	10134.45
864.745	10172.87
865.065	10085.64
865.386	10099.65
865.707	10069.37
866.027	10092.42
866.348	10057.84
866.668	10017.62
866.989	10005.87
867.309	9882.71
867.63	9934.23
867.95	9918.64
868.27	9888.13
868.59	9923.84
868.91	9844.52
869.23	9863.72
869.55	9805.42
869.87	9884.29
870.19	9875.47
870.51	9882.25
870.83	9797.28
871.15	9724.97
871.469	9737.17
871.789	9774.01
872.109	9791.18
872.428	9687.68
872.748	9773.56
873.067	9749.6
873.386	9698.76
873.706	9660.34
874.025	9577.63
874.344	9596.16
874.663	9641.36
874.982	9524.07
875.301	9517.29
875.62	9547.12
875.939	9510.51
876.258	9607.69
876.577	9522.26
876.896	9457.63
877.214	9432.77
877.533	9450.85
877.852	9433.45
878.17	9440.46
878.489	9461.7
878.807	9390.52
879.125	9353
879.444	9341.25
879.762	9306.22
880.08	9333.34
880.398	9310.52
880.716	9251.76
881.034	9230.52
881.352	9297.18
881.67	9184.65
881.988	9229.16
882.306	9124.76
882.624	9130.18
882.941	9116.4
883.259	9076.63
883.577	9096.51
883.894	9100.58
884.212	9099.68
884.529	9035.04
884.846	9005.44
885.164	8996.63
885.481	9000.7
885.798	8997.08
886.115	8942.62
886.432	8902.85
886.75	8967.93
887.067	8951.21
887.383	8840.25
887.7	8871.66
888.017	8844.54
888.334	8866.69
888.651	8812.45
888.967	8813.58
889.284	8744.21
889.6	8679.12
889.917	8619.46
890.233	8634.83
890.55	8582.85
890.866	8640.03
891.182	8655.39
891.498	8583.98
891.815	8548.5
892.131	8530.65
892.447	8516.64
892.763	8481.61
893.079	8391.67
893.395	8361.84
893.71	8417.89
894.026	8372.01
894.342	8354.61
894.657	8284.78
894.973	8300.15
895.289	8294.5
895.604	8249.53
895.92	8203.65
896.235	8167.72
896.55	8148.74
896.865	8124.11
897.181	8075.52
897.496	8092.7
897.811	8021.51
898.126	8009.31
898.441	8013.83
898.756	7993.04
899.071	7891.57
899.386	7949.42
899.7	7884.79
900.015	7790.11
900.33	7781.07
900.644	7740.16
900.959	7822.65
901.273	7782.65
901.588	7706.49
901.902	7662.43
902.216	7699.94
902.531	7625.82
902.845	7598.92
903.159	7553.73
903.473	7521.41
903.787	7516.89
904.101	7470.79
904.415	7411.58
904.729	7446.84
905.042	7366.61
905.356	7320.51
905.67	7362.32
905.984	7360.74
906.297	7346.28
906.611	7299.27
906.924	7263.57
907.237	7237.8
907.551	7212.27
907.864	7180.18
908.177	7156.45
908.491	7127.52
908.804	7077.36
909.117	7093.85
909.43	6971.6
909.743	6942.22
910.056	7041.65
910.368	6967.3
910.681	6869.9
910.994	6871.71
911.307	6923.01
911.619	6832.16
911.932	6814.76
912.244	6767.76
912.557	6740.42
912.869	6672.62
913.181	6710.13
913.494	6699.51
913.806	6639.18
914.118	6601.66
914.43	6600.98
914.742	6543.59
915.054	6530.7
915.366	6519.18
915.678	6493.87
915.99	6472.63
916.302	6393.31
916.613	6391.05
916.925	6399.86
917.236	6358.28
917.548	6345.85
917.859	6326.42
918.171	6233.76
918.482	6227.21
918.794	6181.33
919.105	6167.55
919.416	6131.62
919.727	6157.15
920.038	6127.78
920.349	6062.69
920.66	6064.28
920.971	6074.67
921.282	6031.73
921.593	5956.03
921.903	5989.7
922.214	5914.22
922.525	5951.74
922.835	5879.2
923.146	5815.92
923.456	5842.59
923.767	5839.65
924.077	5826.77
924.387	5756.04
924.697	5779.76
925.008	5711.06
925.318	5719.65
925.628	5694.57
925.938	5651.41
926.248	5609.37
926.558	5590.39
926.867	5583.38
927.177	5566.44
927.487	5491.41
927.796	5504.97
928.106	5489.6
928.416	5456.61
928.725	5476.27
929.034	5425.2
929.344	5386.1
929.653	5388.36
929.962	5347.68
930.271	5349.94
930.581	5303.39
930.89	5276.5
931.199	5229.27
931.508	5250.51
931.817	5232.21
932.125	5237.4
932.434	5158.76
932.743	5135.49
933.051	5102.94
933.36	5071.53
933.669	5039.9
933.977	5034.25
934.286	5061.82
934.594	5036.73
934.902	5009.39
935.21	4941.59
935.519	4965.77
935.827	4968.49
936.135	4953.34
936.443	4846.45
936.751	4896.62
937.059	4894.59
937.367	4797.42
937.674	4789.96
937.982	4772.11
938.29	4764.87
938.597	4792.44
938.905	4711.09
939.213	4701.15
939.52	4681.26
939.827	4741.6
940.135	4643.75
940.442	4607.36
940.749	4608.49
941.056	4629.96
941.363	4544.77
941.67	4537.99
941.977	4502.73
942.284	4457.54
942.591	4496.63
942.898	4499.12
943.205	4479.68
943.511	4479.23
943.818	4433.13
944.125	4390.87
944.431	4378.9
944.738	4378.9
945.044	4372.57
945.35	4375.05
945.657	4280.82
945.963	4298.9
946.269	4218
946.575	4256.19
946.881	4272.68
947.187	4208.73
947.493	4171.22
947.799	4166.25
948.105	4195.17
948.41	4123.54
948.716	4123.76
949.022	4125.8
949.327	4106.13
949.633	4044.44
949.938	4070.66
950.244	4069.98
950.549	4007.38
950.854	3989.53
951.16	3920.6
951.465	3953.14
951.77	3903.2
952.075	3921.73
952.38	3943.65
952.685	3924.22
952.99	3902.75
953.294	3837.22
953.599	3842.41
953.904	3825.01
954.209	3790.44
954.513	3796.54
954.818	3799.93
955.122	3768.06
955.426	3747.05
955.731	3768.97
956.035	3722.42
956.339	3726.94
956.643	3713.6
956.948	3672.02
957.252	3679.25
957.556	3655.98
957.86	3645.13
958.163	3612.81
958.467	3599.71
958.771	3626.15
959.075	3573.04
959.378	3491.91
959.682	3573.95
959.985	3513.16
960.289	3508.86
960.592	3518.35
960.896	3464.8
961.199	3453.04
961.502	3465.7
961.805	3433.16
962.108	3405.59
962.411	3397
962.714	3378.24
963.017	3381.63
963.32	3415.98
963.623	3354.97
963.926	3340.51
964.228	3336.44
964.531	3293.05
964.833	3305.03
965.136	3250.11
965.438	3228.64
965.741	3263.45
966.043	3240.62
966.345	3217.57
966.648	3205.37
966.95	3209.44
967.252	3160.85
967.554	3147.29
967.856	3157.91
968.158	3098.7
968.46	3119.27
968.761	3085.82
969.063	3100.74
969.365	3105.03
969.666	3033.85
969.968	3059.16
970.269	3022.77
970.571	3054.19
970.872	2985.49
971.174	2994.98
971.475	2999.27
971.776	2980.51
972.077	2996.11
972.378	2912.72
972.679	2943
972.98	2914.75
973.281	2875.88
973.582	2886.51
973.883	2905.26
974.183	2902.55
974.484	2853.96
974.785	2814.87
975.085	2851.25
975.386	2835.21
975.686	2829.78
975.986	2776.9
976.287	2793.4
976.587	2763.12
976.887	2731.03
977.187	2745.49
977.487	2764.02
977.787	2754.31
978.087	2745.27
978.387	2688.55
978.687	2637.25
978.987	2670.69
979.286	2661.88
979.586	2665.04
979.885	2636.8
980.185	2607.19
980.484	2602.67
980.784	2613.97
981.083	2618.49
981.382	2569.68
981.682	2573.52
981.981	2559.06
982.28	2523.58
982.579	2545.95
982.878	2529.23
983.177	2531.49
983.475	2519.74
983.774	2490.58
984.073	2482
984.372	2476.35
984.67	2475.44
984.969	2490.58
985.267	2465.27
985.566	2429.57
985.864	2452.17
986.162	2412.17
986.461	2379.4
986.759	2365.39
987.057	2375.78
987.355	2352.51
987.653	2353.19
987.951	2334.2
988.249	2342.11
988.547	2342.57
988.844	2323.81
989.142	2321.1
989.44	2259.63
989.737	2246.75
990.035	2289.01
990.332	2232.74
990.63	2241.33
990.927	2245.62
991.224	2220.08
991.521	2198.16
991.819	2226.86
992.116	2209.24
992.413	2189.58
992.71	2191.61
993.006	2180.99
993.303	2169.69
993.6	2186.64
993.897	2175.79
994.193	2133.98
994.49	2119.97
994.787	2123.59
995.083	2090.82
995.379	2097.37
995.676	2103.93
995.972	2088.56
996.268	2051.5
996.565	2030.94
996.861	2052.4
997.157	2063.48
997.453	2036.81
997.749	2013.76
998.044	2008.56
998.34	2000.88
998.636	1976.25
998.932	1968.11
999.227	1961.33
999.523	1965.17
999.818	1949.58
1000.114	1933.76
1000.409	1925.85
1000.704	1916.59
1001	1913.65
1001.295	1868.91
1001.59	1874.78
1001.885	1912.97
1002.18	1862.13
1002.475	1840.21
1002.77	1879.3
1003.065	1829.13
1003.359	1813.99
1003.654	1821.45
1003.949	1838.85
1004.243	1819.64
1004.538	1798.85
1004.832	1765.86
1005.127	1787.78
1005.421	1748.68
1005.715	1764.5
1006.009	1760.89
1006.304	1700.55
1006.598	1757.04
1006.892	1709.59
1007.186	1692.87
1007.48	1732.86
1007.773	1651.28
1008.067	1653.77
1008.361	1661.91
1008.655	1657.61
1008.948	1656.03
1009.242	1633.88
1009.535	1644.5
1009.829	1624.62
1010.122	1598.4
1010.415	1603.15
1010.708	1603.15
1011.001	1586.65
1011.295	1580.55
1011.588	1570.61
1011.881	1535.58
1012.173	1575.81
1012.466	1556.6
1012.759	1541.23
1013.052	1523.6
1013.344	1525.86
1013.637	1502.14
1013.93	1506.43
1014.222	1512.08
1014.514	1499.2
1014.807	1485.41
1015.099	1471.85
1015.391	1454.68
1015.683	1434.34
1015.976	1411.74
1016.268	1444.06
1016.56	1422.82
1016.851	1427.34
1017.143	1413.32
1017.435	1427.56
1017.727	1408.13
1018.018	1396.83
1018.31	1369.71
1018.602	1386.21
1018.893	1380.56
1019.185	1338.3
1019.476	1362.7
1019.767	1311.41
1020.058	1323.84
1020.35	1327.22
1020.641	1292.65
1020.932	1286.77
1021.223	1294.01
1021.514	1300.11
1021.804	1297.62
1022.095	1268.02
1022.386	1286.55
1022.677	1253.78
1022.967	1221.24
1023.258	1243.84
1023.548	1257.62
1023.839	1221.69
1024.129	1225.76
1024.419	1216.72
1024.709	1195.7
1025	1209.94
1025.29	1199.32
1025.58	1202.26
1025.87	1180.34
1026.16	1121.58
1026.449	1146.89
1026.739	1181.92
1027.029	1149.38
1027.319	1155.93
1027.608	1084.75
1027.898	1099.66
1028.187	1101.24
1028.477	1097.4
1028.766	1101.24
1029.055	1076.38
1029.344	1075.71
1029.634	1087.46
1029.923	1067.12
1030.212	1046.55
1030.501	1054.69
1030.79	1064.86
1031.078	1043.62
1031.367	1032.54
1031.656	1050.85
1031.945	1026.44
1032.233	1065.31
1032.522	1027.57
1032.81	990.74
1033.099	1018.31
1033.387	1005.65
1033.675	997.74
1033.963	971.98
1034.251	980.12
1034.54	984.18
1034.828	962.04
1035.116	978.53
1035.403	966.56
1035.691	953.45
1035.979	943.73
1036.267	927.91
1036.554	932.89
1036.842	922.94
1037.129	913.22
1037.417	901.7
1037.704	943.51
1037.992	900.57
1038.279	889.72
1038.566	896.73
1038.853	896.73
1039.14	896.73
