Data from hue_22_FLMS001491_00020.txt Node
Date: Tue Feb 07 17:09:41 GMT 2017
User: dcchb
Spectrometer: FLMS00149
Trigger mode: 0
Integration Time (sec): 2.000000E-2
Scans to average: 10
Electric dark correction enabled: true
Nonlinearity correction enabled: false
Boxcar width: 0
XAxis mode: Wavelengths
Number of Pixels in Spectrum: 2048
>>>>>Begin Spectral Data<<<<<
341.393	-6.88
341.776	-6.88
342.16	-6.88
342.543	-77.61
342.927	-69.25
343.31	-81.23
343.693	-78.29
344.077	-73.32
344.46	-45.75
344.843	-52.98
345.226	-44.39
345.61	-21.57
345.993	-5.07
346.376	-15.69
346.759	-4.17
347.142	46.23
347.525	32.44
347.908	60.24
348.291	80.13
348.674	95.49
349.057	107.92
349.44	139.78
349.823	140.69
350.206	156.51
350.588	194.25
350.971	215.04
351.354	224.08
351.737	220.91
352.119	258.88
352.502	265.88
352.884	270.63
353.267	288.03
353.65	301.59
354.032	315.37
354.414	306.56
354.797	302.27
355.179	325.32
355.562	330.29
355.944	324.86
356.326	344.75
356.709	339.1
357.091	333
357.473	346.11
357.855	347.24
358.238	325.99
358.62	317.63
359.002	332.1
359.384	347.91
359.766	357.41
360.148	352.21
360.53	353.11
360.912	327.12
361.294	342.27
361.676	338.42
362.057	338.65
362.439	334.58
362.821	320.57
363.203	316.28
363.584	350.85
363.966	322.6
364.348	335.49
364.729	335.94
365.111	325.77
365.493	327.8
365.874	316.5
366.256	288.48
366.637	323.51
367.019	295.26
367.4	326.22
367.781	324.86
368.163	317.86
368.544	327.12
368.925	299.1
369.306	326.45
369.688	316.5
370.069	317.63
370.45	292.77
370.831	301.14
371.212	314.02
371.593	328.93
371.974	299.33
372.355	332.55
372.736	343.85
373.117	340.46
373.498	305.2
373.879	336.84
374.26	334.58
374.641	309.5
375.021	313.11
375.402	309.72
375.783	324.86
376.163	314.7
376.544	352.21
376.925	325.09
377.305	317.86
377.686	340.01
378.066	328.03
378.447	326.9
378.827	329.84
379.208	319.67
379.588	338.65
379.968	348.14
380.349	339.1
380.729	327.8
381.109	359.89
381.489	339.1
381.87	359.21
382.25	351.08
382.63	361.7
383.01	335.26
383.39	334.36
383.77	350.85
384.15	358.54
384.53	347.01
384.91	335.94
385.29	346.11
385.67	344.52
386.049	369.38
386.429	341.59
386.809	354.92
387.189	347.91
387.568	380
387.948	370.74
388.328	365.54
388.707	345.43
389.087	358.08
389.466	376.16
389.846	362.15
390.225	361.93
390.605	371.87
390.984	378.87
391.363	369.38
391.743	373.45
392.122	388.37
392.501	377.74
392.881	397.86
393.26	390.63
393.639	371.87
394.018	391.3
394.397	384.75
394.776	381.59
395.155	400.12
395.534	403.05
395.913	386.56
396.292	374.35
396.671	395.6
397.05	402.6
397.429	395.6
397.808	416.16
398.186	397.86
398.565	397.18
398.944	408.93
399.323	426.33
399.701	424.3
400.08	398.99
400.458	430.85
400.837	422.04
401.215	406.44
401.594	425.43
401.972	410.06
402.351	423.39
402.729	440.79
403.107	436.05
403.486	413.9
403.864	431.53
404.242	443.05
404.62	445.31
404.999	430.17
405.377	432.43
405.755	423.17
406.133	434.69
406.511	451.87
406.889	454.13
407.267	438.53
407.645	416.84
408.023	439.89
408.401	464.3
408.779	446.67
409.156	459.32
409.534	450.06
409.912	456.16
410.29	457.74
410.667	489.38
411.045	497.74
411.422	465.88
411.8	502.71
412.178	495.26
412.555	498.87
412.933	493.45
413.31	502.71
413.687	512.88
414.065	511.3
414.442	488.25
414.819	530.73
415.197	485.31
415.574	494.35
415.951	512.43
416.328	507.46
416.705	506.33
417.082	499.55
417.46	503.16
417.837	526.44
418.214	535.71
418.591	512.43
418.967	536.16
419.344	530.73
419.721	539.77
420.098	543.62
420.475	551.75
420.852	549.72
421.228	568.93
421.605	570.28
421.982	541.58
422.358	584.29
422.735	571.41
423.111	553.11
423.488	577.51
423.864	583.84
424.241	563.5
424.617	584.07
424.994	592.88
425.37	585.2
425.746	608.25
426.123	602.82
426.499	591.3
426.875	614.12
427.251	620.45
427.627	620.22
428.003	629.49
428.379	630.84
428.756	626.33
429.132	642.82
429.507	655.93
429.883	639.21
430.259	666.78
430.635	660.9
431.011	699.09
431.387	673.33
431.763	674.91
432.138	689.6
432.514	677.17
432.89	711.29
433.265	702.93
433.641	702.48
434.016	687.79
434.392	722.82
434.767	724.4
435.143	712.88
435.518	711.52
435.894	720.56
436.269	753.55
436.644	773.44
437.02	754.68
437.395	757.4
437.77	736.15
438.145	772.76
438.52	778.41
438.895	821.35
439.271	806.21
439.646	758.3
440.021	809.6
440.395	803.27
440.77	794
441.145	811.18
441.52	826.55
441.895	803.27
442.27	838.52
442.645	842.14
443.019	853.66
443.394	841.01
443.769	864.29
444.143	833.33
444.518	871.97
444.892	845.3
445.267	859.09
445.641	862.25
446.016	874.45
446.39	890.95
446.764	867.67
447.139	886.66
447.513	890.95
447.887	886.21
448.262	890.05
448.636	912.42
449.01	928.92
449.384	917.39
449.758	944.96
450.132	951.29
450.506	928.24
450.88	929.14
451.254	945.41
451.628	946.77
452.002	965.53
452.376	970.5
452.75	970.72
453.123	997.62
453.497	977.73
453.871	1007.33
454.244	1002.81
454.618	1022.25
454.992	1014.34
455.365	1072.64
455.739	1051.85
456.112	1061.34
456.486	1035.81
456.859	1085.97
457.232	1113.54
457.606	1089.59
457.979	1097.05
458.352	1141.57
458.725	1136.37
459.099	1149.02
459.472	1175.69
459.845	1159.42
460.218	1180.89
460.591	1202.58
460.964	1196.93
461.337	1222.24
461.71	1250.72
462.083	1249.36
462.456	1256.37
462.829	1288.91
463.201	1286.65
463.574	1306.53
463.947	1301.56
464.32	1338.4
464.692	1334.1
465.065	1338.17
465.438	1361.22
465.81	1362.8
466.183	1420.88
466.555	1409.81
466.928	1445.29
467.3	1435.12
467.672	1458.85
468.045	1473.08
468.417	1515.34
468.789	1517.15
469.161	1506.98
469.534	1532.52
469.906	1590.37
470.278	1613.19
470.65	1616.13
471.022	1649.58
471.394	1677.6
471.766	1669.24
472.138	1704.49
472.51	1733.19
472.882	1743.36
473.253	1784.94
473.625	1837.14
473.997	1848.44
474.369	1850.93
474.74	1895.44
475.112	1911.26
475.484	1995.78
475.855	2013.86
476.227	1993.97
476.598	2032.39
476.97	2074.65
477.341	2146.96
477.713	2133.86
478.084	2149.68
478.455	2220.18
478.827	2268.09
479.198	2341.31
479.569	2357.81
479.94	2411.59
480.311	2403.45
480.682	2475.54
481.053	2524.35
481.424	2550.12
481.795	2607.52
482.166	2639.83
482.537	2715.99
482.908	2772.48
483.279	2796.89
483.65	2859.49
484.021	2924.8
484.391	2930.67
484.762	2951.91
485.133	2995.08
485.503	3020.39
485.874	3088.63
486.244	3177.44
486.615	3257.89
486.985	3290.44
487.356	3361.85
487.726	3367.95
488.097	3414.95
488.467	3464.67
488.837	3505.35
489.207	3554.61
489.578	3645.45
489.948	3670.54
490.318	3721.84
490.688	3760.48
491.058	3821.04
491.428	3866.47
491.798	3931.55
492.168	3990.08
492.538	4042.51
492.908	4051.32
493.278	4085.22
493.648	4140.36
494.017	4210.86
494.387	4303.52
494.757	4279.11
495.126	4309.39
495.496	4350.3
495.866	4382.61
496.235	4459.9
496.605	4473
496.974	4497.18
497.344	4589.84
497.713	4581.25
498.082	4584.19
498.452	4652.21
498.821	4713
499.19	4712.77
499.559	4803.62
499.928	4811.53
500.298	4826.21
500.667	4890.62
501.036	4912.54
501.405	4934.91
501.774	4898.76
502.143	5011.52
502.512	5068.02
502.88	5125.87
503.249	5030.05
503.618	5146.43
503.987	5152.08
504.356	5176.04
504.724	5177.17
505.093	5175.36
505.462	5252.19
505.83	5330.83
506.199	5293.77
506.567	5408.8
506.936	5401.34
507.304	5407.67
507.672	5431.85
508.041	5467.55
508.409	5505.52
508.777	5520.21
509.145	5617.83
509.514	5595.23
509.882	5579.19
510.25	5646.08
510.618	5695.12
510.986	5680.66
511.354	5729.69
511.722	5789.58
512.09	5788.9
512.458	5815.57
512.826	5878.39
513.193	5862.8
513.561	5919.29
513.929	5935.79
514.297	5972.4
514.664	6008.33
515.032	6029.35
515.4	6035.22
515.767	6013.98
516.135	6069.8
516.502	6077.03
516.869	6201.77
517.237	6133.07
517.604	6176.46
517.972	6229.34
518.339	6274.99
518.706	6220.53
519.073	6278.61
519.44	6311.37
519.808	6392.73
520.175	6389.34
520.542	6470.01
520.909	6492.39
521.276	6444.93
521.643	6580.07
522.009	6563.12
522.376	6649.22
522.743	6702.78
523.11	6665.26
523.477	6737.58
523.843	6740.51
524.21	6884.69
524.577	6815.54
524.943	6886.05
525.31	6915.65
525.676	6990.68
526.043	6998.81
526.409	7051.69
526.776	7071.35
527.142	7097.79
527.508	7143.22
527.874	7190.45
528.241	7253.72
528.607	7256.89
528.973	7333.04
529.339	7298.01
529.705	7380.05
530.071	7478.57
530.437	7429.08
530.803	7507.5
531.169	7520.83
531.535	7522.87
531.901	7595.18
532.267	7582.53
532.632	7699.13
532.998	7683.54
533.364	7747.49
533.73	7765.12
534.095	7818.45
534.461	7863.42
534.826	7864.1
535.192	7887.83
535.557	7990.2
535.923	7969.86
536.288	7978.22
536.653	8011.89
537.019	8018.22
537.384	8065.9
537.749	8136.64
538.114	8141.83
538.479	8184.32
538.845	8254.37
539.21	8216.18
539.575	8212.57
539.94	8300.93
540.305	8423.63
540.67	8377.31
541.034	8404.65
541.399	8440.13
541.764	8511.09
542.129	8478.32
542.494	8445.78
542.858	8507.93
543.223	8636.51
543.587	8601.71
543.952	8600.13
544.316	8673.8
544.681	8732.55
545.045	8742.5
545.41	8842.38
545.774	8852.78
546.138	8830.86
546.503	8892.1
546.867	8924.41
547.231	8926.67
547.595	8974.58
547.959	8999.21
548.324	8963.51
548.688	9108.81
549.052	9110.62
549.416	9160.79
549.779	9209.83
550.143	9140.68
550.507	9196.04
550.871	9241.92
551.235	9297.51
551.599	9312.42
551.962	9295.25
552.326	9365.53
552.689	9444.62
553.053	9363.5
553.417	9427.22
553.78	9515.36
554.143	9542.7
554.507	9594.9
554.87	9567.11
555.234	9671.29
555.597	9704.05
555.96	9635.81
556.323	9707.67
556.686	9742.7
557.05	9823.37
557.413	9864.95
557.776	9824.28
558.139	9974.78
558.502	9934.33
558.865	10004.38
559.228	10017.04
559.59	9947.21
559.953	10140.88
560.316	10104.04
560.679	10183.14
561.041	10233.98
561.404	10251.83
561.767	10292.51
562.129	10290.7
562.492	10343.81
562.854	10376.13
563.217	10394.66
563.579	10429.46
563.941	10588.32
564.304	10541.09
564.666	10617.93
565.028	10577.48
565.39	10641.2
565.753	10758.04
566.115	10633.97
566.477	10780.63
566.839	10835.32
567.201	10815.89
567.563	10814.08
567.925	10991.02
568.287	10958.71
568.648	11026.28
569.01	10988.76
569.372	11050.23
569.734	11077.8
570.095	11174.75
570.457	11205.03
570.819	11223.33
571.18	11306.5
571.542	11360.05
571.903	11297.23
572.265	11441.18
572.626	11495.87
572.987	11558.69
573.349	11570.22
573.71	11664.45
574.071	11676.2
574.432	11739.71
574.794	11855.18
575.155	11924.11
575.516	11883.2
575.877	11986.03
576.238	12095.18
576.599	12158.68
576.96	12177.89
577.32	12197.55
577.681	12440.93
578.042	12486.35
578.403	12551.44
578.763	12598.67
579.124	12656.74
579.485	12790.75
579.845	12969.5
580.206	13079.11
580.566	13148.03
580.927	13277.29
581.287	13418.31
581.648	13481.35
582.008	13632.76
582.368	13747.56
582.728	13923.83
583.089	14084.05
583.449	14206.53
583.809	14376.92
584.169	14566.3
584.529	14755.22
584.889	14983.46
585.249	15121.31
585.609	15281.76
585.969	15523.11
586.329	15658.47
586.688	15938.24
587.048	16204.9
587.408	16360.15
587.768	16548.17
588.127	16788.61
588.487	17048.94
588.846	17429.27
589.206	17457.97
589.565	17740.45
589.925	18107.9
590.284	18381.79
590.643	18613.42
591.003	18917.82
591.362	19174.99
591.721	19507.64
592.08	19762.32
592.44	20156.89
592.799	20352.13
593.158	20669.87
593.517	20961.38
593.876	21308.95
594.235	21580.35
594.593	21803.17
594.952	22173.33
595.311	22426.43
595.67	22825.06
596.029	23305.05
596.387	23597.7
596.746	23907.07
597.104	24205.59
597.463	24527.39
597.822	24881.51
598.18	25107.26
598.538	25414.37
598.897	25820.01
599.255	25954.25
599.613	26640.1
599.972	26627.9
600.33	27165.74
600.688	27388.11
601.046	27772.5
601.404	28088.43
601.762	28396.22
602.12	28789.65
602.478	29113.26
602.836	29421.95
603.194	29610.65
603.552	29931.09
603.91	30143.52
604.268	30615.14
604.625	30817.85
604.983	31157.5
605.341	31398.17
605.698	31698.73
606.056	32084.71
606.413	32376
606.771	32588.87
607.128	32898.25
607.485	33002.2
607.843	33265.92
608.2	33744.55
608.557	34077.88
608.914	34223.18
609.272	34658.42
609.629	34813.45
609.986	35107.23
610.343	35210.73
610.7	35739.07
611.057	35866.53
611.414	36135.45
611.771	36423.35
612.127	36684.59
612.484	36843.45
612.841	37235.53
613.198	37114.41
613.554	37438.69
613.911	37827.61
614.267	37827.61
614.624	38053.59
614.98	38369.29
615.337	38637.53
615.693	38706
616.05	38872.1
616.406	39228.93
616.762	39286.78
617.118	39501.01
617.475	39669.37
617.831	39874.33
618.187	40128.34
618.543	40156.36
618.899	40522.9
619.255	40524.26
619.611	40623.24
619.967	40896.68
620.323	41179.84
620.678	41074.3
621.034	41062.55
621.39	41268.65
621.746	41318.81
622.101	41932.58
622.457	41658.47
622.812	41735.3
623.168	41956.99
623.523	42063.43
623.879	42323.31
624.234	42050.32
624.589	42458.67
624.945	42506.35
625.3	42708.38
625.655	42752.45
626.01	42810.75
626.365	42851.2
626.72	43081.93
627.075	43145.21
627.43	43052.55
627.785	42997.87
628.14	43245.32
628.495	43395.6
628.85	43331.42
629.205	43133.68
629.559	43575.03
629.914	43314.69
630.269	43499.77
630.623	43460.91
630.978	43532.99
631.332	43669.04
631.687	43887.79
632.041	43595.14
632.396	43724.85
632.75	43688.47
633.104	43664.06
633.459	43769.82
633.813	43757.39
634.167	43904.06
634.521	43787.45
634.875	43906.32
635.229	43771.41
635.583	43669.94
635.937	43833.78
636.291	43715.14
636.645	43933.89
636.999	43652.76
637.352	43828.58
637.706	43603.95
638.06	43917.62
638.413	43830.61
638.767	43753.55
639.121	43866.32
639.474	43709.94
639.828	43747
640.181	43608.25
640.534	43867.9
640.888	43744.29
641.241	43601.01
641.594	43607.79
641.947	43824.51
642.301	43664.97
642.654	43744.74
643.007	43789.03
643.36	43755.81
643.713	43733.44
644.066	43681.92
644.419	43594.01
644.771	43361.92
645.124	43024.53
645.477	42936.85
645.83	42715.84
646.182	42597.65
646.535	42590.65
646.888	42608.5
647.24	42413.93
647.593	42736.4
647.945	42657.99
648.298	42472.46
648.65	42470.87
649.002	42352.46
649.355	42591.78
649.707	42546.13
650.059	42612.57
650.411	43128.48
650.763	43023.85
651.115	43451.19
651.467	43414.58
651.819	43398.76
652.171	43257.29
652.523	43247.35
652.875	43181.59
653.227	43139.78
653.578	43351.08
653.93	43159.9
654.282	43160.12
654.633	43004.42
654.985	43275.15
655.337	43122.84
655.688	43158.54
656.039	43317.63
656.391	42935.72
656.742	43031.31
657.094	43082.38
657.445	43203.28
657.796	43124.64
658.147	42963.29
658.498	42911.54
658.849	42991.77
659.2	43071.54
659.551	42859.79
659.902	43050.75
660.253	42918.77
660.604	43074.47
660.955	42818.89
661.306	42997.19
661.656	42942.27
662.007	42862.73
662.358	43009.17
662.708	43004.65
663.059	42961.03
663.409	42660.25
663.76	43061.14
664.11	43017.3
664.461	42938.89
664.811	43086.23
665.161	42941.37
665.511	42760.81
665.862	42933.46
666.212	42995.83
666.562	43062.5
666.912	42953.35
667.262	42789.74
667.612	42882.84
667.962	42866.8
668.312	42911.09
668.662	43054.81
669.011	42972.78
669.361	42752.68
669.711	42793.58
670.06	42825.44
670.41	42686.46
670.76	42719.68
671.109	42788.15
671.459	42695.05
671.808	42643.3
672.157	42830.87
672.507	42501.83
672.856	42578.89
673.205	42571.21
673.554	42754.26
673.904	42593.58
674.253	42834.93
674.602	42664.77
674.951	42148.17
675.3	41938.23
675.649	42674.94
675.998	42525.34
676.346	42395.17
676.695	42577.76
677.044	42311.1
677.393	42414.83
677.741	42545
678.09	42430.88
678.438	42334.16
678.787	42335.51
679.135	42399.01
679.484	42035.18
679.832	42339.13
680.181	42064.33
680.529	42259.13
680.877	42022.3
681.225	41929.19
681.573	42260.03
681.922	41812.59
682.27	41824.56
682.618	41776.43
682.966	41711.12
683.314	41787.28
683.661	41593.38
684.009	41545.7
684.357	41421.41
684.705	41343.22
685.053	41530.11
685.4	41392.71
685.748	41231.59
686.095	41221.42
686.443	41130.57
686.79	41064.13
687.138	41205.15
687.485	41144.36
687.832	40971.93
688.18	40995.43
688.527	40821.2
688.874	40823.46
689.221	40661.66
689.568	40632.73
689.915	40543.02
690.262	40406.75
690.609	40452.17
690.956	40284.94
691.303	40077.72
691.65	40110.26
691.997	39998.85
692.344	39813.09
692.69	39839.31
693.037	39840.21
693.383	39482.03
693.73	39587.33
694.077	39339.66
694.423	39360.67
694.769	39222.6
695.116	39039.78
695.462	39084.3
695.808	39082.49
696.155	39147.57
696.501	38755.94
696.847	38852.66
697.193	38503.97
697.539	38677.3
697.885	38420.36
698.231	38330.19
698.577	38350.31
698.923	38262.17
699.269	38167.49
699.614	37992.35
699.96	37808.17
700.306	37868.28
700.651	37683.66
700.997	37723.65
701.342	37570.44
701.688	37642.75
702.033	37375.19
702.379	37379.03
702.724	37121.18
703.069	37325.02
703.415	36978.59
703.76	37036.22
704.105	36889.78
704.45	36756.45
704.795	36603.46
705.14	36531.14
705.485	36617.24
705.83	36355.1
706.175	36534.99
706.52	36398.27
706.865	36210.7
707.209	36111.27
707.554	36037.37
707.899	36221.55
708.243	35880.77
708.588	35893.87
708.932	35609.13
709.277	35650.94
709.621	35644.39
709.966	35471.51
710.31	35512.41
710.654	35243.04
710.998	35224.51
711.342	35214.57
711.687	35191.97
712.031	35024.97
712.375	34932.32
712.719	35002.37
713.063	34894.12
713.407	34982.48
713.75	34723.06
714.094	34694.58
714.438	34533.68
714.782	34623.17
715.125	34319.45
715.469	34522.61
715.812	34327.36
716.156	34157.2
716.499	34267.25
716.843	34254.37
717.186	33963.08
717.53	34162.62
717.873	34224.99
718.216	34116.74
718.559	33918.11
718.902	33711.33
719.246	33855.06
719.589	33619.36
719.932	33509.98
720.275	33623.88
720.617	33553.82
720.96	33501.62
721.303	33385.92
721.646	33345.01
721.989	33198.8
722.331	33422.98
722.674	33239.03
723.016	33236.09
723.359	33166.49
723.701	33243.09
724.044	32979.15
724.386	32767.4
724.729	33010.11
725.071	32804.46
725.413	32794.29
725.755	32740.96
726.097	32638.36
726.439	32446.96
726.782	32631.13
727.124	32685.82
727.465	32369.67
727.807	32317.7
728.149	32307.53
728.491	32251.71
728.833	32370.58
729.175	32202.22
729.516	32199.96
729.858	32229.34
730.199	32223.23
730.541	32008.1
730.882	32086.29
731.224	32096.46
731.565	31796.58
731.906	31863.7
732.248	31962.9
732.589	31656.92
732.93	31623.93
733.271	31727.43
733.612	31698.05
733.953	31754.09
734.294	31594.78
734.635	31433.42
734.976	31447.89
735.317	31412.86
735.658	31334.44
735.999	31348.46
736.339	31220.1
736.68	31284.73
737.021	31197.72
737.361	31147.1
737.702	31282.24
738.042	31301.22
738.383	30970.84
738.723	31033.66
739.063	30984.62
739.404	31078.41
739.744	30863.27
740.084	30743.27
740.424	30936.49
740.764	30700.34
741.104	30800.67
741.444	30725.65
741.784	30613.79
742.124	30652.2
742.464	30570.85
742.804	30496.73
743.143	30522.26
743.483	30529.04
743.823	30371.98
744.162	30322.04
744.502	30315.94
744.841	30297.41
745.181	30386.45
745.52	30178.32
745.86	30293.12
746.199	30195.94
746.538	30110.75
746.877	30186
747.216	30159.33
747.556	29960.92
747.895	30062.16
748.234	29827.37
748.573	29945.1
748.911	29873.01
749.25	29816.07
749.589	29774.03
749.928	29846.8
750.267	29775.16
750.605	29683.64
750.944	29679.12
751.283	29453.82
751.621	29536.07
751.96	29328.4
752.298	29333.14
752.636	29442.74
752.975	29239.81
753.313	29181.51
753.651	29243.88
753.989	29107.84
754.327	29127.04
754.666	28823.78
755.004	29010.66
755.342	28910.55
755.679	28889.54
756.017	28732.03
756.355	28881.4
756.693	28761.4
757.031	28734.51
757.368	28489.77
757.706	28519.83
758.044	28378.14
758.381	28426.95
758.719	28240.29
759.056	28333.17
759.394	28231.7
759.731	28052.27
760.068	27954.87
760.405	27884.59
760.743	27926.85
761.08	27822.67
761.417	27768.44
761.754	27766.85
762.091	27675.11
762.428	27510.36
762.765	27366.64
763.102	27393.98
763.438	27295.45
763.775	27293.19
764.112	27273.31
764.449	27225.4
764.785	27044.16
765.122	26812.76
765.458	26866.54
765.795	26782.25
766.131	26670.39
766.467	26570.5
766.804	26502.48
767.14	26398.53
767.476	26412.99
767.812	26194.24
768.148	26272.2
768.485	26173.22
768.821	26034.24
769.157	26008.93
769.492	25962.61
769.828	25862.95
770.164	25539.12
770.5	25564.2
770.836	25607.36
771.171	25422.51
771.507	25484.2
771.842	25213.93
772.178	25130.31
772.513	25084.21
772.849	25055.29
773.184	24916.76
773.519	24774.62
773.855	24787.72
774.19	24595.64
774.525	24632.93
774.86	24538.01
775.195	24486.26
775.53	24405.59
775.865	24266.83
776.2	24098.48
776.535	23978.03
776.87	24052.38
777.205	23902.32
777.539	23764.25
777.874	23763.34
778.209	23694.19
778.543	23595.89
778.878	23487.42
779.212	23470.47
779.547	23225.96
779.881	23330.14
780.215	23173.76
780.55	23248.56
780.884	23002.46
781.218	22946.87
781.552	23017.15
781.886	22885.18
782.22	22704.84
782.554	22597.5
782.888	22444.73
783.222	22349.37
783.556	22357.51
783.889	22216.94
784.223	22132.2
784.557	22086.33
784.89	22070.06
785.224	21845.65
785.557	21873.68
785.891	21829.84
786.224	21650.86
786.558	21782.15
786.891	21472.33
787.224	21473.01
787.557	21411.77
787.891	21361.37
788.224	21202.28
788.557	21223.98
788.89	21231.66
789.223	21143.75
789.556	20985.56
789.888	20921.84
790.221	20843.19
790.554	20731.56
790.887	20691.11
791.219	20555.52
791.552	20519.59
791.884	20422.64
792.217	20360.72
792.549	20406.82
792.882	20228.07
793.214	20073.95
793.546	20175.42
793.879	20086.15
794.211	19886.16
794.543	19989.43
794.875	19899.49
795.207	19862.88
795.539	19830.11
795.871	19814.52
796.203	19566.17
796.535	19494.53
796.867	19405.04
797.198	19402.33
797.53	19343.35
797.862	19317.59
798.193	19262.22
798.525	19019.97
798.856	19207.76
799.188	18996.69
799.519	18948.33
799.85	18853.64
800.182	18750.59
800.513	18886.18
800.844	18628.79
801.175	18758.5
801.506	18718.5
801.837	18604.61
802.168	18582.24
802.499	18499.3
802.83	18286.88
803.161	18330.49
803.491	18391.28
803.822	18366.88
804.153	18255.92
804.483	17999.43
804.814	18008.02
805.145	17958.3
805.475	17962.14
805.805	17867.45
806.136	17876.27
806.466	17853.44
806.796	17873.78
807.126	17745.88
807.457	17592.66
807.787	17658.65
808.117	17557.86
808.447	17504.53
808.777	17526.9
809.107	17421.82
809.436	17427.47
809.766	17352.89
810.096	17299.11
810.426	17222.73
810.755	17207.36
811.085	17166.23
811.414	17144.54
811.744	17008.04
812.073	16961.94
812.403	17026.35
812.732	16862.73
813.061	16896.86
813.39	16868.16
813.719	16695.51
814.049	16882.4
814.378	16742.06
814.707	16721.5
815.036	16631.55
815.365	16590.43
815.693	16439.02
816.022	16362.86
816.351	16395.18
816.68	16338.91
817.008	16489.19
817.337	16229.98
817.665	16122.64
817.994	16276.76
818.322	16148.4
818.651	16089.2
818.979	16059.37
819.307	16088.29
819.636	16084.9
819.964	15917.22
820.292	16089.2
820.62	15994.28
820.948	15907.05
821.276	15996.99
821.604	15955.41
821.932	15895.98
822.259	15889.43
822.587	15851.24
822.915	15856.89
823.243	15887.39
823.57	15784.57
823.898	15766.72
824.225	15811.01
824.553	15831.8
824.88	15789.77
825.207	15837
825.535	15789.32
825.862	15813.95
826.189	15791.8
826.516	15806.72
826.843	15934.4
827.17	15863.44
827.497	15837.45
827.824	15822.76
828.151	15865.7
828.478	15858.24
828.805	15859.6
829.131	15829.54
829.458	15761.52
829.785	15709.32
830.111	15756.32
830.438	15775.76
830.764	15717.91
831.09	15811.46
831.417	15710
831.743	15758.58
832.069	15757.9
832.395	15690.34
832.722	15813.95
833.048	15714.74
833.374	15684.23
833.7	15592.26
834.026	15675.87
834.351	15627.51
834.677	15562.2
835.003	15578.02
835.329	15595.65
835.654	15522.43
835.98	15524.92
836.306	15559.04
836.631	15508.87
836.956	15527.63
837.282	15536.44
837.607	15398.37
837.932	15446.05
838.258	15437.01
838.583	15270.01
838.908	15270.23
839.233	15323.79
839.558	15166.96
839.883	15245.6
840.208	15157.92
840.533	15252.83
840.858	15183.23
841.182	15162.67
841.507	15135.77
841.832	15012.84
842.156	15040.86
842.481	14938.72
842.805	14947.08
843.13	14892.62
843.454	14856.23
843.778	14827.76
844.103	14800.64
844.427	14768.1
844.751	14739.4
845.075	14696.01
845.399	14586.86
845.723	14475.68
846.047	14621.21
846.371	14382.8
846.695	14380.77
847.019	14335.34
847.343	14291.28
847.666	14249.7
847.99	14171.05
848.313	14189.36
848.637	14109.59
848.96	14002.47
849.284	13987.78
849.607	13957.73
849.931	13831.4
850.254	13790.95
850.577	13682.25
850.9	13658.07
851.223	13576.49
851.546	13581.24
851.869	13490.17
852.192	13577.4
852.515	13343.05
852.838	13314.35
853.161	13353.67
853.483	13345.09
853.806	13237.29
854.129	13185.09
854.451	13174.24
854.774	13190.74
855.096	13073
855.419	13094.25
855.741	13055.15
856.063	12919.11
856.385	12985.1
856.708	12888.38
857.03	12841.15
857.352	12742.16
857.674	12779.23
857.996	12664.88
858.318	12661.72
858.64	12666.23
858.961	12533.81
859.283	12597.76
859.605	12486.58
859.926	12553.92
860.248	12487.93
860.57	12386.02
860.891	12358.45
861.212	12429.63
861.534	12373.14
861.855	12336.98
862.176	12341.05
862.498	12228.05
862.819	12275.51
863.14	12115.74
863.461	12182.63
863.782	12168.85
864.103	12162.75
864.424	12098.11
864.745	12077.78
865.065	12049.98
865.386	11997.1
865.707	11952.36
866.027	11918.01
866.348	11956.65
866.668	11905.58
866.989	11966.59
867.309	11807.73
867.63	11899.25
867.95	11847.27
868.27	11872.81
868.59	11878.91
868.91	11868.97
869.23	11739.48
869.55	11788.74
869.87	11779.25
870.19	11743.32
870.51	11680.5
870.83	11717.33
871.15	11675.3
871.469	11720.95
871.789	11611.8
872.109	11585.13
872.428	11552.59
872.748	11583.78
873.067	11539.71
873.386	11564.34
873.706	11544.91
874.025	11443.22
874.344	11347.85
874.663	11454.29
874.982	11471.92
875.301	11410
875.62	11410.45
875.939	11379.26
876.258	11409.09
876.577	11297.23
876.896	11281.86
877.214	11283.22
877.533	11264.24
877.852	11228.76
878.17	11261.98
878.489	11296.33
878.807	11191.02
879.125	11184.69
879.444	11144.47
879.762	11127.97
880.08	11182.43
880.398	11057.46
880.716	11103.11
881.034	11035.54
881.352	11112.6
881.67	11022.44
881.988	11051.81
882.306	10994.41
882.624	10939.5
882.941	10881.2
883.259	10809.33
883.577	10889.56
883.894	10908.54
884.212	10810.92
884.529	10818.37
884.846	10869.67
885.164	10709.9
885.481	10699.05
885.798	10715.55
886.115	10623.58
886.432	10670.58
886.75	10570.02
887.067	10653.41
887.383	10567.31
887.7	10563.47
888.017	10525.5
888.334	10574.31
888.651	10460.64
888.967	10423.81
889.284	10443.02
889.6	10416.8
889.917	10339.97
890.233	10358.95
890.55	10318.73
890.866	10297.03
891.182	10268.56
891.498	10260.87
891.815	10167.54
892.131	10135.68
892.447	10073.53
892.763	10072.18
893.079	10013.42
893.395	9989.02
893.71	9962.35
894.026	9895.46
894.342	9978.85
894.657	9834.22
894.973	9878.29
895.289	9867.66
895.604	9904.73
895.92	9811.85
896.235	9695.92
896.55	9709.25
896.865	9693.21
897.181	9711.96
897.496	9653.21
897.811	9572.76
898.126	9564.62
898.441	9487.79
898.756	9509.26
899.071	9431.29
899.386	9454.12
899.7	9389.26
900.015	9358.3
900.33	9219.32
900.644	9318.75
900.959	9279.88
901.273	9225.87
901.588	9172.09
901.902	9147.91
902.216	9156.04
902.531	9109.49
902.845	9104.07
903.159	8979.33
903.473	8945.65
903.787	8932.55
904.101	8888.71
904.415	8953.11
904.729	8830.86
905.042	8835.6
905.356	8786.79
905.67	8752.67
905.984	8785.88
906.297	8687.13
906.611	8599.45
906.924	8703.4
907.237	8607.58
907.551	8568.94
907.864	8518.1
908.177	8472.9
908.491	8551.54
908.804	8442.84
909.117	8402.84
909.43	8384.31
909.743	8247.14
910.056	8272.9
910.368	8269.06
910.681	8172.79
910.994	8190.87
911.307	8157.88
911.619	8078.56
911.932	8078.78
912.244	8018.45
912.557	8024.32
912.869	8025.68
913.181	7891.67
913.494	7979.13
913.806	7868.62
914.118	7912.69
914.43	7803.54
914.742	7832.24
915.054	7768.96
915.366	7750.66
915.678	7724.44
915.99	7684.9
916.302	7576.43
916.613	7654.16
916.925	7606.48
917.236	7526.26
917.548	7458.69
917.859	7493.04
918.171	7448.52
918.482	7418.46
918.794	7393.83
919.105	7359.26
919.416	7273.61
919.727	7288.3
920.038	7320.39
920.349	7243.78
920.66	7229.54
920.971	7199.26
921.282	7210.11
921.593	7092.14
921.903	7093.27
922.214	7059.38
922.525	7041.07
922.835	7044.01
923.146	6934.41
923.456	6960.62
923.767	6872.94
924.077	6869.1
924.387	6839.04
924.697	6810.34
925.008	6809.44
925.318	6756.11
925.628	6753.62
925.938	6736.9
926.248	6676.79
926.558	6605.38
926.867	6564.02
927.177	6564.93
927.487	6562.67
927.796	6504.36
928.106	6444.48
928.416	6505.72
928.725	6399.28
929.034	6338.27
929.344	6464.14
929.653	6378.26
929.962	6340.07
930.271	6294.65
930.581	6304.82
930.89	6207.65
931.199	6238.16
931.508	6202.68
931.817	6191.6
932.125	6131.27
932.434	6135.33
932.743	6105.5
933.051	6044.49
933.36	6018.05
933.669	5982.12
933.977	5981.66
934.286	5967.65
934.594	5940.76
934.902	5945.06
935.21	5911.38
935.519	5856.92
935.827	5854.44
936.135	5773.53
936.443	5754.78
936.751	5745.96
937.059	5750.48
937.367	5709.58
937.674	5676.81
937.982	5711.62
938.29	5639.75
938.597	5609.7
938.905	5565.86
939.213	5603.6
939.52	5506.65
939.827	5548.91
940.135	5520.21
940.442	5463.49
940.749	5476.14
941.056	5425.3
941.363	5389.59
941.67	5378.52
941.977	5334.45
942.284	5309.14
942.591	5288.8
942.898	5242.93
943.205	5306.2
943.511	5251.06
943.818	5258.75
944.125	5195.47
944.431	5191.4
944.738	5124.96
945.044	5122.48
945.35	5117.96
945.657	5040.22
945.963	5049.49
946.269	4984.4
946.575	5039.32
946.881	4943.95
947.187	4923.16
947.493	4931.97
947.799	4950.51
948.105	4951.18
948.41	4866.44
948.716	4848.81
949.022	4834.35
949.327	4818.76
949.633	4753.67
949.938	4783.05
950.244	4809.27
950.549	4758.42
950.854	4729.04
951.16	4674.35
951.465	4668.93
951.77	4622.15
952.075	4642.04
952.38	4646.56
952.685	4562.94
952.99	4564.75
953.294	4550.06
953.599	4559.78
953.904	4504.19
954.209	4520.46
954.513	4444.53
954.818	4448.37
955.122	4417.64
955.426	4442.5
955.731	4438.2
956.035	4383.06
956.339	4423.74
956.643	4319.79
956.948	4358.43
957.252	4329.28
957.556	4313.01
957.86	4254.25
958.163	4253.12
958.467	4239.34
958.771	4231.2
959.075	4218.55
959.378	4133.35
959.682	4204.31
959.985	4131.77
960.289	4122.05
960.592	4094.48
960.896	4088.38
961.199	4023.07
961.502	4036.86
961.805	4066.23
962.108	4023.3
962.411	4035.05
962.714	3992.11
963.017	3940.14
963.32	3986.46
963.623	3889.06
963.926	3881.61
964.228	3900.59
964.531	3880.93
964.833	3838.44
965.136	3833.25
965.438	3798.9
965.741	3817.65
966.043	3796.86
966.345	3812.68
966.648	3739.69
966.95	3740.14
967.252	3702.18
967.554	3713.93
967.856	3675.96
968.158	3665.79
968.46	3645.23
968.761	3666.7
969.063	3633.03
969.365	3619.02
969.666	3606.36
969.968	3559.58
970.269	3542.63
970.571	3546.02
970.872	3530.88
971.174	3493.82
971.475	3552.8
971.776	3499.7
972.077	3428.51
972.378	3449.08
972.679	3456.53
972.98	3464.22
973.281	3397.33
973.582	3425.35
973.883	3403.65
974.183	3364.11
974.484	3372.69
974.785	3330.44
975.085	3332.92
975.386	3329.53
975.686	3312.81
975.986	3287.27
976.287	3272.13
976.587	3249.53
976.887	3251.12
977.187	3244.11
977.487	3209.31
977.787	3202.3
978.087	3209.53
978.387	3173.38
978.687	3149.65
978.987	3150.1
979.286	3133.83
979.586	3127.73
979.885	3103.55
980.185	3083.89
980.484	3122.3
980.784	3077.79
981.083	3033.49
981.382	3027.84
981.682	3014.74
981.981	3025.81
982.28	2967.28
982.579	2957.34
982.878	2941.52
983.177	2977.68
983.475	2942.87
983.774	2901.29
984.073	2905.81
984.372	2893.61
984.67	2859.03
984.969	2877.11
985.267	2884.8
985.566	2841.86
985.864	2791.69
986.162	2821.07
986.461	2790.11
986.759	2799.38
987.057	2800.05
987.355	2793.27
987.653	2779.04
987.951	2746.72
988.249	2709.89
988.547	2723.22
988.844	2693.39
989.142	2660.4
989.44	2699.04
989.737	2630.57
990.035	2629.21
990.332	2674.41
990.63	2604.35
990.927	2625.14
991.224	2601.87
991.521	2595.09
991.819	2607.29
992.116	2579.04
992.413	2588.08
992.71	2552.83
993.006	2526.84
993.303	2537.46
993.6	2533.62
993.897	2494.07
994.193	2526.61
994.49	2474.19
994.787	2459.5
995.083	2439.61
995.379	2427.63
995.676	2441.42
995.972	2414.75
996.268	2383.79
996.565	2345.83
996.861	2380.4
997.157	2369.78
997.453	2348.54
997.749	2340.18
998.044	2327.07
998.34	2327.98
998.636	2317.58
998.932	2284.59
999.227	2243.91
999.523	2273.74
999.818	2250.01
1000.114	2248.43
1000.409	2215.89
1000.704	2246.4
1001	2224.48
1001.295	2191.48
1001.59	2162.1
1001.885	2196.68
1002.18	2185.38
1002.475	2168.21
1002.77	2118.04
1003.065	2137.25
1003.359	2117.59
1003.654	2106.74
1003.949	2160.97
1004.243	2112.16
1004.538	2069
1004.832	2069.9
1005.127	2057.93
1005.421	2024.93
1005.715	2014.09
1006.009	1996.91
1006.304	1985.84
1006.598	2015.44
1006.892	1996.91
1007.186	1972.05
1007.48	1962.11
1007.773	1953.52
1008.067	1945.61
1008.361	1925.73
1008.655	1938.38
1008.948	1884.6
1009.242	1900.64
1009.535	1902.68
1009.829	1874.88
1010.122	1869.91
1010.415	1871.94
1010.708	1820.19
1011.001	1819.97
1011.295	1793.75
1011.588	1800.76
1011.881	1796.46
1012.173	1774.32
1012.466	1811.15
1012.759	1746.75
1013.052	1755.11
1013.344	1771.38
1013.637	1743.58
1013.93	1699.07
1014.222	1711.72
1014.514	1713.75
1014.807	1710.14
1015.099	1692.51
1015.391	1681.44
1015.683	1691.16
1015.976	1632.17
1016.268	1647.32
1016.56	1633.98
1016.851	1629.46
1017.143	1637.15
1017.435	1614.32
1017.727	1625.85
1018.018	1594.66
1018.31	1610.03
1018.602	1564.83
1018.893	1574.32
1019.185	1555.34
1019.476	1567.77
1019.767	1549.46
1020.058	1510.6
1020.35	1530.03
1020.641	1518.73
1020.932	1504.27
1021.223	1462.46
1021.514	1473.31
1021.804	1448
1022.095	1469.92
1022.386	1459.3
1022.677	1436.25
1022.967	1444.83
1023.258	1418.39
1023.548	1410.49
1023.839	1408.23
1024.129	1369.13
1024.419	1343.82
1024.709	1363.48
1025	1336.59
1025.29	1338.85
1025.58	1341.56
1025.87	1331.84
1026.16	1316.7
1026.449	1325.29
1026.739	1290.71
1027.029	1291.39
1027.319	1281
1027.608	1292.97
1027.898	1273.99
1028.187	1252.3
1028.477	1273.99
1028.766	1238.96
1029.055	1228.12
1029.344	1225.63
1029.634	1200.77
1029.923	1205.52
1030.212	1199.19
1030.501	1204.62
1030.79	1182.24
1031.078	1165.29
1031.367	1196.03
1031.656	1144.05
1031.945	1179.08
1032.233	1176.82
1032.522	1137.72
1032.81	1143.15
1033.099	1142.24
1033.387	1141.34
1033.675	1122.36
1033.963	1124.17
1034.251	1089.59
1034.54	1085.07
1034.828	1084.39
1035.116	1080.55
1035.403	1057.5
1035.691	1045.07
1035.979	1051.17
1036.267	1053.66
1036.554	1062.92
1036.842	1036.26
1037.129	1010.04
1037.417	1017.05
1037.704	1022.47
1037.992	994.68
1038.279	1033.55
1038.566	1000.55
1038.853	1000.55
1039.14	1000.55
