Data from hue_160_FLMS001491_00028.txt Node
Date: Tue Feb 07 16:50:58 GMT 2017
User: dcchb
Spectrometer: FLMS00149
Trigger mode: 0
Integration Time (sec): 2.000000E-2
Scans to average: 10
Electric dark correction enabled: true
Nonlinearity correction enabled: false
Boxcar width: 0
XAxis mode: Wavelengths
Number of Pixels in Spectrum: 2048
>>>>>Begin Spectral Data<<<<<
341.393	-24.66
341.776	-24.66
342.16	-24.66
342.543	-61.72
342.927	-26.92
343.31	-82.96
343.693	-81.38
344.077	-48.84
344.46	-66.47
344.843	-45.9
345.226	-45.45
345.61	-19.01
345.993	-24.89
346.376	-4.55
346.759	11.5
347.142	43.13
347.525	56.24
347.908	39.07
348.291	59.63
348.674	100.99
349.057	108.9
349.44	134.21
349.823	143.02
350.206	160.19
350.588	203.36
350.971	200.64
351.354	227.76
351.737	228.67
352.119	244.71
352.502	247.87
352.884	269.57
353.267	291.26
353.65	289
354.032	307.76
354.414	311.15
354.797	319.74
355.179	328.78
355.562	322
355.944	326.97
356.326	321.77
356.709	324.71
357.091	338.04
357.473	335.56
357.855	334.43
358.238	343.92
358.62	352.73
359.002	324.48
359.384	340.53
359.766	340.53
360.148	334.88
360.53	352.28
360.912	354.09
361.294	316.57
361.676	338.95
362.057	340.75
362.439	336.01
362.821	327.19
363.203	326.29
363.584	320.64
363.966	329.45
364.348	321.77
364.729	336.91
365.111	316.8
365.493	325.61
365.874	332.39
366.256	323.81
366.637	301.43
367.019	305.5
367.4	325.39
367.781	335.56
368.163	327.65
368.544	325.84
368.925	306.86
369.306	304.14
369.688	301.66
370.069	301.21
370.45	299.4
370.831	322.68
371.212	319.06
371.593	298.27
371.974	320.42
372.355	296.01
372.736	319.06
373.117	333.52
373.498	307.76
373.879	312.96
374.26	323.13
374.641	306.18
375.021	298.04
375.402	330.13
375.783	313.86
376.163	308.44
376.544	329.91
376.925	317.7
377.305	309.34
377.686	329
378.066	336.01
378.447	323.35
378.827	319.74
379.208	339.62
379.588	336.46
379.968	340.53
380.349	333.97
380.729	314.09
381.109	346.63
381.489	329
381.87	353.86
382.25	334.65
382.63	346.18
383.01	332.39
383.39	349.34
383.77	319.74
384.15	347.99
384.53	352.96
384.91	345.95
385.29	359.06
385.67	357.48
386.049	346.63
386.429	356.8
386.809	364.26
387.189	358.15
387.568	355.67
387.948	355.22
388.328	360.19
388.707	337.36
389.087	367.65
389.466	355.44
389.846	363.8
390.225	380.98
390.605	364.03
390.984	371.94
391.363	365.84
391.743	364.03
392.122	378.94
392.501	370.81
392.881	387.31
393.26	375.56
393.639	375.33
394.018	386.4
394.397	364.48
394.776	371.04
395.155	374.65
395.534	384.37
395.913	384.37
396.292	416.23
396.671	372.17
397.05	372.17
397.429	370.81
397.808	390.24
398.186	387.53
398.565	396.12
398.944	399.51
399.323	399.06
399.701	398.38
400.08	395.89
400.458	405.61
400.837	392.73
401.215	401.54
401.594	397.48
401.972	405.84
402.351	412.62
402.729	415.1
403.107	420.98
403.486	425.27
403.864	423.92
404.242	403.35
404.62	413.07
404.999	393.18
405.377	432.95
405.755	423.24
406.133	415.78
406.511	417.14
406.889	437.02
407.267	430.02
407.645	425.5
408.023	419.85
408.401	448.32
408.779	442.67
409.156	443.58
409.534	461.65
409.912	448.32
410.29	448.77
410.667	459.85
411.045	450.13
411.422	453.52
411.8	469.56
412.178	464.82
412.555	454.65
412.933	481.32
413.31	476.8
413.687	459.85
414.065	476.12
414.442	487.64
414.819	476.8
415.197	493.29
415.574	503.69
415.951	503.69
416.328	518.83
416.705	501.43
417.082	522.44
417.46	519.96
417.837	523.57
418.214	526.29
418.591	507.3
418.967	539.17
419.344	512.5
419.721	529.45
420.098	503.24
420.475	562.89
420.852	540.3
421.228	560.41
421.605	547.98
421.982	549.79
422.358	580.52
422.735	567.19
423.111	557.47
423.488	580.3
423.864	554.76
424.241	573.74
424.617	564.7
424.994	554.53
425.37	595.44
425.746	589.56
426.123	596.11
426.499	602.67
426.875	597.02
427.251	615.32
427.627	618.49
428.003	639.5
428.379	627.98
428.756	643.34
429.132	631.37
429.507	627.07
429.883	643.57
430.259	636.79
430.635	636.11
431.011	658.71
431.387	645.38
431.763	699.39
432.138	656.9
432.514	691.93
432.89	696.68
433.265	714.76
433.641	699.16
434.016	686.96
434.392	709.56
434.767	738.94
435.143	719.27
435.518	725.6
435.894	752.49
436.269	733.51
436.644	767.86
437.02	765.15
437.395	762.44
437.77	787.75
438.145	776.67
438.52	808.54
438.895	793.17
439.271	816.9
439.646	848.76
440.021	825.26
440.395	832.49
440.77	816.67
441.145	834.75
441.52	845.15
441.895	851.02
442.27	843.57
442.645	891.47
443.019	872.27
443.394	871.59
443.769	876.56
444.143	861.42
444.518	885.15
444.892	892.83
445.267	906.61
445.641	896.67
446.016	908.42
446.39	907.29
446.764	935.99
447.139	929.66
447.513	912.94
447.887	941.42
448.262	909.78
448.636	935.77
449.01	965.37
449.384	978.48
449.758	943.22
450.132	975.77
450.506	973.28
450.88	996.78
451.254	981.19
451.628	1002.88
452.002	1007.85
452.376	1020.96
452.75	1004.24
453.123	1040.4
453.497	1054.41
453.871	1084.01
454.244	1074.97
454.618	1111.13
454.992	1098.7
455.365	1110.45
455.739	1110.23
456.112	1156.1
456.486	1148.87
456.859	1145.03
457.232	1164.69
457.606	1176.89
457.979	1209.21
458.352	1207.17
458.725	1247.17
459.099	1267.96
459.472	1228.87
459.845	1255.76
460.218	1293.72
460.591	1276.32
460.964	1328.3
461.337	1332.82
461.71	1327.85
462.083	1371.91
462.456	1389.09
462.829	1384.57
463.201	1405.81
463.574	1441.52
463.947	1444
464.32	1485.13
464.692	1476.09
465.065	1506.82
465.438	1511.8
465.81	1549.76
466.183	1582.3
466.555	1613.04
466.928	1625.47
467.3	1661.85
467.672	1693.49
468.045	1700.27
468.417	1718.34
468.789	1784.78
469.161	1792.69
469.534	1800.83
469.906	1826.36
470.278	1834.27
470.65	1912.92
471.022	1932.35
471.394	1971.9
471.766	2008.05
472.138	2036.3
472.51	2086.47
472.882	2114.94
473.253	2158.11
473.625	2234.94
473.997	2274.71
474.369	2334.83
474.74	2315.39
475.112	2382.96
475.484	2446.01
475.855	2524.2
476.227	2547.93
476.598	2647.13
476.97	2673.8
477.341	2774.81
477.713	2832.21
478.084	2830.63
478.455	2946.33
478.827	3015.49
479.198	3123.28
479.569	3158.53
479.94	3258.87
480.311	3354.01
480.682	3424.74
481.053	3546.32
481.424	3652.53
481.795	3701.8
482.166	3796.26
482.537	3888.23
482.908	3997.61
483.279	4034.89
483.65	4206.41
484.021	4281.89
484.391	4370.48
484.762	4459.97
485.133	4591.94
485.503	4699.51
485.874	4870.13
486.244	4936.34
486.615	5032.38
486.985	5163.45
487.356	5277.8
487.726	5410.22
488.097	5541.75
488.467	5612.25
488.837	5768.86
489.207	5880.5
489.578	6047.04
489.948	6167.49
490.318	6316.19
490.688	6303.76
491.058	6541.49
491.428	6642.51
491.798	6821.49
492.168	6960.69
492.538	7063.06
492.908	7181.7
493.278	7289.27
493.648	7433
494.017	7518.19
494.387	7579.43
494.757	7752.31
495.126	7921.57
495.496	8035.24
495.866	8065.3
496.235	8187.33
496.605	8380.32
496.974	8475.91
497.344	8548.22
497.713	8622.12
498.082	8734.66
498.452	8854.43
498.821	8912.28
499.19	8994.31
499.559	9173.06
499.928	9223.91
500.298	9308.43
500.667	9387.97
501.036	9486.28
501.405	9594.75
501.774	9648.76
502.143	9753.16
502.512	9766.95
502.88	9946.6
503.249	9867.96
503.618	10008.52
503.987	10082.19
504.356	10108.63
504.724	10227.73
505.093	10329.42
505.462	10410.32
505.83	10402.86
506.199	10556.76
506.567	10694.61
506.936	10632.01
507.304	10737.09
507.672	10817.77
508.041	10932.79
508.409	10907.26
508.777	11020.02
509.145	10977.08
509.514	11076.52
509.882	11230.41
510.25	11137.08
510.618	11200.58
510.986	11228.6
511.354	11340.24
511.722	11396.96
512.09	11481.25
512.458	11471.08
512.826	11599.67
513.193	11550.4
513.561	11613.45
513.929	11640.57
514.297	11815.25
514.664	11819.77
515.032	11882.6
515.4	11879.43
515.767	11827.68
516.135	11890.96
516.502	11856.61
516.869	12055.93
517.237	12051.18
517.604	11918.98
517.972	12022.03
518.339	12092.76
518.706	12083.04
519.073	12130.73
519.44	12183.38
519.808	12322.59
520.175	12207.11
520.542	12268.35
520.909	12359.65
521.276	12292.98
521.643	12405.07
522.009	12368.69
522.376	12487.33
522.743	12483.03
523.11	12537.72
523.477	12644.16
523.843	12632.18
524.21	12697.72
524.577	12770.94
524.943	12720.99
525.31	12764.16
525.676	12813.19
526.043	12761.22
526.409	12805.51
526.776	12861.1
527.142	12889.8
527.508	12825.17
527.874	12803.25
528.241	12890.93
528.607	12957.37
528.973	12984.04
529.339	12903.14
529.705	12970.7
530.071	12944.72
530.437	12958.28
530.803	13010.93
531.169	12964.15
531.535	12951.04
531.901	12927.09
532.267	12865.62
532.632	12852.74
532.998	12927.32
533.364	12948.33
533.73	12944.94
534.095	12881.44
534.461	12855.45
534.826	12905.85
535.192	12858.62
535.557	12830.59
535.923	12808.67
536.288	12784.04
536.653	12811.61
537.019	12702.01
537.384	12711.95
537.749	12804.38
538.114	12711.05
538.479	12598.51
538.845	12669.02
539.21	12532.52
539.575	12560.09
539.94	12525.52
540.305	12617.49
540.67	12502.47
541.034	12446.88
541.399	12448.46
541.764	12417.72
542.129	12481.23
542.494	12326.2
542.858	12425.63
543.223	12211.4
543.587	12324.17
543.952	12297.05
544.316	12181.35
544.681	12122.14
545.045	12163.27
545.41	12217.73
545.774	12165.53
546.138	12024.97
546.503	11976.15
546.867	11910.39
547.231	12025.87
547.595	11953.56
547.959	11889.15
548.324	11871.3
548.688	11818.64
549.052	11814.35
549.416	11805.76
549.779	11779.32
550.143	11753.79
550.507	11799.21
550.871	11667.69
551.235	11680.57
551.599	11650.51
551.962	11668.14
552.326	11575.49
552.689	11619.55
553.053	11553.57
553.417	11535.26
553.78	11592.44
554.143	11494.36
554.507	11490.07
554.87	11478.31
555.234	11483.51
555.597	11374.59
555.96	11360.13
556.323	11412.1
556.686	11382.95
557.05	11429.05
557.413	11397.64
557.776	11409.84
558.139	11398.54
558.502	11342.72
558.865	11337.07
559.228	11296.4
559.59	11316.28
559.953	11332.1
560.316	11377.53
560.679	11378.88
561.041	11389.28
561.404	11347.92
561.767	11375.04
562.129	11321.26
562.492	11334.81
562.854	11434.93
563.217	11319
563.579	11352.22
563.941	11350.86
564.304	11351.54
564.666	11410.52
565.028	11410.97
565.39	11442.38
565.753	11449.84
566.115	11471.08
566.477	11422.27
566.839	11431.08
567.201	11488.48
567.563	11489.61
567.925	11513.34
568.287	11512.21
568.648	11463.85
569.01	11481.03
569.372	11577.29
569.734	11484.19
570.095	11615.71
570.457	11518.31
570.819	11503.17
571.18	11538.2
571.542	11536.17
571.903	11591.98
572.265	11619.1
572.626	11653.9
572.987	11574.36
573.349	11656.61
573.71	11641.25
574.071	11616.84
574.432	11598.08
574.794	11720.57
575.155	11626.11
575.516	11564.87
575.877	11590.18
576.238	11637.41
576.599	11688.25
576.96	11633.34
577.32	11700.91
577.681	11657.07
578.042	11682.38
578.403	11656.39
578.763	11687.8
579.124	11701.13
579.485	11681.25
579.845	11794.69
580.206	11662.94
580.566	11748.14
580.927	11617.75
581.287	11831.98
581.648	11648.93
582.008	11737.52
582.368	11686.22
582.728	11703.39
583.089	11663.62
583.449	11657.74
583.809	11698.42
584.169	11658.42
584.529	11618.65
584.889	11664.98
585.249	11650.96
585.609	11576.62
585.969	11690.74
586.329	11537.97
586.688	11645.77
587.048	11577.75
587.408	11538.65
587.768	11578.65
588.127	11558.31
588.487	11526.9
588.846	11525.32
589.206	11505.66
589.565	11570.06
589.925	11524.64
590.284	11559.22
590.643	11540.23
591.003	11515.38
591.362	11634.47
591.721	11515.15
592.08	11528.48
592.44	11490.07
592.799	11474.92
593.158	11539.33
593.517	11493
593.876	11450.07
594.235	11443.29
594.593	11507.92
594.952	11517.41
595.311	11465.66
595.67	11501.82
596.029	11485.32
596.387	11413
596.746	11483.06
597.104	11492.32
597.463	11483.74
597.822	11397.86
598.18	11391.54
598.538	11442.38
598.897	11418.65
599.255	11309.73
599.613	11512.21
599.972	11458.2
600.33	11371.2
600.688	11408.03
601.046	11491.2
601.404	11400.58
601.762	11482.16
602.12	11477.41
602.478	11478.54
602.836	11461.82
603.194	11383.4
603.552	11370.29
603.91	11346.57
604.268	11479.22
604.625	11406.45
604.983	11457.07
605.341	11356.74
605.698	11457.52
606.056	11480.8
606.413	11445.32
606.771	11449.61
607.128	11427.92
607.485	11420.46
607.843	11429.95
608.2	11485.32
608.557	11573.23
608.914	11487.13
609.272	11534.58
609.629	11461.82
609.986	11557.86
610.343	11531.19
610.7	11471.76
611.057	11473.12
611.414	11494.58
611.771	11511.53
612.127	11529.16
612.484	11563.96
612.841	11544.75
613.198	11481.25
613.554	11586.56
613.911	11562.38
614.267	11619.55
614.624	11650.96
614.98	11620.91
615.337	11686.44
615.693	11676.73
616.05	11628.14
616.406	11685.99
616.762	11756.27
617.118	11721.25
617.475	11653.22
617.831	11743.17
618.187	11776.61
618.543	11696.84
618.899	11748.59
619.255	11743.84
619.611	11700.46
619.967	11757.4
620.323	11786.55
620.678	11724.64
621.034	11699.55
621.39	11778.19
621.746	11690.06
622.101	11855.03
622.457	11723.73
622.812	11740
623.168	11738.42
623.523	11728.48
623.879	11765.09
624.234	11676.5
624.589	11686.44
624.945	11757.4
625.3	11758.98
625.655	11769.15
626.01	11655.94
626.365	11753.56
626.72	11786.33
627.075	11740.45
627.43	11715.82
627.785	11735.03
628.14	11792.43
628.495	11768.93
628.85	11781.36
629.205	11648.71
629.559	11711.98
629.914	11724.41
630.269	11661.36
630.623	11637.86
630.978	11633.11
631.332	11616.16
631.687	11679.44
632.041	11638.08
632.396	11614.13
632.75	11547.24
633.104	11575.94
633.459	11573
633.813	11603.51
634.167	11556.73
634.521	11590.63
634.875	11589.27
635.229	11480.57
635.583	11429.05
635.937	11504.75
636.291	11504.08
636.645	11477.41
636.999	11499.33
637.352	11461.82
637.706	11412.55
638.06	11398.09
638.413	11379.11
638.767	11349.28
639.121	11439.22
639.474	11321.71
639.828	11372.33
640.181	11324.65
640.534	11375.72
640.888	11260.92
641.241	11185.67
641.594	11231.99
641.947	11325.55
642.301	11252.11
642.654	11321.93
643.007	11308.83
643.36	11266.79
643.713	11238.09
644.066	11271.09
644.419	11171.2
644.771	11158.1
645.124	11027.25
645.477	11018.67
645.83	10898.22
646.182	10875.17
646.535	10891.44
646.888	10918.55
647.24	10845.79
647.593	10899.12
647.945	10894.83
648.298	10828.39
648.65	10867.26
649.002	10823.42
649.355	10860.7
649.707	10868.84
650.059	10872.91
650.411	11006.69
650.763	11121.94
651.115	11161.49
651.467	11118.55
651.819	11117.19
652.171	11151.99
652.523	11110.19
652.875	11068.83
653.227	11088.27
653.578	11120.58
653.93	11114.48
654.282	11083.3
654.633	11070.42
654.985	11079.45
655.337	11102.96
655.688	11166.46
656.039	11147.48
656.391	11009.17
656.742	11103.86
657.094	11102.28
657.445	11148.83
657.796	11114.93
658.147	11049.17
658.498	11045.11
658.849	11083.75
659.2	11104.99
659.551	11114.93
659.902	11135.5
660.253	11174.59
660.604	11084.88
660.955	11061.38
661.306	11143.18
661.656	11179.34
662.007	11138.66
662.358	11135.95
662.708	11180.47
663.059	11154.71
663.409	11106.35
663.76	11185.89
664.11	11133.92
664.461	11183.63
664.811	11191.09
665.161	11162.62
665.511	11140.24
665.862	11137.98
666.212	11260.92
666.562	11230.86
666.912	11168.72
667.262	11238.77
667.612	11193.58
667.962	11211.88
668.312	11136.18
668.662	11180.24
669.011	11184.99
669.361	11193.35
669.711	11243.07
670.06	11144.99
670.41	11124.43
670.76	11125.33
671.109	11164.65
671.459	11119.68
671.808	11080.36
672.157	11103.86
672.507	11011.89
672.856	11082.84
673.205	11144.54
673.554	11062.96
673.904	11041.26
674.253	11128.94
674.602	11078.55
674.951	10877.43
675.3	10908.39
675.649	11048.49
675.998	11074.93
676.346	11064.31
676.695	11054.82
677.044	10972.11
677.393	11003.52
677.741	10990.64
678.09	10969.4
678.438	11002.85
678.787	10926.46
679.135	10946.8
679.484	10909.74
679.832	10876.75
680.181	10822.06
680.529	10903.41
680.877	10823.19
681.225	10763.08
681.573	10895.96
681.922	10834.72
682.27	10732.12
682.618	10780.93
682.966	10776.19
683.314	10811.21
683.661	10698.9
684.009	10592.69
684.357	10637.43
684.705	10659.8
685.053	10554.5
685.4	10630.2
685.748	10505.91
686.095	10517.89
686.443	10517.66
686.79	10418.23
687.138	10516.31
687.485	10476.53
687.832	10544.33
688.18	10444.89
688.527	10401.73
688.874	10296.88
689.221	10323.54
689.568	10317.67
689.915	10262.53
690.262	10281.06
690.609	10267.5
690.956	10174.17
691.303	10155.41
691.65	10124.9
691.997	10161.29
692.344	10055.07
692.69	10019.37
693.037	10038.13
693.383	9926.72
693.73	9982.53
694.077	9924.23
694.423	9913.38
694.769	9888.75
695.116	9850.56
695.462	9815.76
695.808	9807.62
696.155	9726.95
696.501	9691.24
696.847	9679.49
697.193	9661.64
697.539	9643.56
697.885	9556.78
698.231	9476.33
698.577	9543
698.923	9502.55
699.269	9393.85
699.614	9382.55
699.96	9368.31
700.306	9276.34
700.651	9356.79
700.997	9250.8
701.342	9276.79
701.688	9177.58
702.033	9190.92
702.379	9163.8
702.724	9101.2
703.069	9128.32
703.415	9096.91
703.76	9079.28
704.105	9033.63
704.45	8994.31
704.795	8922.45
705.14	8881.32
705.485	8914.31
705.83	8839.97
706.175	8841.55
706.52	8802.9
706.865	8804.94
707.209	8813.75
707.554	8757.71
707.899	8689.91
708.243	8720.65
708.588	8614.43
708.932	8619.86
709.277	8618.73
709.621	8588.9
709.966	8522.23
710.31	8563.36
710.654	8451.05
710.998	8504.61
711.342	8508
711.687	8447.43
712.031	8435.46
712.375	8346.87
712.719	8399.75
713.063	8383.48
713.407	8403.59
713.75	8392.97
714.094	8344.84
714.438	8329.02
714.782	8372.41
715.125	8282.24
715.469	8342.58
715.812	8295.35
716.156	8173.77
716.499	8197.72
716.843	8168.57
717.186	8178.51
717.53	8233.88
717.873	8240.89
718.216	8201.34
718.559	8116.37
718.902	8099.42
719.246	8129.02
719.589	8085.18
719.932	8131.51
720.275	8111.17
720.617	8099.65
720.96	8100.32
721.303	8055.81
721.646	8079.08
721.989	8060.78
722.331	8050.16
722.674	8032.98
723.016	8010.16
723.359	8042.92
723.701	8069.82
724.044	7982.36
724.386	7983.72
724.729	7963.38
725.071	7983.49
725.413	7925.64
725.755	7919.09
726.097	7949.14
726.439	7859.65
726.782	7906.66
727.124	7916.15
727.465	7920.67
727.807	7841.35
728.149	7894.91
728.491	7879.99
728.833	7879.76
729.175	7872.53
729.516	7876.6
729.858	7853.55
730.199	7915.7
730.541	7887.22
730.882	7832.08
731.224	7890.16
731.565	7822.36
731.906	7917.5
732.248	7830.5
732.589	7819.2
732.93	7819.2
733.271	7804.96
733.612	7859.65
733.953	7921.57
734.294	7852.19
734.635	7888.13
734.976	7853.78
735.317	7908.69
735.658	7828.01
735.999	7846.09
736.339	7828.47
736.68	7869.37
737.021	7922.25
737.361	7828.92
737.702	7826.43
738.042	7928.12
738.383	7863.95
738.723	7874.79
739.063	7864.85
739.404	7918.86
739.744	7928.8
740.084	7961.34
740.424	7924.06
740.764	7974.68
741.104	7975.13
741.444	7955.24
741.784	7942.14
742.124	8050.83
742.464	8064.39
742.804	8019.2
743.143	8022.36
743.483	8066.65
743.823	8013.55
744.162	8027.11
744.502	8100.32
744.841	8134
745.181	8186.88
745.52	8194.56
745.86	8286.08
746.199	8220.32
746.538	8326.08
746.877	8344.39
747.216	8376.47
747.556	8452.4
747.895	8417.6
748.234	8497.6
748.573	8574.89
748.911	8672.29
749.25	8675.9
749.589	8723.58
749.928	8774.2
750.267	8892.62
750.605	8877.93
750.944	8954.31
751.283	8992.05
751.621	9072.05
751.96	9133.52
752.298	9271.82
752.636	9379.39
752.975	9439.95
753.313	9460.29
753.651	9640.85
753.989	9700.96
754.327	9824.35
754.666	9879.71
755.004	10014.4
755.342	10190.44
755.679	10230.21
756.017	10397.89
756.355	10520.6
756.693	10637.66
757.031	10733.7
757.368	10866.8
757.706	10990.19
758.044	11161.49
758.381	11311.54
758.719	11419.33
759.056	11613.45
759.394	11752.66
759.731	11882.15
760.068	11990.62
760.405	12098.18
760.743	12338.63
761.08	12516.03
761.417	12644.39
761.754	12868.56
762.091	12980.65
762.428	13118.95
762.765	13279.62
763.102	13461.99
763.438	13542.89
763.775	13678.48
764.112	13841.64
764.449	14030.34
764.785	14137.45
765.122	14266.26
765.458	14329.76
765.795	14570.44
766.131	14685.91
766.467	14847.49
766.804	15040.03
767.14	15062.63
767.476	15266.24
767.812	15395.95
768.148	15520.92
768.485	15622.84
768.821	15687.47
769.157	15840.23
769.492	15941.7
769.828	16062.37
770.164	16068.93
770.5	16267.57
770.836	16415.81
771.171	16398.86
771.507	16531.06
771.842	16481.12
772.178	16868
772.513	16819.64
772.849	16847.66
773.184	16911.17
773.519	17081.33
773.855	17074.1
774.19	17111.84
774.525	17165.4
774.86	17351.61
775.195	17352.06
775.53	17311.61
775.865	17442.68
776.2	17508.66
776.535	17333.53
776.87	17468.21
777.205	17539.62
777.539	17590.92
777.874	17630.69
778.209	17588.21
778.543	17658.26
778.878	17577.81
779.212	17743.46
779.547	17614.88
779.881	17746.62
780.215	17636.12
780.55	17786.85
780.884	17741.88
781.218	17710.24
781.552	17887.41
781.886	17782.56
782.22	17711.6
782.554	17770.13
782.888	17668.43
783.222	17696.91
783.556	17648.55
783.889	17658.94
784.223	17583.01
784.557	17545.5
784.89	17729.9
785.224	17628.21
785.557	17537.36
785.891	17563.8
786.224	17576.91
786.558	17585.27
786.891	17502.79
787.224	17420.76
787.557	17430.7
787.891	17420.3
788.224	17455.11
788.557	17457.14
788.89	17417.59
789.223	17522.67
789.556	17350.48
789.888	17325.84
790.221	17338.95
790.554	17248.11
790.887	17221.21
791.219	17250.14
791.552	17228.45
791.884	17131.27
792.217	17135.79
792.549	17007.43
792.882	16942.8
793.214	16971.05
793.546	16974.21
793.879	16932.41
794.211	16939.64
794.543	16971.95
794.875	16819.87
795.207	16963.37
795.539	16863.71
795.871	16846.31
796.203	16731.28
796.535	16592.3
796.867	16683.83
797.198	16621
797.53	16669.14
797.862	16480.22
798.193	16539.42
798.525	16470.27
798.856	16570.61
799.188	16325.42
799.519	16367.45
799.85	16277.06
800.182	16290.16
800.513	16227.12
800.844	16120
801.175	16244.52
801.506	16144.86
801.837	16095.37
802.168	16129.72
802.499	16018.76
802.83	16034.58
803.161	15935.15
803.491	15958.2
803.822	15946.45
804.153	15884.53
804.483	15696.73
804.814	15698.99
805.145	15717.75
805.475	15646.79
805.805	15552.56
806.136	15531.31
806.466	15580.81
806.796	15540.58
807.126	15406.8
807.457	15445.89
807.787	15454.71
808.117	15393.24
808.447	15292.68
808.777	15412
809.107	15320.92
809.436	15251.55
809.766	15324.31
810.096	15212
810.426	15134.72
810.755	15151.66
811.085	15161.16
811.414	15104.66
811.744	14985.11
812.073	14928.62
812.403	14929.3
812.732	14938.56
813.061	14985.34
813.39	14941.73
813.719	14839.81
814.049	14808.85
814.378	14851.78
814.707	14743.31
815.036	14795.97
815.365	14731.34
815.693	14638.68
816.022	14552.13
816.351	14586.25
816.68	14465.58
817.008	14602.98
817.337	14444.34
817.665	14401.18
817.994	14424.45
818.322	14459.03
818.651	14379.03
818.979	14359.59
819.307	14428.29
819.636	14360.72
819.964	14283.44
820.292	14235.3
820.62	14328.41
820.948	14255.64
821.276	14294.06
821.604	14193.5
821.932	14294.96
822.259	14269.65
822.587	14247.51
822.915	14122.76
823.243	14237.56
823.57	14193.95
823.898	14244.12
824.225	14181.07
824.553	14127.96
824.88	14192.37
825.207	14249.54
825.535	14204.57
825.862	14237.34
826.189	14152.14
826.516	14269.88
826.843	14265.13
827.17	14126.83
827.497	14281.18
827.824	14204.12
828.151	14311.23
828.478	14249.54
828.805	14313.49
829.131	14288.86
829.458	14219.71
829.785	14318.92
830.111	14282.99
830.438	14320.05
830.764	14257
831.09	14329.31
831.417	14192.14
831.743	14276.66
832.069	14311.69
832.395	14247.05
832.722	14219.94
833.048	14106.04
833.374	14200.95
833.7	14144.01
834.026	14193.27
834.351	14195.3
834.677	14171.35
835.003	14200.28
835.329	14178.58
835.654	14042.09
835.98	14025.37
836.306	14087.51
836.631	14049.77
836.956	14184.01
837.282	14079.15
837.607	14000.96
837.932	13991.47
838.258	13980.4
838.583	14035.31
838.908	13901.3
839.233	13864.47
839.558	13840.29
839.883	13844.81
840.208	13816.56
840.533	13827.4
840.858	13774.98
841.182	13746.05
841.507	13814.52
841.832	13638.26
842.156	13741.31
842.481	13698.59
842.805	13630.8
843.13	13594.64
843.454	13561.42
843.778	13532.27
844.103	13530.46
844.427	13492.72
844.751	13489.33
845.075	13417.02
845.399	13358.94
845.723	13431.03
846.047	13364.82
846.371	13269.91
846.695	13253.63
847.019	13175.67
847.343	13103.36
847.666	13030.82
847.99	12986.97
848.313	12917.6
848.637	12846.87
848.96	12785.4
849.284	12743.37
849.607	12658.85
849.931	12632.18
850.254	12583.37
850.577	12548.12
850.9	12434.45
851.223	12522.13
851.546	12410.04
851.869	12280.78
852.192	12375.24
852.515	12230.61
852.838	12181.35
853.161	12141.35
853.483	12141.57
853.806	12014.35
854.129	12059.54
854.451	11980.45
854.774	11891.64
855.096	11844.41
855.419	11863.16
855.741	11896.61
856.063	11763.28
856.385	11738.65
856.708	11793.56
857.03	11694.58
857.352	11645.77
857.674	11624.07
857.996	11674.92
858.318	11536.62
858.64	11545.2
858.961	11507.47
859.283	11466.34
859.605	11440.12
859.926	11460.91
860.248	11398.77
860.57	11320.8
860.891	11350.41
861.212	11291.43
861.534	11305.21
861.855	11189.51
862.176	11173.46
862.498	11280.35
862.819	11177.08
863.14	11184.54
863.461	11149.74
863.782	11229.51
864.103	11184.76
864.424	11047.14
864.745	11089.4
865.065	11001.04
865.386	10931.44
865.707	10996.97
866.027	10985.22
866.348	10971.21
866.668	10975.73
866.989	11002.62
867.309	10873.58
867.63	10901.38
867.95	10824.32
868.27	10764.21
868.59	10842.85
868.91	10776.64
869.23	10740.93
869.55	10776.19
869.87	10763.76
870.19	10701.39
870.51	10841.72
870.83	10763.08
871.15	10719.92
871.469	10649.64
871.789	10730.54
872.109	10620.48
872.428	10561.05
872.748	10652.12
873.067	10553.82
873.386	10553.37
873.706	10621.16
874.025	10468.62
874.344	10479.7
874.663	10470.43
874.982	10488.51
875.301	10498.23
875.62	10394.95
875.939	10432.01
876.258	10432.92
876.577	10378.68
876.896	10444.22
877.214	10369.64
877.533	10331
877.852	10289.19
878.17	10279.48
878.489	10325.12
878.807	10285.35
879.125	10276.31
879.444	10248.74
879.762	10231.34
880.08	10229.53
880.398	10211.68
880.716	10225.92
881.034	10185.69
881.352	10118.12
881.67	10051.46
881.988	10099.59
882.306	10068.86
882.624	9979.82
882.941	9935.08
883.259	9961.97
883.577	9914.29
883.894	9949.99
884.212	9914.74
884.529	9970.11
884.846	9850.11
885.164	9837.68
885.481	9859.15
885.798	9806.49
886.115	9748.87
886.432	9753.39
886.75	9720.62
887.067	9729.66
887.383	9660.73
887.7	9720.39
888.017	9634.07
888.334	9650.79
888.651	9651.7
888.967	9581.87
889.284	9569.44
889.6	9499.16
889.917	9486.73
890.233	9521.3
890.55	9479.04
890.866	9412.15
891.182	9371.25
891.498	9307.52
891.815	9322.21
892.131	9283.57
892.447	9217.58
892.763	9253.29
893.079	9242.44
893.395	9170.35
893.71	9151.82
894.026	9200.86
894.342	9076.8
894.657	9079.28
894.973	9091.03
895.289	8993.18
895.604	9018.94
895.92	8874.99
896.235	8933.07
896.55	8918.83
896.865	8893.52
897.181	8896.69
897.496	8833.86
897.811	8789.8
898.126	8732.4
898.441	8704.6
898.756	8749.12
899.071	8680.87
899.386	8631.16
899.7	8537.37
900.015	8552.52
900.33	8468.68
900.644	8526.53
900.959	8533.98
901.273	8492.86
901.588	8438.85
901.902	8340.09
902.216	8295.35
902.531	8294.67
902.845	8277.27
903.159	8266.42
903.473	8187.1
903.787	8128.57
904.101	8129.25
904.415	8155.69
904.729	8140.1
905.042	8028.91
905.356	8013.32
905.67	7997.05
905.984	7997.05
906.297	8013.09
906.611	7924.96
906.924	7906.2
907.237	7858.97
907.551	7857.84
907.864	7820.78
908.177	7822.82
908.491	7736.72
908.804	7625.53
909.117	7671.63
909.43	7602.03
909.743	7570.85
910.056	7591.18
910.368	7513.9
910.681	7521.58
910.994	7481.58
911.307	7440.45
911.619	7402.49
911.932	7455.59
912.244	7297.86
912.557	7317.52
912.869	7266
913.181	7291.76
913.494	7276.84
913.806	7168.14
914.118	7163.17
914.43	7174.25
914.742	7085.89
915.054	7037.07
915.366	7044.76
915.678	6982.39
915.99	6995.27
916.302	7022.16
916.613	6930.86
916.925	6924.99
917.236	6903.29
917.548	6821.04
917.859	6842.5
918.171	6808.61
918.482	6787.82
918.794	6757.53
919.105	6736.29
919.416	6670.53
919.727	6675.28
920.038	6712.79
920.349	6640.25
920.66	6585.79
920.971	6572.68
921.282	6572
921.593	6524.09
921.903	6513.25
922.214	6438.9
922.525	6417.88
922.835	6398.67
923.146	6398
923.456	6378.11
923.767	6307.83
924.077	6316.19
924.387	6279.13
924.697	6272.12
925.008	6212.01
925.318	6212.01
925.628	6190.54
925.938	6157.55
926.248	6136.99
926.558	6099.25
926.867	6087.5
927.177	6061.28
927.487	6058.12
927.796	6002.07
928.106	5990.77
928.416	5919.14
928.725	5904.68
929.034	5853.15
929.344	5843.89
929.653	5876.65
929.962	5809.76
930.271	5806.37
930.581	5774.28
930.89	5725.92
931.199	5793.27
931.508	5749.43
931.817	5704.91
932.125	5688.64
932.434	5663.33
932.743	5593.72
933.051	5552.37
933.36	5537
933.669	5508.53
933.977	5546.72
934.286	5505.82
934.594	5490.9
934.902	5452.94
935.21	5424.69
935.519	5426.5
935.827	5402.99
936.135	5357.8
936.443	5354.41
936.751	5333.62
937.059	5403.22
937.367	5274.18
937.674	5246.16
937.982	5217.01
938.29	5203.9
938.597	5231.7
938.905	5202.77
939.213	5195.09
939.52	5100.4
939.827	5080.74
940.135	5099.27
940.442	5053.62
940.749	5049.1
941.056	5080.52
941.363	4976.56
941.67	4976.34
941.977	4980.86
942.284	4906.74
942.591	4953.74
942.898	4876.23
943.205	4866.96
943.511	4820.86
943.818	4870.58
944.125	4813.63
944.431	4766.17
944.738	4805.27
945.044	4716.46
945.35	4752.39
945.657	4725.95
945.963	4670.36
946.269	4670.36
946.575	4648.44
946.881	4598.27
947.187	4643.69
947.493	4576.12
947.799	4552.85
948.105	4554.2
948.41	4525.95
948.716	4538.84
949.022	4538.38
949.327	4460.42
949.633	4450.25
949.938	4416.58
950.244	4422.45
950.549	4385.17
950.854	4359.18
951.16	4340.2
951.465	4319.63
951.77	4310.82
952.075	4280.31
952.38	4325.06
952.685	4286.41
952.99	4231.5
953.294	4218.39
953.599	4185.85
953.904	4158.96
954.209	4172.97
954.513	4163.25
954.818	4136.81
955.122	4113.31
955.426	4129.13
955.731	4100.65
956.035	4055.46
956.339	4040.09
956.643	4038.06
956.948	4012.97
957.252	3992.64
957.556	4001.22
957.86	3987.66
958.163	3967.33
958.467	3889.14
958.771	3921.45
959.075	3918.96
959.378	3856.14
959.682	3897.27
959.985	3840.32
960.289	3798.52
960.592	3846.88
960.896	3804.39
961.199	3793.32
961.502	3761.23
961.805	3784.28
962.108	3709.48
962.411	3724.62
962.714	3685.3
963.017	3688.01
963.32	3683.72
963.623	3686.2
963.926	3641.01
964.228	3660.67
964.531	3614.34
964.833	3626.09
965.136	3572.76
965.438	3545.42
965.741	3508.58
966.043	3506.77
966.345	3492.54
966.648	3488.69
966.95	3525.08
967.252	3461.35
967.554	3508.81
967.856	3431.97
968.158	3445.98
968.46	3420.22
968.761	3406.66
969.063	3318.75
969.365	3372.99
969.666	3361.47
969.968	3334.8
970.269	3314.69
970.571	3290.73
970.872	3297.96
971.174	3301.58
971.475	3264.97
971.776	3278.3
972.077	3257.06
972.378	3197.18
972.679	3232.88
972.98	3202.6
973.281	3152.43
973.582	3137.29
973.883	3175.03
974.183	3156.72
974.484	3123.05
974.785	3118.99
975.085	3122.6
975.386	3104.52
975.686	3058.65
975.986	3076.73
976.287	3044.41
976.587	3037.41
976.887	3039.44
977.187	3010.29
977.487	3013.45
977.787	2970.74
978.087	2991.53
978.387	2952.44
978.687	2962.38
978.987	2942.27
979.286	2921.7
979.586	2895.49
979.885	2878.54
980.185	2865.66
980.484	2872.66
980.784	2838.54
981.083	2837.64
981.382	2804.42
981.682	2798.77
981.981	2774.14
982.28	2795.15
982.579	2746.34
982.878	2759.22
983.177	2765.55
983.475	2724.65
983.774	2745.44
984.073	2710.86
984.372	2706.79
984.67	2712.44
984.969	2673.35
985.267	2689.84
985.566	2668.83
985.864	2662.95
986.162	2646.68
986.461	2614.14
986.759	2640.35
987.057	2584.54
987.355	2538.44
987.653	2594.71
987.951	2592.9
988.249	2557.64
988.547	2542.5
988.844	2552
989.142	2509.28
989.44	2471.32
989.737	2468.83
990.035	2486.23
990.332	2448.04
990.63	2455.95
990.927	2449.4
991.224	2422.96
991.521	2407.59
991.819	2416.86
992.116	2442.17
992.413	2386.35
992.71	2385.22
993.006	2361.49
993.303	2356.52
993.6	2371.66
993.897	2334.15
994.193	2322.17
994.49	2303.87
994.787	2301.61
995.083	2312.45
995.379	2271.78
995.676	2262.51
995.972	2257.31
996.268	2252.57
996.565	2207.37
996.861	2236.98
997.157	2214.38
997.453	2258.22
997.749	2190.87
998.044	2204.21
998.34	2176.64
998.636	2136.19
998.932	2163.53
999.227	2135.06
999.523	2146.13
999.818	2159.46
1000.114	2125.11
1000.409	2074.27
1000.704	2082.63
1001	2087.15
1001.295	2057.32
1001.59	2048.96
1001.885	2084.44
1002.18	2010.54
1002.475	2014.83
1002.77	1998.34
1003.065	2014.83
1003.359	2012.57
1003.654	1983.87
1003.949	1949.98
1004.243	1961.05
1004.538	1951.78
1004.832	1937.32
1005.127	1914.5
1005.421	1923.54
1005.715	1904.1
1006.009	1906.81
1006.304	1884.22
1006.598	1900.49
1006.892	1869.75
1007.186	1839.47
1007.48	1837.21
1007.773	1819.36
1008.067	1808.96
1008.361	1816.87
1008.655	1786.82
1008.948	1790.43
1009.242	1782.75
1009.535	1789.53
1009.829	1747.27
1010.122	1735.07
1010.415	1768.29
1010.708	1726.03
1011.001	1733.26
1011.295	1694.39
1011.588	1666.37
1011.881	1688.74
1012.173	1668.4
1012.466	1689.42
1012.759	1663.66
1013.052	1641.51
1013.344	1632.47
1013.637	1632.92
1013.93	1615.3
1014.222	1591.57
1014.514	1615.07
1014.807	1627.05
1015.099	1580.95
1015.391	1608.52
1015.683	1568.07
1015.976	1549.31
1016.268	1530.55
1016.56	1538.24
1016.851	1509.54
1017.143	1522.64
1017.435	1533.94
1017.727	1498.01
1018.018	1491.46
1018.31	1499.37
1018.602	1476.77
1018.893	1462.53
1019.185	1463.21
1019.476	1446.04
1019.767	1447.17
1020.058	1403.32
1020.35	1431.8
1020.641	1427.05
1020.932	1411.23
1021.223	1396.09
1021.514	1373.72
1021.804	1376.88
1022.095	1382.76
1022.386	1348.18
1022.677	1361.97
1022.967	1322.87
1023.258	1326.04
1023.548	1323.55
1023.839	1310.45
1024.129	1325.81
1024.419	1292.59
1024.709	1287.4
1025	1281.75
1025.29	1276.77
1025.58	1274.51
1025.87	1236.1
1026.16	1260.96
1026.449	1215.98
1026.739	1245.36
1027.029	1221.86
1027.319	1208.75
1027.608	1182.31
1027.898	1202.2
1028.187	1180.05
1028.477	1192.03
1028.766	1168.08
1029.055	1148.42
1029.344	1149.09
1029.634	1142.99
1029.923	1135.76
1030.212	1145.03
1030.501	1137.34
1030.79	1131.47
1031.078	1103.67
1031.367	1106.16
1031.656	1101.86
1031.945	1095.76
1032.233	1091.92
1032.522	1084.69
1032.81	1072.26
1033.099	1052.83
1033.387	1038.81
1033.675	1045.37
1033.963	1052.37
1034.251	1052.83
1034.54	1040.17
1034.828	1008.53
1035.116	1007.18
1035.403	1029.1
1035.691	1022.77
1035.979	1014.86
1036.267	980.74
1036.554	999.27
1036.842	969.21
1037.129	984.58
1037.417	981.41
1037.704	958.14
1037.992	943.9
1038.279	938.93
1038.566	943.45
1038.853	943.45
1039.14	943.45
