Data from hue_50_FLMS001491_49.txt Node
Date: Mon Feb 06 15:10:12 GMT 2017
User: dcchb
Spectrometer: FLMS00149
Trigger mode: 0
Integration Time (sec): 2.000000E-2
Scans to average: 10
Electric dark correction enabled: true
Nonlinearity correction enabled: false
Boxcar width: 0
XAxis mode: Wavelengths
Number of Pixels in Spectrum: 2048
>>>>>Begin Spectral Data<<<<<
341.393	-17.68
341.776	-17.68
342.16	-17.68
342.543	-66.27
342.927	-59.26
343.31	-75.76
343.693	-53.39
344.077	-81.86
344.46	-59.26
344.843	-58.59
345.226	-46.83
345.61	-26.72
345.993	-24.91
346.376	-4.58
346.759	20.73
347.142	34.07
347.525	39.04
347.908	61.18
348.291	81.75
348.674	97.34
349.057	97.79
349.44	113.84
349.823	149.54
350.206	156.1
350.588	187.06
350.971	210.56
351.354	222.31
351.737	217.56
352.119	248.98
352.502	260.5
352.884	274.29
353.267	301.4
353.65	283.78
354.032	291.69
354.414	327.62
354.797	310.44
355.179	314.74
355.562	331.69
355.944	324
356.326	328.97
356.709	328.97
357.091	333.72
357.473	326.94
357.855	331.91
358.238	364.68
358.62	349.09
359.002	345.02
359.384	327.39
359.766	334.4
360.148	319.48
360.53	331.91
360.912	333.04
361.294	329.88
361.676	331.01
362.057	338.92
362.439	324.45
362.821	319.26
363.203	340.95
363.584	320.16
363.966	315.19
364.348	337.79
364.729	352.48
365.111	315.64
365.493	302.76
365.874	285.13
366.256	297.34
366.637	328.52
367.019	307.51
367.4	308.41
367.781	308.18
368.163	302.76
368.544	305.02
368.925	310.67
369.306	324.23
369.688	323.32
370.069	313.38
370.45	301.18
370.831	313.38
371.212	305.25
371.593	305.47
371.974	298.69
372.355	301.18
372.736	308.86
373.117	318.13
373.498	320.61
373.879	336.66
374.26	312.03
374.641	311.35
375.021	329.2
375.402	320.84
375.783	309.54
376.163	326.49
376.544	320.84
376.925	313.61
377.305	334.85
377.686	342.53
378.066	306.38
378.447	314.74
378.827	341.86
379.208	340.95
379.588	338.24
379.968	325.36
380.349	340.27
380.729	338.69
381.109	330.78
381.489	340.95
381.87	345.02
382.25	325.81
382.63	336.66
383.01	335.75
383.39	361.52
383.77	330.33
384.15	343.66
384.53	342.76
384.91	317
385.29	334.17
385.67	357
386.049	359.93
386.429	360.39
386.809	339.82
387.189	348.86
387.568	357
387.948	328.3
388.328	356.09
388.707	359.26
389.087	351.35
389.466	357.67
389.846	362.42
390.225	355.41
390.605	373.94
390.984	357.9
391.363	349.76
391.743	331.91
392.122	362.19
392.501	370.1
392.881	360.16
393.26	339.37
393.639	356.77
394.018	371.46
394.397	358.13
394.776	387.5
395.155	375.3
395.534	362.42
395.913	357.9
396.292	365.13
396.671	385.7
397.05	370.78
397.429	371.23
397.808	377.33
398.186	382.08
398.565	386.15
398.944	380.72
399.323	373.04
399.701	382.31
400.08	389.31
400.458	385.02
400.837	378.46
401.215	398.58
401.594	370.1
401.972	385.47
402.351	391.57
402.729	383.21
403.107	388.41
403.486	397.22
403.864	389.99
404.242	409.42
404.62	374.17
404.999	391.8
405.377	397.67
405.755	417.11
406.133	396.32
406.511	400.61
406.889	394.28
407.267	400.84
407.645	398.8
408.023	417.56
408.401	394.74
408.779	418.46
409.156	413.04
409.534	415.3
409.912	422.31
410.29	420.72
410.667	424.79
411.045	435.41
411.422	448.29
411.8	418.92
412.178	415.98
412.555	455.98
412.933	431.34
413.31	434.06
413.687	437.67
414.065	436.32
414.442	445.81
414.819	446.49
415.197	434.28
415.574	466.6
415.951	455.3
416.328	467.73
416.705	469.54
417.082	463.66
417.46	458.01
417.837	463.21
418.214	471.34
418.591	468.41
418.967	450.33
419.344	491.46
419.721	475.19
420.098	479.25
420.475	474.73
420.852	482.87
421.228	490.33
421.605	487.39
421.982	482.19
422.358	480.61
422.735	510.44
423.111	490.78
423.488	510.21
423.864	516.77
424.241	515.64
424.617	515.41
424.994	526.94
425.37	531.91
425.746	535.52
426.123	525.81
426.499	531.68
426.875	512.25
427.251	534.17
427.627	521.96
428.003	552.47
428.379	556.09
428.756	557.44
429.132	546.14
429.507	571.23
429.883	559.7
430.259	559.48
430.635	562.64
431.011	585.92
431.387	550.21
431.763	573.04
432.138	590.44
432.514	568.29
432.89	587.05
433.265	625.01
433.641	603.09
434.016	612.36
434.392	626.82
434.767	611.9
435.143	624.56
435.518	618.68
435.894	625.01
436.269	617.55
436.644	627.72
437.02	636.76
437.395	629.76
437.77	652.58
438.145	659.59
438.52	648.06
438.895	656.42
439.271	673.15
439.646	673.37
440.021	669.53
440.395	670.43
440.77	656.88
441.145	702.52
441.52	681.06
441.895	656.88
442.27	684.9
442.645	707.5
443.019	691.9
443.394	726.48
443.769	709.3
444.143	693.48
444.518	709.53
444.892	693.94
445.267	712.02
445.641	710.21
446.016	713.37
446.39	717.66
446.764	723.09
447.139	734.84
447.513	731.45
447.887	746.82
448.262	724.67
448.636	746.82
449.01	724.9
449.384	759.92
449.758	742.07
450.132	767.15
450.506	770.77
450.88	772.8
451.254	787.72
451.628	776.65
452.002	766.7
452.376	807.15
452.75	781.39
453.123	789.75
453.497	829.07
453.871	799.92
454.244	834.95
454.618	853.25
454.992	835.18
455.365	851.9
455.739	865.91
456.112	856.87
456.486	880.82
456.859	882.41
457.232	899.81
457.606	890.09
457.979	910.65
458.352	929.18
458.725	914.04
459.099	931.22
459.472	929.18
459.845	966.47
460.218	948.62
460.591	951.56
460.964	972.57
461.337	993.14
461.71	1001.05
462.083	1027.94
462.456	1003.98
462.829	1013.7
463.201	1036.53
463.574	1057.09
463.947	1063.19
464.32	1066.81
464.692	1097.54
465.065	1094.6
465.438	1116.52
465.81	1129.86
466.183	1138.9
466.555	1169.86
466.928	1180.7
467.3	1166.01
467.672	1200.59
468.045	1254.83
468.417	1235.17
468.789	1267.25
469.161	1270.42
469.534	1317.87
469.906	1310.64
470.278	1347.25
470.65	1349.29
471.022	1382.28
471.394	1424.31
471.766	1441.26
472.138	1458.44
472.51	1477.64
472.882	1527.59
473.253	1563.29
473.625	1571.2
473.997	1639.67
474.369	1674.7
474.74	1681.48
475.112	1710.63
475.484	1762.38
475.855	1815.71
476.227	1822.49
476.598	1870.85
476.97	1953.79
477.341	1981.36
477.713	2021.36
478.084	2078.31
478.455	2119.89
478.827	2186.1
479.198	2252.54
479.569	2294.57
479.94	2327.57
480.311	2471.29
480.682	2538.86
481.053	2586.77
481.424	2669.93
481.795	2747.67
482.166	2764.39
482.537	2851.85
482.908	2993.54
483.279	3012.07
483.65	3153.98
484.021	3248.9
484.391	3337.71
484.762	3382.23
485.133	3489.12
485.503	3583.58
485.874	3725.27
486.244	3784.7
486.615	3859.28
486.985	4007.07
487.356	4139.04
487.726	4221.75
488.097	4337.23
488.467	4375.2
488.837	4544.46
489.207	4700.84
489.578	4774.51
489.948	4894.05
490.318	4977.21
490.688	5118.45
491.058	5278.22
491.428	5390.76
491.798	5469.18
492.168	5688.16
492.538	5756.63
492.908	5915.49
493.278	6015.15
493.648	6147.35
494.017	6279.33
494.387	6392.77
494.757	6500.79
495.126	6711.18
495.496	6732.65
495.866	6858.29
496.235	7015.8
496.605	7161.34
496.974	7325.17
497.344	7399.52
497.713	7514.77
498.082	7562.23
498.452	7757.93
498.821	7875.22
499.19	7936.68
499.559	8114.76
499.928	8184.36
500.298	8271.14
500.667	8448.99
501.036	8445.82
501.405	8725.59
501.774	8712.93
502.143	8851.01
502.512	9008.97
502.88	9095.52
503.249	9160.38
503.618	9349.08
503.987	9413.71
504.356	9514.95
504.724	9584.78
505.093	9742.74
505.462	9817.76
505.83	9980.92
506.199	10061.6
506.567	10152.22
506.936	10230.63
507.304	10380.69
507.672	10502.27
508.041	10547.69
508.409	10718.98
508.777	10796.5
509.145	10925.31
509.514	10979.99
509.882	11089.14
510.25	11167.56
510.618	11283.04
510.986	11351.06
511.354	11497.04
511.722	11611.84
512.09	11760.76
512.458	11728
512.826	11907.88
513.193	11978.16
513.561	12100.64
513.929	12160.98
514.297	12356.23
514.664	12507.86
515.032	12468.77
515.4	12642.55
515.767	12693.4
516.135	12787.4
516.502	12712.83
516.869	12988.75
517.237	13102.88
517.604	13049.09
517.972	13242.08
518.339	13374.28
518.706	13373.15
519.073	13484.33
519.44	13584.9
519.808	13712.58
520.175	13754.61
520.542	13915.74
520.909	13979.46
521.276	13999.35
521.643	14239.57
522.009	14337.42
522.376	14434.82
522.743	14512.78
523.11	14676.85
523.477	14781.48
523.843	14914.35
524.21	15079.1
524.577	15188.24
524.943	15223.5
525.31	15263.95
525.676	15511.63
526.043	15538.07
526.409	15607.22
526.776	15714.11
527.142	15766.99
527.508	15918.4
527.874	16033.19
528.241	16162.46
528.607	16289.46
528.973	16410.36
529.339	16452.84
529.705	16586.17
530.071	16608.55
530.437	16717.24
530.803	16905.71
531.169	17113.39
531.535	16963.34
531.901	17063
532.267	17269.32
532.632	17255.76
532.998	17335.76
533.364	17390.45
533.73	17534.4
534.095	17647.62
534.461	17675.41
534.826	17830.66
535.192	17894.16
535.557	18011.67
535.923	18011.9
536.288	18019.58
536.653	18182.74
537.019	18186.58
537.384	18223.65
537.749	18403.53
538.114	18478.1
538.479	18509.97
538.845	18524.43
539.21	18523.98
539.575	18620.02
539.94	18715.16
540.305	18809.17
540.67	18849.84
541.034	18912.89
541.399	19074.92
541.764	19081.48
542.129	19116.05
542.494	19154.69
542.858	19269.04
543.223	19318.76
543.587	19406.66
543.952	19470.84
544.316	19552.42
544.681	19674
545.045	19661.8
545.41	19695.7
545.774	19777.05
546.138	19790.84
546.503	19975.01
546.867	19956.48
547.231	20110.15
547.595	20055.46
547.959	20189.92
548.324	20245.96
548.688	20317.15
549.052	20332.97
549.416	20359.86
549.779	20471.27
550.143	20525.51
550.507	20671.94
550.871	20745.39
551.235	20773.63
551.599	20897.47
551.962	20949.9
552.326	20947.87
552.689	21116.22
553.053	21005.94
553.417	21162.1
553.78	21399.38
554.143	21317.8
554.507	21449.1
554.87	21531.35
555.234	21750.78
555.597	21623.56
555.96	21691.58
556.323	21830.78
556.686	21798.47
557.05	21974.05
557.413	22141.51
557.776	22071.45
558.139	22239.58
558.502	22301.28
558.865	22360.94
559.228	22546.02
559.59	22609.29
559.953	22726.13
560.316	22837.76
560.679	22789.63
561.041	23016.97
561.404	23042.28
561.767	23230.07
562.129	23123.18
562.492	23407.01
562.854	23329.27
563.217	23418.76
563.579	23561.13
563.941	23737.62
564.304	23737.4
564.666	23866.21
565.028	24041.12
565.39	24103.72
565.753	24138.29
566.115	24275.46
566.477	24376.25
566.839	24338.74
567.201	24530.15
567.563	24606.75
567.925	24838.84
568.287	24796.58
568.648	24899.85
569.01	24934.88
569.372	25123.8
569.734	25074.99
570.095	25215.33
570.457	25357.24
570.819	25391.82
571.18	25487.41
571.542	25640.63
571.903	25731.7
572.265	25809.66
572.626	25957.45
572.987	25938.24
573.349	26090.56
573.71	26190.22
574.071	26249.65
574.432	26383.66
574.794	26612.58
575.155	26554.73
575.516	26445.58
575.877	26622.52
576.238	26745
576.599	26947.48
576.96	26997.2
577.32	27031.32
577.681	27142.73
578.042	27246.68
578.403	27342.95
578.763	27289.4
579.124	27424.08
579.485	27647.35
579.845	27825.43
580.206	27744.98
580.566	27773.9
580.927	27820.45
581.287	28038.08
581.648	27974.58
582.008	28282.36
582.368	28121.69
582.728	28354.45
583.089	28401.68
583.449	28558.97
583.809	28606.42
584.169	28787.66
584.529	28820.43
584.889	29067.43
585.249	28928
585.609	28972.06
585.969	29224.71
586.329	29204.15
586.688	29441.43
587.048	29498.83
587.408	29375.44
587.768	29551.03
588.127	29655.89
588.487	29783.34
588.846	29919.83
589.206	29871.7
589.565	29862.89
589.925	30235.31
590.284	30206.38
590.643	30421.74
591.003	30515.07
591.362	30662.19
591.721	30659.93
592.08	30639.36
592.44	30981.28
592.799	30945.8
593.158	30846.59
593.517	31059.01
593.876	31321.83
594.235	31245.9
594.593	31327.03
594.952	31473.01
595.311	31421.26
595.67	31615.84
596.029	31854.93
596.387	31766.34
596.746	31928.82
597.104	32032.1
597.463	31976.73
597.822	32158.42
598.18	32158.19
598.538	32039.33
598.897	32369.04
599.255	32275.71
599.613	32731.06
599.972	32645.64
600.33	32806.99
600.688	32604.28
601.046	32859.64
601.404	33137.38
601.762	33130.6
602.12	33213.99
602.478	33258.96
602.836	33297.6
603.194	33228.22
603.552	33394.09
603.91	33315.9
604.268	33577.37
604.625	33610.36
604.983	33630.47
605.341	33561.09
605.698	33819.85
606.056	33912.5
606.413	33919.05
606.771	34069.33
607.128	34202.66
607.485	33981.87
607.843	34103.68
608.2	34426.16
608.557	34519.26
608.914	34300.51
609.272	34537.57
609.629	34675.64
609.986	34745.92
610.343	34809.2
610.7	34927.84
611.057	34863.66
611.414	34993.6
611.771	35104.56
612.127	35166.93
612.484	35250.99
612.841	35347.04
613.198	35257.55
613.554	35388.84
613.911	35519.24
614.267	35687.82
614.624	35666.12
614.98	35708.16
615.337	35829.74
615.693	35825.67
616.05	35880.13
616.406	36041.71
616.762	35950.18
617.118	35921.71
617.475	36038.09
617.831	36247.58
618.187	36167.35
618.543	36219.33
618.899	36345.2
619.255	36428.14
619.611	36337.75
619.967	36607.12
620.323	36602.37
620.678	36483.5
621.034	36558.53
621.39	36717.4
621.746	36554.24
622.101	36956.94
622.457	36564.86
622.812	36766.21
623.168	36809.15
623.523	36868.35
623.879	37023.15
624.234	36802.37
624.589	37060.21
624.945	37027.44
625.3	37043.26
625.655	37162.58
626.01	37213.88
626.365	37192.41
626.72	37180.21
627.075	37130.94
627.43	37107.44
627.785	37097.27
628.14	37205.29
628.495	37321
628.85	37200.32
629.205	37179.08
629.559	37240.09
629.914	37208.46
630.269	37250.94
630.623	37204.61
630.978	37055.01
631.332	37184.5
631.687	37347.66
632.041	37281
632.396	37217.04
632.75	37114.9
633.104	37090.72
633.459	37092.75
633.813	36970.72
634.167	37006.2
634.521	37170.27
634.875	37112.64
635.229	37129.14
635.583	36907.9
635.937	36832.87
636.291	36914.23
636.645	36942.02
636.999	36857.96
637.352	37046.43
637.706	36742.25
638.06	36934.34
638.413	36852.31
638.767	36737.51
639.121	36838.07
639.474	36642.6
639.828	36728.7
640.181	36704.74
640.534	36820.44
640.888	36506.78
641.241	36543.39
641.594	36634.69
641.947	36645.53
642.301	36555.37
642.654	36560.56
643.007	36653.22
643.36	36450.06
643.713	36548.36
644.066	36631.3
644.419	36451.87
644.771	36116.06
645.124	35742.28
645.477	35903.41
645.83	35541.83
646.182	35415.96
646.535	35252.8
646.888	35486.24
647.24	35280.6
647.593	35392.01
647.945	35354.27
648.298	35199.92
648.65	35185.23
649.002	35048.74
649.355	35325.79
649.707	35120.15
650.059	35329.18
650.411	35692.34
650.763	35765.1
651.115	36083.74
651.467	35940.92
651.819	36088.94
652.171	35927.81
652.523	35923.07
652.875	35876.29
653.227	35748.16
653.578	35937.98
653.93	35894.82
654.282	35720.59
654.633	35731.66
654.985	35762.17
655.337	35744.31
655.688	35696.86
656.039	35911.32
656.391	35541.61
656.742	35586.13
657.094	35663.19
657.445	35794.93
657.796	35704.32
658.147	35688.72
658.498	35413.48
658.849	35709.74
659.2	35673.81
659.551	35433.59
659.902	35675.16
660.253	35513.13
660.604	35599.46
660.955	35321.95
661.306	35557.2
661.656	35492.57
662.007	35369.63
662.358	35509.97
662.708	35382.06
663.059	35379.8
663.409	35231.79
663.76	35294.61
664.11	35541.61
664.461	35401.72
664.811	35444.21
665.161	35429.07
665.511	35178.23
665.862	35359.01
666.212	35370.54
666.562	35483.53
666.912	35343.87
667.262	35446.7
667.612	35341.39
667.962	35490.99
668.312	35344.78
668.662	35430.88
669.011	35461.16
669.361	35414.61
669.711	35175.97
670.06	35333.7
670.41	35162.86
670.76	35189.98
671.109	35196.31
671.459	35197.66
671.808	35280.6
672.157	35335.29
672.507	34991.79
672.856	35023.88
673.205	35119.92
673.554	35134.84
673.904	34994.28
674.253	35188.17
674.602	34968.97
674.951	34471.81
675.3	34487.17
675.649	34939.14
675.998	34848.29
676.346	34930.78
676.695	34962.87
677.044	34680.16
677.393	34876.09
677.741	34877.44
678.09	34735.53
678.438	34783.89
678.787	34860.27
679.135	34751.35
679.484	34537.79
679.832	34694.62
680.181	34444.69
680.529	34719.71
680.877	34513.39
681.225	34361.53
681.573	34635.42
681.922	34411.02
682.27	34367.63
682.618	34270.91
682.966	34320.62
683.314	34330.57
683.661	34110.46
684.009	34163.56
684.357	34015.77
684.705	33801.31
685.053	33978.94
685.4	33864.14
685.748	33809.22
686.095	33856.91
686.443	33652.17
686.79	33705.5
687.138	33661.88
687.485	33678.15
687.832	33552.96
688.18	33626.63
688.527	33328.11
688.874	33356.13
689.221	33374.89
689.568	33244.27
689.915	33152.97
690.262	33242.46
690.609	32998.62
690.956	33007.66
691.303	32929.47
691.65	32653.55
691.997	32733.09
692.344	32615.81
692.69	32530.61
693.037	32627.33
693.383	32270.28
693.73	32430.5
694.077	32273.67
694.423	32279.32
694.769	32094.01
695.116	31948.03
695.462	32038.42
695.808	31802.27
696.155	32030.29
696.501	31730.63
696.847	31785.1
697.193	31567.93
697.539	31617.64
697.885	31496.74
698.231	31398.44
698.577	31350.53
698.923	31271.89
699.269	31161.16
699.614	30965.46
699.96	30983.76
700.306	30989.64
700.651	30733.82
700.997	30828.06
701.342	30691.57
701.688	30596.65
702.033	30443.21
702.379	30519.37
702.724	30457
703.069	30510.1
703.415	30057.01
703.76	30119.6
704.105	30119.6
704.45	30138.59
704.795	29834.41
705.14	29842.1
705.485	29940.63
705.83	29679.39
706.175	29694.76
706.52	29684.13
706.865	29579.05
707.209	29480.52
707.554	29323.47
707.899	29494.31
708.243	29336.57
708.588	29312.17
708.932	29025.62
709.277	28984.94
709.621	29011.16
709.966	28812.52
710.31	28935.45
710.654	28736.14
710.998	28834.67
711.342	28691.62
711.687	28646.65
712.031	28607.1
712.375	28409.82
712.719	28471.29
713.063	28434.68
713.407	28441.46
713.75	28232.2
714.094	28253.21
714.438	28166.66
714.782	28195.13
715.125	28093.89
715.469	28031.3
715.812	27911.07
716.156	27781.13
716.499	27868.36
716.843	27889.15
717.186	27689.38
717.53	27811.19
717.873	27782.26
718.216	27593.34
718.559	27587.24
718.902	27448.71
719.246	27463.85
719.589	27361.48
719.932	27251.66
720.275	27387.47
720.617	27217.76
720.96	27135.73
721.303	27132.56
721.646	27278.77
721.989	26978.9
722.331	27055.73
722.674	27013.47
723.016	27032.91
723.359	26966.47
723.701	26941.38
724.044	26719.69
724.386	26741.84
724.729	26847.37
725.071	26734.16
725.413	26605.8
725.755	26691.67
726.097	26471.56
726.439	26449.64
726.782	26468.85
727.124	26542.52
727.465	26352.92
727.807	26395.41
728.149	26300.95
728.491	26306.6
728.833	26324.45
729.175	26199.71
729.516	26104.34
729.858	26147.73
730.199	26105.7
730.541	26134.85
730.882	26024.12
731.224	26090.1
731.565	25895.53
731.906	25933.95
732.248	25880.62
732.589	25823.22
732.93	25691.25
733.271	25675.65
733.612	25809.21
733.953	25841.98
734.294	25574.64
734.635	25660.51
734.976	25650.57
735.317	25397.69
735.658	25503
735.999	25483.57
736.339	25379.84
736.68	25458.48
737.021	25387.3
737.361	25275.89
737.702	25412.83
738.042	25265.72
738.383	25249.9
738.723	25209.68
739.063	25155.44
739.404	25157.7
739.744	25121.54
740.084	25019.62
740.424	25024.6
740.764	24987.31
741.104	25025.05
741.444	24882
741.784	24873.41
742.124	24838.84
742.464	24748.22
742.804	24814.21
743.143	24749.58
743.483	24764.49
743.823	24505.06
744.162	24644.27
744.502	24607.88
744.841	24439.75
745.181	24592.97
745.52	24442.92
745.86	24604.04
746.199	24394.33
746.538	24317.27
746.877	24525.17
747.216	24437.95
747.556	24271.85
747.895	24437.72
748.234	24183.49
748.573	24211.06
748.911	24134.45
749.25	24063.72
749.589	23991.4
749.928	24131.51
750.267	24087.67
750.605	23826.21
750.944	24013.55
751.283	23861.69
751.621	23908.69
751.96	23724.97
752.298	23818.53
752.636	23736.27
752.975	23578.76
753.313	23569.49
753.651	23641.36
753.989	23557.97
754.327	23514.81
754.666	23328.6
755.004	23417.18
755.342	23414.92
755.679	23343.28
756.017	23196.17
756.355	23401.14
756.693	23226.68
757.031	23209.5
757.368	22945.78
757.706	23031.43
758.044	22971.09
758.381	22955.05
758.719	22844.77
759.056	22775.84
759.394	22785.33
759.731	22596.41
760.068	22583.3
760.405	22462.18
760.743	22393.7
761.08	22409.98
761.417	22335.85
761.754	22323.2
762.091	22274.84
762.428	22145.35
762.765	22034.84
763.102	22037.33
763.438	21858.58
763.775	21833.04
764.112	21867.62
764.449	21933.38
764.785	21823.55
765.122	21567.06
765.458	21555.08
765.795	21527.51
766.131	21582.43
766.467	21414.75
766.804	21347.18
767.14	21222.89
767.476	21200.97
767.812	21171.59
768.148	21128.88
768.485	21014.53
768.821	20742
769.157	20915.78
769.492	20780.19
769.828	20743.35
770.164	20487.77
770.5	20512.85
770.836	20530.48
771.171	20421.55
771.507	20340.65
771.842	20239.41
772.178	20177.27
772.513	20180.88
772.849	20082.35
773.184	19930.49
773.519	19931.4
773.855	19904.05
774.19	19760.1
774.525	19678.52
774.86	19642.59
775.195	19645.98
775.53	19582.93
775.865	19486.44
776.2	19305.65
776.535	19197.63
776.87	19201.25
777.205	19181.13
777.539	19162.6
777.874	19055.71
778.209	18969.61
778.543	18924.19
778.878	18822.27
779.212	18787.02
779.547	18682.39
779.881	18745.21
780.215	18526.91
780.55	18622.5
780.884	18446.69
781.218	18440.14
781.552	18439.46
781.886	18351.1
782.22	18212.35
782.554	18215.51
782.888	18003.54
783.222	17990.88
783.556	17952.24
783.889	17793.37
784.223	17736.2
784.557	17680.38
784.89	17805.13
785.224	17555.41
785.557	17479.94
785.891	17541.18
786.224	17442.2
786.558	17376.89
786.891	17204.69
787.224	17206.27
787.557	17100.06
787.891	17065.71
788.224	17045.82
788.557	17082.21
788.89	17033.85
789.223	16984.36
789.556	16803.8
789.888	16825.72
790.221	16689
790.554	16642.44
790.887	16631.82
791.219	16564.25
791.552	16470.02
791.884	16395.9
792.217	16330.59
792.549	16348.67
792.882	16191.61
793.214	16031.84
793.546	16117.03
793.879	15975.34
794.211	15947.09
794.543	15995.68
794.875	15901.9
795.207	15952.52
795.539	15925.17
795.871	15792.52
796.203	15668.23
796.535	15658.97
796.867	15502.13
797.198	15511.4
797.53	15551.62
797.862	15370.16
798.193	15436.6
798.525	15371.06
798.856	15363.61
799.188	15161.8
799.519	15103.05
799.85	15101.92
800.182	15072.77
800.513	15110.28
800.844	14856.95
801.175	15000.23
801.506	15019.21
801.837	14857.41
802.168	14882.26
802.499	14823.73
802.83	14728.82
803.161	14665.09
803.491	14713.91
803.822	14569.73
804.153	14553.23
804.483	14433.69
804.814	14455.61
805.145	14359.11
805.475	14461.03
805.805	14327.25
806.136	14343.07
806.466	14309.4
806.796	14217.2
807.126	14097.43
807.457	14232.11
807.787	14150.31
808.117	14067.14
808.447	13975.62
808.777	13994.6
809.107	13990.76
809.436	13848.84
809.766	13957.54
810.096	13841.39
810.426	13741.05
810.755	13787.83
811.085	13708.74
811.414	13700.37
811.744	13640.04
812.073	13554.39
812.403	13565.69
812.732	13594.16
813.061	13521.17
813.39	13401.63
813.719	13516.88
814.049	13513.71
814.378	13379.03
814.707	13305.58
815.036	13354.39
815.365	13245.02
815.693	13188.75
816.022	13157.11
816.351	13143.78
816.68	12955.08
817.008	13135.19
817.337	12998.47
817.665	12955.08
817.994	13002.09
818.322	12957.79
818.651	12939.94
818.979	12820.17
819.307	12888.64
819.636	12823.79
819.964	12785.14
820.292	12797.8
820.62	12892.03
820.948	12693.62
821.276	12730.91
821.604	12744.69
821.932	12761.19
822.259	12732.26
822.587	12688.42
822.915	12607.52
823.243	12736.78
823.57	12685.49
823.898	12712.15
824.225	12597.58
824.553	12650.46
824.88	12704.02
825.207	12692.94
825.535	12688.2
825.862	12645.49
826.189	12611.59
826.516	12643
826.843	12694.52
827.17	12674.86
827.497	12644.36
827.824	12618.14
828.151	12673.96
828.478	12564.81
828.805	12621.31
829.131	12645.49
829.458	12520.97
829.785	12517.13
830.111	12600.52
830.438	12638.48
830.764	12640.06
831.09	12613.4
831.417	12566.17
831.743	12646.84
832.069	12541.31
832.395	12426.96
832.722	12572.27
833.048	12558.26
833.374	12502.44
833.7	12501.54
834.026	12502.21
834.351	12522.33
834.677	12468.99
835.003	12570.23
835.329	12469.45
835.654	12462.21
835.98	12351.03
836.306	12394.42
836.631	12398.94
836.956	12358.94
837.282	12411.37
837.607	12374.08
837.932	12294.54
838.258	12260.41
838.583	12275.55
838.908	12218.61
839.233	12303.8
839.558	12135.44
839.883	12164.37
840.208	12129.34
840.533	12126.86
840.858	12143.8
841.182	12099.29
841.507	12091.15
841.832	12020.19
842.156	12044.37
842.481	12058.16
842.805	11988.1
843.13	11938.39
843.454	11849.35
843.778	11836.69
844.103	11834.21
844.427	11804.38
844.751	11735
845.075	11800.31
845.399	11711.05
845.723	11629.24
846.047	11615.68
846.371	11594.89
846.695	11579.53
847.019	11465.18
847.343	11461.56
847.666	11421.79
847.99	11420.21
848.313	11355.13
848.637	11321.91
848.96	11243.04
849.284	11257.95
849.607	11181.34
849.931	11128.92
850.254	11107
850.577	11033.55
850.9	10929.6
851.223	10919.88
851.546	10782.94
851.869	10734.8
852.192	10772.77
852.515	10752.66
852.838	10667.91
853.161	10667.23
853.483	10625.88
853.806	10619.55
854.129	10601.02
854.451	10588.37
854.774	10476.73
855.096	10445.32
855.419	10406
855.741	10479.89
856.063	10408.94
856.385	10356.51
856.708	10269.28
857.03	10226.12
857.352	10252.1
857.674	10230.86
857.996	10194.7
858.318	10036.97
858.64	10086.46
858.961	10071.32
859.283	10055.72
859.605	9976.86
859.926	9983.64
860.248	10040.36
860.57	9994.26
860.891	10000.81
861.212	9952.68
861.534	9926.24
861.855	9874.26
862.176	9874.49
862.498	9838.78
862.819	9816.41
863.14	9813.02
863.461	9721.27
863.782	9768.5
864.103	9788.16
864.424	9707.48
864.745	9757.2
865.065	9695.06
865.386	9713.81
865.707	9606.02
866.027	9644.66
866.348	9637.2
866.668	9656.19
866.989	9585
867.309	9494.16
867.63	9534.61
867.95	9519.47
868.27	9448.06
868.59	9487.15
868.91	9426.81
869.23	9443.54
869.55	9414.39
869.87	9429.07
870.19	9366.7
870.51	9386.14
870.83	9448.51
871.15	9316.08
871.469	9267.04
871.789	9307.04
872.109	9354.95
872.428	9279.02
872.748	9350.21
873.067	9257.55
873.386	9251.68
873.706	9222.53
874.025	9208.51
874.344	9165.35
874.663	9202.64
874.982	9133.94
875.301	9161.06
875.62	9129.42
875.939	9051.68
876.258	9075.64
876.577	9067.95
876.896	9057.11
877.214	8981.18
877.533	9027.5
877.852	9025.92
878.17	9052.13
878.489	8981.4
878.807	9070.67
879.125	8972.14
879.444	8959.71
879.762	8914.96
880.08	8932.14
880.398	8906.83
880.716	8950.22
881.034	8841.74
881.352	8901.18
881.67	8828.86
881.988	8793.61
882.306	8778.02
882.624	8744.8
882.941	8698.25
883.259	8701.86
883.577	8745.7
883.894	8667.06
884.212	8654.41
884.529	8701.64
884.846	8620.51
885.164	8609.21
885.481	8590.23
885.798	8615.08
886.115	8563.56
886.432	8597.01
886.75	8486.05
887.067	8469.33
887.383	8376.45
887.7	8392.72
888.017	8450.57
888.334	8382.55
888.651	8421.87
888.967	8321.53
889.284	8329.67
889.6	8348.88
889.917	8301.42
890.233	8265.94
890.55	8171.71
890.866	8262.55
891.182	8222.78
891.498	8236.56
891.815	8115.21
892.131	8117.47
892.447	8119.05
892.763	8088.54
893.079	8120.63
893.395	8070.47
893.71	8030.47
894.026	7949.56
894.342	7972.39
894.657	7916.12
894.973	7907.08
895.289	7917.93
895.604	7834.77
895.92	7790.47
896.235	7852.17
896.55	7799.96
896.865	7792.73
897.181	7790.7
897.496	7730.59
897.811	7738.27
898.126	7623.25
898.441	7623.25
898.756	7618.5
899.071	7624.83
899.386	7533.53
899.7	7509.12
900.015	7460.31
900.33	7445.62
900.644	7449.24
900.959	7379.64
901.273	7388
901.588	7402.46
901.902	7351.39
902.216	7314.1
902.531	7259.64
902.845	7330.15
903.159	7185.29
903.473	7195.91
903.787	7168.34
904.101	7129.02
904.415	7121.56
904.729	7056.93
905.042	7041.11
905.356	7056.93
905.67	7063.49
905.984	7004.51
906.297	6969.25
906.611	6910.72
906.924	6962.7
907.237	6896.94
907.551	6909.14
907.864	6873.44
908.177	6861.68
908.491	6852.64
908.804	6726.09
909.117	6723.38
909.43	6704.63
909.743	6728.13
910.056	6675.25
910.368	6612.88
910.681	6622.37
910.994	6583.27
911.307	6553.44
911.619	6477.06
911.932	6502.37
912.244	6470.96
912.557	6484.74
912.869	6453.33
913.181	6434.8
913.494	6375.14
913.806	6406.55
914.118	6316.39
914.43	6320.23
914.742	6327.01
915.054	6274.81
915.366	6231.87
915.678	6214.24
915.99	6120.23
916.302	6106.45
916.613	6089.27
916.925	6134.47
917.236	6062.38
917.548	6013.12
917.859	6048.15
918.171	5999.33
918.482	5959.56
918.794	5896.51
919.105	5851.99
919.416	5892.44
919.727	5841.6
920.038	5846.8
920.349	5800.92
920.66	5786.91
920.971	5762.28
921.282	5791.88
921.593	5708.04
921.903	5666.91
922.214	5663.52
922.525	5675.27
922.835	5678.21
923.146	5594.37
923.456	5555.05
923.767	5550.53
924.077	5588.5
924.387	5490.42
924.697	5506.47
925.008	5491.78
925.318	5449.74
925.628	5407.26
925.938	5405.23
926.248	5318.67
926.558	5342.18
926.867	5332.23
927.177	5325
927.487	5292.23
927.796	5242.07
928.106	5214.5
928.416	5221.95
928.725	5235.74
929.034	5166.14
929.344	5220.15
929.653	5143.99
929.962	5095.63
930.271	5047.72
930.581	5082.75
930.89	5039.59
931.199	5048.62
931.508	4998.23
931.817	5008.85
932.125	4953.26
932.434	4945.8
932.743	4892.47
933.051	4916.65
933.36	4897.67
933.669	4833.26
933.977	4797.33
934.286	4823.77
934.594	4805.24
934.902	4765.92
935.21	4733.83
935.519	4750.78
935.827	4756.2
936.135	4628.75
936.443	4620.16
936.751	4619.71
937.059	4623.55
937.367	4627.62
937.674	4569.54
937.982	4598.47
938.29	4564.12
938.597	4550.56
938.905	4530.67
939.213	4500.39
939.52	4470.33
939.827	4446.61
940.135	4460.84
940.442	4431.24
940.749	4437.57
941.056	4403.44
941.363	4341.75
941.67	4355.08
941.977	4355.31
942.284	4292.71
942.591	4256.1
942.898	4276.44
943.205	4273.96
943.511	4239.15
943.818	4250.68
944.125	4184.69
944.431	4209.78
944.738	4199.16
945.044	4153.05
945.35	4154.64
945.657	4117.58
945.963	4123
946.269	4066.73
946.575	4061.08
946.881	4053.17
947.187	4042.32
947.493	4017.69
947.799	3963
948.105	3986.05
948.41	3957.81
948.716	3951.48
949.022	3910.35
949.327	3924.59
949.633	3855.66
949.938	3888.2
950.244	3854.76
950.549	3821.54
950.854	3831.26
951.16	3811.14
951.465	3792.61
951.77	3775.44
952.075	3743.35
952.38	3736.34
952.685	3739.05
952.99	3739.05
953.294	3714.87
953.599	3639.17
953.904	3678.26
954.209	3645.72
954.513	3657.7
954.818	3616.12
955.122	3594.88
955.426	3608.89
955.731	3575.44
956.035	3552.39
956.339	3533.18
956.643	3539.51
956.948	3502.68
957.252	3468.33
957.556	3496.12
957.86	3469.68
958.163	3473.07
958.467	3439.4
958.771	3433.75
959.075	3406.41
959.378	3376.13
959.682	3365.73
959.985	3376.13
960.289	3327.99
960.592	3344.04
960.896	3316.24
961.199	3310.36
961.502	3306.07
961.805	3321.89
962.108	3276.02
962.411	3265.17
962.714	3209.12
963.017	3246.86
963.32	3179.97
963.623	3204.15
963.926	3188.11
964.228	3166.19
964.531	3123.7
964.833	3162.35
965.136	3166.41
965.438	3045.74
965.741	3099.07
966.043	3085.29
966.345	3047.55
966.648	3056.81
966.95	3046.64
967.252	3049.58
967.554	3033.99
967.856	3041.9
968.158	3004.38
968.46	3016.81
968.761	2985.4
969.063	2988.79
969.365	2946.76
969.666	2964.84
969.968	2901.56
970.269	2904.95
970.571	2895.91
970.872	2878.96
971.174	2870.15
971.475	2891.39
971.776	2852.75
972.077	2812.98
972.378	2815.91
972.679	2809.36
972.98	2829.02
973.281	2812.07
973.582	2769.14
973.883	2753.32
974.183	2775.01
974.484	2709.02
974.785	2754.9
975.085	2732.3
975.386	2712.41
975.686	2714
975.986	2688.01
976.287	2706.31
976.587	2642.36
976.887	2635.35
977.187	2621.34
977.487	2630.61
977.787	2599.42
978.087	2598.52
978.387	2612.53
978.687	2592.42
978.987	2597.62
979.286	2543.83
979.586	2539.09
979.885	2532.31
980.185	2502.7
980.484	2526.43
980.784	2502.7
981.083	2507.22
981.382	2458.64
981.682	2449.6
981.981	2472.19
982.28	2436.94
982.579	2441.24
982.878	2440.56
983.177	2419.77
983.475	2401.69
983.774	2380.22
984.073	2404.63
984.372	2396.72
984.67	2385.42
984.969	2363.95
985.267	2347.9
985.566	2336.83
985.864	2313.33
986.162	2331.41
986.461	2307.68
986.759	2274.01
987.057	2300.22
987.355	2282.37
987.653	2244.18
987.951	2248.25
988.249	2243.05
988.547	2221.81
988.844	2210.28
989.142	2226.33
989.44	2209.83
989.737	2237.85
990.035	2171.19
990.332	2182.48
990.63	2153.56
990.927	2172.77
991.224	2117.4
991.521	2118.98
991.819	2128.93
992.116	2114.69
992.413	2080.57
992.71	2088.48
993.006	2091.19
993.303	2091.87
993.6	2057.06
993.897	2073.79
994.193	2044.86
994.49	2043.51
994.787	2061.13
995.083	2015.26
995.379	1993.79
995.676	2010.06
995.972	1986.78
996.268	2002.38
996.565	1994.24
996.861	1993.56
997.157	1949.72
997.453	1936.62
997.749	1949.04
998.044	1903.17
998.34	1935.94
998.636	1906.56
998.932	1904.3
999.227	1887.35
999.523	1871.31
999.818	1861.82
1000.114	1870.63
1000.409	1862.95
1000.704	1826.56
1001	1814.81
1001.295	1829.73
1001.59	1813.68
1001.885	1808.94
1002.18	1795.83
1002.475	1797.64
1002.77	1766.45
1003.065	1787.24
1003.359	1804.87
1003.654	1749.05
1003.949	1721.03
1004.243	1717.86
1004.538	1736.17
1004.832	1727.81
1005.127	1701.37
1005.421	1677.64
1005.715	1700.69
1006.009	1679.67
1006.304	1646.68
1006.598	1644.87
1006.892	1629.28
1007.186	1613.23
1007.48	1636.06
1007.773	1633.35
1008.067	1626.57
1008.361	1578.43
1008.655	1580.24
1008.948	1576.4
1009.242	1574.37
1009.535	1568.04
1009.829	1565.78
1010.122	1522.16
1010.415	1542.95
1010.708	1518.55
1011.001	1528.94
1011.295	1517.87
1011.588	1533.01
1011.881	1499.57
1012.173	1480.81
1012.466	1502.95
1012.759	1487.36
1013.052	1486.46
1013.344	1493.69
1013.637	1472.22
1013.93	1439.45
1014.222	1442.39
1014.514	1418.66
1014.807	1432.67
1015.099	1410.53
1015.391	1418.44
1015.683	1397.19
1015.976	1400.36
1016.268	1383.41
1016.56	1363.07
1016.851	1355.39
1017.143	1329.17
1017.435	1346.57
1017.727	1306.58
1018.018	1326.69
1018.31	1346.57
1018.602	1297.76
1018.893	1301.6
1019.185	1284.2
1019.476	1288.95
1019.767	1301.6
1020.058	1260.93
1020.35	1275.16
1020.641	1267.25
1020.932	1245.56
1021.223	1244.43
1021.514	1238.33
1021.804	1213.02
1022.095	1237.88
1022.386	1207.6
1022.677	1161.04
1022.967	1202.17
1023.258	1173.25
1023.548	1178.9
1023.839	1164.21
1024.129	1196.07
1024.419	1165.11
1024.709	1155.85
1025	1145.68
1025.29	1140.7
1025.58	1155.85
1025.87	1116.75
1026.16	1122.4
1026.449	1117.65
1026.739	1117.2
1027.029	1102.51
1027.319	1110.2
1027.608	1101.16
1027.898	1090.31
1028.187	1085.79
1028.477	1056.64
1028.766	1041.95
1029.055	1050.99
1029.344	1041.05
1029.634	1040.59
1029.923	1028.17
1030.212	1027.94
1030.501	1044.89
1030.79	998.34
1031.078	1011.89
1031.367	967.15
1031.656	986.36
1031.945	983.65
1032.233	998.11
1032.522	968.51
1032.81	967.6
1033.099	985
1033.387	950.2
1033.675	929.64
1033.963	949.98
1034.251	976.42
1034.54	942.52
1034.828	928.28
1035.116	900.48
1035.403	913.14
1035.691	908.39
1035.979	917.66
1036.267	922.86
1036.554	924.89
1036.842	878.56
1037.129	878.34
1037.417	885.8
1037.704	873.82
1037.992	860.49
1038.279	863.2
1038.566	868.17
1038.853	868.17
1039.14	868.17
