Data from hue_240_FLMS001491_00022.txt Node
Date: Tue Feb 07 16:35:15 GMT 2017
User: dcchb
Spectrometer: FLMS00149
Trigger mode: 0
Integration Time (sec): 2.000000E-2
Scans to average: 10
Electric dark correction enabled: true
Nonlinearity correction enabled: false
Boxcar width: 0
XAxis mode: Wavelengths
Number of Pixels in Spectrum: 2048
>>>>>Begin Spectral Data<<<<<
341.393	-19.31
341.776	-19.31
342.16	-19.31
342.543	-49.14
342.927	-66.09
343.31	-81.68
343.693	-64.28
344.077	-62.02
344.46	-58.63
344.843	-55.69
345.226	-30.83
345.61	-36.93
345.993	-21.79
346.376	-10.27
346.759	1.71
347.142	11.43
347.525	51.65
347.908	51.88
348.291	101.59
348.674	90.52
349.057	113.34
349.44	129.16
349.823	127.81
350.206	151.31
350.588	171.2
350.971	198.09
351.354	208.94
351.737	223.85
352.119	254.36
352.502	254.58
352.884	254.58
353.267	256.84
353.65	295.71
354.032	293.45
354.414	303.4
354.797	291.87
355.179	325.32
355.562	311.31
355.944	321.02
356.326	321.02
356.709	337.52
357.091	335.94
357.473	337.75
357.855	323.73
358.238	338.88
358.62	316.05
359.002	322.83
359.384	335.26
359.766	316.73
360.148	335.71
360.53	317.63
360.912	337.29
361.294	325.54
361.676	323.51
362.057	326.9
362.439	326.9
362.821	322.83
363.203	323.06
363.584	326.67
363.966	323.06
364.348	316.28
364.729	318.54
365.111	312.89
365.493	320.12
365.874	291.64
366.256	303.62
366.637	319.89
367.019	317.41
367.4	332.77
367.781	309.72
368.163	329.84
368.544	303.17
368.925	307.01
369.306	337.07
369.688	324.41
370.069	309.27
370.45	323.28
370.831	297.52
371.212	300.46
371.593	292.32
371.974	320.8
372.355	296.39
372.736	298.88
373.117	310.18
373.498	334.36
373.879	311.76
374.26	317.18
374.641	286.45
375.021	301.81
375.402	310.63
375.783	336.62
376.163	320.8
376.544	332.55
376.925	324.86
377.305	308.82
377.686	312.89
378.066	327.35
378.447	348.14
378.827	326.67
379.208	338.88
379.588	326.67
379.968	320.8
380.349	325.32
380.729	316.5
381.109	314.02
381.489	327.12
381.87	338.2
382.25	330.74
382.63	312.21
383.01	328.71
383.39	338.2
383.77	351.98
384.15	331.87
384.53	337.29
384.91	333
385.29	343.17
385.67	350.63
386.049	359.21
386.429	346.11
386.809	338.65
387.189	350.17
387.568	374.13
387.948	337.07
388.328	364.41
388.707	370.74
389.087	350.17
389.466	347.69
389.846	355.82
390.225	363.06
390.605	378.42
390.984	359.89
391.363	381.59
391.743	346.11
392.122	369.38
392.501	376.61
392.881	376.16
393.26	396.05
393.639	376.61
394.018	378.2
394.397	380.68
394.776	381.36
395.155	367.8
395.534	377.97
395.913	389.27
396.292	370.96
396.671	380.46
397.05	377.74
397.429	380.23
397.808	389.27
398.186	387.01
398.565	363.28
398.944	391.53
399.323	388.37
399.701	402.83
400.08	391.76
400.458	400.12
400.837	406.9
401.215	415.71
401.594	414.58
401.972	426.78
402.351	436.5
402.729	421.36
403.107	417.97
403.486	439.44
403.864	423.62
404.242	407.57
404.62	416.84
404.999	420.23
405.377	445.54
405.755	435.14
406.133	422.94
406.511	444.18
406.889	457.29
407.267	446.22
407.645	476.95
408.023	461.81
408.401	462.71
408.779	461.58
409.156	466.56
409.534	485.54
409.912	469.72
410.29	495.03
410.667	520.34
411.045	512.66
411.422	529.15
411.8	517.85
412.178	529.38
412.555	531.19
412.933	537.06
413.31	517.4
413.687	554.24
414.065	558.08
414.442	538.87
414.819	558.3
415.197	572.77
415.574	582.48
415.951	594.24
416.328	578.64
416.705	606.89
417.082	601.69
417.46	589.26
417.837	620.9
418.214	623.84
418.591	627
418.967	630.17
419.344	641.92
419.721	652.09
420.098	636.27
420.475	678.98
420.852	645.31
421.228	683.27
421.605	695.93
421.982	694.8
422.358	699.54
422.735	699.54
423.111	713.78
423.488	727.57
423.864	731.63
424.241	741.58
424.617	732.76
424.994	746.32
425.37	779.99
425.746	754.68
426.123	792.87
426.499	768.02
426.875	799.43
427.251	817.96
427.627	810.95
428.003	810.73
428.379	877.62
428.756	859.31
429.132	875.58
429.507	852.99
429.883	852.76
430.259	883.95
430.635	893.66
431.011	895.02
431.387	923.94
431.763	923.49
432.138	937.96
432.514	954.9
432.89	974.79
433.265	986.09
433.641	983.15
434.016	1038.52
434.392	1012.08
434.767	1020.89
435.143	1019.76
435.518	1048.91
435.894	1107.44
436.269	1094.79
436.644	1115.58
437.02	1123.26
437.395	1095.01
437.77	1154.67
438.145	1170.04
438.52	1193.54
438.895	1189.25
439.271	1215.69
439.646	1246.87
440.021	1255.69
440.395	1262.01
440.77	1257.72
441.145	1246.87
441.52	1293.88
441.895	1301.11
442.27	1311.73
442.645	1330.49
443.019	1297.49
443.394	1338.62
443.769	1340.88
444.143	1350.37
444.518	1384.95
444.892	1380.2
445.267	1422.01
445.641	1413.65
446.016	1424.95
446.39	1420.43
446.764	1437.38
447.139	1441.22
447.513	1431.5
447.887	1439.19
448.262	1450.03
448.636	1494.55
449.01	1508.79
449.384	1499.97
449.758	1496.81
450.132	1536.81
450.506	1549.24
450.88	1527.32
451.254	1539.52
451.628	1583.59
452.002	1599.18
452.376	1589.24
452.75	1608.9
453.123	1610.48
453.497	1649.58
453.871	1666.3
454.244	1695.45
454.618	1684.83
454.992	1720.53
455.365	1681.44
455.739	1749.91
456.112	1782.23
456.486	1794.2
456.859	1818.16
457.232	1845.95
457.606	1831.72
457.979	1870.36
458.352	1862.68
458.725	1875.33
459.099	1921.66
459.472	1959.4
459.845	1979.28
460.218	1980.64
460.591	1999.17
460.964	1992.84
461.337	2053.41
461.71	2093.41
462.083	2105.38
462.456	2086.85
462.829	2101.77
463.201	2175.44
463.574	2157.81
463.947	2136.12
464.32	2213.18
464.692	2223.57
465.065	2242.33
465.438	2276.68
465.81	2315.09
466.183	2323.91
466.555	2351.7
466.928	2371.82
467.3	2409.78
467.672	2406.39
468.045	2484.58
468.417	2458.59
468.789	2526.16
469.161	2529.33
469.534	2556.44
469.906	2608.65
470.278	2650
470.65	2660.85
471.022	2727.96
471.394	2732.71
471.766	2772.48
472.138	2784.69
472.51	2842.76
472.882	2902.88
473.253	2896.77
473.625	2944.91
473.997	3000.05
474.369	3009.09
474.74	3036.43
475.112	3104.45
475.484	3144
475.855	3198.24
476.227	3211.57
476.598	3289.98
476.97	3300.38
477.341	3357.33
477.713	3454.73
478.084	3446.14
478.455	3506.93
478.827	3577.89
479.198	3610.43
479.569	3614.5
479.94	3718.45
480.311	3732.23
480.682	3781.5
481.053	3876.86
481.424	3913.7
481.795	3970.64
482.166	3976.52
482.537	4070.75
482.908	4096.52
483.279	4157.76
483.65	4234.37
484.021	4306.91
484.391	4359.79
484.762	4353.01
485.133	4414.47
485.503	4472.55
485.874	4590.51
486.244	4564.75
486.615	4628.25
486.985	4715.26
487.356	4832.77
487.726	4823.96
488.097	4880.45
488.467	4921.81
488.837	5024.4
489.207	5075.47
489.578	5137.85
489.948	5147.79
490.318	5217.84
490.688	5251.74
491.058	5312.76
491.428	5308.01
491.798	5431.4
492.168	5465.07
492.538	5551.17
492.908	5589.81
493.278	5609.02
493.648	5614.22
494.017	5703.71
494.387	5719.52
494.757	5820.31
495.126	5825.51
495.496	5868.45
495.866	5855.34
496.235	5953.64
496.605	6023.92
496.974	5992.06
497.344	6038.16
497.713	6053.3
498.082	6112.51
498.452	6150.47
498.821	6136.91
499.19	6155.9
499.559	6254.2
499.928	6251.04
500.298	6280.64
500.667	6349.34
501.036	6303.46
501.405	6393.86
501.774	6363.58
502.143	6474.53
502.512	6466.62
502.88	6461.88
503.249	6483.8
503.618	6451.71
503.987	6540.75
504.356	6573.29
504.724	6625.49
505.093	6668.65
505.462	6641.76
505.83	6724.02
506.199	6718.82
506.567	6830.91
506.936	6784.58
507.304	6798.14
507.672	6817.35
508.041	6880.62
508.409	6957.68
508.777	6938.48
509.145	6984.35
509.514	6955.65
509.882	6980.96
510.25	6994.97
510.618	6976.21
510.986	7092.6
511.354	7102.54
511.722	7091.01
512.09	7185.25
512.458	7122.65
512.826	7197.9
513.193	7138.92
513.561	7178.92
513.929	7292.14
514.297	7305.25
514.664	7262.54
515.032	7309.31
515.4	7353.38
515.767	7393.38
516.135	7379.59
516.502	7333.72
516.869	7447.16
517.237	7416.66
517.604	7387.28
517.972	7425.92
518.339	7487.61
518.706	7478.12
519.073	7485.58
519.44	7520.83
519.808	7565.13
520.175	7538.01
520.542	7673.37
520.909	7672.02
521.276	7629.98
521.643	7656.65
522.009	7714.95
522.376	7731.45
522.743	7776.19
523.11	7773.93
523.477	7811.67
523.843	7884.89
524.21	7975.28
524.577	7854.61
524.943	7953.82
525.31	7983.19
525.676	7981.61
526.043	8032.01
526.409	8012.57
526.776	8055.96
527.142	8032.46
527.508	8052.12
527.874	8092.34
528.241	8113.36
528.607	8072.46
528.973	8099.12
529.339	8099.12
529.705	8207.37
530.071	8160.82
530.437	8238.78
530.803	8261.38
531.169	8258.67
531.535	8241.49
531.901	8224.77
532.267	8280.36
532.632	8222.74
532.998	8247.37
533.364	8259.57
533.73	8289.17
534.095	8287.82
534.461	8247.59
534.826	8342.28
535.192	8270.64
535.557	8369.4
535.923	8346.35
536.288	8328.04
536.653	8325.78
537.019	8326.24
537.384	8280.81
537.749	8340.02
538.114	8289.4
538.479	8326.24
538.845	8328.27
539.21	8308.84
539.575	8305.9
539.94	8329.4
540.305	8312.22
540.67	8354.94
541.034	8282.85
541.399	8348.38
541.764	8211.89
542.129	8294.82
542.494	8329.17
542.858	8315.61
543.223	8355.16
543.587	8303.86
543.952	8279.68
544.316	8276.07
544.681	8236.07
545.045	8294.82
545.41	8269.51
545.774	8327.37
546.138	8246.46
546.503	8261.83
546.867	8246.24
547.231	8287.82
547.595	8299.57
547.959	8246.92
548.324	8279.46
548.688	8253.24
549.052	8261.15
549.416	8229.52
549.779	8235.62
550.143	8263.19
550.507	8230.65
550.871	8236.52
551.235	8240.59
551.599	8271.55
551.962	8300.7
552.326	8262.96
552.689	8281.94
553.053	8189.06
553.417	8205.79
553.78	8224.54
554.143	8210.98
554.507	8331.66
554.87	8297.99
555.234	8272.68
555.597	8316.52
555.96	8242.4
556.323	8311.1
556.686	8285.78
557.05	8370.75
557.413	8340.92
557.776	8323.07
558.139	8397.87
558.502	8359.91
558.865	8374.6
559.228	8389.96
559.59	8355.84
559.953	8368.72
560.316	8452.11
560.679	8469.51
561.041	8482.62
561.404	8448.49
561.767	8563.97
562.129	8511.32
562.492	8556.51
562.854	8561.94
563.217	8579.56
563.579	8574.59
563.941	8627.7
564.304	8615.95
564.666	8656.62
565.028	8659.79
565.39	8672.44
565.753	8719.22
566.115	8740.69
566.477	8773.68
566.839	8733.91
567.201	8832.21
567.563	8795.83
567.925	8854.13
568.287	8884.64
568.648	8877.41
569.01	8917.41
569.372	8929.16
569.734	8925.54
570.095	9010.29
570.457	8977.97
570.819	8993.11
571.18	9009.16
571.542	9089.61
571.903	9021.13
572.265	9109.72
572.626	9122.83
572.987	9116.27
573.349	9187.23
573.71	9150.85
574.071	9176.38
574.432	9289.37
574.794	9309.94
575.155	9304.52
575.516	9280.79
575.877	9321.92
576.238	9321.46
576.599	9311.75
576.96	9346.32
577.32	9325.31
577.681	9397.62
578.042	9406.66
578.403	9421.8
578.763	9424.29
579.124	9458.64
579.485	9482.82
579.845	9521.23
580.206	9532.31
580.566	9515.13
580.927	9482.59
581.287	9627.67
581.648	9519.42
582.008	9582.7
582.368	9629.25
582.728	9613.43
583.089	9610.04
583.449	9672.64
583.809	9668.35
584.169	9629.48
584.529	9651.17
584.889	9781.56
585.249	9669.25
585.609	9692.53
585.969	9701.79
586.329	9641.68
586.688	9725.52
587.048	9706.54
587.408	9750.83
587.768	9741.11
588.127	9658.18
588.487	9703.15
588.846	9814.78
589.206	9741.34
589.565	9786.76
589.925	9832.41
590.284	9822.02
590.643	9819.53
591.003	9855.91
591.362	9876.48
591.721	9820.21
592.08	9779.31
592.44	9885.74
592.799	9906.99
593.158	9857.5
593.517	9937.27
593.876	9801.23
594.235	9855.69
594.593	9869.7
594.952	9851.39
595.311	9858.17
595.67	9881.68
596.029	9969.13
596.387	9958.96
596.746	9919.87
597.104	9881.9
597.463	9936.14
597.822	9989.47
598.18	9925.52
598.538	9939.53
598.897	9954.67
599.255	9895.69
599.613	10039.86
599.972	9916.48
600.33	9988.79
600.688	9946.08
601.046	9958.28
601.404	10060.43
601.762	10050.94
602.12	10071.73
602.478	10058.39
602.836	10042.8
603.194	9991.5
603.552	10048.9
603.91	10014.1
604.268	10040.99
604.625	10023.59
604.983	10057.26
605.341	9975.23
605.698	10093.42
606.056	10118.51
606.413	10045.74
606.771	10084.83
607.128	10083.03
607.485	10098.84
607.843	10097.71
608.2	10196.47
608.557	10181.33
608.914	10116.7
609.272	10121.22
609.629	10121.44
609.986	10246.64
610.343	10100.88
610.7	10254.32
611.057	10198.95
611.414	10204.15
611.771	10142.91
612.127	10304.71
612.484	10237.6
612.841	10269.46
613.198	10213.42
613.554	10233.76
613.911	10244.15
614.267	10312.62
614.624	10274.21
614.98	10306.52
615.337	10321.44
615.693	10291.61
616.05	10283.7
616.406	10397.37
616.762	10293.19
617.118	10386.97
617.475	10299.74
617.831	10406.86
618.187	10388.55
618.543	10449.12
618.899	10454.77
619.255	10446.63
619.611	10382
619.967	10442.79
620.323	10493.86
620.678	10415.67
621.034	10409.8
621.39	10419.06
621.746	10365.96
622.101	10470.59
622.457	10392.4
622.812	10423.36
623.168	10475.56
623.523	10499.51
623.879	10494.99
624.234	10404.37
624.589	10430.36
624.945	10463.81
625.3	10431.94
625.655	10457.03
626.01	10458.84
626.365	10433.53
626.72	10411.6
627.075	10393.75
627.43	10411.38
627.785	10412.73
628.14	10432.62
628.495	10455.67
628.85	10430.14
629.205	10361.21
629.559	10398.95
629.914	10395.56
630.269	10374.54
630.623	10350.14
630.978	10343.36
631.332	10394.43
631.687	10341.32
632.041	10377.93
632.396	10352.4
632.75	10277.82
633.104	10376.35
633.459	10286.86
633.813	10276.02
634.167	10289.35
634.521	10261.78
634.875	10197.37
635.229	10179.29
635.583	10123.02
635.937	10191.5
636.291	10207.32
636.645	10131.61
636.999	10245.28
637.352	10139.75
637.706	10122.57
638.06	10184.94
638.413	10162.12
638.767	10063.82
639.121	10080.31
639.474	10050.26
639.828	9994.67
640.181	10050.03
640.534	10072.4
640.888	10017.72
641.241	9984.05
641.594	10036.47
641.947	10000.54
642.301	9958.96
642.654	10007.55
643.007	10005.97
643.36	9977.27
643.713	9914.89
644.066	9976.36
644.419	9881.45
644.771	9865.18
645.124	9772.3
645.477	9738.63
645.83	9650.72
646.182	9674.67
646.535	9584.06
646.888	9634
647.24	9570.72
647.593	9608.91
647.945	9552.42
648.298	9481.46
648.65	9473.32
649.002	9497.73
649.355	9560.78
649.707	9588.58
650.059	9652.98
650.411	9739.08
650.763	9700.21
651.115	9837.83
651.467	9741.79
651.819	9767.78
652.171	9732.75
652.523	9703.37
652.875	9790.38
653.227	9712.41
653.578	9785.86
653.93	9720.1
654.282	9663.6
654.633	9678.06
654.985	9650.49
655.337	9643.26
655.688	9735.24
656.039	9756.48
656.391	9624.73
656.742	9681.23
657.094	9706.31
657.445	9756.25
657.796	9709.93
658.147	9709.02
658.498	9667.67
658.849	9770.72
659.2	9681.68
659.551	9666.54
659.902	9732.98
660.253	9676.71
660.604	9678.06
660.955	9645.07
661.306	9691.4
661.656	9684.62
662.007	9755.35
662.358	9694.56
662.708	9618.41
663.059	9676.71
663.409	9614.56
663.76	9744.28
664.11	9639.65
664.461	9721.23
664.811	9755.8
665.161	9726.43
665.511	9648.01
665.862	9656.82
666.212	9624.28
666.562	9728.01
666.912	9707.22
667.262	9610.04
667.612	9561.68
667.962	9648.24
668.312	9667.9
668.662	9657.5
669.011	9661.12
669.361	9617.28
669.711	9621.12
670.06	9670.83
670.41	9665.18
670.76	9577.73
671.109	9628.35
671.459	9684.62
671.808	9602.59
672.157	9609.37
672.507	9584.28
672.856	9505.87
673.205	9542.93
673.554	9592.64
673.904	9601.23
674.253	9564.62
674.602	9506.09
674.951	9499.31
675.3	9406.43
675.649	9562.14
675.998	9513.1
676.346	9532.08
676.695	9521.46
677.044	9431.74
677.393	9458.64
677.741	9591.06
678.09	9508.13
678.438	9477.39
678.787	9465.64
679.135	9429.03
679.484	9382.03
679.832	9414.12
680.181	9322.82
680.529	9345.87
680.877	9358.98
681.225	9301.8
681.573	9386.55
681.922	9312.42
682.27	9267.91
682.618	9262.03
682.966	9270.39
683.314	9225.2
683.661	9265.65
684.009	9236.95
684.357	9228.81
684.705	9213.44
685.053	9158.98
685.4	9145.2
685.748	9100
686.095	9065.43
686.443	9065.88
686.79	9052.09
687.138	9100
687.485	9097.74
687.832	9004.64
688.18	8984.3
688.527	8972.09
688.874	8996.27
689.221	8895.26
689.568	8864.98
689.915	8886.67
690.262	8895.94
690.609	8812.55
690.956	8834.47
691.303	8783.62
691.65	8744.76
691.997	8782.72
692.344	8752.67
692.69	8649.17
693.037	8717.64
693.383	8603.74
693.73	8637.19
694.077	8542.95
694.423	8582.05
694.769	8502.73
695.116	8484.65
695.462	8482.62
695.808	8563.52
696.155	8478.55
696.501	8419.11
696.847	8411.21
697.193	8358.33
697.539	8364.88
697.885	8323.75
698.231	8313.58
698.577	8338.21
698.923	8278.55
699.269	8239.46
699.614	8129.4
699.96	8141.16
700.306	8188.16
700.651	8179.35
700.997	8033.59
701.342	8067.49
701.688	8075.62
702.033	8037.43
702.379	8004.21
702.724	7946.58
703.069	7998.11
703.415	7837.44
703.76	7865.91
704.105	7897.09
704.45	7876.53
704.795	7849.86
705.14	7811.9
705.485	7773.26
705.83	7750.88
706.175	7822.29
706.52	7745.91
706.865	7665.01
707.209	7627.5
707.554	7644.67
707.899	7578.91
708.243	7606.93
708.588	7594.5
708.932	7527.61
709.277	7546.37
709.621	7476.77
709.966	7454.85
710.31	7445.13
710.654	7432.7
710.998	7527.61
711.342	7444.23
711.687	7455.98
712.031	7351.12
712.375	7338.01
712.719	7358.35
713.063	7342.08
713.407	7362.65
713.75	7311.12
714.094	7276.55
714.438	7257.34
714.782	7287.17
715.125	7275.42
715.469	7235.87
715.812	7177.11
716.156	7208.07
716.499	7220.05
716.843	7208.98
717.186	7144.12
717.53	7168.75
717.873	7110
718.216	7135.98
718.559	7141.18
718.902	7090.56
719.246	7099.83
719.589	7044.69
719.932	7059.83
720.275	7045.37
720.617	7055.76
720.96	6987.74
721.303	7041.52
721.646	7066.61
721.989	6985.71
722.331	7028.19
722.674	7009.89
723.016	6974.63
723.359	6976.44
723.701	7012.37
724.044	6932.83
724.386	6852.15
724.729	6938.48
725.071	6938.48
725.413	6911.58
725.755	6918.36
726.097	6885.82
726.439	6892.15
726.782	6874.52
727.124	6911.36
727.465	6884.92
727.807	6846.27
728.149	6842.66
728.491	6873.39
728.833	6845.82
729.175	6844.69
729.516	6852.6
729.858	6797.46
730.199	6859.38
730.541	6890.57
730.882	6815.54
731.224	6810.57
731.565	6784.81
731.906	6773.28
732.248	6807.86
732.589	6734.64
732.93	6785.26
733.271	6755.88
733.612	6793.85
733.953	6802.21
734.294	6771.93
734.635	6784.36
734.976	6806.73
735.317	6759.5
735.658	6765.6
735.999	6736.9
736.339	6770.12
736.68	6839.5
737.021	6782.77
737.361	6798.59
737.702	6802.43
738.042	6790.01
738.383	6734.87
738.723	6779.61
739.063	6779.16
739.404	6811.47
739.744	6780.97
740.084	6739.84
740.424	6771.7
740.764	6715.88
741.104	6799.04
741.444	6792.94
741.784	6748.65
742.124	6858.25
742.464	6805.82
742.804	6872.94
743.143	6832.26
743.483	6892.83
743.823	6820.96
744.162	6855.77
744.502	6877.01
744.841	6880.85
745.181	6921.08
745.52	6874.97
745.86	6992.03
746.199	6931.7
746.538	6955.88
746.877	7019.38
747.216	7036.33
747.556	7083.78
747.895	7097.34
748.234	7058.02
748.573	7114.52
748.911	7114.52
749.25	7131.01
749.589	7237.9
749.928	7200.16
750.267	7300.27
750.605	7331.69
750.944	7331.69
751.283	7397.9
751.621	7440.84
751.96	7467.95
752.298	7508.4
752.636	7566.26
752.975	7620.94
753.313	7660.49
753.651	7759.7
753.989	7777.1
754.327	7813.03
754.666	7893.93
755.004	7984.1
755.342	8029.52
755.679	8116.52
756.017	8182.51
756.355	8249.85
756.693	8341.83
757.031	8445.55
757.368	8511.77
757.706	8545.67
758.044	8614.36
758.381	8728.49
758.719	8767.35
759.056	8935.71
759.394	9045.99
759.731	9118.31
760.068	9162.15
760.405	9257.96
760.743	9277.4
761.08	9396.49
761.417	9540.89
761.754	9584.28
762.091	9702.47
762.428	9786.54
762.765	9745.41
763.102	9912.86
763.438	10004.84
763.775	10030.37
764.112	10199.41
764.449	10330.25
764.785	10363.92
765.122	10385.84
765.458	10447.08
765.795	10536.12
766.131	10652.28
766.467	10718.04
766.804	10727.3
767.14	10820.41
767.476	10859.95
767.812	10977.47
768.148	11075.99
768.485	11138.14
768.821	11054.3
769.157	11250.45
769.492	11335.87
769.828	11353.27
770.164	11319.83
770.5	11356.89
770.836	11537
771.171	11468.07
771.507	11587.17
771.842	11506.27
772.178	11628.3
772.513	11699.03
772.849	11764.56
773.184	11757.11
773.519	11804.34
773.855	11750.55
774.19	11767.95
774.525	11826.26
774.86	11865.58
775.195	11831.91
775.53	11882.07
775.865	11883.43
776.2	11824
776.535	11913.49
776.87	11911.9
777.205	11927.27
777.539	11977.44
777.874	11951.68
778.209	11952.58
778.543	11903.54
778.878	11960.72
779.212	11974.95
779.547	11937.21
779.881	12010.43
780.215	11942.64
780.55	12040.94
780.884	12023.31
781.218	11990.32
781.552	12085.23
781.886	11964.33
782.22	12008.17
782.554	11960.26
782.888	11840.04
783.222	11832.81
783.556	11895.63
783.889	11882.98
784.223	11808.18
784.557	11812.47
784.89	11755.52
785.224	11711.46
785.557	11720.5
785.891	11718.92
786.224	11724.56
786.558	11719.82
786.891	11599.6
787.224	11696.54
787.557	11608.64
787.891	11638.47
788.224	11656.54
788.557	11653.38
788.89	11612.93
789.223	11615.87
789.556	11483.44
789.888	11574.74
790.221	11489.99
790.554	11459.71
790.887	11484.12
791.219	11455.65
791.552	11366.83
791.884	11326.38
792.217	11311.47
792.549	11396.44
792.882	11243.45
793.214	11190.79
793.546	11290.68
793.879	11180.62
794.211	11151.92
794.543	11164.58
794.875	11144.24
795.207	11127.07
795.539	11135.43
795.871	11108.08
796.203	11087.07
796.535	10997.35
796.867	10977.01
797.198	10971.36
797.53	10957.81
797.862	10857.47
798.193	10865.15
798.525	10826.06
798.856	10888.2
799.188	10769.56
799.519	10679.17
799.85	10771.6
800.182	10717.81
800.513	10737.92
800.844	10636.68
801.175	10719.39
801.506	10687.76
801.837	10587.87
802.168	10581.32
802.499	10574.31
802.83	10482.79
803.161	10469
803.491	10480.98
803.822	10459.29
804.153	10421.55
804.483	10393.07
804.814	10335.9
805.145	10337.26
805.475	10375.45
805.805	10290.25
806.136	10265.17
806.466	10239.63
806.796	10260.65
807.126	10196.47
807.457	10200.31
807.787	10227.2
808.117	10115.79
808.447	10083.7
808.777	10104.27
809.107	10109.24
809.436	10075.12
809.766	10003.48
810.096	10020.43
810.426	9990.15
810.755	9999.19
811.085	9935.69
811.414	9903.6
811.744	9922.35
812.073	9881.45
812.403	9876.25
812.732	9805.97
813.061	9820.89
813.39	9736.59
813.719	9757.38
814.049	9838.74
814.378	9795.58
814.707	9755.8
815.036	9732.75
815.365	9655.69
815.693	9593.1
816.022	9671.74
816.351	9563.49
816.68	9589.93
817.008	9568.69
817.337	9511.52
817.665	9441.69
817.994	9479.43
818.322	9406.66
818.651	9378.19
818.979	9429.48
819.307	9367.11
819.636	9466.77
819.964	9439.65
820.292	9454.79
820.62	9424.51
820.948	9350.62
821.276	9372.76
821.604	9392.2
821.932	9382.71
822.259	9397.17
822.587	9335.7
822.915	9351.75
823.243	9389.26
823.57	9348.13
823.898	9409.6
824.225	9344.51
824.553	9275.82
824.88	9271.3
825.207	9383.61
825.535	9374.34
825.862	9414.79
826.189	9318.53
826.516	9361.91
826.843	9375.7
827.17	9379.99
827.497	9392.42
827.824	9351.97
828.151	9424.06
828.478	9411.63
828.805	9403.04
829.131	9370.28
829.458	9306.1
829.785	9335.93
830.111	9328.92
830.438	9387.22
830.764	9370.95
831.09	9356.27
831.417	9323.27
831.743	9351.29
832.069	9428.13
832.395	9260.22
832.722	9349.49
833.048	9322.59
833.374	9313.78
833.7	9284.18
834.026	9294.12
834.351	9316.49
834.677	9331.63
835.003	9258.41
835.329	9261.13
835.654	9278.3
835.98	9265.87
836.306	9231.07
836.631	9210.05
836.956	9304.97
837.282	9297.74
837.607	9174.8
837.932	9142.26
838.258	9178.87
838.583	9184.74
838.908	9102.03
839.233	9165.08
839.558	9160.79
839.883	9082.37
840.208	9123.73
840.533	9035.6
840.858	9072.2
841.182	9015.94
841.507	9031.3
841.832	8991.08
842.156	8908.82
842.481	9018.87
842.805	8964.41
843.13	8947.46
843.454	8910.85
843.778	8897.52
844.103	8851.19
844.427	8842.61
844.751	8830.18
845.075	8810.29
845.399	8775.49
845.723	8757.86
846.047	8693.68
846.371	8645.1
846.695	8645.32
847.019	8602.61
847.343	8596.74
847.666	8551.31
847.99	8521.71
848.313	8545.67
848.637	8490.07
848.96	8441.71
849.284	8431.54
849.607	8372.56
849.931	8324.88
850.254	8288.95
850.577	8275.62
850.9	8197.88
851.223	8239.46
851.546	8100.25
851.869	8116.52
852.192	8111.33
852.515	8101.38
852.838	8066.36
853.161	8097.99
853.483	7968.96
853.806	7998.11
854.129	8027.26
854.451	7912.69
854.774	7872.46
855.096	7855.29
855.419	7841.28
855.741	7806.7
856.063	7838.11
856.385	7777.32
856.708	7806.48
857.03	7731.68
857.352	7759.25
857.674	7744.78
857.996	7726.93
858.318	7663.43
858.64	7667.27
858.961	7583.66
859.283	7597.44
859.605	7549.53
859.926	7593.6
860.248	7516.54
860.57	7541.17
860.891	7510.89
861.212	7472.25
861.534	7466.82
861.855	7396.09
862.176	7395.86
862.498	7444.9
862.819	7419.82
863.14	7340.5
863.461	7382.31
863.782	7381.85
864.103	7385.47
864.424	7327.84
864.745	7303.66
865.065	7332.14
865.386	7272.7
865.707	7305.92
866.027	7245.59
866.348	7232.93
866.668	7248.98
866.989	7251.46
867.309	7199.94
867.63	7225.47
867.95	7197.68
868.27	7145.25
868.59	7208.75
868.91	7175.08
869.23	7150.22
869.55	7117
869.87	7155.42
870.19	7145.02
870.51	7117.45
870.83	7128.98
871.15	7043.78
871.469	7076.33
871.789	7122.65
872.109	7105.03
872.428	7095.99
872.748	7059.38
873.067	7067.74
873.386	7000.62
873.706	7017.8
874.025	6992.49
874.344	6985.25
874.663	7020.06
874.982	6982.54
875.301	6912.94
875.62	6926.05
875.939	6928.31
876.258	6937.8
876.577	6922.88
876.896	6873.84
877.214	6847.18
877.533	6879.04
877.852	6857.57
878.17	6800.85
878.489	6824.35
878.807	6797.69
879.125	6817.35
879.444	6825.94
879.762	6832.49
880.08	6768.08
880.398	6779.61
880.716	6791.81
881.034	6727.86
881.352	6763.79
881.67	6728.99
881.988	6680.63
882.306	6676.11
882.624	6611.03
882.941	6645.83
883.259	6583.46
883.577	6611.93
883.894	6625.72
884.212	6629.78
884.529	6597.92
884.846	6574.42
885.164	6562.89
885.481	6508.43
885.798	6578.26
886.115	6479.28
886.432	6495.55
886.75	6434.31
887.067	6474.99
887.383	6481.09
887.7	6494.42
888.017	6455.1
888.334	6474.53
888.651	6402.22
888.967	6405.61
889.284	6359.28
889.6	6336.68
889.917	6320.41
890.233	6371.94
890.55	6264.82
890.866	6292.62
891.182	6245.61
891.498	6225.95
891.815	6285.84
892.131	6193.86
892.447	6199.74
892.763	6192.73
893.079	6133.75
893.395	6167.42
893.71	6154.32
894.026	6163.81
894.342	6099.4
894.657	6070.48
894.973	6070.93
895.289	6056.24
895.604	6052.85
895.92	5948.22
896.235	5974.66
896.55	5986.86
896.865	5913.42
897.181	5963.81
897.496	5907.77
897.811	5904.38
898.126	5922.01
898.441	5915.9
898.756	5824.61
899.071	5745.29
899.386	5775.79
899.7	5737.38
900.015	5676.36
900.33	5668
900.644	5687.66
900.959	5672.07
901.273	5660.32
901.588	5614.22
901.902	5589.81
902.216	5579.87
902.531	5561.11
902.845	5571.73
903.159	5508
903.473	5477.5
903.787	5478.85
904.101	5457.61
904.415	5466.2
904.729	5472.98
905.042	5448.8
905.356	5403.83
905.67	5395.47
905.984	5401.12
906.297	5375.8
906.611	5319.31
906.924	5286.54
907.237	5332.64
907.551	5260.55
907.864	5221.01
908.177	5235.7
908.491	5165.42
908.804	5171.06
909.117	5151.63
909.43	5148.24
909.743	5077.51
910.056	5098.75
910.368	5067.11
910.681	5077.73
910.994	5044.29
911.307	5072.54
911.619	4992.54
911.932	5020.79
912.244	4978.53
912.557	4961.13
912.869	4886.55
913.181	4915.7
913.494	4936.27
913.806	4928.13
914.118	4854.91
914.43	4809.94
914.742	4857.4
915.054	4825.99
915.366	4829.6
915.678	4757.74
915.99	4745.31
916.302	4715.03
916.613	4706.9
916.925	4706.9
917.236	4716.61
917.548	4634.81
917.859	4651.53
918.171	4611.53
918.482	4631.64
918.794	4624.19
919.105	4556.39
919.416	4525.88
919.727	4550.06
920.038	4527.92
920.349	4494.92
920.66	4460.12
920.971	4471.65
921.282	4483.85
921.593	4414.7
921.903	4411.31
922.214	4374.48
922.525	4368.6
922.835	4435.94
923.146	4327.02
923.456	4324.31
923.767	4322.27
924.077	4332.44
924.387	4269.62
924.697	4239.34
925.008	4246.12
925.318	4209.73
925.628	4210.41
925.938	4191.2
926.248	4191.66
926.558	4165.89
926.867	4173.58
927.177	4165.22
927.487	4098.1
927.796	4106.91
928.106	4030.08
928.416	4024.2
928.725	4033.69
929.034	4030.3
929.344	4042.96
929.653	4002.96
929.962	3946.24
930.271	3965.22
930.581	3892.68
930.89	3923.19
931.199	3879.35
931.508	3928.84
931.817	3881.61
932.125	3921.61
932.434	3875.28
932.743	3833.02
933.051	3794.83
933.36	3868.73
933.669	3799.35
933.977	3768.39
934.286	3771.78
934.594	3792.34
934.902	3759.12
935.21	3717.77
935.519	3724.77
935.827	3693.82
936.135	3630.09
936.443	3642.52
936.751	3669.64
937.059	3618.56
937.367	3600.48
937.674	3619.47
937.982	3592.8
938.29	3585.12
938.597	3610.43
938.905	3513.93
939.213	3506.7
939.52	3533.82
939.827	3523.42
940.135	3462.86
940.442	3467.38
940.749	3509.41
941.056	3434.84
941.363	3378.34
941.67	3406.37
941.977	3385.12
942.284	3383.31
942.591	3385.12
942.898	3355.52
943.205	3345.12
943.511	3318.23
943.818	3297.44
944.125	3289.98
944.431	3295.86
944.738	3290.44
945.044	3269.65
945.35	3224.9
945.657	3232.36
945.963	3196.2
946.269	3199.37
946.575	3207.73
946.881	3158.46
947.187	3198.69
947.493	3203.66
947.799	3136.32
948.105	3158.01
948.41	3124.11
948.716	3118.24
949.022	3095.64
949.327	3073.49
949.633	3079.14
949.938	3088.63
950.244	3041.86
950.549	3040.73
950.854	3027.84
951.16	3013.16
951.465	2974.29
951.77	2994.4
952.075	2964.12
952.38	2950.33
952.685	2967.05
952.99	2919.15
953.294	2920.05
953.599	2916.43
953.904	2921.41
954.209	2843.44
954.513	2897.68
954.818	2819.49
955.122	2873.72
955.426	2883.22
955.731	2824.01
956.035	2803.22
956.339	2807.96
956.643	2798.47
956.948	2772.94
957.252	2777.46
957.556	2772.71
957.86	2748.3
958.163	2766.16
958.467	2711.02
958.771	2738.81
959.075	2714.18
959.378	2696.33
959.682	2705.82
959.985	2679.83
960.289	2642.32
960.592	2669.89
960.896	2649.77
961.199	2640.28
961.502	2630.34
961.805	2601.19
962.108	2588.53
962.411	2535.2
962.714	2632.83
963.017	2577.91
963.32	2570.68
963.623	2532.94
963.926	2522.32
964.228	2518.93
964.531	2510.12
964.833	2520.29
965.136	2501.53
965.438	2482.32
965.741	2472.83
966.043	2445.49
966.345	2443.45
966.648	2444.81
966.95	2441.87
967.252	2418.37
967.554	2390.35
967.856	2399.84
968.158	2404.36
968.46	2382.66
968.761	2379.05
969.063	2405.71
969.365	2356.68
969.666	2344.7
969.968	2332.95
970.269	2334.98
970.571	2302.44
970.872	2296.79
971.174	2309.44
971.475	2299.95
971.776	2327.52
972.077	2277.81
972.378	2272.61
972.679	2266.28
972.98	2247.3
973.281	2249.56
973.582	2221.54
973.883	2175.66
974.183	2212.27
974.484	2199.39
974.785	2186.74
975.085	2168.21
975.386	2171.37
975.686	2167.3
975.986	2147.64
976.287	2151.48
976.587	2159.62
976.887	2126.17
977.187	2118.72
977.487	2116.68
977.787	2083.01
978.087	2077.13
978.387	2110.81
978.687	2074.2
978.987	2068.1
979.286	2069.9
979.586	2033.29
979.885	2063.8
980.185	2032.16
980.484	2040.53
980.784	2045.05
981.083	2011.83
981.382	2016.12
981.682	1983.13
981.981	1995.55
982.28	1994.2
982.579	1971.37
982.878	1950.36
983.177	1969.34
983.475	1970.47
983.774	1926.63
984.073	1930.92
984.372	1916.23
984.67	1908.78
984.969	1897.93
985.267	1924.82
985.566	1878.95
985.864	1885.5
986.162	1874.65
986.461	1866.97
986.759	1855.22
987.057	1852.73
987.355	1861.55
987.653	1840.08
987.951	1841.89
988.249	1804.83
988.547	1806.18
988.844	1772.96
989.142	1811.6
989.44	1784.04
989.737	1778.16
990.035	1778.16
990.332	1755.34
990.63	1733.41
990.927	1744.26
991.224	1746.75
991.521	1706.75
991.819	1719.86
992.116	1748.33
992.413	1696.58
992.71	1697.26
993.006	1703.81
993.303	1685.51
993.6	1672.17
993.897	1685.51
994.193	1680.31
994.49	1629.46
994.787	1673.08
995.083	1628.56
995.379	1622.46
995.676	1629.91
995.972	1641.67
996.268	1616.13
996.565	1587.43
996.861	1596.7
997.157	1617.26
997.453	1596.47
997.749	1582.91
998.044	1528.67
998.34	1554.44
998.636	1537.94
998.932	1568.67
999.227	1562.12
999.523	1557.83
999.818	1519.86
1000.114	1509.92
1000.409	1498.17
1000.704	1523.48
1001	1518.05
1001.295	1504.49
1001.59	1477.38
1001.885	1485.06
1002.18	1482.35
1002.475	1466.3
1002.77	1462.24
1003.065	1429.24
1003.359	1457.49
1003.654	1440.32
1003.949	1427.89
1004.243	1447.55
1004.538	1425.17
1004.832	1397.15
1005.127	1383.37
1005.421	1376.14
1005.715	1384.5
1006.009	1369.58
1006.304	1382.24
1006.598	1376.14
1006.892	1338.4
1007.186	1350.15
1007.48	1368.23
1007.773	1352.41
1008.067	1315.35
1008.361	1328.45
1008.655	1299.53
1008.948	1288.91
1009.242	1314.67
1009.535	1289.36
1009.829	1307.44
1010.122	1249.13
1010.415	1283.26
1010.708	1284.16
1011.001	1277.16
1011.295	1243.48
1011.588	1257.95
1011.881	1245.07
1012.173	1252.98
1012.466	1231.96
1012.759	1221.11
1013.052	1229.7
1013.344	1216.82
1013.637	1217.27
1013.93	1209.36
1014.222	1182.92
1014.514	1208.68
1014.807	1207.78
1015.099	1153.54
1015.391	1164.62
1015.683	1161.45
1015.976	1147.89
1016.268	1117.39
1016.56	1149.02
1016.851	1134.33
1017.143	1116.71
1017.435	1098.86
1017.727	1126.88
1018.018	1103.83
1018.31	1107.44
1018.602	1106.54
1018.893	1079.19
1019.185	1096.14
1019.476	1069.25
1019.767	1074.68
1020.058	1098.63
1020.35	1075.81
1020.641	1037.39
1020.932	1074.45
1021.223	1056.6
1021.514	1044.62
1021.804	1032.64
1022.095	1025.41
1022.386	1031.74
1022.677	1022.25
1022.967	995.13
1023.258	1010.27
1023.548	971.18
1023.839	979.54
1024.129	1002.36
1024.419	987.9
1024.709	965.53
1025	959.2
1025.29	951.74
1025.58	951.06
1025.87	951.74
1026.16	937.96
1026.449	962.14
1026.739	935.92
1027.029	908.35
1027.319	928.69
1027.608	932.76
1027.898	904.51
1028.187	915.58
1028.477	888.24
1028.766	902.48
1029.055	895.92
1029.344	858.41
1029.634	879.43
1029.923	872.42
1030.212	884.4
1030.501	876.26
1030.79	842.14
1031.078	855.25
1031.367	867.22
1031.656	828.13
1031.945	841.69
1032.233	859.09
1032.522	842.36
1032.81	817.05
1033.099	824.51
1033.387	832.87
1033.675	801.91
1033.963	806.43
1034.251	799.88
1034.54	806.43
1034.828	800.78
1035.116	799.88
1035.403	794.91
1035.691	782.03
1035.979	771.18
1036.267	784.74
1036.554	753.78
1036.842	792.87
1037.129	769.37
1037.417	777.73
1037.704	786.55
1037.992	766.21
1038.279	744.51
1038.566	745.87
1038.853	745.87
1039.14	745.87
