Data from hue_60_FLMS001491_72.txt Node
Date: Mon Feb 06 15:17:53 GMT 2017
User: dcchb
Spectrometer: FLMS00149
Trigger mode: 0
Integration Time (sec): 2.000000E-2
Scans to average: 10
Electric dark correction enabled: true
Nonlinearity correction enabled: false
Boxcar width: 0
XAxis mode: Wavelengths
Number of Pixels in Spectrum: 2048
>>>>>Begin Spectral Data<<<<<
341.393	-14.14
341.776	-14.14
342.16	-14.14
342.543	-54.81
342.927	-89.62
343.31	-73.57
343.693	-65.66
344.077	-79.45
344.46	-70.63
344.843	-60.01
345.226	-38.77
345.61	-38.77
345.993	-4.19
346.376	-22.05
346.759	34
347.142	18.18
347.525	24.73
347.908	64.5
348.291	98.85
348.674	105.86
349.057	106.99
349.44	137.04
349.823	166.87
350.206	160.77
350.588	217.72
350.971	222.69
351.354	242.35
351.737	252.3
352.119	260.66
352.502	274.89
352.884	280.32
353.267	278.06
353.65	285.97
354.032	299.3
354.414	308.34
354.797	348.34
355.179	309.02
355.562	349.02
355.944	354.44
356.326	353.99
356.709	347.66
357.091	359.86
357.473	360.99
357.855	337.72
358.238	341.11
358.62	340.2
359.002	353.54
359.384	350.82
359.766	354.89
360.148	372.97
360.53	374.1
360.912	328.9
361.294	350.6
361.676	337.27
362.057	343.14
362.439	354.67
362.821	322.58
363.203	343.82
363.584	321.9
363.966	350.15
364.348	318.73
364.729	328.23
365.111	335.68
365.493	334.78
365.874	319.64
366.256	302.24
366.637	319.19
367.019	329.36
367.4	349.24
367.781	316.93
368.163	337.27
368.544	325.74
368.925	313.31
369.306	323.25
369.688	299.75
370.069	321.45
370.45	315.12
370.831	328
371.212	338.17
371.593	320.99
371.974	339.07
372.355	334.33
372.736	317.38
373.117	322.12
373.498	326.64
373.879	331.39
374.26	323.48
374.641	318.51
375.021	325.97
375.402	321.45
375.783	326.19
376.163	331.62
376.544	343.14
376.925	325.74
377.305	325.29
377.686	307.66
378.066	349.47
378.447	329.81
378.827	325.74
379.208	336.36
379.588	323.93
379.968	354.21
380.349	329.58
380.729	343.59
381.109	361.9
381.489	356.25
381.87	335.23
382.25	346.08
382.63	336.59
383.01	351.5
383.39	352.41
383.77	357.6
384.15	341.56
384.53	339.98
384.91	345.63
385.29	352.41
385.67	348.79
386.049	370.26
386.429	365.29
386.809	347.89
387.189	346.98
387.568	349.24
387.948	346.98
388.328	356.93
388.707	352.41
389.087	372.07
389.466	369.58
389.846	378.17
390.225	344.95
390.605	364.16
390.984	377.49
391.363	382.69
391.743	380.88
392.122	358.96
392.501	369.58
392.881	369.35
393.26	380.65
393.639	381.78
394.018	394.21
394.397	368
394.776	391.05
395.155	381.78
395.534	385.63
395.913	372.52
396.292	402.12
396.671	375
397.05	377.72
397.429	380.2
397.808	394.89
398.186	372.29
398.565	376.81
398.944	405.29
399.323	386.08
399.701	406.42
400.08	379.98
400.458	389.47
400.837	394.89
401.215	394.66
401.594	410.26
401.972	411.61
402.351	409.81
402.729	417.94
403.107	403.25
403.486	432.63
403.864	413.87
404.242	420.2
404.62	422.01
404.999	397.38
405.377	438.96
405.755	419.52
406.133	424.27
406.511	421.56
406.889	440.31
407.267	424.72
407.645	450.26
408.023	418.17
408.401	411.61
408.779	445.28
409.156	442.57
409.534	415
409.912	460.88
410.29	437.83
410.667	453.87
411.045	455
411.422	465.17
411.8	447.09
412.178	464.49
412.555	495.45
412.933	456.58
413.31	479.18
413.687	480.09
414.065	479.63
414.442	482.8
414.819	495.91
415.197	474.89
415.574	474.44
415.951	496.81
416.328	488.9
416.705	498.39
417.082	491.61
417.46	494.32
417.837	477.83
418.214	485.96
418.591	506.3
418.967	498.84
419.344	507.43
419.721	512.63
420.098	514.66
420.475	530.03
420.852	534.1
421.228	530.93
421.605	539.29
421.982	538.16
422.358	539.97
422.735	530.48
423.111	541.78
423.488	545.62
423.864	531.16
424.241	551.27
424.617	559.86
424.994	554.43
425.37	571.84
425.746	571.16
426.123	562.34
426.499	556.02
426.875	576.81
427.251	594.89
427.627	597.6
428.003	591.95
428.379	608.67
428.756	583.81
429.132	607.54
429.507	606.86
429.883	613.87
430.259	599.18
430.635	610.03
431.011	588.11
431.387	605.96
431.763	636.92
432.138	631.49
432.514	622.23
432.89	637.37
433.265	649.12
433.641	643.25
434.016	648.9
434.392	687.09
434.767	682.34
435.143	663.58
435.518	664.71
435.894	688.22
436.269	678.95
436.644	685.73
437.02	687.09
437.395	702.45
437.77	714.43
438.145	712.4
438.52	706.07
438.895	715.33
439.271	714.43
439.646	703.13
440.021	733.64
440.395	719.4
440.77	751.49
441.145	734.32
441.52	756.46
441.895	752.17
442.27	735.45
442.645	754.2
443.019	759.85
443.394	758.5
443.769	796.01
444.143	757.37
444.518	759.17
444.892	782
445.267	782.45
445.641	804.37
446.016	817.25
446.39	794.43
446.764	811.6
447.139	817.93
447.513	833.07
447.887	829
448.262	817.25
448.636	834.2
449.01	831.49
449.384	862.9
449.758	821.55
450.132	867.42
450.506	835.78
450.88	879.85
451.254	868.1
451.628	877.59
452.002	868.32
452.376	866.52
452.75	896.8
453.123	889.79
453.497	902.22
453.871	922.79
454.244	902
454.618	911.26
454.992	939.06
455.365	942.9
455.739	952.84
456.112	1010.24
456.486	974.54
456.859	965.95
457.232	996.23
457.606	986.51
457.979	986.97
458.352	1023.35
458.725	1043.46
459.099	1047.98
459.472	1046.4
459.845	1059.51
460.218	1090.69
460.591	1066.74
460.964	1089.34
461.337	1118.71
461.71	1144.25
462.083	1166.62
462.456	1162.33
462.829	1153.29
463.201	1160.97
463.574	1168.43
463.947	1227.41
464.32	1234.87
464.692	1229.67
465.065	1259.95
465.438	1268.54
465.81	1295.43
466.183	1322.1
466.555	1331.36
466.928	1374.75
467.3	1304.25
467.672	1368.88
468.045	1440.06
468.417	1412.94
468.789	1436.22
469.161	1471.92
469.534	1473.73
469.906	1506.5
470.278	1535.65
470.65	1540.4
471.022	1592.15
471.394	1603.22
471.766	1632.6
472.138	1667.17
472.51	1715.31
472.882	1778.58
473.253	1796.44
473.625	1793.5
473.997	1887.96
474.369	1878.02
474.74	1924.34
475.112	1966.15
475.484	1975.64
475.855	2060.38
476.227	2140.16
476.598	2151
476.97	2218.57
477.341	2298.8
477.713	2346.25
478.084	2381.96
478.455	2458.11
478.827	2547.38
479.198	2605.68
479.569	2641.84
479.94	2754.15
480.311	2806.13
480.682	2918.21
481.053	3002.73
481.424	3033.01
481.795	3155.5
482.166	3265.78
482.537	3309.84
482.908	3457.18
483.279	3543.28
483.65	3643.17
484.021	3745.31
484.391	3842.03
484.762	3902.6
485.133	4044.51
485.503	4149.82
485.874	4312.08
486.244	4378.74
486.615	4498.06
486.985	4678.17
487.356	4777.6
487.726	4928.33
488.097	5077.48
488.467	5182.79
488.837	5346.85
489.207	5491.25
489.578	5683.79
489.948	5741.64
490.318	5931.02
490.688	5999.04
491.058	6171.69
491.428	6352.25
491.798	6516.99
492.168	6700.04
492.538	6867.94
492.908	7006.69
493.278	7168.95
493.648	7300.47
494.017	7463.18
494.387	7652.78
494.757	7780.23
495.126	7914.24
495.496	8055.93
495.866	8224.74
496.235	8358.75
496.605	8565.75
496.974	8659.08
497.344	8931.39
497.713	9075.57
498.082	9183.59
498.452	9419.29
498.821	9509
499.19	9641.43
499.559	9811.14
499.928	9947.18
500.298	10055.2
500.667	10327.28
501.036	10427.4
501.405	10597.33
501.774	10660.84
502.143	10894.95
502.512	10957.55
502.88	11169.07
503.249	11282.74
503.618	11365.45
503.987	11610.19
504.356	11650.41
504.724	11827.81
505.093	11937.19
505.462	12163.17
505.83	12298.76
506.199	12436.83
506.567	12668.24
506.936	12726.32
507.304	12915.24
507.672	13085.63
508.041	13138.74
508.409	13245.85
508.777	13466.64
509.145	13676.58
509.514	13730.81
509.882	13947.08
510.25	13959.05
510.618	14162.21
510.986	14219.84
511.354	14454.63
511.722	14632.48
512.09	14780.5
512.458	14790.67
512.826	15072.92
513.193	15141.85
513.561	15253.94
513.929	15412.8
514.297	15573.93
514.664	15739.35
515.032	15785.67
515.4	15937.76
515.767	16148.83
516.135	16216.62
516.502	16151.54
516.869	16579.32
517.237	16754.69
517.604	16693.22
517.972	16899.77
518.339	17067.9
518.706	17131.85
519.073	17254.79
519.44	17367.78
519.808	17521.45
520.175	17609.58
520.542	17928.67
520.909	18019.51
521.276	18080.98
521.643	18329.33
522.009	18448.65
522.376	18574.75
522.743	18662.88
523.11	18902.88
523.477	19108.07
523.843	19195.3
524.21	19423.32
524.577	19622.86
524.943	19789.86
525.31	19804.32
525.676	20065.56
526.043	20226.69
526.409	20274.59
526.776	20573.12
527.142	20565.89
527.508	20720.01
527.874	20905.54
528.241	21133.78
528.607	21147.79
528.973	21332.65
529.339	21336.71
529.705	21539.87
530.071	21708
530.437	21787.55
530.803	22049.46
531.169	22211.72
531.535	22147.99
531.901	22322
532.267	22282.9
532.632	22526.29
532.998	22526.96
533.364	22734.19
533.73	22841.08
534.095	23044.46
534.461	23138.47
534.826	23184.35
535.192	23406.04
535.557	23415.53
535.923	23446.71
536.288	23552.93
536.653	23678.12
537.019	23715.86
537.384	23782.75
537.749	24067.26
538.114	23948.85
538.479	24003.54
538.845	24243.53
539.21	24186.58
539.575	24287.37
539.94	24415.95
540.305	24579.79
540.67	24485.56
541.034	24654.82
541.399	24766.45
541.764	24846
542.129	25040.57
542.494	25010.51
542.858	25169.15
543.223	25300.9
543.587	25323.95
543.952	25320.56
544.316	25398.53
544.681	25436.49
545.045	25542.93
545.41	25612.98
545.774	25666.99
546.138	25734.11
546.503	25890.94
546.867	25797.61
547.231	26035.8
547.595	26137.49
547.959	26266.53
548.324	26144.27
548.688	26439.18
549.052	26506.97
549.416	26446.18
549.779	26508.33
550.143	26547.65
550.507	26764.37
550.871	26911.71
551.235	26956.45
551.599	27130.23
551.962	27215.88
552.326	27198.25
552.689	27432.37
553.053	27307.18
553.417	27486.38
553.78	27895.18
554.143	27718.92
554.507	27780.84
554.87	27864
555.234	28213.14
555.597	27958.69
555.96	28166.59
556.323	28332.69
556.686	28330.65
557.05	28639.57
557.413	28598.89
557.776	28794.14
558.139	28925.67
558.502	28922.5
558.865	28975.16
559.228	29297.86
559.59	29299.22
559.953	29415.14
560.316	29705.76
560.679	29724.06
561.041	29873.44
561.404	30014.68
561.767	30241.79
562.129	30143.26
562.492	30544.83
562.854	30381.45
563.217	30416.47
563.579	30718.39
563.941	30756.8
564.304	30939.4
564.666	31120.41
565.028	31273.4
565.39	31340.07
565.753	31371.48
566.115	31535.77
566.477	31807.4
566.839	31795.42
567.201	32101.85
567.563	31968.07
567.925	32268.63
568.287	32343.66
568.648	32380.04
569.01	32593.82
569.372	32725.57
569.734	32735.96
570.095	32840.59
570.457	32907.03
570.819	33227.02
571.18	33131.43
571.542	33368.94
571.903	33348.83
572.265	33488.26
572.626	33579.33
572.987	33787.46
573.349	33769.15
573.71	33954.46
574.071	33961.69
574.432	34201.91
574.794	34368.69
575.155	34295.69
575.516	34119.88
575.877	34427.89
576.238	34475.35
576.599	34648.68
576.96	34654.55
577.32	34746.08
577.681	34887.32
578.042	34785.4
578.403	34950.59
578.763	35039.18
579.124	35013.87
579.485	35133.41
579.845	35271.49
580.206	35258.83
580.566	35242.11
580.927	35345.16
581.287	35334.76
581.648	35226.97
582.008	35422.9
582.368	35418.38
582.728	35493.85
583.089	35659.95
583.449	35579.28
583.809	35662.66
584.169	35653.4
584.529	35476
584.889	35778.59
585.249	35653.17
585.609	35521.65
585.969	35867.63
586.329	35732.04
586.688	35812.26
587.048	35779.5
587.408	35691.82
587.768	35820.85
588.127	35823.11
588.487	35741.98
588.846	35883.68
589.206	35733.17
589.565	35866.27
589.925	35963.67
590.284	35805.49
590.643	35920.06
591.003	36137
591.362	36000.73
591.721	36057.91
592.08	36041.64
592.44	35951.24
592.799	36190.33
593.158	36081.41
593.517	36071.69
593.876	36249.77
594.235	36090.9
594.593	36050.9
594.952	36216.77
595.311	36035.54
595.67	36338.35
596.029	36467.84
596.387	36527.73
596.746	36477.11
597.104	36290.44
597.463	36351.46
597.822	36539.03
598.18	36374.96
598.538	36475.75
598.897	36639.14
599.255	36344.68
599.613	37050.2
599.972	36757.32
600.33	36800.49
600.688	36617.67
601.046	36915.96
601.404	36930.65
601.762	36833.48
602.12	37246.8
602.478	37004.1
602.836	37141.95
603.194	36895.4
603.552	37077.32
603.91	36995.28
604.268	37152.34
604.625	37032.57
604.983	37163.87
605.341	37150.99
605.698	37266.69
606.056	37348.04
606.413	37370.19
606.771	37426.91
607.128	37425.78
607.485	37362.05
607.843	37557.98
608.2	37671.88
608.557	37748.48
608.914	37746.23
609.272	37895.37
609.629	37948.48
609.986	38185.99
610.343	37991.87
610.7	38184.86
611.057	38129.72
611.414	38208.59
611.771	38313.22
612.127	38291.07
612.484	38450.84
612.841	38527.22
613.198	38454.45
613.554	38518.63
613.911	38651.29
614.267	38656.48
614.624	38596.15
614.98	38722.92
615.337	38991.84
615.693	38839.53
616.05	38781
616.406	39092.63
616.762	38912.97
617.118	39073.42
617.475	39041.33
617.831	39162.68
618.187	39158.84
618.543	39352.51
618.899	39582.33
619.255	39284.04
619.611	39177.6
619.967	39591.6
620.323	39631.83
620.678	39493.75
621.034	39364.04
621.39	39545.05
621.746	39459.85
622.101	39933.74
622.457	39476.58
622.812	39637.02
623.168	39830.24
623.523	39804.25
623.879	39914.53
624.234	39766.51
624.589	39859.84
624.945	39819.39
625.3	39898.26
625.655	39918.6
626.01	39953.62
626.365	40023.45
626.72	39948.43
627.075	39892.61
627.43	39959.5
627.785	39896.9
628.14	39976
628.495	40108.42
628.85	40061.42
629.205	40020.52
629.559	40235.65
629.914	39991.82
630.269	40012.15
630.623	39914.3
630.978	39860.52
631.332	40237.91
631.687	40139.83
632.041	39947.75
632.396	40012.83
632.75	39991.36
633.104	39981.42
633.459	39748.88
633.813	39810.35
634.167	39948.65
634.521	39803.12
634.875	39768.77
635.229	39889.67
635.583	39429.34
635.937	39721.99
636.291	39576.91
636.645	39690.13
636.999	39463.47
637.352	39679.51
637.706	39427.54
638.06	39684.48
638.413	39509.79
638.767	39465.28
639.121	39430.02
639.474	39296.47
639.828	39345.73
640.181	39482.22
640.534	39451.26
640.888	39345.51
641.241	39255.79
641.594	39232.51
641.947	39265.96
642.301	39208.79
642.654	39270.25
643.007	39308.9
643.36	39113.87
643.713	39272.74
644.066	39335.34
644.419	38912.3
644.771	38826.87
645.124	38501.01
645.477	38381.24
645.83	38161.13
646.182	38036.16
646.535	37918.2
646.888	37966.78
647.24	37701.03
647.593	37935.37
647.945	37781.25
648.298	37696.28
648.65	37671.42
649.002	37664.87
649.355	37651.31
649.707	37695.15
650.059	37894.02
650.411	38287
650.763	38299.88
651.115	38634.79
651.467	38537.84
651.819	38516.6
652.171	38367.68
652.523	38427.56
652.875	38289.94
653.227	38318.87
653.578	38453.55
653.93	38516.6
654.282	38272.09
654.633	38336.94
654.985	38313.67
655.337	38279.54
655.688	38230.51
656.039	38316.83
656.391	37984.86
656.742	38063.28
657.094	38077.29
657.445	38288.36
657.796	38076.61
658.147	38089.04
658.498	37939.21
658.849	38111.41
659.2	38015.6
659.551	37902.38
659.902	38039.55
660.253	38021.92
660.604	38035.71
660.955	37840.69
661.306	38008.59
661.656	37842.72
662.007	37947.12
662.358	37924.3
662.708	37886.33
663.059	37768.15
663.409	37734.7
663.76	37944.64
664.11	37909.38
664.461	37830.74
664.811	37894.02
665.161	37846.34
665.511	37746
665.862	37864.19
666.212	37933.11
666.562	37903.96
666.912	37801.14
667.262	37748.71
667.612	37759.78
667.962	37703.74
668.312	37799.56
668.662	37855.15
669.011	37755.94
669.361	37726.34
669.711	37645.66
670.06	37627.58
670.41	37671.42
670.76	37592.56
671.109	37737.86
671.459	37708.26
671.808	37589.17
672.157	37727.47
672.507	37475.05
672.856	37498.77
673.205	37503.29
673.554	37727.24
673.904	37533.35
674.253	37616.28
674.602	37516.4
674.951	37055.62
675.3	36818.79
675.649	37398.44
675.998	37495.61
676.346	37404.54
676.695	37403.41
677.044	37230.98
677.393	37332.45
677.741	37475.5
678.09	37284.99
678.438	37200.48
678.787	37371.09
679.135	37269.18
679.484	37059.46
679.832	37132
680.181	36851.33
680.529	37151.89
680.877	36920.94
681.225	36871.22
681.573	37080.25
681.922	36792.58
682.27	36696.99
682.618	36717.1
682.966	36565.01
683.314	36522.3
683.661	36638.68
684.009	36486.6
684.357	36294.06
684.705	36226.49
685.053	36342.65
685.4	36215.19
685.748	36113.05
686.095	35946.5
686.443	35937.46
686.79	35857.46
687.138	36027.4
687.485	35941.98
687.832	35753.74
688.18	35838.7
688.527	35648.2
688.874	35630.57
689.221	35589.22
689.568	35458.38
689.915	35460.41
690.262	35438.72
690.609	35421.54
690.956	35264.71
691.303	35237.59
691.65	35023.36
691.997	34994.66
692.344	34915.56
692.69	34849.35
693.037	34827.66
693.383	34587.44
693.73	34668.57
694.077	34496.82
694.423	34458.85
694.769	34379.53
695.116	34311.74
695.462	34248.69
695.808	34255.47
696.155	34181.12
696.501	34014.57
696.847	33991.3
697.193	33628.37
697.539	33871.3
697.885	33551.53
698.231	33581.59
698.577	33438.09
698.923	33364.87
699.269	33254.14
699.614	32979.12
699.96	33159.45
700.306	33140.24
700.651	32895.51
700.997	32749.29
701.342	32785
701.688	32702.29
702.033	32575.06
702.379	32655.96
702.724	32570.09
703.069	32617.77
703.415	32200.83
703.76	32291
704.105	32277.44
704.45	32098.24
704.795	31852.59
705.14	31839.49
705.485	31815.08
705.83	31699.6
706.175	31731.69
706.52	31524.02
706.865	31499.84
707.209	31449.67
707.554	31366.51
707.899	31412.83
708.243	31290.35
708.588	31298.26
708.932	31029.11
709.277	31082.67
709.621	30991.37
709.966	30821.44
710.31	30884.71
710.654	30564.27
710.998	30740.76
711.342	30646.52
711.687	30699.63
712.031	30628.67
712.375	30418.96
712.719	30474.55
713.063	30351.84
713.407	30353.65
713.75	30341.9
714.094	30258.96
714.438	30136.48
714.782	30185.29
715.125	29973.1
715.469	30100.1
715.812	29853.33
716.156	29702.59
716.499	29721.13
716.843	29862.36
717.186	29576.5
717.53	29631.86
717.873	29639.32
718.216	29550.28
718.559	29411.75
718.902	29162.5
719.246	29292.89
719.589	29284.53
719.932	29084.53
720.275	29103.29
720.617	29155.49
720.96	29066
721.303	29050.63
721.646	29089.96
721.989	28681.83
722.331	28980.58
722.674	28793.92
723.016	28774.48
723.359	28764.54
723.701	28675.96
724.044	28488.39
724.386	28420.37
724.729	28664.43
725.071	28531.33
725.413	28491.1
725.755	28484.1
726.097	28404.1
726.439	28151.45
726.782	28311.22
727.124	28254.72
727.465	28038.68
727.807	28146.7
728.149	28143.54
728.491	28133.37
728.833	28189.19
729.175	27895.64
729.516	27925.01
729.858	27881.63
730.199	28002.3
730.541	27890.21
730.882	27832.81
731.224	27808.86
731.565	27769.09
731.906	27559.15
732.248	27737.22
732.589	27556.66
732.93	27431.69
733.271	27505.59
733.612	27343.11
733.953	27437.12
734.294	27324.58
734.635	27184.92
734.976	27321.87
735.317	27153.96
735.658	27089.33
735.999	27155.54
736.339	27005.26
736.68	27106.28
737.021	27082.55
737.361	26958.94
737.702	26962.33
738.042	26963.23
738.383	26922.55
738.723	26960.52
739.063	26684.82
739.404	26848.21
739.744	26691.83
740.084	26630.13
740.424	26710.13
740.764	26637.59
741.104	26650.7
741.444	26537.03
741.784	26436.47
742.124	26468.33
742.464	26485.5
742.804	26399.86
743.143	26344.72
743.483	26368.9
743.823	26144.27
744.162	26133.65
744.502	26197.83
744.841	26087.1
745.181	26248.45
745.52	25972.52
745.86	26101.11
746.199	25973.88
746.538	26020.43
746.877	26063.59
747.216	25962.81
747.556	25804.84
747.895	25958.29
748.234	25790.38
748.573	25691.63
748.911	25669.71
749.25	25687.79
749.589	25521.69
749.928	25621.8
750.267	25562.59
750.605	25388.36
750.944	25474.46
751.283	25333.22
751.621	25380.9
751.96	25206.67
752.298	25211.19
752.636	25168.93
752.975	25101.81
753.313	24988.59
753.651	25061.13
753.989	24879.22
754.327	24857.07
754.666	24778.2
755.004	24868.37
755.342	24800.58
755.679	24639.45
756.017	24606.46
756.355	24628.15
756.693	24388.38
757.031	24443.07
757.368	24424.99
757.706	24483.75
758.044	24296.18
758.381	24318.78
758.719	24188.39
759.056	24190.65
759.394	24083.99
759.731	23999.69
760.068	23966.25
760.405	23832.92
760.743	23711.11
761.08	23677.67
761.417	23677.22
761.754	23544.11
762.091	23513.38
762.428	23472.25
762.765	23313.16
763.102	23316.32
763.438	23209.43
763.775	23147.06
764.112	23224.8
764.449	23133.95
764.785	23096.44
765.122	22928.99
765.458	22801.53
765.795	22814.64
766.131	22752.49
766.467	22631.82
766.804	22574.87
767.14	22499.39
767.476	22500.3
767.812	22353.86
768.148	22247.65
768.485	22185.28
768.821	22227.31
769.157	22073.64
769.492	22008.11
769.828	22028.9
770.164	21741.22
770.5	21641.34
770.836	21677.72
771.171	21588.68
771.507	21545.3
771.842	21418.07
772.178	21353.89
772.513	21388.92
772.849	21314.79
773.184	21177.85
773.519	21171.07
773.855	21132.2
774.19	20950.06
774.525	20947.57
774.86	20881.58
775.195	20815.14
775.53	20801.13
775.865	20565.66
776.2	20610.4
776.535	20402.05
776.87	20472.1
777.205	20251.54
777.539	20213.35
777.874	20267.14
778.209	20016.52
778.543	20026.69
778.878	19915.06
779.212	19884.32
779.547	19667.38
779.881	19796.41
780.215	19685.01
780.55	19656.08
780.884	19585.35
781.218	19429.87
781.552	19488.17
781.886	19301.29
782.22	19280.95
782.554	19205.47
782.888	19043.89
783.222	18945.36
783.556	18894.74
783.889	18824.24
784.223	18722.09
784.557	18637.12
784.89	18654.07
785.224	18452.95
785.557	18483.45
785.891	18465.83
786.224	18367.75
786.558	18305.15
786.891	18264.25
787.224	18154.2
787.557	18066.74
787.891	18135.89
788.224	17999.4
788.557	18024.94
788.89	17967.08
789.223	17939.97
789.556	17814.77
789.888	17731.16
790.221	17679.18
790.554	17548.11
790.887	17523.71
791.219	17513.08
791.552	17456.14
791.884	17391.51
792.217	17281.45
792.549	17229.02
792.882	17062.48
793.214	17120.1
793.546	17036.04
793.879	16930.73
794.211	16902.93
794.543	16935.25
794.875	16833.1
795.207	16795.36
795.539	16775.7
795.871	16761.69
796.203	16618.42
796.535	16579.55
796.867	16518.31
797.198	16402.15
797.53	16384.07
797.862	16326.22
798.193	16313.57
798.525	16170.52
798.856	16188.6
799.188	16067.92
799.519	15996.97
799.85	15995.61
800.182	15962.84
800.513	15909.51
800.844	15708.39
801.175	15859.12
801.506	15892.56
801.837	15820.02
802.168	15673.59
802.499	15614.38
802.83	15522.63
803.161	15527.15
803.491	15538.22
803.822	15476.98
804.153	15477.21
804.483	15336.64
804.814	15252.13
805.145	15241.05
805.475	15292.58
805.805	15212.81
806.136	15150.89
806.466	15093.49
806.796	15076.99
807.126	14995.64
807.457	14945.69
807.787	14985.92
808.117	14911.35
808.447	14797.45
808.777	14900.05
809.107	14739.37
809.436	14703.44
809.766	14759.94
810.096	14686.49
810.426	14559.94
810.755	14597.23
811.085	14496.21
811.414	14480.62
811.744	14386.39
812.073	14374.86
812.403	14261.87
812.732	14222.1
813.061	14303.68
813.39	14169.67
813.719	14201.76
814.049	14160.63
814.378	14096
814.707	14107.52
815.036	14019.17
815.365	14034.98
815.693	13883.35
816.022	13890.13
816.351	13877.7
816.68	13857.59
817.008	13813.29
817.337	13671.83
817.665	13581.66
817.994	13704.82
818.322	13684.94
818.651	13636.8
818.979	13592.96
819.307	13624.15
819.636	13601.78
819.964	13530.14
820.292	13547.31
820.62	13495.11
820.948	13536.24
821.276	13511.16
821.604	13466.64
821.932	13417.6
822.259	13510.48
822.587	13433.19
822.915	13377.6
823.243	13446.98
823.57	13414.66
823.898	13432.74
824.225	13315.23
824.553	13327.21
824.88	13371.5
825.207	13406.07
825.535	13455.79
825.862	13355.91
826.189	13400.88
826.516	13421.21
826.843	13398.16
827.17	13298.05
827.497	13400.2
827.824	13412.4
828.151	13458.28
828.478	13334.66
828.805	13415.57
829.131	13296.92
829.458	13286.53
829.785	13321.56
830.111	13284.27
830.438	13290.6
830.764	13312.52
831.09	13326.53
831.417	13258.06
831.743	13363.36
832.069	13280.65
832.395	13162.92
832.722	13262.12
833.048	13257.6
833.374	13310.03
833.7	13173.99
834.026	13197.49
834.351	13192.07
834.677	13200.66
835.003	13216.02
835.329	13111.62
835.654	13105.97
835.98	13107.78
836.306	13071.17
836.631	13032.07
836.956	13165.63
837.282	13052.64
837.607	13086.08
837.932	12972.19
838.258	12998.18
838.583	12950.04
838.908	12929.48
839.233	12893.32
839.558	12882.02
839.883	12875.01
840.208	12849.7
840.533	12896.48
840.858	12786.88
841.182	12760.22
841.507	12771.97
841.832	12783.27
842.156	12708.24
842.481	12641.35
842.805	12629.82
843.13	12581.91
843.454	12572.88
843.778	12509.15
844.103	12517.51
844.427	12439.32
844.751	12471.18
845.075	12463.27
845.399	12447.23
845.723	12358.87
846.047	12359.1
846.371	12244.07
846.695	12277.74
847.019	12196.84
847.343	12138.99
847.666	11978.31
847.99	11969.73
848.313	11937.64
848.637	11913.91
848.96	11843.18
849.284	11831.88
849.607	11770.86
849.931	11757.08
850.254	11637.31
850.577	11565.9
850.9	11548.95
851.223	11496.75
851.546	11452.91
851.869	11344.66
852.192	11455.84
852.515	11398.67
852.838	11226.02
853.161	11268.05
853.483	11193.02
853.806	11234.15
854.129	11165.23
854.451	11050.2
854.774	11011.33
855.096	11029.87
855.419	10924.11
855.741	10946.25
856.063	10916.65
856.385	10875.52
856.708	10809.31
857.03	10806.59
857.352	10843.2
857.674	10827.38
857.996	10790.32
858.318	10674.39
858.64	10684.34
858.961	10649.54
859.283	10607.28
859.605	10527.96
859.926	10612.7
860.248	10590.55
860.57	10526.15
860.891	10496.32
861.212	10442.31
861.534	10399.6
861.855	10371.58
862.176	10392.14
862.498	10428.53
862.819	10327.28
863.14	10361.41
863.461	10333.84
863.782	10252.71
864.103	10218.14
864.424	10221.3
864.745	10226.5
865.065	10208.87
865.386	10195.09
865.707	10164.8
866.027	10163.9
866.348	10092.04
866.668	10141.98
866.989	10014.75
867.309	9988.31
867.63	10071.92
867.95	10062.21
868.27	9972.04
868.59	10032.6
868.91	10007.75
869.23	9934.53
869.55	9927.3
869.87	9954.87
870.19	9899.73
870.51	9890.46
870.83	9867.64
871.15	9794.42
871.469	9846.85
871.789	9900.63
872.109	9765.72
872.428	9739.28
872.748	9780.63
873.067	9768.43
873.386	9843.68
873.706	9692.5
874.025	9710.8
874.344	9630.13
874.663	9646.17
874.982	9623.12
875.301	9628.09
875.62	9635.78
875.939	9592.16
876.258	9575.67
876.577	9595.55
876.896	9556.23
877.214	9550.81
877.533	9553.75
877.852	9499.28
878.17	9519.62
878.489	9500.87
878.807	9423.35
879.125	9479.17
879.444	9473.97
879.762	9387.87
880.08	9384.48
880.398	9309.01
880.716	9386.29
881.034	9367.99
881.352	9301.55
881.67	9327.76
881.988	9318.95
882.306	9235.11
882.624	9245.28
882.941	9220.65
883.259	9163.47
883.577	9141.33
883.894	9157.37
884.212	9117.37
884.529	9095
884.846	9111.95
885.164	9078.96
885.481	9016.13
885.798	9055.45
886.115	9046.64
886.432	8979.75
886.75	8936.81
887.067	9015.91
887.383	8921.22
887.7	8980.65
888.017	8948.11
888.334	8912.41
888.651	8849.13
888.967	8829.7
889.284	8826.31
889.6	8797.61
889.917	8734.33
890.233	8767.33
890.55	8650.94
890.866	8713.32
891.182	8634.67
891.498	8655.69
891.815	8577.05
892.131	8521.23
892.447	8544.96
892.763	8523.49
893.079	8579.31
893.395	8487.11
893.71	8417.05
894.026	8420.89
894.342	8438.75
894.657	8419.54
894.973	8342.25
895.289	8350.16
895.604	8306.55
895.92	8258.64
896.235	8249.37
896.55	8227.45
896.865	8204.4
897.181	8207.79
897.496	8196.04
897.811	8102.94
898.126	8086.67
898.441	8064.97
898.756	8047.8
899.071	7949.04
899.386	7984.3
899.7	7916.27
900.015	7897.74
900.33	7817.97
900.644	7857.52
900.959	7895.94
901.273	7839.21
901.588	7778.43
901.902	7707.24
902.216	7772.32
902.531	7657.52
902.845	7653.91
903.159	7615.94
903.473	7561.26
903.787	7587.92
904.101	7468.6
904.415	7578.66
904.729	7519.45
905.042	7438.77
905.356	7503.4
905.67	7424.31
905.984	7386.12
906.297	7380.24
906.611	7318.55
906.924	7297.53
907.237	7290.98
907.551	7249.85
907.864	7257.99
908.177	7196.07
908.491	7194.26
908.804	7139.35
909.117	7131.44
909.43	7089.18
909.743	7046.92
910.056	7003.53
910.368	6997.65
910.681	6923.98
910.994	6886.92
911.307	6936.87
911.619	6883.53
911.932	6879.24
912.244	6820.71
912.557	6807.15
912.869	6766.93
913.181	6761.5
913.494	6718.34
913.806	6681.73
914.118	6661.62
914.43	6624.33
914.742	6574.84
915.054	6543.88
915.366	6534.84
915.678	6491.23
915.99	6506.82
916.302	6408.07
916.613	6464.11
916.925	6411.91
917.236	6441.51
917.548	6354.06
917.859	6364
918.171	6282.42
918.482	6298.69
918.794	6282.19
919.105	6234.29
919.416	6189.09
919.727	6168.52
920.038	6159.71
920.349	6096.66
920.66	6099.37
920.971	6092.82
921.282	6084.68
921.593	5995.42
921.903	5974.63
922.214	5953.61
922.525	5961.3
922.835	5921.98
923.146	5897.34
923.456	5912.94
923.767	5813.96
924.077	5873.62
924.387	5806.5
924.697	5807.63
925.008	5757.91
925.318	5726.95
925.628	5735.77
925.938	5707.07
926.248	5652.83
926.558	5645.15
926.867	5611.93
927.177	5595.43
927.487	5566.73
927.796	5545.04
928.106	5578.71
928.416	5479.05
928.725	5497.81
929.034	5430.24
929.344	5417.81
929.653	5429.11
929.962	5387.98
930.271	5377.81
930.581	5386.4
930.89	5306.17
931.199	5295.78
931.508	5263.46
931.817	5257.59
932.125	5238.15
932.434	5249.9
932.743	5191.83
933.051	5187.99
933.36	5171.04
933.669	5083.81
933.977	5087.65
934.286	5066.63
934.594	5034.32
934.902	5031.15
935.21	5013.98
935.519	4987.54
935.827	4917.48
936.135	4931.95
936.443	4906.86
936.751	4896.69
937.059	4810.82
937.367	4871.84
937.674	4858.05
937.982	4818.96
938.29	4782.57
938.597	4810.82
938.905	4739.41
939.213	4717.04
939.52	4664.38
939.827	4708.9
940.135	4691.5
940.442	4659.64
940.749	4678.17
941.056	4623.48
941.363	4604.27
941.67	4600.88
941.977	4557.27
942.284	4533.76
942.591	4511.17
942.898	4439.3
943.205	4483.6
943.511	4470.72
943.818	4445.41
944.125	4430.26
944.431	4379.64
944.738	4390.27
945.044	4419.87
945.35	4374.67
945.657	4349.59
945.963	4277.73
946.269	4290.38
946.575	4257.16
946.881	4226.88
947.187	4254.9
947.493	4236.15
947.799	4235.47
948.105	4198.86
948.41	4181.01
948.716	4207.9
949.022	4155.24
949.327	4127.45
949.633	4063.95
949.938	4096.04
950.244	4091.29
950.549	4029.37
950.854	4007.9
951.16	4056.49
951.465	3962.25
951.77	3990.73
952.075	3967.23
952.38	3946.44
952.685	3922.71
952.99	3945.76
953.294	3929.04
953.599	3867.57
953.904	3853.56
954.209	3812.43
954.513	3822.15
954.818	3817.17
955.122	3799.55
955.426	3798.64
955.731	3775.82
956.035	3744.63
956.339	3757.29
956.643	3696.95
956.948	3672.09
957.252	3646.56
957.556	3664.41
957.86	3649.49
958.163	3602.72
958.467	3603.85
958.771	3556.62
959.075	3599.33
959.378	3581.02
959.682	3506
959.985	3555.26
960.289	3536.05
960.592	3507.13
960.896	3452.44
961.199	3474.81
961.502	3475.26
961.805	3444.53
962.108	3393.68
962.411	3428.71
962.714	3391.65
963.017	3369.5
963.32	3374.47
963.623	3360.91
963.926	3353.91
964.228	3307.81
964.531	3299.67
964.833	3275.72
965.136	3277.07
965.438	3304.87
965.741	3226.68
966.043	3247.02
966.345	3268.49
966.648	3214.93
966.95	3246.57
967.252	3178.32
967.554	3169.73
967.856	3181.94
968.158	3132.22
968.46	3140.81
968.761	3146.68
969.063	3108.49
969.365	3119.79
969.666	3046.8
969.968	3050.19
970.269	3062.84
970.571	3063.52
970.872	3040.02
971.174	3028.27
971.475	2990.08
971.776	2976.97
972.077	2928.84
972.378	2974.48
972.679	2964.54
972.98	2891.77
973.281	2930.42
973.582	2899.23
973.883	2906.69
974.183	2880.7
974.484	2841.83
974.785	2833.7
975.085	2886.12
975.386	2855.39
975.686	2822.17
975.986	2792.79
976.287	2794.38
976.587	2750.08
976.887	2815.17
977.187	2784.43
977.487	2765.22
977.787	2729.52
978.087	2764.32
978.387	2704.21
978.687	2697.2
978.987	2692.01
979.286	2654.94
979.586	2678.67
979.885	2670.31
980.185	2661.27
980.484	2649.75
980.784	2628.05
981.083	2573.82
981.382	2622.4
981.682	2606.81
981.981	2600.03
982.28	2592.57
982.579	2549.64
982.878	2547.15
983.177	2551.44
983.475	2546.02
983.774	2554.83
984.073	2513.03
984.372	2502.18
984.67	2450.2
984.969	2492.01
985.267	2471.9
985.566	2440.49
985.864	2428.74
986.162	2420.15
986.461	2427.38
986.759	2381.73
987.057	2366.36
987.355	2400.04
987.653	2366.59
987.951	2371.11
988.249	2320.26
988.547	2335.18
988.844	2343.77
989.142	2322.75
989.44	2299.02
989.737	2269.64
990.035	2291.79
990.332	2296.76
990.63	2312.13
990.927	2264.67
991.224	2216.54
991.521	2258.12
991.819	2216.76
992.116	2236.88
992.413	2231.68
992.71	2210.66
993.006	2186.93
993.303	2194.17
993.6	2172.47
993.897	2158.23
994.193	2162.3
994.49	2145.58
994.787	2150.1
995.083	2132.02
995.379	2122.53
995.676	2133.83
995.972	2098.8
996.268	2091.12
996.565	2056.54
996.861	2109.65
997.157	2048.63
997.453	2047.73
997.749	2015.41
998.044	1984.23
998.34	2012.48
998.636	1987.17
998.932	1996.43
999.227	1943.55
999.523	1994.17
999.818	1939.26
1000.114	1964.34
1000.409	1911.46
1000.704	1933.61
1001	1913.27
1001.295	1915.3
1001.59	1902.65
1001.885	1896.32
1002.18	1876.89
1002.475	1888.86
1002.77	1863.1
1003.065	1857.9
1003.359	1857.9
1003.654	1817.23
1003.949	1826.94
1004.243	1826.49
1004.538	1819.71
1004.832	1795.98
1005.127	1794.85
1005.421	1788.3
1005.715	1766.83
1006.009	1739.26
1006.304	1727.51
1006.598	1734.06
1006.892	1725.93
1007.186	1720.28
1007.48	1692.48
1007.773	1682.77
1008.067	1691.81
1008.361	1695.87
1008.655	1681.64
1008.948	1641.19
1009.242	1644.8
1009.535	1621.98
1009.829	1664.69
1010.122	1623.11
1010.415	1633.05
1010.708	1608.64
1011.001	1577.91
1011.295	1601.86
1011.588	1593.05
1011.881	1572.94
1012.173	1586.05
1012.466	1547.85
1012.759	1529.1
1013.052	1530
1013.344	1536.78
1013.637	1521.64
1013.93	1507.63
1014.222	1497.46
1014.514	1504.01
1014.807	1488.87
1015.099	1469.89
1015.391	1477.35
1015.683	1438.93
1015.976	1424.47
1016.268	1438.48
1016.56	1415.43
1016.851	1425.15
1017.143	1429.44
1017.435	1424.47
1017.727	1403.23
1018.018	1372.72
1018.31	1372.49
1018.602	1359.39
1018.893	1361.19
1019.185	1355.77
1019.476	1328.65
1019.767	1347.86
1020.058	1353.74
1020.35	1321.19
1020.641	1337.69
1020.932	1304.25
1021.223	1271.48
1021.514	1292.95
1021.804	1270.35
1022.095	1292.27
1022.386	1262.44
1022.677	1247.75
1022.967	1271.25
1023.258	1237.13
1023.548	1244.13
1023.839	1241.42
1024.129	1239.39
1024.419	1227.64
1024.709	1220.63
1025	1227.86
1025.29	1192.84
1025.58	1187.19
1025.87	1172.72
1026.16	1146.28
1026.449	1170.24
1026.739	1141.31
1027.029	1133.18
1027.319	1117.81
1027.608	1140.18
1027.898	1148.32
1028.187	1113.97
1028.477	1151.93
1028.766	1108.77
1029.055	1110.8
1029.344	1077.13
1029.634	1069.22
1029.923	1083.69
1030.212	1078.71
1030.501	1050.24
1030.79	1054.99
1031.078	1040.3
1031.367	1051.82
1031.656	1024.93
1031.945	1044.37
1032.233	1020.41
1032.522	1008.21
1032.81	1015.67
1033.099	1014.76
1033.387	1022.67
1033.675	1007.76
1033.963	996.68
1034.251	982.67
1034.54	963.24
1034.828	988.32
1035.116	957.36
1035.403	962.56
1035.691	929.34
1035.979	914.88
1036.267	930.02
1036.554	958.72
1036.842	931.83
1037.129	911.26
1037.417	924.59
1037.704	902.22
1037.992	925.72
1038.279	911.94
1038.566	904.48
1038.853	904.48
1039.14	904.48
