Data from hue_180_FLMS001491_00077.txt Node
Date: Tue Feb 07 16:47:28 GMT 2017
User: dcchb
Spectrometer: FLMS00149
Trigger mode: 0
Integration Time (sec): 2.000000E-2
Scans to average: 10
Electric dark correction enabled: true
Nonlinearity correction enabled: false
Boxcar width: 0
XAxis mode: Wavelengths
Number of Pixels in Spectrum: 2048
>>>>>Begin Spectral Data<<<<<
341.393	-19.97
341.776	-19.97
342.16	-19.97
342.543	-52.96
342.927	-62.46
343.31	-75.56
343.693	-54.09
344.077	-62.68
344.46	-55.45
344.843	-59.07
345.226	-54.09
345.61	-30.37
345.993	-28.33
346.376	10.99
346.759	23.42
347.142	36.52
347.525	30.65
347.908	67.71
348.291	59.8
348.674	88.73
349.057	101.83
349.44	118.1
349.823	124.88
350.206	168.72
350.588	208.05
350.971	204.2
351.354	200.36
351.737	223.19
352.119	242.39
352.502	255.5
352.884	272.22
353.267	269.29
353.65	324.43
354.032	284.88
354.414	310.42
354.797	303.18
355.179	315.84
355.562	319.23
355.944	341.38
356.326	345.22
356.709	335.5
357.091	349.51
357.473	321.04
357.855	333.92
358.238	335.27
358.62	340.25
359.002	329.4
359.384	340.02
359.766	318.55
360.148	329.62
360.53	348.15
360.912	352.45
361.294	343.64
361.676	334.6
362.057	334.14
362.439	350.19
362.821	309.06
363.203	325.78
363.584	324.2
363.966	324.65
364.348	326.46
364.729	335.27
365.111	303.64
365.493	325.33
365.874	332.79
366.256	316.07
366.637	318.78
367.019	330.08
367.4	338.44
367.781	324.2
368.163	300.47
368.544	320.58
368.925	314.94
369.306	322.62
369.688	307.7
370.069	318.55
370.45	301.15
370.831	311.55
371.212	321.04
371.593	322.39
371.974	295.27
372.355	312.9
372.736	308.83
373.117	305.67
373.498	319.23
373.879	292.56
374.26	310.19
374.641	311.09
375.021	325.56
375.402	310.87
375.783	298.89
376.163	323.07
376.544	320.13
376.925	341.83
377.305	325.1
377.686	335.73
378.066	329.17
378.447	336.18
378.827	330.08
379.208	345.89
379.588	330.08
379.968	324.43
380.349	335.73
380.729	339.79
381.109	342.96
381.489	323.97
381.87	330.75
382.25	341.15
382.63	344.76
383.01	333.92
383.39	335.27
383.77	340.02
384.15	337.99
384.53	337.31
384.91	354.48
385.29	332.11
385.67	344.54
386.049	340.02
386.429	361.04
386.809	342.73
387.189	335.5
387.568	333.01
387.948	353.58
388.328	348.61
388.707	350.41
389.087	359.91
389.466	368.27
389.846	354.71
390.225	351.09
390.605	368.72
390.984	354.71
391.363	373.69
391.743	375.5
392.122	351.32
392.501	390.41
392.881	361.71
393.26	379.57
393.639	390.41
394.018	361.04
394.397	354.71
394.776	362.84
395.155	365.1
395.534	364.2
395.913	386.35
396.292	361.49
396.671	381.83
397.05	371.66
397.429	385.44
397.808	390.64
398.186	373.01
398.565	387.48
398.944	389.96
399.323	383.63
399.701	403.52
400.08	418.44
400.458	410.53
400.837	399
401.215	399.68
401.594	406.46
401.972	416.18
402.351	418.66
402.729	422.95
403.107	431.54
403.486	421.15
403.864	418.89
404.242	418.44
404.62	436.06
404.999	435.16
405.377	433.58
405.755	408.04
406.133	447.14
406.511	444.65
406.889	457.08
407.267	474.25
407.645	433.12
408.023	455.72
408.401	470.86
408.779	438.55
409.156	476.29
409.534	481.48
409.912	484.87
410.29	493.91
410.667	480.35
411.045	511.77
411.422	521.48
411.8	551.09
412.178	523.29
412.555	557.19
412.933	540.01
413.31	547.7
413.687	549.73
414.065	558.54
414.442	561.48
414.819	580.92
415.197	567.36
415.574	589.28
415.951	584.98
416.328	604.19
416.705	605.78
417.082	602.39
417.46	602.16
417.837	626.57
418.214	637.41
418.591	642.61
418.967	663.63
419.344	649.16
419.721	670.18
420.098	679.9
420.475	654.59
420.852	688.71
421.228	692.55
421.605	698.65
421.982	717.86
422.358	727.58
422.735	727.35
423.111	729.39
423.488	725.09
423.864	756.28
424.241	777.3
424.617	804.19
424.994	777.07
425.37	800.12
425.746	799.22
426.123	843.28
426.499	812.78
426.875	827.69
427.251	824.75
427.627	859.55
428.003	877.18
428.379	881.25
428.756	903.85
429.132	936.39
429.507	895.26
429.883	907.24
430.259	927.57
430.635	943.39
431.011	956.05
431.387	961.92
431.763	1002.6
432.138	979.78
432.514	1005.54
432.89	1016.84
433.265	1055.71
433.641	1056.38
434.016	1070.62
434.392	1083.05
434.767	1127.57
435.143	1073.79
435.518	1116.72
435.894	1142.26
436.269	1203.73
436.644	1165.08
437.02	1183.61
437.395	1205.76
437.77	1203.5
438.145	1264.74
438.52	1265.64
438.895	1272.42
439.271	1287.11
439.646	1302.93
440.021	1306.1
440.395	1337.06
440.77	1324.85
441.145	1357.85
441.52	1410.05
441.895	1389.03
442.27	1413.21
442.645	1420.67
443.019	1436.94
443.394	1451.18
443.769	1459.09
444.143	1441.46
444.518	1465.41
444.892	1524.85
445.267	1513.77
445.641	1523.27
446.016	1512.19
446.39	1541.8
446.764	1540.89
447.139	1561.68
447.513	1560.33
447.887	1605.97
448.262	1569.37
448.636	1580.66
449.01	1659.76
449.384	1652.98
449.758	1662.02
450.132	1702.47
450.506	1681
450.88	1713.54
451.254	1718.29
451.628	1737.27
452.002	1748.57
452.376	1772.07
452.75	1786.31
453.123	1791.28
453.497	1819.08
453.871	1853.88
454.244	1882.35
454.618	1923.93
454.992	1904.05
455.365	1905.63
455.739	1965.97
456.112	1970.48
456.486	2012.52
456.859	2017.94
457.232	2038.73
457.606	2040.54
457.979	2080.31
458.352	2128.9
458.725	2152.63
459.099	2149.92
459.472	2238.5
459.845	2250.48
460.218	2265.39
460.591	2254.77
460.964	2298.84
461.337	2332.28
461.71	2397.14
462.083	2443.47
462.456	2433.98
462.829	2440.08
463.201	2502.45
463.574	2476.91
463.947	2526.85
464.32	2581.99
464.692	2594.42
465.065	2617.25
465.438	2666.51
465.81	2718.04
466.183	2719.84
466.555	2808.2
466.928	2820.18
467.3	2831.48
467.672	2887.3
468.045	2961.87
468.417	3012.04
468.789	3017.24
469.161	3042.1
469.534	3173.17
469.906	3159.15
470.278	3169.1
470.65	3246.84
471.022	3316.44
471.394	3371.35
471.766	3433.95
472.138	3484.12
472.51	3525.25
472.882	3601.63
473.253	3666.26
473.625	3706.94
473.997	3794.84
474.369	3799.59
474.74	3878.91
475.112	3941.96
475.484	4028.28
475.855	4103.76
476.227	4160.48
476.598	4271.67
476.97	4308.73
477.341	4429.86
477.713	4524.32
478.084	4563.41
478.455	4661.94
478.827	4746.01
479.198	4920.01
479.569	4854.7
479.94	5027.58
480.311	5057.41
480.682	5269.16
481.053	5404.52
481.424	5469.6
481.795	5583.95
482.166	5684.06
482.537	5725.41
482.908	5884.73
483.279	5987.33
483.65	6066.65
484.021	6152.3
484.391	6203.82
484.762	6357.94
485.133	6430.71
485.503	6528.11
485.874	6707.99
486.244	6786.4
486.615	6878.6
486.985	6975.33
487.356	7030.69
487.726	7157.02
488.097	7311.81
488.467	7315.88
488.837	7533.73
489.207	7610.56
489.578	7794.06
489.948	7875.64
490.318	7989.99
490.688	8058.91
491.058	8145.01
491.428	8274.05
491.798	8376.64
492.168	8523.53
492.538	8613.47
492.908	8748.84
493.278	8797.42
493.648	8845.56
494.017	8996.06
494.387	9063.63
494.757	9084.65
495.126	9206.23
495.496	9345.88
495.866	9347.47
496.235	9356.73
496.605	9550.4
496.974	9576.84
497.344	9695.48
497.713	9740.22
498.082	9777.51
498.452	9861.58
498.821	9951.29
499.19	9981.12
499.559	9995.81
499.928	10124.85
500.298	10144.96
500.667	10263.6
501.036	10213.66
501.405	10323.26
501.774	10318.97
502.143	10344.95
502.512	10404.61
502.88	10528
503.249	10558.73
503.618	10589.24
503.987	10619.07
504.356	10605.74
504.724	10798.5
505.093	10680.99
505.462	10799.86
505.83	10859.74
506.199	10837.6
506.567	11029
506.936	10982.68
507.304	11077.36
507.672	11115.56
508.041	11090.7
508.409	11199.85
508.777	11134.31
509.145	11267.64
509.514	11179.06
509.882	11316
510.25	11300.64
510.618	11381.76
510.986	11370.69
511.354	11450.91
511.722	11465.15
512.09	11570.01
512.458	11490.23
512.826	11607.75
513.193	11664.69
513.561	11612.49
513.929	11686.61
514.297	11701.53
514.664	11824.69
515.032	11727.97
515.4	11860.62
515.767	11814.52
516.135	11822.88
516.502	11666.5
516.869	11862.88
517.237	11949.66
517.604	11823.79
517.972	11922.31
518.339	11937.68
518.706	11998.02
519.073	12033.05
519.44	11953.27
519.808	12052.71
520.175	12023.1
520.542	12109.43
520.909	12132.25
521.276	12048.64
521.643	12188.75
522.009	12125.02
522.376	12246.15
522.743	12277.78
523.11	12185.13
523.477	12237.33
523.843	12277.33
524.21	12466.03
524.577	12338.35
524.943	12349.42
525.31	12407.05
525.676	12416.76
526.043	12404.79
526.409	12454.05
526.776	12494.73
527.142	12498.57
527.508	12532.24
527.874	12470.1
528.241	12509.87
528.607	12489.76
528.973	12582.18
529.339	12472.58
529.705	12529.98
530.071	12511.68
530.437	12484.56
530.803	12521.62
531.169	12518.91
531.535	12414.28
531.901	12472.36
532.267	12446.37
532.632	12452.7
532.998	12424.67
533.364	12384.45
533.73	12383.54
534.095	12304
534.461	12390.55
534.826	12327.95
535.192	12295.86
535.557	12335.41
535.923	12258.8
536.288	12178.58
536.653	12216.54
537.019	12075.08
537.384	12104.68
537.749	12083.21
538.114	12024.01
538.479	12018.81
538.845	12026.04
539.21	11936.78
539.575	11877.34
539.94	11948.08
540.305	11854.74
540.67	11817.46
541.034	11762.54
541.399	11752.83
541.764	11725.71
542.129	11696.33
542.494	11692.94
542.858	11601.87
543.223	11552.15
543.587	11544.92
543.952	11439.16
544.316	11419.5
544.681	11393.97
545.045	11350.35
545.41	11312.84
545.774	11305.83
546.138	11288.66
546.503	11252.5
546.867	11158.27
547.231	11111.04
547.595	11169.79
547.959	11053.86
548.324	11032.62
548.688	10940.87
549.052	11037.14
549.416	10904.71
549.779	10847.99
550.143	10802.12
550.507	10812.06
550.871	10767.54
551.235	10725.96
551.599	10745.17
551.962	10679.86
552.326	10630.37
552.689	10639.18
553.053	10516.93
553.417	10482.35
553.78	10586.3
554.143	10442.35
554.507	10455.91
554.87	10441.9
555.234	10393.31
555.597	10327.78
555.96	10368.46
556.323	10314.45
556.686	10330.72
557.05	10294.33
557.413	10278.97
557.776	10248.01
558.139	10254.11
558.502	10235.13
558.865	10178.18
559.228	10215.01
559.59	10229.25
559.953	10146.09
560.316	10257.05
560.679	10144.96
561.041	10194.68
561.404	10156.26
561.767	10156.94
562.129	10113.1
562.492	10179.31
562.854	10070.38
563.217	10101.12
563.579	10074
563.941	10150.83
564.304	10192.42
564.666	10106.54
565.028	10193.55
565.39	10110.16
565.753	10136.6
566.115	10114.9
566.477	10051.63
566.839	10121.91
567.201	10129.14
567.563	10070.16
567.925	10202.58
568.287	10178.63
568.648	10093.89
569.01	10123.72
569.372	10102.25
569.734	10081.68
570.095	10130.5
570.457	10159.2
570.819	10164.85
571.18	10121.01
571.542	10150.16
571.903	10174.56
572.265	10128.01
572.626	10189.48
572.987	10166.2
573.349	10121.68
573.71	10166.65
574.071	10130.27
574.432	10205.07
574.794	10211.85
575.155	10217.27
575.516	10188.12
575.877	10164.85
576.238	10205.07
576.599	10253.43
576.96	10121.46
577.32	10232.41
577.681	10259.08
578.042	10144.28
578.403	10123.94
578.763	10179.53
579.124	10245.07
579.485	10250.04
579.845	10228.12
580.206	10201.45
580.566	10204.39
580.927	10120.1
581.287	10180.89
581.648	10130.04
582.008	10126.43
582.368	10191.51
582.728	10156.48
583.089	10119.65
583.449	10129.14
583.809	10129.37
584.169	10133.43
584.529	10078.07
584.889	10092.31
585.249	10042.36
585.609	10011.63
585.969	10057.73
586.329	10036.71
586.688	10063.38
587.048	9988.35
587.408	9988.35
587.768	9937.96
588.127	9988.13
588.487	9954
588.846	10024.51
589.206	9986.32
589.565	9971.4
589.925	9941.8
590.284	9897.73
590.643	9981.8
591.003	9978.41
591.362	9970.73
591.721	9961.69
592.08	9913.55
592.44	9899.77
592.799	9858.19
593.158	9915.81
593.517	9915.13
593.876	9889.6
594.235	9914.91
594.593	9788.81
594.952	9773.44
595.311	9778.19
595.67	9803.27
596.029	9849.83
596.387	9878.07
596.746	9808.7
597.104	9812.99
597.463	9775.7
597.822	9810.28
598.18	9751.98
598.538	9724.86
598.897	9772.31
599.255	9663.16
599.613	9837.62
599.972	9744.52
600.33	9782.71
600.688	9726.67
601.046	9760.56
601.404	9843.27
601.762	9800.11
602.12	9780.9
602.478	9777.51
602.836	9777.74
603.194	9757.62
603.552	9753.33
603.91	9709.94
604.268	9743.84
604.625	9731.18
604.983	9760.34
605.341	9686.21
605.698	9703.84
606.056	9729.38
606.413	9765.76
606.771	9709.94
607.128	9809.6
607.485	9692.09
607.843	9740
608.2	9768.92
608.557	9747.68
608.914	9714.69
609.272	9758.75
609.629	9753.56
609.986	9806.21
610.343	9755.36
610.7	9825.42
611.057	9756.72
611.414	9759.43
611.771	9822.03
612.127	9801.01
612.484	9794.46
612.841	9805.53
613.198	9774.35
613.554	9793.33
613.911	9814.57
614.267	9886.21
614.624	9828.13
614.98	9872.88
615.337	9890.73
615.693	9890.05
616.05	9869.49
616.406	9934.12
616.762	9891.63
617.118	9904.97
617.475	9823.39
617.831	9885.08
618.187	9959.65
618.543	9939.99
618.899	10001.23
619.255	9958.52
619.611	9923.5
619.967	9898.41
620.323	9975.92
620.678	9908.13
621.034	9898.41
621.39	9976.38
621.746	9835.14
622.101	9999.88
622.457	9939.99
622.812	9989.26
623.168	9952.2
623.523	9937.28
623.879	9956.04
624.234	9857.74
624.589	9896.83
624.945	9926.66
625.3	9960.78
625.655	9908.58
626.01	9860.45
626.365	9942.7
626.72	9910.16
627.075	9909.49
627.43	9927.56
627.785	9862.03
628.14	9944.29
628.495	9967.11
628.85	9878.07
629.205	9876.27
629.559	9862.93
629.914	9764.86
630.269	9904.06
630.623	9831.07
630.978	9806.89
631.332	9889.82
631.687	9845.31
632.041	9807.12
632.396	9811.41
632.75	9722.15
633.104	9855.93
633.459	9789.04
633.813	9815.48
634.167	9802.6
634.521	9782.03
634.875	9739.09
635.229	9702.94
635.583	9688.93
635.937	9637.18
636.291	9679.89
636.645	9650.96
636.999	9622.04
637.352	9655.03
637.706	9565.54
638.06	9668.14
638.413	9594.92
638.767	9573.9
639.121	9548.82
639.474	9528.93
639.828	9557.4
640.181	9580.45
640.534	9543.39
640.888	9522.38
641.241	9496.39
641.594	9526.67
641.947	9502.04
642.301	9490.06
642.654	9491.64
643.007	9502.26
643.36	9418.88
643.713	9437.63
644.066	9516.95
644.419	9479.44
644.771	9358.09
645.124	9296.39
645.477	9318.99
645.83	9287.35
646.182	9196.96
646.535	9142.05
646.888	9167.58
647.24	9123.74
647.593	9159.67
647.945	9155.38
648.298	9074.03
648.65	9065.67
649.002	9000.81
649.355	9117.42
649.707	9126.91
650.059	9206
650.411	9246.45
650.763	9324.64
651.115	9410.97
651.467	9300.69
651.819	9296.17
652.171	9361.48
652.523	9281.03
652.875	9378.2
653.227	9310.4
653.578	9362.61
653.93	9373.23
654.282	9342.72
654.633	9268.82
654.985	9304.98
655.337	9296.85
655.688	9335.26
656.039	9437.86
656.391	9288.71
656.742	9281.93
657.094	9299.11
657.445	9374.81
657.796	9368.26
658.147	9382.04
658.498	9422.27
658.849	9358.54
659.2	9384.08
659.551	9351.53
659.902	9391.08
660.253	9369.84
660.604	9430.4
660.955	9256.62
661.306	9371.65
661.656	9346.56
662.007	9399.22
662.358	9355.38
662.708	9434.24
663.059	9387.47
663.409	9381.36
663.76	9408.03
664.11	9503.39
664.461	9451.87
664.811	9392.21
665.161	9423.62
665.511	9374.58
665.862	9398.76
666.212	9429.72
666.562	9461.14
666.912	9365.77
667.262	9399.67
667.612	9428.82
667.962	9403.74
668.312	9406.9
668.662	9405.09
669.011	9501.13
669.361	9387.01
669.711	9470.17
670.06	9327.13
670.41	9384.53
670.76	9350.18
671.109	9420.91
671.459	9371.87
671.808	9329.16
672.157	9307.24
672.507	9326.68
672.856	9283.96
673.205	9308.6
673.554	9327.35
673.904	9286.22
674.253	9317.41
674.602	9347.01
674.951	9198.09
675.3	9140.24
675.649	9275.6
675.998	9264.3
676.346	9267.69
676.695	9246.9
677.044	9221.37
677.393	9213.23
677.741	9273.8
678.09	9180.46
678.438	9244.64
678.787	9197.64
679.135	9227.7
679.484	9113.12
679.832	9189.05
680.181	9085.33
680.529	9153.12
680.877	9131.43
681.225	9099.56
681.573	9095.27
681.922	9086.46
682.27	9001.94
682.618	9020.7
682.966	8971.43
683.314	8987.7
683.661	8973.92
684.009	8874.71
684.357	8858.21
684.705	8883.3
685.053	8922.39
685.4	8807.14
685.748	8856.41
686.095	8774.15
686.443	8745.22
686.79	8748.84
687.138	8757.65
687.485	8776.63
687.832	8737.76
688.18	8776.41
688.527	8672
688.874	8625
689.221	8616.19
689.568	8575.73
689.915	8550.65
690.262	8645.56
690.609	8567.6
690.956	8489.41
691.303	8475.4
691.65	8497.32
691.997	8502.97
692.344	8391.33
692.69	8413.48
693.037	8410.54
693.383	8298.23
693.73	8312.47
694.077	8306.59
694.423	8306.14
694.769	8140.94
695.116	8134.62
695.462	8094.84
695.808	8127.39
696.155	8108.4
696.501	8022.53
696.847	8093.94
697.193	8000.61
697.539	8051
697.885	8013.72
698.231	7904.79
698.577	7910.89
698.923	7945.7
699.269	7844.45
699.614	7764.68
699.96	7710.45
700.306	7746.38
700.651	7746.83
700.997	7733.05
701.342	7640.17
701.688	7634.97
702.033	7637.45
702.379	7598.13
702.724	7611.69
703.069	7555.2
703.415	7467.74
703.76	7423.45
704.105	7473.17
704.45	7515.2
704.795	7369.89
705.14	7426.16
705.485	7405.6
705.83	7340.74
706.175	7310.46
706.52	7272.72
706.865	7288.09
707.209	7210.8
707.554	7210.35
707.899	7222.78
708.243	7204.02
708.588	7213.28
708.932	7131.48
709.277	7175.09
709.621	7109.56
709.966	7037.02
710.31	7087.41
710.654	6989.11
710.998	7032.27
711.342	7008.32
711.687	6977.58
712.031	6933.07
712.375	6914.76
712.719	6935.33
713.063	6887.64
713.407	6971.71
713.75	6885.61
714.094	6947.98
714.438	6841.54
714.782	6893.52
715.125	6853.52
715.469	6876.8
715.812	6765.84
716.156	6731.26
716.499	6752.73
716.843	6769.45
717.186	6716.8
717.53	6717.93
717.873	6826.85
718.216	6741.21
718.559	6718.61
718.902	6648.33
719.246	6659.4
719.589	6684.26
719.932	6626.63
720.275	6674.32
720.617	6606.97
720.96	6650.14
721.303	6721.55
721.646	6610.14
721.989	6591.83
722.331	6628.22
722.674	6585.5
723.016	6587.31
723.359	6578.5
723.701	6616.01
724.044	6554.09
724.386	6533.53
724.729	6548.44
725.071	6547.09
725.413	6498.28
725.755	6516.35
726.097	6467.77
726.439	6507.77
726.782	6506.86
727.124	6568.78
727.465	6497.37
727.807	6512.29
728.149	6518.16
728.491	6436.36
728.833	6501.21
729.175	6499.63
729.516	6497.82
729.858	6496.69
730.199	6508.44
730.541	6445.85
730.882	6505.05
731.224	6461.44
731.565	6451.5
731.906	6483.13
732.248	6484.49
732.589	6485.39
732.93	6444.04
733.271	6453.08
733.612	6445.62
733.953	6461.67
734.294	6476.58
734.635	6447.43
734.976	6490.14
735.317	6518.61
735.658	6502.8
735.999	6508.67
736.339	6498.05
736.68	6536.24
737.021	6512.74
737.361	6499.18
737.702	6542.79
738.042	6546.18
738.383	6525.62
738.723	6531.27
739.063	6537.82
739.404	6545.05
739.744	6523.59
740.084	6590.93
740.424	6566.75
740.764	6636.35
741.104	6616.69
741.444	6618.05
741.784	6635.67
742.124	6615.79
742.464	6668.67
742.804	6676.35
743.143	6671.6
743.483	6723.81
743.823	6686.07
744.162	6673.64
744.502	6811.94
744.841	6827.98
745.181	6836.57
745.52	6784.82
745.86	6870.47
746.199	6933.74
746.538	6988.88
746.877	7043.35
747.216	7074.08
747.556	7077.92
747.895	7168.99
748.234	7204.02
748.573	7218.71
748.911	7280.4
749.25	7364.02
749.589	7354.75
749.928	7446.95
750.267	7488.98
750.605	7591.81
750.944	7617.79
751.283	7714.29
751.621	7876.54
751.96	7875.41
752.298	7959.48
752.636	8066.82
752.975	8159.7
753.313	8215.74
753.651	8409.19
753.989	8471.78
754.327	8547.71
754.666	8625.45
755.004	8848.04
755.342	8868.83
755.679	9043.97
756.017	9158.77
756.355	9330.07
756.693	9366.45
757.031	9534.13
757.368	9645.09
757.706	9831.3
758.044	9926.66
758.381	10054.34
758.719	10235.8
759.056	10454.78
759.394	10493.2
759.731	10633.53
760.068	10787.43
760.405	11017.03
760.743	11144.93
761.08	11311.03
761.417	11451.14
761.754	11551.02
762.091	11786.5
762.428	11853.39
762.765	12053.16
763.102	12246.37
763.438	12423.77
763.775	12447.72
764.112	12703.08
764.449	12870.76
764.785	12960.48
765.122	13136.07
765.458	13273.92
765.795	13371.54
766.131	13596.85
766.467	13804.98
766.804	13816.95
767.14	14005.87
767.476	14164.51
767.812	14260.33
768.148	14408.8
768.485	14517.73
768.821	14555.24
769.157	14756.36
769.492	14963.59
769.828	14985.28
770.164	15000.65
770.5	15159.97
770.836	15332.85
771.171	15329.68
771.507	15477.25
771.842	15458.49
772.178	15690.12
772.513	15749.56
772.849	15817.8
773.184	15832.95
773.519	16042.66
773.855	16030.23
774.19	16083.79
774.525	16187.06
774.86	16256.44
775.195	16325.81
775.53	16385.25
775.865	16306.15
776.2	16402.87
776.535	16394.96
776.87	16491.91
777.205	16460.27
777.539	16547.95
777.874	16626.6
778.209	16635.86
778.543	16694.62
778.878	16611
779.212	16720.38
779.547	16661.4
779.881	16830.43
780.215	16855.07
780.55	16811.22
780.884	16808.29
781.218	16893.93
781.552	16922.41
781.886	16918.57
782.22	16798.34
782.554	16862.07
782.888	16727.84
783.222	16687.84
783.556	16680.83
783.889	16734.62
784.223	16653.94
784.557	16668.4
784.89	16780.72
785.224	16716.31
785.557	16656.43
785.891	16806.48
786.224	16753.6
786.558	16747.95
786.891	16567.39
787.224	16584.11
787.557	16546.82
787.891	16616.65
788.224	16678.35
788.557	16696.88
788.89	16636.31
789.223	16585.69
789.556	16641.96
789.888	16488.75
790.221	16525.58
790.554	16495.98
790.887	16531.01
791.219	16416.21
791.552	16297.79
791.884	16346.83
792.217	16333.5
792.549	16320.84
792.882	16194.07
793.214	16187.51
793.546	16312.93
793.879	16207.17
794.211	16123.33
794.543	16163.56
794.875	16133.28
795.207	16201.52
795.539	16004.24
795.871	16056.89
796.203	15983
796.535	15840.85
796.867	15837.92
797.198	15872.27
797.53	15835.43
797.862	15722.44
798.193	15805.38
798.525	15755.89
798.856	15697.36
799.188	15582.1
799.519	15585.95
799.85	15510.02
800.182	15571.48
800.513	15572.84
800.844	15454.2
801.175	15411.94
801.506	15463.46
801.837	15318.16
802.168	15316.8
802.499	15411.04
802.83	15258.05
803.161	15257.82
803.491	15235.45
803.822	15200.19
804.153	15156.35
804.483	15010.59
804.814	15089.24
805.145	14971.95
805.475	14986.19
805.805	14930.14
806.136	14971.95
806.466	14978.05
806.796	14898.05
807.126	14779.87
807.457	14776.7
807.787	14857.38
808.117	14815.57
808.447	14693.77
808.777	14687.89
809.107	14651.73
809.436	14557.05
809.766	14577.61
810.096	14530.15
810.426	14498.74
810.755	14536.26
811.085	14501.23
811.414	14460.33
811.744	14351.4
812.073	14341.91
812.403	14284.29
812.732	14284.74
813.061	14291.97
813.39	14224.63
813.719	14167.23
814.049	14362.93
814.378	14183.05
814.707	14123.16
815.036	14194.8
815.365	14042.48
815.693	13997.06
816.022	13944.86
816.351	13965.42
816.68	13925.2
817.008	13995.03
817.337	13758.65
817.665	13873
817.994	13845.2
818.322	13786.22
818.651	13782.6
818.979	13662.83
819.307	13706.45
819.636	13786.45
819.964	13625.09
820.292	13658.54
820.62	13791.64
820.948	13560.24
821.276	13711.65
821.604	13678.65
821.932	13733.57
822.259	13681.82
822.587	13607.69
822.915	13650.18
823.243	13625.77
823.57	13626
823.898	13642.95
824.225	13526.79
824.553	13690.63
824.88	13692.44
825.207	13691.08
825.535	13608.15
825.862	13679.56
826.189	13630.97
826.516	13682.95
826.843	13700.57
827.17	13689.72
827.497	13737.41
827.824	13695.6
828.151	13731.31
828.478	13685.66
828.805	13678.65
829.131	13606.56
829.458	13764.98
829.785	13593.23
830.111	13572.21
830.438	13784.41
830.764	13677.07
831.09	13706.22
831.417	13609.05
831.743	13686.34
832.069	13648.14
832.395	13537.41
832.722	13694.7
833.048	13581.25
833.374	13599.56
833.7	13591.2
834.026	13590.74
834.351	13580.58
834.677	13518.88
835.003	13592.33
835.329	13601.82
835.654	13524.76
835.98	13516.17
836.306	13559.33
836.631	13455.15
836.956	13431.88
837.282	13468.94
837.607	13374.93
837.932	13443.86
838.258	13337.19
838.583	13433.69
838.908	13282.05
839.233	13271.2
839.558	13243.18
839.883	13188.04
840.208	13173.81
840.533	13222.39
840.858	13146.24
841.182	13206.8
841.507	13160.25
841.832	13129.51
842.156	13106.69
842.481	13132.23
842.805	13072.11
843.13	12997.77
843.454	13028.73
843.778	12923.87
844.103	12986.92
844.427	12870.54
844.751	12907.82
845.075	12865.34
845.399	12809.75
845.723	12775.62
846.047	12785.57
846.371	12640.49
846.695	12729.75
847.019	12584.9
847.343	12540.38
847.666	12458.34
847.99	12412.92
848.313	12486.37
848.637	12288.18
848.96	12236.43
849.284	12247.95
849.607	12218.35
849.931	12085.93
850.254	12054.29
850.577	11969.77
850.9	11978.36
851.223	11964.35
851.546	11874.86
851.869	11796.89
852.192	11881.64
852.515	11748.53
852.838	11730.45
853.161	11597.58
853.483	11666.73
853.806	11639.61
854.129	11608.2
854.451	11579.5
854.774	11458.37
855.096	11452.95
855.419	11400.07
855.741	11414.08
856.063	11302.44
856.385	11269
856.708	11213.86
857.03	11248.89
857.352	11212.95
857.674	11080.3
857.996	11169.34
858.318	11081.21
858.64	11094.31
858.961	11003.24
859.283	11029.68
859.605	10872.17
859.926	10995.33
860.248	10949.01
860.57	10926.63
860.891	10892.74
861.212	10777.71
861.534	10764.38
861.855	10748.56
862.176	10793.08
862.498	10825.85
862.819	10741.78
863.14	10707.43
863.461	10741.33
863.782	10617.94
864.103	10634.89
864.424	10589.92
864.745	10603.7
865.065	10622.01
865.386	10495.68
865.707	10535.68
866.027	10560.77
866.348	10462.47
866.668	10506.98
866.989	10480.77
867.309	10480.77
867.63	10427.89
867.95	10393.77
868.27	10482.35
868.59	10350.83
868.91	10386.08
869.23	10330.94
869.55	10264.5
869.87	10297.05
870.19	10275.13
870.51	10385.63
870.83	10347.21
871.15	10184.73
871.469	10253.66
871.789	10284.62
872.109	10217.73
872.428	10138.63
872.748	10243.49
873.067	10198.74
873.386	10173.43
873.706	10168.46
874.025	10010.05
874.344	10059.54
874.663	10072.87
874.982	10067.67
875.301	10092.53
875.62	9947
875.939	10046.66
876.258	10037.17
876.577	10024.06
876.896	9993.32
877.214	9964.62
877.533	9929.15
877.852	9896.6
878.17	9885.31
878.489	9924.17
878.807	9865.19
879.125	9870.39
879.444	9798.75
879.762	9808.92
880.08	9829.26
880.398	9811.63
880.716	9775.03
881.034	9709.26
881.352	9786.78
881.67	9715.59
881.988	9683.05
882.306	9688.25
882.624	9643.73
882.941	9608.02
883.259	9634.69
883.577	9581.81
883.894	9574.8
884.212	9510.4
884.529	9549.49
884.846	9442.38
885.164	9516.73
885.481	9398.54
885.798	9448.93
886.115	9370.97
886.432	9420.46
886.75	9403.74
887.067	9387.69
887.383	9296.62
887.7	9276.96
888.017	9305.66
888.334	9291.42
888.651	9194.48
888.967	9216.4
889.284	9111.99
889.6	9132.78
889.917	9067.25
890.233	9093.24
890.55	9034.71
890.866	9080.13
891.182	8978.66
891.498	9011.43
891.815	9028.38
892.131	8924.43
892.447	8937.53
892.763	8876.29
893.079	8916.52
893.395	8808.95
893.71	8811.89
894.026	8761.27
894.342	8791.55
894.657	8741.61
894.973	8704.09
895.289	8674.72
895.604	8695.05
895.92	8601.5
896.235	8504.1
896.55	8586.58
896.865	8528.5
897.181	8527.37
897.496	8585.9
897.811	8437.43
898.126	8450.54
898.441	8366.02
898.756	8427.49
899.071	8357.21
899.386	8263.88
899.7	8255.74
900.015	8202.86
900.33	8129.64
900.644	8110.21
900.959	8165.8
901.273	8161.73
901.588	8118.8
901.902	8032.92
902.216	8046.48
902.531	8017.33
902.845	8003.32
903.159	7937.56
903.473	7954.51
903.787	7819.14
904.101	7868.86
904.415	7812.82
904.729	7797
905.042	7703.67
905.356	7726.49
905.67	7631.35
905.984	7687.62
906.297	7651.69
906.611	7609.21
906.924	7650.56
907.237	7524.69
907.551	7473.62
907.864	7440.17
908.177	7444.24
908.491	7425.26
908.804	7383.68
909.117	7341.19
909.43	7307.97
909.743	7278.14
910.056	7235.88
910.368	7246.28
910.681	7228.43
910.994	7149.56
911.307	7154.3
911.619	7099.84
911.932	7110.91
912.244	7070.46
912.557	7067.07
912.869	6999.73
913.181	6926.06
913.494	6996.79
913.806	6886.06
914.118	6896.91
914.43	6827.31
914.742	6818.94
915.054	6785.73
915.366	6749.12
915.678	6736.01
915.99	6692.62
916.302	6667.08
916.613	6716.8
916.925	6653.3
917.236	6613.75
917.548	6589.57
917.859	6556.58
918.171	6543.7
918.482	6471.38
918.794	6457.82
919.105	6465.06
919.416	6440.65
919.727	6426.86
920.038	6442.46
920.349	6356.13
920.66	6332.18
920.971	6341.67
921.282	6288.56
921.593	6253.99
921.903	6229.36
922.214	6215.8
922.525	6202.92
922.835	6138.96
923.146	6117.49
923.456	6099.87
923.767	6073.88
924.077	6059.42
924.387	6021.68
924.697	5973.09
925.008	6013.77
925.318	5981.9
925.628	5910.04
925.938	5875.02
926.248	5831.17
926.558	5811.06
926.867	5807.22
927.177	5848.8
927.487	5757.73
927.796	5729.03
928.106	5751.85
928.416	5679.31
928.725	5736.94
929.034	5657.17
929.344	5700.1
929.653	5652.65
929.962	5618.98
930.271	5576.72
930.581	5558.19
930.89	5506.44
931.199	5544.18
931.508	5494.46
931.817	5470.05
932.125	5426.67
932.434	5471.64
932.743	5430.28
933.051	5354.12
933.36	5355.71
933.669	5310.06
933.977	5314.13
934.286	5283.84
934.594	5282.04
934.902	5281.36
935.21	5219.89
935.519	5178.31
935.827	5163.4
936.135	5132.89
936.443	5146.67
936.751	5075.26
937.059	5105.77
937.367	5043.4
937.674	5090.4
937.982	5052.89
938.29	5038.43
938.597	4983.96
938.905	4954.81
939.213	4937.86
939.52	4934.93
939.827	4916.62
940.135	4861.03
940.442	4855.38
940.749	4859.67
941.056	4844.99
941.363	4760.02
941.67	4781.03
941.977	4760.24
942.284	4678.89
942.591	4701.26
942.898	4650.41
943.205	4683.18
943.511	4649.74
943.818	4653.35
944.125	4617.42
944.431	4568.16
944.738	4604.99
945.044	4567.03
945.35	4527.93
945.657	4502.4
945.963	4523.41
946.269	4427.6
946.575	4438.44
946.881	4421.95
947.187	4419.23
947.493	4377.2
947.799	4386.01
948.105	4333.81
948.41	4332.46
948.716	4324.55
949.022	4363.87
949.327	4320.48
949.633	4259.24
949.938	4296.98
950.244	4224.44
950.549	4226.47
950.854	4233.25
951.16	4191.67
951.465	4167.04
951.77	4127.04
952.075	4144.89
952.38	4139.47
952.685	4106.25
952.99	4067.15
953.294	4077.77
953.599	4037.55
953.904	4055.18
954.209	4013.6
954.513	4028.51
954.818	3965.46
955.122	3975.86
955.426	3975.4
955.731	3910.55
956.035	3912.81
956.339	3904.67
956.643	3861.96
956.948	3889.3
957.252	3853.15
957.556	3834.39
957.86	3855.86
958.163	3803.43
958.467	3765.69
958.771	3819.7
959.075	3753.04
959.378	3693.38
959.682	3719.59
959.985	3679.59
960.289	3663.55
960.592	3668.29
960.896	3703.77
961.199	3670.78
961.502	3617.67
961.805	3589.2
962.108	3603.21
962.411	3567.96
962.714	3567.51
963.017	3562.99
963.32	3528.18
963.623	3475.53
963.926	3534.29
964.228	3499.48
964.531	3489.54
964.833	3480.05
965.136	3442.99
965.438	3403.67
965.741	3411.58
966.043	3380.62
966.345	3397.57
966.648	3378.58
966.95	3333.61
967.252	3331.58
967.554	3331.58
967.856	3358.02
968.158	3267.17
968.46	3304.91
968.761	3267.85
969.063	3255.87
969.365	3237.8
969.666	3205.25
969.968	3184.92
970.269	3179.27
970.571	3181.07
970.872	3152.15
971.174	3171.81
971.475	3181.75
971.776	3116.22
972.077	3142.43
972.378	3105.14
972.679	3059.72
972.98	3092.94
973.281	3054.75
973.582	3079.61
973.883	3052.04
974.183	3006.84
974.484	3005.03
974.785	2970.46
975.085	2993.73
975.386	2974.53
975.686	2940.85
975.986	2952.83
976.287	2946.05
976.587	2944.02
976.887	2909.9
977.187	2925.71
977.487	2904.02
977.787	2895.43
978.087	2893.17
978.387	2863.79
978.687	2863.12
978.987	2781.09
979.286	2817.02
979.586	2809.56
979.885	2763.01
980.185	2741.09
980.484	2774.31
980.784	2764.59
981.083	2748.32
981.382	2725.95
981.682	2704.93
981.981	2713.29
982.28	2664.48
982.579	2663.12
982.878	2684.59
983.177	2673.29
983.475	2642.11
983.774	2583.35
984.073	2635.1
984.372	2614.99
984.67	2628.09
984.969	2576.12
985.267	2575.89
985.566	2581.09
985.864	2524.37
986.162	2526.18
986.461	2523.69
986.759	2505.16
987.057	2499.28
987.355	2499.06
987.653	2466.29
987.951	2471.71
988.249	2451.83
988.547	2436.69
988.844	2375.45
989.142	2400.53
989.44	2386.52
989.737	2403.24
990.035	2387.42
990.332	2368.21
990.63	2387.88
990.927	2345.16
991.224	2371.83
991.521	2316.92
991.819	2337.71
992.116	2315.33
992.413	2311.49
992.71	2301.78
993.006	2313.07
993.303	2281.66
993.6	2254.55
993.897	2269.91
994.193	2228.11
994.49	2252.06
994.787	2210.7
995.083	2207.09
995.379	2178.39
995.676	2184.49
995.972	2167.54
996.268	2168.22
996.565	2138.16
996.861	2151.95
997.157	2156.69
997.453	2142.01
997.749	2120.99
998.044	2067.21
998.34	2093.65
998.636	2103.36
998.932	2098.84
999.227	2039.86
999.523	2031.95
999.818	2046.87
1000.114	2054.78
1000.409	2002.35
1000.704	1983.82
1001	2000.54
1001.295	1967.32
1001.59	1989.69
1001.885	1974.55
1002.18	1960.09
1002.475	1939.98
1002.77	1917.83
1003.065	1931.39
1003.359	1935.01
1003.654	1894.78
1003.949	1923.25
1004.243	1888.45
1004.538	1862.01
1004.832	1864.72
1005.127	1867.44
1005.421	1853.88
1005.715	1829.47
1006.009	1804.61
1006.304	1833.99
1006.598	1806.42
1006.892	1786.31
1007.186	1758.74
1007.48	1785.63
1007.773	1769.13
1008.067	1772.52
1008.361	1759.64
1008.655	1751.73
1008.948	1717.84
1009.242	1694.11
1009.535	1703.15
1009.829	1721
1010.122	1674.45
1010.415	1630.61
1010.708	1669.48
1011.001	1670.61
1011.295	1648.91
1011.588	1642.13
1011.881	1606.2
1012.173	1617.05
1012.466	1616.14
1012.759	1589.93
1013.052	1592.19
1013.344	1601
1013.637	1581.12
1013.93	1545.64
1014.222	1564.62
1014.514	1542.25
1014.807	1525.52
1015.099	1521.01
1015.391	1499.99
1015.683	1532.53
1015.976	1518.75
1016.268	1481.91
1016.56	1499.76
1016.851	1451.4
1017.143	1457.5
1017.435	1453.21
1017.727	1437.84
1018.018	1430.16
1018.31	1459.54
1018.602	1394.45
1018.893	1399.43
1019.185	1403.72
1019.476	1370.27
1019.767	1385.42
1020.058	1391.29
1020.35	1353.1
1020.641	1351.97
1020.932	1344.96
1021.223	1328.47
1021.514	1323.5
1021.804	1346.55
1022.095	1308.58
1022.386	1316.94
1022.677	1306.55
1022.967	1306.32
1023.258	1289.82
1023.548	1271.29
1023.839	1242.37
1024.129	1254.57
1024.419	1255.7
1024.709	1239.66
1025	1224.29
1025.29	1269.03
1025.58	1217.28
1025.87	1210.5
1026.16	1215.25
1026.449	1185.19
1026.739	1181.81
1027.029	1189.49
1027.319	1177.06
1027.608	1193.78
1027.898	1169.15
1028.187	1144.52
1028.477	1147.46
1028.766	1142.26
1029.055	1145.87
1029.344	1122.6
1029.634	1126.21
1029.923	1116.27
1030.212	1133.67
1030.501	1126.67
1030.79	1081.24
1031.078	1083.28
1031.367	1071.07
1031.656	1057.74
1031.945	1048.25
1032.233	1034.69
1032.522	1044.86
1032.81	1031.3
1033.099	1031.53
1033.387	1030.4
1033.675	996.05
1033.963	1000.34
1034.251	1031.75
1034.54	999.21
1034.828	1010.28
1035.116	972.77
1035.403	959.89
1035.691	971.19
1035.979	977.29
1036.267	984.07
1036.554	958.76
1036.842	962.15
1037.129	963.73
1037.417	937.52
1037.704	919.21
1037.992	920.57
1038.279	917.18
1038.566	915.82
1038.853	915.82
1039.14	915.82
