Data from hue_80_FLMS001491_26.txt Node
Date: Mon Feb 06 15:22:44 GMT 2017
User: dcchb
Spectrometer: FLMS00149
Trigger mode: 0
Integration Time (sec): 2.000000E-2
Scans to average: 10
Electric dark correction enabled: true
Nonlinearity correction enabled: false
Boxcar width: 0
XAxis mode: Wavelengths
Number of Pixels in Spectrum: 2048
>>>>>Begin Spectral Data<<<<<
341.393	-12.27
341.776	-12.27
342.16	-12.27
342.543	-45.27
342.927	-61.31
343.31	-60.41
343.693	-88.43
344.077	-81.88
344.46	-56.34
344.843	-52.5
345.226	-54.76
345.61	-30.35
345.993	-20.86
346.376	-8.43
346.759	15.52
347.142	21.85
347.525	44
347.908	73.15
348.291	91.45
348.674	88.29
349.057	119.7
349.44	131.68
349.823	127.61
350.206	162.19
350.588	196.53
350.971	214.16
351.354	226.14
351.737	238.57
352.119	239.25
352.502	261.39
352.884	258
353.267	298.45
353.65	279.24
354.032	294.38
354.414	325.8
354.797	315.18
355.179	321.05
355.562	332.35
355.944	334.84
356.326	334.61
356.709	331.67
357.091	343.42
357.473	355.17
357.855	361.95
358.238	352.46
358.62	323.99
359.002	343.2
359.384	327.38
359.766	340.94
360.148	361.5
360.53	330.09
360.912	345.23
361.294	325.34
361.676	354.27
362.057	348.62
362.439	338.68
362.821	339.58
363.203	319.69
363.584	330.77
363.966	307.49
364.348	332.35
364.729	325.34
365.111	326.93
365.493	311.33
365.874	306.14
366.256	319.02
366.637	335.29
367.019	335.74
367.4	332.8
367.781	326.47
368.163	320.15
368.544	317.89
368.925	291.45
369.306	329.64
369.688	336.19
370.069	306.14
370.45	311.11
370.831	330.54
371.212	302.07
371.593	313.59
371.974	309.75
372.355	319.47
372.736	306.81
373.117	304.1
373.498	302.75
373.879	310.2
374.26	325.12
374.641	321.95
375.021	303.2
375.402	324.21
375.783	336.87
376.163	335.51
376.544	323.76
376.925	314.05
377.305	322.86
377.686	313.59
378.066	312.92
378.447	321.5
378.827	318.11
379.208	330.99
379.588	317.66
379.968	326.47
380.349	337.1
380.729	338.68
381.109	325.34
381.489	340.49
381.87	340.71
382.25	345.01
382.63	339.58
383.01	326.93
383.39	335.51
383.77	341.16
384.15	353.82
384.53	333.25
384.91	354.72
385.29	340.94
385.67	331.22
386.049	336.87
386.429	342.75
386.809	360.6
387.189	323.08
387.568	351.56
387.948	352.69
388.328	350.88
388.707	344.55
389.087	364.44
389.466	352.24
389.846	360.37
390.225	342.29
390.605	352.69
390.984	347.04
391.363	354.95
391.743	364.21
392.122	360.37
392.501	339.13
392.881	350.2
393.26	365.12
393.639	357.66
394.018	365.34
394.397	371.22
394.776	359.69
395.155	373.7
395.534	350.88
395.913	376.64
396.292	375.74
396.671	371.67
397.05	377.55
397.429	373.7
397.808	368.73
398.186	387.72
398.565	386.81
398.944	372.35
399.323	387.94
399.701	399.01
400.08	383.42
400.458	397.43
400.837	397.21
401.215	379.58
401.594	373.48
401.972	374.16
402.351	377.09
402.729	380.71
403.107	388.85
403.486	380.71
403.864	411.67
404.242	406.47
404.62	413.7
404.999	373.7
405.377	388.17
405.755	403.31
406.133	429.07
406.511	399.69
406.889	397.66
407.267	415.29
407.645	418.68
408.023	396.3
408.401	420.48
408.779	405.79
409.156	414.83
409.534	431.33
409.912	431.56
410.29	418.45
410.667	456.19
411.045	427.04
411.422	450.76
411.8	457.32
412.178	443.99
412.555	441.5
412.933	468.62
413.31	460.93
413.687	474.27
414.065	471.78
414.442	465.23
414.819	466.58
415.197	455.28
415.574	465.23
415.951	464.55
416.328	464.1
416.705	462.52
417.082	474.27
417.46	479.46
417.837	516.07
418.214	478.56
418.591	500.26
418.967	479.92
419.344	482.18
419.721	479.69
420.098	483.76
420.475	483.76
420.852	517.2
421.228	515.17
421.605	523.53
421.982	498.67
422.358	530.08
422.735	496.41
423.111	516.53
423.488	534.83
423.864	525.11
424.241	525.79
424.617	535.28
424.994	530.08
425.37	515.4
425.746	542.29
426.123	555.17
426.499	545.68
426.875	535.51
427.251	540.93
427.627	567.15
428.003	551.1
428.379	552.91
428.756	552.01
429.132	573.02
429.507	554.72
429.883	591.1
430.259	582.51
430.635	598.33
431.011	601.95
431.387	607.6
431.763	585.45
432.138	600.82
432.514	608.05
432.89	625.45
433.265	642.17
433.641	614.6
434.016	657.31
434.392	646.47
434.767	641.27
435.143	657.54
435.518	658.22
435.894	657.77
436.269	639.69
436.644	665.9
437.02	661.38
437.395	673.13
437.77	680.59
438.145	708.39
438.52	696.41
438.895	690.31
439.271	692.79
439.646	695.73
440.021	717.88
440.395	718.33
440.77	715.84
441.145	714.71
441.52	709.74
441.895	727.82
442.27	750.87
442.645	711.1
443.019	761.94
443.394	750.42
443.769	743.41
444.143	756.75
444.518	749.06
444.892	774.6
445.267	754.26
445.641	784.54
446.016	769.85
446.39	776.41
446.764	789.74
447.139	767.59
447.513	801.04
447.887	774.37
448.262	776.41
448.636	788.84
449.01	819.12
449.384	806.69
449.758	827.03
450.132	824.99
450.506	806.69
450.88	830.64
451.254	841.72
451.628	850.08
452.002	874.71
452.376	834.94
452.75	869.06
453.123	858.21
453.497	874.71
453.871	896.4
454.244	893.69
454.618	902.96
454.992	898.66
455.365	906.12
455.739	959.23
456.112	927.81
456.486	949.73
456.859	949.06
457.232	972.11
457.606	963.97
457.979	974.59
458.352	999.68
458.725	1026.34
459.099	1000.13
459.472	1022.28
459.845	1039
460.218	1064.08
460.591	1066.12
460.964	1066.57
461.337	1073.57
461.71	1058.88
462.083	1110.18
462.456	1129.17
462.829	1128.71
463.201	1139.79
463.574	1147.7
463.947	1193.8
464.32	1203.29
464.692	1157.19
465.065	1207.81
465.438	1227.92
465.81	1227.24
466.183	1242.61
466.555	1283.51
466.928	1280.35
467.3	1305.43
467.672	1323.74
468.045	1391.98
468.417	1364.64
468.789	1397.86
469.161	1384.3
469.534	1432.21
469.906	1439.89
470.278	1488.03
470.65	1478.76
471.022	1550.85
471.394	1550.4
471.766	1567.35
472.138	1601.7
472.51	1636.27
472.882	1703.84
473.253	1722.82
473.625	1734.35
473.997	1766.66
474.369	1827.68
474.74	1828.58
475.112	1895.25
475.484	1898.18
475.855	1963.27
476.227	2037.39
476.598	2100.67
476.97	2110.16
477.341	2193.32
477.713	2226.54
478.084	2261.11
478.455	2341.34
478.827	2412.97
479.198	2492.75
479.569	2520.09
479.94	2590.6
480.311	2653.64
480.682	2764.6
481.053	2821.1
481.424	2883.92
481.795	2943.13
482.166	3062
482.537	3156.91
482.908	3217.7
483.279	3297.7
483.65	3381.08
484.021	3508.99
484.391	3598.25
484.762	3692.04
485.133	3738.14
485.503	3813.61
485.874	3979.26
486.244	4031.91
486.615	4200.27
486.985	4290.66
487.356	4483.2
487.726	4542.41
488.097	4678.68
488.467	4733.36
488.837	4872.57
489.207	5049.29
489.578	5154.82
489.948	5250.86
490.318	5442.5
490.688	5501.71
491.058	5616.28
491.428	5790.74
491.798	5934.69
492.168	6112.99
492.538	6166.09
492.908	6331.97
493.278	6481.11
493.648	6523.83
494.017	6675.23
494.387	6838.17
494.757	6951.84
495.126	7121.55
495.496	7196.8
495.866	7341.21
496.235	7459.85
496.605	7537.58
496.974	7724.7
497.344	7852.83
497.713	8021.19
498.082	8067.51
498.452	8215.76
498.821	8265.7
499.19	8481.29
499.559	8627.73
499.928	8651.45
500.298	8774.84
500.667	9002.4
501.036	9032.46
501.405	9185.45
501.774	9239.69
502.143	9312
502.512	9433.35
502.88	9601.48
503.249	9565.1
503.618	9789.28
503.987	9852.1
504.356	9999.44
504.724	10038.08
505.093	10159.44
505.462	10287.34
505.83	10367.11
506.199	10422.93
506.567	10618.86
506.936	10619.76
507.304	10818.85
507.672	10884.84
508.041	10965.74
508.409	11013.2
508.777	11178.39
509.145	11208.22
509.514	11251.38
509.882	11385.84
510.25	11449.8
510.618	11583.13
510.986	11636.46
511.354	11810.24
511.722	11864.25
512.09	12000.74
512.458	11934.53
512.826	12064.47
513.193	12100.85
513.561	12114.41
513.929	12260.4
514.297	12360.73
514.664	12454.52
515.032	12522.99
515.4	12673.49
515.767	12738.8
516.135	12664.68
516.502	12636.43
516.869	12943.09
517.237	12909.19
517.604	12988.97
517.972	13081.17
518.339	13157.78
518.706	13252.01
519.073	13172.69
519.44	13283.42
519.808	13409.29
520.175	13430.99
520.542	13560.7
520.909	13613.13
521.276	13600.25
521.643	13651.1
522.009	13768.83
522.376	13896.51
522.743	13884.08
523.11	14058.32
523.477	14148.71
523.843	14166.79
524.21	14262.38
524.577	14308.25
524.943	14344.86
525.31	14464.63
525.676	14521.58
526.043	14539.43
526.409	14666.21
526.776	14775.59
527.142	14763.61
527.508	14736.72
527.874	14800.44
528.241	14985.07
528.607	14892.87
528.973	14971.74
529.339	15034.79
529.705	15136.71
530.071	15149.59
530.437	15167.67
530.803	15237.27
531.169	15285.63
531.535	15261
531.901	15242.24
532.267	15302.35
532.632	15378.96
532.998	15335.57
533.364	15399.07
533.73	15407.89
534.095	15463.7
534.461	15466.64
534.826	15446.3
535.192	15533.98
535.557	15610.82
535.923	15562.01
536.288	15554.77
536.653	15627.77
537.019	15589.58
537.384	15575.57
537.749	15664.83
538.114	15649.01
538.479	15515
538.845	15665.28
539.21	15582.8
539.575	15620.54
539.94	15624.38
540.305	15632.51
540.67	15584.6
541.034	15653.08
541.399	15697.14
541.764	15718.84
542.129	15746.18
542.494	15673.42
542.858	15635.68
543.223	15621.89
543.587	15680.87
543.952	15646.52
544.316	15571.95
544.681	15603.36
545.045	15639.74
545.41	15689.01
545.774	15592.29
546.138	15580.31
546.503	15661.44
546.867	15549.35
547.231	15602.46
547.595	15614.21
547.959	15615.56
548.324	15553.87
548.688	15580.76
549.052	15612.85
549.416	15638.84
549.779	15585.51
550.143	15583.25
550.507	15628.22
550.871	15679.97
551.235	15548.45
551.599	15647.2
551.962	15642.91
552.326	15595.68
552.689	15615.56
553.053	15540.76
553.417	15611.72
553.78	15797.25
554.143	15617.37
554.507	15640.65
554.87	15576.92
555.234	15681.78
555.597	15639.07
555.96	15678.84
556.323	15624.15
556.686	15663.25
557.05	15631.16
557.413	15760.42
557.776	15713.19
558.139	15781.44
558.502	15700.99
558.865	15743.7
559.228	15741.44
559.59	15759.06
559.953	15794.77
560.316	15949.57
560.679	15892.39
561.041	15934.88
561.404	15997.02
561.767	16037.02
562.129	15954.54
562.492	16151.37
562.854	16048.55
563.217	16104.59
563.579	16077.47
563.941	16147.08
564.304	16230.69
564.666	16157.92
565.028	16196.79
565.39	16263.68
565.753	16322.44
566.115	16408.76
566.477	16417.35
566.839	16377.58
567.201	16499.61
567.563	16486.95
567.925	16641.75
568.287	16541.19
568.648	16554.97
569.01	16666.61
569.372	16685.59
569.734	16601.98
570.095	16768.98
570.457	16750.9
570.819	16701.19
571.18	16793.16
571.542	16749.09
571.903	16896.66
572.265	16830.22
572.626	16970.33
572.987	16857.79
573.349	16878.13
573.71	17041.29
574.071	16899.37
574.432	17013.72
574.794	17111.34
575.155	17041.74
575.516	17050.33
575.877	17100.27
576.238	17079.25
576.599	17129.2
576.96	17167.84
577.32	17093.94
577.681	17250.1
578.042	17231.79
578.403	17301.4
578.763	17230.44
579.124	17246.71
579.485	17308.4
579.845	17328.97
580.206	17293.94
580.566	17279.25
580.927	17235.18
581.287	17275.86
581.648	17189.99
582.008	17335.52
582.368	17286.25
582.728	17342.75
583.089	17247.84
583.449	17242.41
583.809	17328.51
584.169	17411
584.529	17231.79
584.889	17438.34
585.249	17260.72
585.609	17195.18
585.969	17274.28
586.329	17256.42
586.688	17288.29
587.048	17277.67
587.408	17206.48
587.768	17188.18
588.127	17309.08
588.487	17295.52
588.846	17300.49
589.206	17135.3
589.565	17164.9
589.925	17303.88
590.284	17225.69
590.643	17208.06
591.003	17209.87
591.362	17273.6
591.721	17234.96
592.08	17208.97
592.44	17233.15
592.799	17292.58
593.158	17226.37
593.517	17246.93
593.876	17265.46
594.235	17155.86
594.593	17200.38
594.952	17227.27
595.311	17121.06
595.67	17209.65
596.029	17318.57
596.387	17249.19
596.746	17203.32
597.104	17123.77
597.463	17081.97
597.822	17202.87
598.18	17188.18
598.538	17161.74
598.897	17246.93
599.255	17167.39
599.613	17360.6
599.972	17194.05
600.33	17250.78
600.688	17094.4
601.046	17229.08
601.404	17311.79
601.762	17128.52
602.12	17266.82
602.478	17235.63
602.836	17228.18
603.194	17140.27
603.552	17286.93
603.91	17120.84
604.268	17327.16
604.625	17213.94
604.983	17325.58
605.341	17225.24
605.698	17261.4
606.056	17299.59
606.413	17227.72
606.771	17379.13
607.128	17321.51
607.485	17281.28
607.843	17279.93
608.2	17391.79
608.557	17329.19
608.914	17402.64
609.272	17460.71
609.629	17494.38
609.986	17445.57
610.343	17375.07
610.7	17559.47
611.057	17498.23
611.414	17517.89
611.771	17374.61
612.127	17669.75
612.484	17506.14
612.841	17605.34
613.198	17594.72
613.554	17596.3
613.911	17625
614.267	17693.7
614.624	17627.26
614.98	17702.29
615.337	17789.97
615.693	17710.42
616.05	17671.56
616.406	17881.95
616.762	17771.44
617.118	17787.26
617.475	17780.03
617.831	17863.87
618.187	17879.91
618.543	17806.01
618.899	17871.32
619.255	17855.73
619.611	17873.81
619.967	17981.6
620.323	17932.11
620.678	17912.9
621.034	17880.14
621.39	17865.45
621.746	17797.65
622.101	17993.13
622.457	17856.86
622.812	17933.92
623.168	17995.84
623.523	17979.57
623.879	18012.56
624.234	17880.82
624.589	17887.37
624.945	17997.2
625.3	17987.48
625.655	18020.02
626.01	18072.22
626.365	18067.48
626.72	17912.9
627.075	17920.14
627.43	18019.79
627.785	17976.86
628.14	17988.16
628.495	17953.58
628.85	17912.9
629.205	17873.58
629.559	17964.65
629.914	17919.46
630.269	17886.46
630.623	17839.23
630.978	17835.39
631.332	17919.68
631.687	17862.51
632.041	17832.45
632.396	17844.43
632.75	17806.47
633.104	17893.24
633.459	17774.6
633.813	17827.26
634.167	17761.72
634.521	17670.43
634.875	17695.06
635.229	17720.82
635.583	17459.58
635.937	17625
636.291	17596.98
636.645	17527.83
636.999	17590.65
637.352	17598.34
637.706	17470.88
638.06	17509.75
638.413	17522.86
638.767	17495.06
639.121	17563.54
639.474	17489.86
639.828	17419.36
640.181	17502.07
640.534	17484.67
640.888	17304.56
641.241	17332.13
641.594	17404.67
641.947	17459.36
642.301	17354.73
642.654	17423.43
643.007	17394.05
643.36	17352.92
643.713	17321.06
644.066	17342.3
644.419	17280.83
644.771	17164.22
645.124	17006.04
645.477	16918.81
645.83	16850.11
646.182	16761.07
646.535	16683.56
646.888	16843.78
647.24	16690.11
647.593	16775.76
647.945	16746.16
648.298	16749.09
648.65	16711.35
649.002	16599.72
649.355	16785.48
649.707	16599.94
650.059	16800.84
650.411	16905.02
650.763	17037.9
651.115	17110.44
651.467	17122.42
651.819	17129.65
652.171	17019.82
652.523	17108.18
652.875	17089.65
653.227	17009.65
653.578	17143.43
653.93	17058.92
654.282	16993.15
654.633	16995.64
654.985	16940.5
655.337	17138.46
655.688	16936.43
656.039	17063.21
656.391	16822.76
656.742	16935.98
657.094	16900.05
657.445	17087.62
657.796	16939.15
658.147	17055.53
658.498	16896.66
658.849	17005.13
659.2	16941.86
659.551	16997.9
659.902	17077.22
660.253	17019.37
660.604	17050.55
660.955	16930.78
661.306	17189.53
661.656	17051.68
662.007	16971.46
662.358	17025.92
662.708	16974.85
663.059	17072.25
663.409	16932.37
663.76	17096.65
664.11	17010.33
664.461	17116.77
664.811	17164.22
665.161	17026.37
665.511	17037.22
665.862	17100.5
666.212	17102.53
666.562	17010.1
666.912	17007.17
667.262	17107.28
667.612	17122.87
667.962	17086.71
668.312	17032.02
668.662	17176.43
669.011	17156.77
669.361	16885.14
669.711	17067.5
670.06	17004.68
670.41	17015.53
670.76	16918.81
671.109	16966.26
671.459	16972.82
671.808	16965.36
672.157	17020.05
672.507	16764.91
672.856	16873.84
673.205	16908.41
673.554	16929.65
673.904	16928.98
674.253	17000.61
674.602	16919.48
674.951	16627.06
675.3	16572.83
675.649	16904.8
675.998	16798.36
676.346	16821.41
676.695	16814.85
677.044	16719.94
677.393	16790
677.741	16837.68
678.09	16757.68
678.438	16714.52
678.787	16856.44
679.135	16715.65
679.484	16537.8
679.832	16661.19
680.181	16623.67
680.529	16639.27
680.877	16592.49
681.225	16489.67
681.573	16747.06
681.922	16537.35
682.27	16472.49
682.618	16499.83
682.966	16457.58
683.314	16402.89
683.661	16427.07
684.009	16249.9
684.357	16199.73
684.705	16218.49
685.053	16205.83
685.4	16224.36
685.748	16083.35
686.095	16067.3
686.443	16026.4
686.79	16137.36
687.138	16127.87
687.485	16082.67
687.832	15923.8
688.18	15966.29
688.527	15964.26
688.874	15876.8
689.221	15908.44
689.568	15781.21
689.915	15756.8
690.262	15710.25
690.609	15639.52
690.956	15634.77
691.303	15629.8
691.65	15534.66
691.997	15510.26
692.344	15366.53
692.69	15387.77
693.037	15428.45
693.383	15237.95
693.73	15322.69
694.077	15178.29
694.423	15234.11
694.769	15079.31
695.116	15083.6
695.462	15129.25
695.808	14932.19
696.155	15041.34
696.501	14831.18
696.847	14799.99
697.193	14710.96
697.539	14799.77
697.885	14633.44
698.231	14597.29
698.577	14610.62
698.923	14564.52
699.269	14559.55
699.614	14369.95
699.96	14412.43
700.306	14408.59
700.651	14250.85
700.997	14287.24
701.342	14188.03
701.688	14198.65
702.033	14070.29
702.379	14122.72
702.724	14080.24
703.069	14038.43
703.415	13929.73
703.76	13865.55
704.105	13908.04
704.45	13842.96
704.795	13720.25
705.14	13732.22
705.485	13680.7
705.83	13620.59
706.175	13698.78
706.52	13593.02
706.865	13542.4
707.209	13543.3
707.554	13409.97
707.899	13575.62
708.243	13427.15
708.588	13359.58
708.932	13237.1
709.277	13282.07
709.621	13239.81
709.966	13149.64
710.31	13195.97
710.654	13089.98
710.998	13114.61
711.342	13029.64
711.687	12959.36
712.031	12947.84
712.375	12887.95
712.719	12940.61
713.063	12850.66
713.407	12911.45
713.75	12833.94
714.094	12765.7
714.438	12776.54
714.782	12852.02
715.125	12703.32
715.469	12732.02
715.812	12692.03
716.156	12611.8
716.499	12662.2
716.843	12695.64
717.186	12602.08
717.53	12685.92
717.873	12576.55
718.216	12554.4
718.559	12575.19
718.902	12483.67
719.246	12456.55
719.589	12433.95
719.932	12384.91
720.275	12469.43
720.617	12408.19
720.96	12344.46
721.303	12430.79
721.646	12324.13
721.989	12326.16
722.331	12351.7
722.674	12352.15
723.016	12283.67
723.359	12285.26
723.701	12271.92
724.044	12288.19
724.386	12161.87
724.729	12257.46
725.071	12172.49
725.413	12207.29
725.755	12161.19
726.097	12157.35
726.439	12084.36
726.782	12040.06
727.124	12115.09
727.465	12075.77
727.807	12062.21
728.149	12111.25
728.491	12098.82
728.833	12109.22
729.175	12075.09
729.516	12012.95
729.858	12018.14
730.199	12030.35
730.541	12023.12
730.882	12005.49
731.224	12071.25
731.565	11951.71
731.906	11944.02
732.248	11949.45
732.589	11867.64
732.93	11857.02
733.271	11909.22
733.612	11947.41
733.953	12040.29
734.294	12000.52
734.635	11950.12
734.976	11976.56
735.317	11882.55
735.658	11821.77
735.999	11939.5
736.339	11895.21
736.68	11938.6
737.021	11955.32
737.361	11836.68
737.702	11990.57
738.042	11869.22
738.383	11964.36
738.723	11957.81
739.063	11847.3
739.404	11946.28
739.744	11907.19
740.084	11910.12
740.424	12012.04
740.764	11932.27
741.104	12010.69
741.444	11952.38
741.784	11926.4
742.124	12028.54
742.464	11915.1
742.804	12032.16
743.143	11955.77
743.483	11998.71
743.823	11985.15
744.162	12103.34
744.502	12146.5
744.841	12087.97
745.181	12126.16
745.52	12130.01
745.86	12225.82
746.199	12289.1
746.538	12289.55
746.877	12324.58
747.216	12381.07
747.556	12312.83
747.895	12407.06
748.234	12475.76
748.573	12494.74
748.911	12556.44
749.25	12663.55
749.589	12601.41
749.928	12731.57
750.267	12758.01
750.605	12829.87
750.944	12833.04
751.283	12859.7
751.621	13052.92
751.96	13034.16
752.298	13105.8
752.636	13258.56
752.975	13176.76
753.313	13276.87
753.651	13476.41
753.989	13521.83
754.327	13614.26
754.666	13588.05
755.004	13727.7
755.342	13914.37
755.679	13947.36
756.017	13942.39
756.355	14100.58
756.693	14222.61
757.031	14382.83
757.368	14345.09
757.706	14403.17
758.044	14553.9
758.381	14666.89
758.719	14841.57
759.056	14932.19
759.394	15012.42
759.731	15012.64
760.068	15093.32
760.405	15272.52
760.743	15370.15
761.08	15522.69
761.417	15545.06
761.754	15677.03
762.091	15788.44
762.428	15885.84
762.765	15924.03
763.102	16098.04
763.438	16058.72
763.775	16185.27
764.112	16276.11
764.449	16547.52
764.785	16524.69
765.122	16544.35
765.458	16662.32
765.795	16802.2
766.131	16839.71
766.467	16907.96
766.804	16872.93
767.14	16912.71
767.476	16996.77
767.812	16987.73
768.148	17182.3
768.485	17174.17
768.821	17161.96
769.157	17267.27
769.492	17274.96
769.828	17376.65
770.164	17317.67
770.5	17438.11
770.836	17518.79
771.171	17424.1
771.507	17433.6
771.842	17356.08
772.178	17572.8
772.513	17476.31
772.849	17604.89
773.184	17511.79
773.519	17626.36
773.855	17569.41
774.19	17618.68
774.525	17605.12
774.86	17615.51
775.195	17690.76
775.53	17585.68
775.865	17550.43
776.2	17422.07
776.535	17415.06
776.87	17482.41
777.205	17462.52
777.539	17441.05
777.874	17496.42
778.209	17367.38
778.543	17398.57
778.878	17381.62
779.212	17361.73
779.547	17265.01
779.881	17376.42
780.215	17204.67
780.55	17276.76
780.884	17182.3
781.218	17215.07
781.552	17304.11
781.886	17197.67
782.22	17027.73
782.554	17014.85
782.888	16868.19
783.222	16895.76
783.556	16836.32
783.889	16856.21
784.223	16799.26
784.557	16761.3
784.89	16735.99
785.224	16728.08
785.557	16664.58
785.891	16673.39
786.224	16641.3
786.558	16561.08
786.891	16480.17
787.224	16431.81
787.557	16476.56
787.891	16347.97
788.224	16366.73
788.557	16363.34
788.89	16345.49
789.223	16385.94
789.556	16184.59
789.888	16207.41
790.221	16098.94
790.554	15971.49
790.887	16146.85
791.219	15957.25
791.552	15960.87
791.884	15856.24
792.217	15857.59
792.549	15854.2
792.882	15718.39
793.214	15649.46
793.546	15653.76
793.879	15694.88
794.211	15550.03
794.543	15583.93
794.875	15548.45
795.207	15666.64
795.539	15533.08
795.871	15488.56
796.203	15327.21
796.535	15226.42
796.867	15215.12
797.198	15236.82
797.53	15152.53
797.862	15121.57
798.193	15205.86
798.525	15103.94
798.856	15118.85
799.188	14953.21
799.519	14941.23
799.85	14844.28
800.182	14881.8
800.513	14832.31
800.844	14754.12
801.175	14799.54
801.506	14690.62
801.837	14744.63
802.168	14665.31
802.499	14638.64
802.83	14533.11
803.161	14473
803.491	14514.35
803.822	14525.42
804.153	14400
804.483	14310.06
804.814	14210.86
805.145	14299.67
805.475	14216.73
805.805	14170.63
806.136	14157.3
806.466	14212.44
806.796	14164.98
807.126	14058.54
807.457	14017.19
807.787	14025.32
808.117	13874.59
808.447	13978.32
808.777	13874.14
809.107	13896.51
809.436	13797.98
809.766	13807.48
810.096	13785.78
810.426	13670.3
810.755	13788.95
811.085	13710.76
811.414	13660.36
811.744	13548.95
812.073	13462.17
812.403	13507.82
812.732	13365.68
813.061	13392.57
813.39	13357.77
813.719	13391.44
814.049	13400.03
814.378	13344.89
814.707	13291.33
815.036	13244.33
815.365	13151.22
815.693	13197.32
816.022	13116.65
816.351	13054.28
816.68	13052.69
817.008	13027.16
817.337	12954.62
817.665	12950.78
817.994	13017.44
818.322	12952.81
818.651	12842.08
818.979	12936.54
819.307	12961.85
819.636	12822.42
819.964	12751.91
820.292	12864.68
820.62	12865.58
820.948	12771.57
821.276	12807.05
821.604	12680.95
821.932	12697.67
822.259	12788.07
822.587	12731.12
822.915	12755.3
823.243	12762.76
823.57	12776.77
823.898	12723.21
824.225	12683.44
824.553	12635.3
824.88	12735.64
825.207	12729.76
825.535	12781.97
825.862	12679.14
826.189	12606.15
826.516	12767.5
826.843	12751.46
827.17	12709.43
827.497	12732.7
827.824	12703.55
828.151	12760.05
828.478	12666.04
828.805	12707.62
829.131	12623.55
829.458	12660.84
829.785	12618.35
830.111	12593.27
830.438	12638.69
830.764	12695.64
831.09	12711.46
831.417	12621.29
831.743	12649.99
832.069	12612.25
832.395	12628.52
832.722	12658.81
833.048	12572.25
833.374	12631.24
833.7	12593.5
834.026	12543.33
834.351	12561.18
834.677	12552.37
835.003	12623.33
835.329	12487.74
835.654	12536.77
835.98	12425.37
836.306	12478.7
836.631	12426.04
836.956	12452.71
837.282	12475.53
837.607	12459.26
837.932	12398.25
838.258	12443.22
838.583	12381.3
838.908	12384.24
839.233	12269.66
839.558	12341.3
839.883	12246.61
840.208	12181.08
840.533	12231.47
840.858	12233.51
841.182	12289.78
841.507	12105.37
841.832	12090.01
842.156	12144.24
842.481	12055.43
842.805	12054.08
843.13	12124.36
843.454	12014.53
843.778	11993.74
844.103	11912.61
844.427	11901.99
844.751	11924.81
845.075	11908.09
845.399	11781.99
845.723	11786.96
846.047	11783.57
846.371	11691.37
846.695	11685.72
847.019	11609.34
847.343	11591.94
847.666	11556.69
847.99	11459.52
848.313	11422.68
848.637	11451.38
848.96	11388.78
849.284	11358.73
849.607	11234.66
849.931	11248.22
850.254	11087.1
850.577	11071.05
850.9	10977.49
851.223	10989.7
851.546	10900.43
851.869	10837.38
852.192	10869.25
852.515	10803.04
852.838	10782.92
853.161	10800.78
853.483	10801.68
853.806	10650.5
854.129	10696.37
854.451	10644.17
854.774	10555.81
855.096	10535.47
855.419	10490.28
855.741	10494.57
856.063	10466.77
856.385	10375.02
856.708	10395.36
857.03	10340
857.352	10335.48
857.674	10311.97
857.996	10301.58
858.318	10274.24
858.64	10268.81
858.961	10152.88
859.283	10122.83
859.605	10072.21
859.926	10163.96
860.248	10077.63
860.57	10053
860.891	10083.28
861.212	9958.09
861.534	10063.17
861.855	9942.04
862.176	9979.78
862.498	9894.58
862.819	9965.54
863.14	9883.96
863.461	9833.34
863.782	9799.22
864.103	9778.43
864.424	9781.14
864.745	9766.23
865.065	9822.04
865.386	9721.93
865.707	9664.99
866.027	9730.3
866.348	9679.67
866.668	9719.9
866.989	9696.17
867.309	9550.41
867.63	9621.6
867.95	9538.89
868.27	9557.87
868.59	9596.74
868.91	9580.92
869.23	9574.82
869.55	9445.56
869.87	9470.41
870.19	9468.16
870.51	9533.46
870.83	9475.84
871.15	9382.96
871.469	9417.76
871.789	9514.26
872.109	9417.31
872.428	9364.65
872.748	9362.4
873.067	9355.16
873.386	9366.24
873.706	9305.67
874.025	9251.44
874.344	9208.27
874.663	9338.67
874.982	9238.1
875.301	9225.68
875.62	9255.73
875.939	9291.44
876.258	9346.8
876.577	9143.42
876.896	9167.82
877.214	9109.75
877.533	9180.48
877.852	9174.38
878.17	9087.37
878.489	9067.71
878.807	9105.68
879.125	9051.44
879.444	9087.37
879.762	9055.06
880.08	9110.88
880.398	9001.5
880.716	9051.67
881.034	8954.04
881.352	8972.57
881.67	8970.09
881.988	8955.4
882.306	8899.36
882.624	8894.38
882.941	8883.31
883.259	8805.12
883.577	8775.97
883.894	8765.57
884.212	8784.56
884.529	8730.55
884.846	8727.61
885.164	8712.69
885.481	8660.27
885.798	8713.82
886.115	8648.06
886.432	8708.63
886.75	8613.94
887.067	8602.42
887.383	8495.98
887.7	8557.67
888.017	8502.76
888.334	8505.92
888.651	8461.4
888.967	8495.98
889.284	8386.15
889.6	8435.64
889.917	8336.66
890.233	8357.9
890.55	8339.15
890.866	8375.08
891.182	8332.14
891.498	8258.47
891.815	8241.52
892.131	8225.25
892.447	8231.35
892.763	8176.66
893.079	8180.05
893.395	8146.61
893.71	8075.2
894.026	8105.03
894.342	8027.97
894.657	8053.73
894.973	7994.52
895.289	7980.28
895.604	8004.69
895.92	7997.01
896.235	7889.89
896.55	7857.35
896.865	7825.49
897.181	7810.12
897.496	7806.5
897.811	7761.99
898.126	7806.73
898.441	7728.31
898.756	7704.81
899.071	7637.92
899.386	7636.34
899.7	7569.22
900.015	7572.16
900.33	7516.34
900.644	7492.39
900.959	7448.77
901.273	7461.65
901.588	7386.18
901.902	7380.75
902.216	7408.32
902.531	7400.19
902.845	7331.49
903.159	7300.98
903.473	7289.23
903.787	7201.77
904.101	7214.88
904.415	7185.05
904.729	7161.1
905.042	7116.8
905.356	7143.24
905.67	7151.15
905.984	7040.87
906.297	7009.24
906.611	7040.2
906.924	6986.64
907.237	6969.01
907.551	6905.06
907.864	6905.06
908.177	6875.68
908.491	6882.46
908.804	6832.52
909.117	6796.59
909.43	6776.25
909.743	6722.01
910.056	6772.86
910.368	6646.31
910.681	6637.49
910.994	6656.7
911.307	6588.91
911.619	6557.5
911.932	6591.39
912.244	6498.52
912.557	6507.33
912.869	6502.81
913.181	6442.47
913.494	6461
913.806	6396.6
914.118	6370.84
914.43	6371.74
914.742	6335.36
915.054	6292.42
915.366	6305.3
915.678	6203.83
915.99	6217.17
916.302	6226.21
916.613	6176.26
916.925	6142.82
917.236	6180.78
917.548	6053.1
917.859	6127.23
918.171	6060.79
918.482	6027.34
918.794	5985.99
919.105	5956.38
919.416	5940.11
919.727	5915.25
920.038	5892.66
920.349	5876.16
920.66	5870.06
920.971	5834.13
921.282	5789.83
921.593	5758.65
921.903	5734.69
922.214	5731.3
922.525	5715.94
922.835	5677.29
923.146	5645.88
923.456	5595.26
923.767	5626.22
924.077	5597.3
924.387	5583.29
924.697	5542.16
925.008	5556.62
925.318	5503.51
925.628	5505.55
925.938	5488.6
926.248	5418.09
926.558	5389.84
926.867	5426.23
927.177	5416.96
927.487	5306
927.796	5299
928.106	5314.14
928.416	5272.79
928.725	5258.55
929.034	5260.13
929.344	5240.7
929.653	5174.03
929.962	5163.64
930.271	5146.46
930.581	5120.7
930.89	5084.77
931.199	5039.12
931.508	5066.01
931.817	5047.93
932.125	5049.97
932.434	5018.1
932.743	4940.59
933.051	4913.25
933.36	4916.41
933.669	4890.2
933.977	4912.12
934.286	4865.11
934.594	4852.46
934.902	4832.12
935.21	4794.15
935.519	4799.58
935.827	4804.1
936.135	4778.56
936.443	4672.35
936.751	4753.48
937.059	4719.13
937.367	4677.77
937.674	4681.61
937.982	4680.26
938.29	4633.93
938.597	4643.65
938.905	4563.88
939.213	4558.45
939.52	4524.78
939.827	4581.28
940.135	4487.04
940.442	4465.57
940.749	4506.7
941.056	4435.29
941.363	4417.21
941.67	4417.89
941.977	4362.75
942.284	4361.4
942.591	4321.62
942.898	4306.03
943.205	4318.69
943.511	4282.3
943.818	4329.53
944.125	4267.84
944.431	4187.84
944.738	4240.72
945.044	4214.96
945.35	4195.53
945.657	4147.39
945.963	4175.64
946.269	4131.8
946.575	4138.8
946.881	4136.77
947.187	4070.33
947.493	4080.73
947.799	4094.96
948.105	3994.4
948.41	3966.6
948.716	4023.55
949.022	4009.99
949.327	4020.61
949.633	3958.47
949.938	3913.27
950.244	3906.27
950.549	3854.29
950.854	3875.31
951.16	3869.66
951.465	3779.94
951.77	3810.45
952.075	3791.47
952.38	3816.55
952.685	3842.09
952.99	3747.63
953.294	3756.67
953.599	3745.37
953.904	3712.83
954.209	3666.05
954.513	3641.19
954.818	3660.4
955.122	3640.74
955.426	3655.88
955.731	3594.19
956.035	3583.79
956.339	3631.02
956.643	3570.01
956.948	3563.23
957.252	3562.1
957.556	3537.46
957.86	3506.73
958.163	3506.05
958.467	3449.1
958.771	3513.51
959.075	3489.56
959.378	3440.74
959.682	3432.16
959.985	3418.82
960.289	3457.47
960.592	3386.06
960.896	3384.02
961.199	3393.06
961.502	3340.86
961.805	3327.75
962.108	3324.81
962.411	3319.84
962.714	3263.57
963.017	3240.07
963.32	3254.31
963.623	3237.13
963.926	3233.52
964.228	3219.73
964.531	3210.24
964.833	3184.48
965.136	3150.81
965.438	3154.65
965.741	3129.56
966.043	3114.65
966.345	3111.26
966.648	3084.37
966.95	3121.2
967.252	3081.43
967.554	3053.86
967.856	3035.56
968.158	3036.23
968.46	3037.82
968.761	3002.34
969.063	3026.06
969.365	2999.17
969.666	3009.34
969.968	2966.63
970.269	2931.15
970.571	2969.57
970.872	2937.48
971.174	2914.43
971.475	2893.64
971.776	2910.81
972.077	2861.78
972.378	2870.59
972.679	2852.74
972.98	2818.39
973.281	2779.07
973.582	2848.44
973.883	2837.82
974.183	2768.9
974.484	2760.31
974.785	2753.3
975.085	2758.05
975.386	2769.35
975.686	2744.49
975.986	2726.86
976.287	2715.56
976.587	2678.05
976.887	2653.64
977.187	2687.77
977.487	2666.75
977.787	2660.2
978.087	2636.7
978.387	2606.41
978.687	2604.83
978.987	2593.76
979.286	2571.84
979.586	2590.6
979.885	2575
980.185	2564.61
980.484	2563.48
980.784	2544.27
981.083	2539.52
981.382	2524.61
981.682	2520.09
981.981	2513.31
982.28	2488.23
982.579	2463.14
982.878	2471.28
983.177	2440.54
983.475	2458.17
983.774	2443.03
984.073	2407.1
984.372	2404.16
984.67	2433.76
984.969	2391.96
985.267	2413.2
985.566	2361.45
985.864	2368.45
986.162	2353.99
986.461	2357.61
986.759	2330.72
987.057	2290.49
987.355	2279.19
987.653	2311.06
987.951	2268.8
988.249	2262.69
988.547	2301.79
988.844	2250.94
989.142	2284.62
989.44	2265.63
989.737	2252.3
990.035	2220.89
990.332	2194
990.63	2213.2
990.927	2187.67
991.224	2178.18
991.521	2172.75
991.819	2145.41
992.116	2152.19
992.413	2163.04
992.71	2135.01
993.006	2137.95
993.303	2141.12
993.6	2124.39
993.897	2109.93
994.193	2116.71
994.49	2036.03
994.787	2080.1
995.083	2048.46
995.379	2026.32
995.676	2018.18
995.972	2022.93
996.268	2013.44
996.565	1995.81
996.861	2005.98
997.157	1991.06
997.453	1997.84
997.749	1958.3
998.044	1953.55
998.34	1950.39
998.636	1973.44
998.932	1944.06
999.227	1913.55
999.523	1922.82
999.818	1888.47
1000.114	1909.26
1000.409	1895.92
1000.704	1866.55
1001	1823.38
1001.295	1831.29
1001.59	1836.72
1001.885	1831.97
1002.18	1828.13
1002.475	1812.09
1002.77	1789.49
1003.065	1778.19
1003.359	1781.8
1003.654	1781.8
1003.949	1762.82
1004.243	1760.56
1004.538	1756.72
1004.832	1718.3
1005.127	1743.39
1005.421	1708.81
1005.715	1696.83
1006.009	1704.74
1006.304	1699.77
1006.598	1691.86
1006.892	1694.12
1007.186	1667.91
1007.48	1672.2
1007.773	1650.51
1008.067	1623.39
1008.361	1628.81
1008.655	1629.72
1008.948	1625.88
1009.242	1613.9
1009.535	1617.29
1009.829	1608.93
1010.122	1584.07
1010.415	1550.17
1010.708	1561.92
1011.001	1534.13
1011.295	1563.05
1011.588	1543.39
1011.881	1509.95
1012.173	1517.86
1012.466	1501.58
1012.759	1487.35
1013.052	1509.04
1013.344	1472.21
1013.637	1481.7
1013.93	1482.15
1014.222	1455.03
1014.514	1422.49
1014.807	1441.7
1015.099	1423.62
1015.391	1418.88
1015.683	1420.46
1015.976	1393.57
1016.268	1382.72
1016.56	1378.42
1016.851	1398.54
1017.143	1389.27
1017.435	1352.89
1017.727	1353.79
1018.018	1345.43
1018.31	1346.11
1018.602	1344.98
1018.893	1301.36
1019.185	1338.2
1019.476	1320.8
1019.767	1319.22
1020.058	1285.09
1020.35	1285.55
1020.641	1277.18
1020.932	1277.64
1021.223	1234.93
1021.514	1262.95
1021.804	1252.78
1022.095	1268.14
1022.386	1234.47
1022.677	1235.15
1022.967	1230.63
1023.258	1196.28
1023.548	1216.85
1023.839	1192.89
1024.129	1183.63
1024.419	1147.92
1024.709	1149.28
1025	1158.09
1025.29	1153.57
1025.58	1144.98
1025.87	1129.62
1026.16	1104.76
1026.449	1152.67
1026.739	1133.01
1027.029	1128.49
1027.319	1099.79
1027.608	1131.65
1027.898	1089.84
1028.187	1074.25
1028.477	1102.5
1028.766	1062.5
1029.055	1043.97
1029.344	1032.22
1029.634	1053.69
1029.923	1038.77
1030.212	1057.3
1030.501	1036.74
1030.79	1003.52
1031.078	1004.87
1031.367	991.77
1031.656	988.6
1031.945	1011.65
1032.233	983.86
1032.522	1003.29
1032.81	987.47
1033.099	989.96
1033.387	981.37
1033.675	957.19
1033.963	959
1034.251	971.43
1034.54	959.23
1034.828	958.77
1035.116	934.37
1035.403	930.07
1035.691	928.94
1035.979	922.62
1036.267	908.15
1036.554	913.58
1036.842	901.83
1037.129	902.5
1037.417	912
1037.704	890.98
1037.992	886.23
1038.279	879.45
1038.566	866.57
1038.853	866.57
1039.14	866.57
