Data from hue_250_FLMS001491_00058.txt Node
Date: Tue Feb 07 16:01:11 GMT 2017
User: dcchb
Spectrometer: FLMS00149
Trigger mode: 0
Integration Time (sec): 2.000000E-2
Scans to average: 10
Electric dark correction enabled: true
Nonlinearity correction enabled: false
Boxcar width: 0
XAxis mode: Wavelengths
Number of Pixels in Spectrum: 2048
>>>>>Begin Spectral Data<<<<<
341.393	-27.08
341.776	-27.08
342.16	-27.08
342.543	-44.25
342.927	-79.96
343.31	-57.81
343.693	-63.91
344.077	-55.78
344.46	-73.4
344.843	-51.71
345.226	-33.18
345.61	-40.41
345.993	-11.93
346.376	-3.12
346.759	7.27
347.142	4.11
347.525	38.23
347.908	50.66
348.291	88.85
348.674	85.24
349.057	116.88
349.44	120.04
349.823	144.67
350.206	141.73
350.588	201.39
350.971	198.68
351.354	202.52
351.737	209.98
352.119	234.61
352.502	268.06
352.884	286.59
353.267	251.56
353.65	281.84
354.032	281.39
354.414	305.35
354.797	306.47
355.179	325.01
355.562	318.68
355.944	294.27
356.326	321.16
356.709	306.02
357.091	339.24
357.473	352.12
357.855	326.59
358.238	320.94
358.62	326.59
359.002	341.05
359.384	336.3
359.766	343.54
360.148	324.78
360.53	322.75
360.912	325.23
361.294	338.11
361.676	319.58
362.057	339.47
362.439	324.1
362.821	336.53
363.203	327.72
363.584	318.68
363.966	320.94
364.348	314.84
364.729	313.71
365.111	318.9
365.493	304.67
365.874	304.67
366.256	304.22
366.637	296.53
367.019	309.64
367.4	300.37
367.781	308.06
368.163	309.64
368.544	301.73
368.925	316.64
369.306	302.41
369.688	300.6
370.069	302.63
370.45	328.62
370.831	316.19
371.212	326.81
371.593	322.52
371.974	315.29
372.355	286.14
372.736	316.42
373.117	312.58
373.498	317.32
373.879	307.83
374.26	298.11
374.641	330.88
375.021	312.12
375.402	294.5
375.783	327.72
376.163	329.98
376.544	300.83
376.925	336.53
377.305	326.59
377.686	342.41
378.066	331.79
378.447	332.91
378.827	331.11
379.208	315.51
379.588	337.21
379.968	323.65
380.349	346.02
380.729	340.15
381.109	334.95
381.489	325.68
381.87	338.34
382.25	335.17
382.63	324.78
383.01	332.91
383.39	332.69
383.77	344.67
384.15	336.53
384.53	346.7
384.91	359.13
385.29	359.35
385.67	350.32
386.049	343.31
386.429	343.99
386.809	357.32
387.189	365
387.568	371.33
387.948	358.45
388.328	353.03
388.707	353.93
389.087	366.59
389.466	355.97
389.846	356.87
390.225	371.78
390.605	352.12
390.984	344.67
391.363	374.95
391.743	361.16
392.122	390.77
392.501	370.43
392.881	379.92
393.26	381.28
393.639	383.31
394.018	388.05
394.397	374.5
394.776	385.79
395.155	391.44
395.534	402.07
395.913	365.68
396.292	379.69
396.671	402.29
397.05	411.33
397.429	379.92
397.808	381.95
398.186	399.13
398.565	399.13
398.944	424.89
399.323	410.2
399.701	413.82
400.08	431.9
400.458	422.86
400.837	423.31
401.215	438.9
401.594	403.87
401.972	416.75
402.351	427.83
402.729	454.04
403.107	430.77
403.486	421.27
403.864	416.98
404.242	425.79
404.62	445.45
404.999	432.12
405.377	435.51
405.755	454.27
406.133	463.53
406.511	476.64
406.889	470.09
407.267	467.15
407.645	495.4
408.023	505.79
408.401	485
408.779	474.38
409.156	483.42
409.534	500.82
409.912	518.22
410.29	517.09
410.667	512.12
411.045	511.89
411.422	529.07
411.8	552.8
412.178	512.35
412.555	554.38
412.933	546.02
413.31	562.74
413.687	532.01
414.065	548.73
414.442	578.11
414.819	594.6
415.197	588.28
415.574	576.52
415.951	613.36
416.328	613.59
416.705	618.78
417.082	627.37
417.46	636.41
417.837	647.03
418.214	637.99
418.591	653.58
418.967	648.84
419.344	652.91
419.721	673.02
420.098	658.33
420.475	680.93
420.852	703.07
421.228	706.69
421.605	703.75
421.982	733.13
422.358	720.25
422.735	739.68
423.111	743.07
423.488	761.6
423.864	770.64
424.241	781.94
424.617	771.77
424.994	794.15
425.37	807.03
425.746	811.32
426.123	822.17
426.499	820.36
426.875	843.18
427.251	864.43
427.627	843.64
428.003	863.52
428.379	876.63
428.756	906.01
429.132	910.75
429.507	905.1
429.883	925.67
430.259	948.27
430.635	924.54
431.011	958.66
431.387	962.05
431.763	995.27
432.138	993.91
432.514	998.66
432.89	1011.09
433.265	1033.46
433.641	1037.76
434.016	1063.97
434.392	1091.77
434.767	1066.23
435.143	1077.53
435.518	1126.34
435.894	1141.26
436.269	1150.97
436.644	1172.21
437.02	1182.61
437.395	1195.49
437.77	1227.81
438.145	1224.87
438.52	1248.6
438.895	1292.89
439.271	1279.78
439.646	1275.04
440.021	1307.13
440.395	1305.09
440.77	1322.27
441.145	1333.57
441.52	1363.17
441.895	1385.77
442.27	1371.08
442.645	1403.17
443.019	1414.92
443.394	1427.58
443.769	1419.21
444.143	1441.13
444.518	1473
444.892	1468.93
445.267	1471.64
445.641	1461.7
446.016	1489.04
446.39	1494.24
446.764	1481.59
447.139	1500.79
447.513	1498.76
447.887	1542.15
448.262	1520.45
448.636	1550.96
449.01	1556.61
449.384	1584.18
449.758	1604.07
450.132	1619.89
450.506	1603.84
450.88	1631.64
451.254	1622.15
451.628	1658.98
452.002	1676.38
452.376	1687.46
452.75	1686.33
453.123	1682.03
453.497	1745.99
453.871	1745.76
454.244	1779.43
454.618	1799.09
454.992	1826.66
455.365	1813.1
455.739	1847.9
456.112	1865.53
456.486	1867.11
456.859	1917.28
457.232	1933.78
457.606	1955.92
457.979	1961.12
458.352	1976.71
458.725	2014.9
459.099	2001.12
459.472	2065.3
459.845	2073.89
460.218	2087.45
460.591	2085.41
460.964	2110.72
461.337	2192.98
461.71	2166.31
462.083	2227.78
462.456	2208.35
462.829	2213.32
463.201	2252.41
463.574	2258.06
463.947	2303.48
464.32	2352.3
464.692	2378.74
465.065	2354.78
465.438	2390.71
465.81	2412.63
466.183	2481.11
466.555	2528.11
466.928	2524.72
467.3	2508.9
467.672	2544.38
468.045	2608.79
468.417	2637.04
468.789	2648.56
469.161	2677.49
469.534	2714.55
469.906	2764.49
470.278	2740.99
470.65	2784.38
471.022	2856.69
471.394	2888.1
471.766	2920.42
472.138	2953.64
472.51	3017.59
472.882	3058.27
473.253	3048.55
473.625	3081.32
473.997	3137.81
474.369	3162.9
474.74	3214.2
475.112	3255.32
475.484	3289.9
475.855	3353.4
476.227	3407.64
476.598	3497.35
476.97	3451.7
477.341	3569.44
477.713	3583.22
478.084	3607.18
478.455	3719.27
478.827	3782.54
479.198	3848.75
479.569	3853.05
479.94	3936.44
480.311	3957.9
480.682	4000.84
481.053	4081.97
481.424	4112.25
481.795	4213.04
482.166	4244.68
482.537	4287.61
482.908	4373.03
483.279	4393.83
483.65	4484.67
484.021	4509.08
484.391	4598.11
484.762	4643.31
485.133	4668.39
485.503	4673.59
485.874	4815.96
486.244	4848.5
486.615	4932.34
486.985	4955.62
487.356	5040.36
487.726	5107.48
488.097	5211.2
488.467	5156.52
488.837	5260.24
489.207	5341.6
489.578	5393.8
489.948	5412.33
490.318	5500.69
490.688	5538.65
491.058	5576.17
491.428	5626.34
491.798	5652.1
492.168	5845.09
492.538	5836.95
492.908	5929.6
493.278	5899.1
493.648	5901.13
494.017	5996.49
494.387	6032.88
494.757	6048.7
495.126	6191.74
495.496	6156.26
495.866	6233.1
496.235	6282.36
496.605	6245.08
496.974	6305.64
497.344	6346.09
497.713	6416.82
498.082	6453.66
498.452	6506.76
498.821	6554.45
499.19	6516.48
499.559	6592.19
499.928	6549.25
500.298	6643.71
500.667	6720.54
501.036	6644.61
501.405	6784.04
501.774	6766.64
502.143	6787.89
502.512	6772.52
502.88	6776.81
503.249	6885.06
503.618	6874.21
503.987	6925.28
504.356	6979.29
504.724	7003.7
505.093	6991.5
505.462	7003.93
505.83	7056.35
506.199	7024.04
506.567	7165.96
506.936	7193.98
507.304	7218.61
507.672	7177.03
508.041	7254.54
508.409	7251.38
508.777	7291.83
509.145	7400.75
509.514	7361.2
509.882	7403.46
510.25	7414.76
510.618	7426.74
510.986	7439.85
511.354	7531.37
511.722	7507.87
512.09	7556
512.458	7577.24
512.826	7555.55
513.193	7612.05
513.561	7667.64
513.929	7664.93
514.297	7730.23
514.664	7767.52
515.032	7775.21
515.4	7781.08
515.767	7777.46
516.135	7796.22
516.502	7781.53
516.869	7826.05
517.237	7815.88
517.604	7867.63
517.972	7880.29
518.339	7900.63
518.706	7906.05
519.073	7937.01
519.44	7915.09
519.808	8029.66
520.175	7936.33
520.542	8031.92
520.909	8054.97
521.276	8033.05
521.643	8075.99
522.009	8105.82
522.376	8164.35
522.743	8160.05
523.11	8184.01
523.477	8266.49
523.843	8268.98
524.21	8350.56
524.577	8314.17
524.943	8374.51
525.31	8409.31
525.676	8454.06
526.043	8424.45
526.409	8482.08
526.776	8518.46
527.142	8539.93
527.508	8543.77
527.874	8605.01
528.241	8574.73
528.607	8576.54
528.973	8634.17
529.339	8597.56
529.705	8648.4
530.071	8688.63
530.437	8626.26
530.803	8691.11
531.169	8775.18
531.535	8683.43
531.901	8737.67
532.267	8675.52
532.632	8753.26
532.998	8717.55
533.364	8770.21
533.73	8747.83
534.095	8814.73
534.461	8826.7
534.826	8801.62
535.192	8780.38
535.557	8806.59
535.923	8766.82
536.288	8854.72
536.653	8813.37
537.019	8759.13
537.384	8785.35
537.749	8788.29
538.114	8790.77
538.479	8788.96
538.845	8831.45
539.21	8817.44
539.575	8736.99
539.94	8791.45
540.305	8803.43
540.67	8763.65
541.034	8833.26
541.399	8810.66
541.764	8762.98
542.129	8774.73
542.494	8875.97
542.858	8834.84
543.223	8739.93
543.587	8830.09
543.952	8779.7
544.316	8777.21
544.681	8797.78
545.045	8811.34
545.41	8847.72
545.774	8807.04
546.138	8768.85
546.503	8751.22
546.867	8783.54
547.231	8819.02
547.595	8730.89
547.959	8862.18
548.324	8730.89
548.688	8715.97
549.052	8777.66
549.416	8781.05
549.779	8692.24
550.143	8797.55
550.507	8764.56
550.871	8668.97
551.235	8755.29
551.599	8863.54
551.962	8789.64
552.326	8768.63
552.689	8753.71
553.053	8753.03
553.417	8770.66
553.78	8882.52
554.143	8838
554.507	8790.32
554.87	8789.64
555.234	8772.02
555.597	8743.54
555.96	8791.9
556.323	8865.12
556.686	8864.67
557.05	8837.55
557.413	8847.95
557.776	8828.74
558.139	8928.85
558.502	8891.56
558.865	8836.87
559.228	8921.39
559.59	8914.38
559.953	8880.94
560.316	9021.73
560.679	8970.88
561.041	9027.83
561.404	9041.16
561.767	9115.96
562.129	9044.1
562.492	9038
562.854	9063.76
563.217	9030.09
563.579	9079.13
563.941	9113.7
564.304	9178.33
564.666	9221.72
565.028	9200.93
565.39	9278.22
565.753	9230.99
566.115	9289.52
566.477	9273.02
566.839	9360.02
567.201	9393.69
567.563	9358.89
567.925	9324.09
568.287	9437.31
568.648	9448.61
569.01	9486.12
569.372	9556.63
569.734	9483.41
570.095	9584.65
570.457	9571.09
570.819	9574.03
571.18	9638.43
571.542	9556.63
571.903	9627.81
572.265	9690.86
572.626	9646.34
572.987	9673.23
573.349	9689.51
573.71	9791.88
574.071	9725.66
574.432	9765.21
574.794	9840.69
575.155	9840.69
575.516	9873
575.877	9907.13
576.238	9899.9
576.599	9976.28
576.96	9950.06
577.32	9928.59
577.681	9987.35
578.042	10030.74
578.403	10017.63
578.763	10052.66
579.124	10056.95
579.485	10102.6
579.845	10120.23
580.206	10060.12
580.566	10142.6
580.927	10093.34
581.287	10146.44
581.648	10234.12
582.008	10316.83
582.368	10216.72
582.728	10252.65
583.089	10186.44
583.449	10271.86
583.809	10306.89
584.169	10352.09
584.529	10248.81
584.889	10354.35
585.249	10308.47
585.609	10362.26
585.969	10354.12
586.329	10291.52
586.688	10342.37
587.048	10385.98
587.408	10379.2
587.768	10341.47
588.127	10350.73
588.487	10445.87
588.846	10516.83
589.206	10425.3
589.565	10527.22
589.925	10494.68
590.284	10484.29
590.643	10506.66
591.003	10574.23
591.362	10580.78
591.721	10598.41
592.08	10541.23
592.44	10586.2
592.799	10531.06
593.158	10605.41
593.517	10541.01
593.876	10616.26
594.235	10559.76
594.593	10553.21
594.952	10644.28
595.311	10551.86
595.67	10662.13
596.029	10668.01
596.387	10717.95
596.746	10713.21
597.104	10625.53
597.463	10615.13
597.822	10678.41
598.18	10691.29
598.538	10670.5
598.897	10697.39
599.255	10670.5
599.613	10747.1
599.972	10723.6
600.33	10691.96
600.688	10695.58
601.046	10742.13
601.404	10826.65
601.762	10815.58
602.12	10832.53
602.478	10803.6
602.836	10850.6
603.194	10765.86
603.552	10749.82
603.91	10802.47
604.268	10809.25
604.625	10775.13
604.983	10827.55
605.341	10817.84
605.698	10870.49
606.056	10880.66
606.413	10833.66
606.771	10903.03
607.128	10926.08
607.485	10831.85
607.843	10939.19
608.2	10873.88
608.557	10902.58
608.914	10912.52
609.272	10956.82
609.629	10901.45
609.986	11002.01
610.343	10975.8
610.7	10958.85
611.057	11004.95
611.414	10988.45
611.771	11051.5
612.127	11084.27
612.484	11091.95
612.841	11097.6
613.198	11010.6
613.554	11056.25
613.911	11195.23
614.267	11105.06
614.624	11066.19
614.98	11051.96
615.337	11147.55
615.693	11156.13
616.05	10993.2
616.406	11188.45
616.762	11088.79
617.118	11140.54
617.475	11085.4
617.831	11180.09
618.187	11149.35
618.543	11194.1
618.899	11251.27
619.255	11233.87
619.611	11152.52
619.967	11226.41
620.323	11312.06
620.678	11284.49
621.034	11240.2
621.39	11254.21
621.746	11275.9
622.101	11323.36
622.457	11221.67
622.812	11189.13
623.168	11266.86
623.523	11222.57
623.879	11297.6
624.234	11211.5
624.589	11186.41
624.945	11237.49
625.3	11261.44
625.655	11213.53
626.01	11260.31
626.365	11267.54
626.72	11274.32
627.075	11271.84
627.43	11220.31
627.785	11219.41
628.14	11246.98
628.495	11259.63
628.85	11202.46
629.205	11174.21
629.559	11307.54
629.914	11117.26
630.269	11208.11
630.623	11173.31
630.978	11102.8
631.332	11189.58
631.687	11174.66
632.041	11121.11
632.396	11130.37
632.75	11092.41
633.104	11121.11
633.459	11110.94
633.813	11098.96
634.167	11075.46
634.521	11009.92
634.875	11046.08
635.229	10998.62
635.583	10976.02
635.937	10978.06
636.291	10952.3
636.645	10986.87
636.999	10927.44
637.352	10919.76
637.706	10843.6
638.06	10887.21
638.413	10925.18
638.767	10891.28
639.121	10922.02
639.474	10862.36
639.828	10787.56
640.181	10790.95
640.534	10831.62
640.888	10860.1
641.241	10724.96
641.594	10745.52
641.947	10850.6
642.301	10803.83
642.654	10778.74
643.007	10826.65
643.36	10775.13
643.713	10690.83
644.066	10775.35
644.419	10628.24
644.771	10689.7
645.124	10498.07
645.477	10578.97
645.83	10432.99
646.182	10387.34
646.535	10396.61
646.888	10422.14
647.24	10352.99
647.593	10416.94
647.945	10347.11
648.298	10338.08
648.65	10356.83
649.002	10290.62
649.355	10388.02
649.707	10395.02
650.059	10310.73
650.411	10512.76
650.763	10614.68
651.115	10591.4
651.467	10623.94
651.819	10570.16
652.171	10526.55
652.523	10477.96
652.875	10492.87
653.227	10433.44
653.578	10536.94
653.93	10557.73
654.282	10524.96
654.633	10461.91
654.985	10489.03
655.337	10577.17
655.688	10540.1
656.039	10548.24
656.391	10539.2
656.742	10496.26
657.094	10500.56
657.445	10511.86
657.796	10507.34
658.147	10488.58
658.498	10517.51
658.849	10524.74
659.2	10459.2
659.551	10465.3
659.902	10495.13
660.253	10455.13
660.604	10512.99
660.955	10486.32
661.306	10522.25
661.656	10446.32
662.007	10475.7
662.358	10464.63
662.708	10414.01
663.059	10524.51
663.409	10475.93
663.76	10524.74
664.11	10478.18
664.461	10520.67
664.811	10479.77
665.161	10538.07
665.511	10488.81
665.862	10559.31
666.212	10553.44
666.562	10474.8
666.912	10534.23
667.262	10526.77
667.612	10508.24
667.962	10487.22
668.312	10497.85
668.662	10543.04
669.011	10518.18
669.361	10458.98
669.711	10397.06
670.06	10478.41
670.41	10439.54
670.76	10480.9
671.109	10485.42
671.459	10444.74
671.808	10448.58
672.157	10510.27
672.507	10453.1
672.856	10462.59
673.205	10458.07
673.554	10437.51
673.904	10334.01
674.253	10470.95
674.602	10372.2
674.951	10259.43
675.3	10140.57
675.649	10416.72
675.998	10356.15
676.346	10331.75
676.695	10271.41
677.044	10266.67
677.393	10300.11
677.741	10310.05
678.09	10255.82
678.438	10264.63
678.787	10296.72
679.135	10242.48
679.484	10196.38
679.832	10193.9
680.181	10127.69
680.529	10204.75
680.877	10152.09
681.225	10158.42
681.573	10231.64
681.922	10115.03
682.27	10117.74
682.618	10015.37
682.966	10023.51
683.314	10076.61
683.661	10064.18
684.009	9982.83
684.357	10011.98
684.705	9937.18
685.053	9950.29
685.4	9916.17
685.748	9884.3
686.095	9866
686.443	9855.6
686.79	9814.02
687.138	9822.38
687.485	9818.09
687.832	9812.44
688.18	9811.76
688.527	9683.86
688.874	9677.3
689.221	9674.36
689.568	9698.09
689.915	9613.57
690.262	9616.51
690.609	9616.51
690.956	9571.54
691.303	9565.67
691.65	9479.79
691.997	9476.18
692.344	9425.11
692.69	9487.02
693.037	9408.38
693.383	9353.69
693.73	9390.98
694.077	9305.79
694.423	9286.58
694.769	9261.27
695.116	9288.16
695.462	9172.23
695.808	9166.81
696.155	9227.6
696.501	9126.36
696.847	9135.85
697.193	9062.85
697.539	9041.39
697.885	8969.98
698.231	8976.98
698.577	8944.67
698.923	8848.17
699.269	8822.86
699.614	8820.83
699.96	8839.36
700.306	8866.93
700.651	8796.87
700.997	8696.54
701.342	8696.76
701.688	8693.37
702.033	8733.37
702.379	8612.47
702.724	8597.56
703.069	8572.25
703.415	8506.71
703.76	8536.09
704.105	8500.16
704.45	8524.11
704.795	8386.71
705.14	8447.5
705.485	8437.56
705.83	8327.73
706.175	8354.4
706.52	8337.9
706.865	8311.01
707.209	8310.56
707.554	8272.37
707.899	8332.48
708.243	8195.76
708.588	8165.03
708.932	8120.96
709.277	8140.62
709.621	8196.89
709.966	8029.66
710.31	8113.05
710.654	8045.48
710.998	8009.1
711.342	8003.22
711.687	8005.71
712.031	8015.65
712.375	7983.11
712.719	7942.43
713.063	7921.19
713.407	7971.36
713.75	7947.18
714.094	7841.19
714.438	7903.34
714.782	7912.38
715.125	7803.45
715.469	7801.87
715.812	7845.49
716.156	7777.92
716.499	7791.7
716.843	7812.04
717.186	7745.38
717.53	7824.7
717.873	7762.78
718.216	7737.47
718.559	7698.37
718.902	7669.22
719.246	7648.88
719.589	7700.63
719.932	7677.13
720.275	7646.62
720.617	7682.33
720.96	7624.93
721.303	7640.07
721.646	7649.33
721.989	7593.06
722.331	7606.85
722.674	7530.24
723.016	7551.03
723.359	7548.09
723.701	7539.73
724.044	7490.01
724.386	7426.51
724.729	7543.57
725.071	7490.69
725.413	7508.32
725.755	7471.03
726.097	7518.49
726.439	7406.18
726.782	7403.92
727.124	7511.03
727.465	7438.49
727.807	7405.27
728.149	7392.84
728.491	7426.74
728.833	7414.99
729.175	7334.31
729.516	7390.58
729.858	7380.19
730.199	7407.76
730.541	7422.45
730.882	7395.33
731.224	7401.2
731.565	7359.62
731.906	7368.21
732.248	7397.36
732.589	7393.75
732.93	7290.92
733.271	7342.67
733.612	7358.04
733.953	7402.11
734.294	7356.23
734.635	7311.94
734.976	7316.46
735.317	7305.84
735.658	7293.86
735.999	7344.26
736.339	7343.58
736.68	7367.53
737.021	7314.88
737.361	7314.88
737.702	7303.35
738.042	7342.67
738.383	7335.44
738.723	7370.24
739.063	7350.13
739.404	7360.07
739.744	7340.41
740.084	7310.58
740.424	7299.96
740.764	7396.23
741.104	7362.79
741.444	7303.58
741.784	7239.85
742.124	7332.05
742.464	7363.92
742.804	7400.98
743.143	7380.87
743.483	7346.74
743.823	7397.81
744.162	7389
744.502	7452.73
744.841	7387.42
745.181	7449.56
745.52	7462.45
745.86	7490.92
746.199	7476.68
746.538	7497.25
746.877	7552.84
747.216	7582.44
747.556	7603.01
747.895	7595.1
748.234	7714.64
748.573	7691.14
748.911	7733.85
749.25	7761.87
749.589	7740.63
749.928	7886.39
750.267	7891.36
750.605	7905.15
750.944	7972.49
751.283	7997.35
751.621	8031.7
751.96	8042.32
752.298	8141.07
752.636	8226.04
752.975	8281.41
753.313	8313.72
753.651	8400.95
753.989	8424.45
754.327	8533.83
754.666	8592.58
755.004	8697.44
755.342	8765.46
755.679	8892.46
756.017	8891.33
756.355	9007.49
756.693	9024.44
757.031	9206.58
757.368	9262.62
757.706	9395.95
758.044	9451.77
758.381	9576.29
758.719	9574.48
759.056	9731.99
759.394	9855.15
759.731	9907.8
760.068	10034.35
760.405	10148.25
760.743	10189.83
761.08	10359.77
761.417	10354.12
761.754	10516.15
762.091	10594.34
762.428	10696.03
762.765	10729.25
763.102	10976.48
763.438	11002.01
763.775	11100.32
764.112	11219.86
764.449	11303.25
764.785	11419.86
765.122	11439.52
765.458	11606.97
765.795	11668.21
766.131	11763.57
766.467	11803.8
766.804	11937.13
767.14	11990.24
767.476	12056
767.812	12180.06
768.148	12225.48
768.485	12200.17
768.821	12285.37
769.157	12471.35
769.492	12498.47
769.828	12606.72
770.164	12562.42
770.5	12675.42
770.836	12747.05
771.171	12799.03
771.507	12858.46
771.842	12804.23
772.178	12798.12
772.513	12919.25
772.849	12943.66
773.184	13040.6
773.519	13076.08
773.855	13065.46
774.19	13124.9
774.525	13182.52
774.86	13169.64
775.195	13217.77
775.53	13272.46
775.865	13169.64
776.2	13199.47
776.535	13175.97
776.87	13218
777.205	13256.42
777.539	13215.06
777.874	13359.69
778.209	13201.96
778.543	13257.55
778.878	13250.99
779.212	13279.69
779.547	13246.47
779.881	13402.18
780.215	13273.82
780.55	13395.4
780.884	13332.35
781.218	13276.08
781.552	13351.1
781.886	13304.55
782.22	13176.65
782.554	13243.54
782.888	13230.2
783.222	13125.8
783.556	13154.05
783.889	13150.43
784.223	13113.6
784.557	13017.78
784.89	13173.93
785.224	13131.9
785.557	13016.2
785.891	13045.35
786.224	13107.95
786.558	13176.42
786.891	13061.39
787.224	13013.03
787.557	13022.3
787.891	12939.82
788.224	12948.4
788.557	13011
788.89	12885.35
789.223	12918.57
789.556	12875.86
789.888	12770.55
790.221	12845.81
790.554	12722.87
790.887	12799.03
791.219	12725.58
791.552	12698.69
791.884	12705.25
792.217	12695.53
792.549	12637.45
792.882	12576.43
793.214	12516.78
793.546	12474.06
793.879	12405.14
794.211	12391.13
794.543	12543.67
794.875	12481.75
795.207	12457.79
795.539	12405.82
795.871	12404.01
796.203	12296.22
796.535	12266.16
796.867	12271.58
797.198	12258.03
797.53	12225.03
797.862	12180.51
798.193	12136.45
798.525	12140.97
798.856	11993.4
799.188	12074.75
799.519	11942.78
799.85	11881.76
800.182	12003.12
800.513	11928.77
800.844	11855.1
801.175	11891.48
801.506	11891.48
801.837	11810.13
802.168	11857.81
802.499	11723.12
802.83	11673.18
803.161	11666.4
803.491	11702.33
803.822	11686.74
804.153	11632.5
804.483	11545.05
804.814	11519.97
805.145	11539.63
805.475	11436.35
805.805	11478.84
806.136	11451.27
806.466	11484.94
806.796	11450.59
807.126	11325.17
807.457	11353.87
807.787	11332.85
808.117	11289.46
808.447	11279.52
808.777	11363.36
809.107	11298.28
809.436	11175.79
809.766	11211.5
810.096	11157.49
810.426	11162.23
810.755	11120.88
811.085	11068.45
811.414	11035.01
811.744	11016.48
812.073	10980.77
812.403	11032.97
812.732	10943.03
813.061	11002.92
813.39	10913.65
813.719	10899.64
814.049	10981.45
814.378	10834.33
814.707	10819.42
815.036	10851.73
815.365	10830.72
815.693	10731.51
816.022	10686.32
816.351	10695.35
816.68	10687.67
817.008	10645.86
817.337	10573.32
817.665	10647.22
817.994	10612.19
818.322	10624.62
818.651	10523.16
818.979	10478.18
819.307	10564.06
819.636	10523.16
819.964	10481.57
820.292	10476.38
820.62	10597.96
820.948	10453.33
821.276	10486.09
821.604	10463.04
821.932	10494.68
822.259	10445.64
822.587	10417.17
822.915	10401.12
823.243	10449.26
823.57	10472.08
823.898	10503.04
824.225	10367.23
824.553	10370.17
824.88	10458.07
825.207	10446.77
825.535	10425.98
825.862	10411.52
826.189	10419.66
826.516	10522.03
826.843	10473.67
827.17	10493.33
827.497	10463.27
827.824	10459.88
828.151	10511.4
828.478	10477.96
828.805	10454.91
829.131	10416.04
829.458	10387.11
829.785	10385.76
830.111	10404.06
830.438	10419.88
830.764	10443.16
831.09	10456.26
831.417	10425.53
831.743	10435.02
832.069	10411.97
832.395	10423.05
832.722	10350.05
833.048	10403.61
833.374	10424.85
833.7	10388.47
834.026	10349.6
834.351	10403.16
834.677	10291.98
835.003	10339.21
835.329	10355.25
835.654	10292.2
835.98	10348.02
836.306	10264.86
836.631	10313.22
836.956	10298.75
837.282	10330.17
837.607	10257.4
837.932	10221.02
838.258	10186.89
838.583	10168.36
838.908	10130.17
839.233	10234.12
839.558	10190.06
839.883	10095.37
840.208	10059.89
840.533	10166.33
840.858	10050.17
841.182	10109.61
841.507	10075.03
841.832	10040.91
842.156	9960.23
842.481	9997.29
842.805	9916.62
843.13	9970.4
843.454	9912.78
843.778	9899.9
844.103	9897.86
844.427	9898.54
844.751	9884.08
845.075	9830.97
845.399	9806.11
845.723	9744.19
846.047	9737.41
846.371	9661.26
846.695	9641.14
847.019	9573.8
847.343	9537.42
847.666	9548.72
847.99	9477.53
848.313	9467.14
848.637	9300.36
848.96	9391.89
849.284	9361.6
849.607	9217.65
849.931	9242.96
850.254	9224.66
850.577	9209.52
850.9	9056.75
851.223	9090.88
851.546	9090.88
851.869	9011.1
852.192	9061.73
852.515	8946.25
852.838	8967.49
853.161	8901.28
853.483	8871.67
853.806	8814.05
854.129	8838.45
854.451	8825.8
854.774	8788.06
855.096	8728.17
855.419	8723.88
855.741	8676.88
856.063	8747.38
856.385	8688.18
856.708	8627.39
857.03	8574.73
857.352	8612.02
857.674	8549.2
857.996	8532.93
858.318	8496.77
858.64	8539.93
858.961	8478.69
859.283	8432.36
859.605	8381.06
859.926	8449.54
860.248	8388.75
860.57	8339.48
860.891	8333.83
861.212	8312.37
861.534	8243.89
861.855	8285.47
862.176	8285.7
862.498	8261.07
862.819	8302.87
863.14	8210
863.461	8199.37
863.782	8173.39
864.103	8192.6
864.424	8150.34
864.745	8187.17
865.065	8169.77
865.386	8123.44
865.707	8134.07
866.027	8116.21
866.348	8071.69
866.668	8115.54
866.989	7991.7
867.309	7957.35
867.63	8045.71
867.95	7952.6
868.27	7947.18
868.59	8044.12
868.91	7967.52
869.23	7976.1
869.55	7974.75
869.87	7939.72
870.19	7923.9
870.51	7959.61
870.83	7954.64
871.15	7888.2
871.469	7833.06
871.789	7858.82
872.109	7869.67
872.428	7871.47
872.748	7842.55
873.067	7784.7
873.386	7832.6
873.706	7852.27
874.025	7793.28
874.344	7757.8
874.663	7723.68
874.982	7714.19
875.301	7753.96
875.62	7718.71
875.939	7718.48
876.258	7711.25
876.577	7744.47
876.896	7686.17
877.214	7610.69
877.533	7624.25
877.852	7637.13
878.17	7663.34
878.489	7602.78
878.807	7591.93
879.125	7564.36
879.444	7653.4
879.762	7526.4
880.08	7488.89
880.398	7497.02
880.716	7524.36
881.034	7527.75
881.352	7468.32
881.67	7509.45
881.988	7419.28
882.306	7438.94
882.624	7385.38
882.941	7354.88
883.259	7338.61
883.577	7316.69
883.894	7333.18
884.212	7320.53
884.529	7337.48
884.846	7280.75
885.164	7299.29
885.481	7245.5
885.798	7270.13
886.115	7230.36
886.432	7190.59
886.75	7265.61
887.067	7197.82
887.383	7169.35
887.7	7185.39
888.017	7139.52
888.334	7099.06
888.651	7127.31
888.967	7110.14
889.284	7044.6
889.6	7009.58
889.917	7025.39
890.233	6986.75
890.55	6988.11
890.866	6899.52
891.182	6947.43
891.498	6943.81
891.815	6895
892.131	6890.03
892.447	6860.88
892.763	6852.29
893.079	6870.37
893.395	6836.92
893.71	6765.74
894.026	6774.78
894.342	6758.96
894.657	6695.01
894.973	6733.2
895.289	6662.92
895.604	6763.25
895.92	6634.67
896.235	6582.92
896.55	6601.9
896.865	6579.76
897.181	6540.21
897.496	6535.01
897.811	6521.9
898.126	6513.54
898.441	6505.86
898.756	6451.17
899.071	6441.68
899.386	6443.26
899.7	6389.93
900.015	6376.82
900.33	6335.47
900.644	6326.66
900.959	6335.24
901.273	6286.88
901.588	6259.76
901.902	6222.03
902.216	6186.55
902.531	6164.63
902.845	6121.24
903.159	6156.49
903.473	6115.81
903.787	6090.73
904.101	6043.73
904.415	6013.22
904.729	5997.85
905.042	5945.42
905.356	5943.84
905.67	5963.73
905.984	5921.92
906.297	5958.3
906.611	5875.14
906.924	5890.96
907.237	5860.23
907.551	5843.28
907.864	5841.02
908.177	5754.47
908.491	5761.92
908.804	5715.15
909.117	5680.12
909.43	5714.69
909.743	5681.47
910.056	5699.78
910.368	5636.28
910.681	5604.41
910.994	5579.56
911.307	5598.77
911.619	5568.26
911.932	5476.06
912.244	5455.72
912.557	5484.19
912.869	5400.35
913.181	5431.99
913.494	5362.39
913.806	5363.07
914.118	5362.84
914.43	5293.01
914.742	5340.01
915.054	5300.92
915.366	5298.66
915.678	5226.57
915.99	5259.57
916.302	5202.17
916.613	5189.06
916.925	5166.91
917.236	5163.3
917.548	5157.87
917.859	5119.68
918.171	5121.49
918.482	5077.65
918.794	5057.31
919.105	5070.19
919.416	5019.35
919.727	5014.6
920.038	5007.37
920.349	4893.02
920.66	4938.22
920.971	4918.56
921.282	4885.34
921.593	4865.23
921.903	4903.64
922.214	4846.02
922.525	4812.8
922.835	4798.11
923.146	4782.74
923.456	4748.62
923.767	4726.02
924.077	4748.17
924.387	4688.05
924.697	4677.43
925.008	4671.56
925.318	4691.9
925.628	4643.76
925.938	4599.24
926.248	4544.33
926.558	4574.84
926.867	4597.21
927.177	4559.92
927.487	4530.77
927.796	4485.8
928.106	4503.65
928.416	4476.76
928.725	4462.52
929.034	4431.79
929.344	4392.47
929.653	4473.15
929.962	4373.49
930.271	4390.66
930.581	4307.27
930.89	4342.53
931.199	4276.31
931.508	4233.15
931.817	4314.51
932.125	4255.75
932.434	4243.55
932.743	4203.1
933.051	4194.28
933.36	4196.54
933.669	4142.76
933.977	4122.42
934.286	4151.35
934.594	4134.62
934.902	4082.65
935.21	4093.49
935.519	4046.49
935.827	4059.82
936.135	4039.26
936.443	3999.94
936.751	4001.07
937.059	4013.72
937.367	3966.27
937.674	3964.68
937.982	3964.01
938.29	3939.6
938.597	3966.27
938.905	3945.7
939.213	3892.14
939.52	3845.36
939.827	3869.55
940.135	3792.26
940.442	3816.89
940.749	3815.76
941.056	3795.42
941.363	3751.13
941.67	3783.22
941.977	3771.47
942.284	3737.57
942.591	3761.3
942.898	3696.89
943.205	3697.8
943.511	3645.37
943.818	3673.62
944.125	3578.25
944.431	3610.79
944.738	3576.67
945.044	3583.45
945.35	3556.11
945.657	3531.7
945.963	3509.78
946.269	3526.73
946.575	3516.33
946.881	3484.02
947.187	3522.89
947.493	3475.43
947.799	3452.83
948.105	3439.05
948.41	3421.2
948.716	3435.21
949.022	3401.76
949.327	3403.79
949.633	3365.15
949.938	3364.25
950.244	3338.71
950.549	3300.75
950.854	3315.21
951.16	3302.1
951.465	3305.27
951.77	3237.47
952.075	3269.79
952.38	3242.89
952.685	3261.65
952.99	3234.08
953.294	3186.63
953.599	3231.82
953.904	3161.09
954.209	3172.84
954.513	3167.64
954.818	3158.83
955.122	3105.27
955.426	3127.87
955.731	3097.36
956.035	3074.76
956.339	3059.62
956.643	3078.61
956.948	3080.41
957.252	3046.29
957.556	3046.74
957.86	3031.15
958.163	3034.76
958.467	3019.4
958.771	3000.64
959.075	2962.9
959.378	2949.12
959.682	2950.25
959.985	2964.94
960.289	2949.34
960.592	2890.81
960.896	2915.67
961.199	2916.35
961.502	2858.5
961.805	2882.68
962.108	2837.71
962.411	2833.19
962.714	2822.12
963.017	2812.4
963.32	2803.58
963.623	2813.08
963.926	2794.09
964.228	2768.33
964.531	2737.82
964.833	2739.41
965.136	2757.03
965.438	2689.69
965.741	2647.88
966.043	2719.97
966.345	2690.14
966.648	2641.78
966.95	2689.69
967.252	2689.69
967.554	2639.3
967.856	2637.49
968.158	2621.44
968.46	2620.31
968.761	2577.83
969.063	2593.65
969.365	2564.27
969.666	2574.66
969.968	2553.65
970.269	2556.13
970.571	2547.32
970.872	2524.95
971.174	2508
971.475	2499.19
971.776	2489.69
972.077	2496.25
972.378	2454.22
972.679	2481.11
972.98	2451.73
973.281	2414.44
973.582	2416.93
973.883	2428.23
974.183	2405.4
974.484	2410.83
974.785	2400.21
975.085	2388
975.386	2369.92
975.686	2377.83
975.986	2355.01
976.287	2361.79
976.587	2325.4
976.887	2298.06
977.187	2315.46
977.487	2298.29
977.787	2299.64
978.087	2279.3
978.387	2280.43
978.687	2270.94
978.987	2242.7
979.286	2207.22
979.586	2210.15
979.885	2220.77
980.185	2193.66
980.484	2199.08
980.784	2220.77
981.083	2186.65
981.382	2205.86
981.682	2190.72
981.981	2148.23
982.28	2151.4
982.579	2180.55
982.878	2149.82
983.177	2118.63
983.475	2105.98
983.774	2099.87
984.073	2091.96
984.372	2097.16
984.67	2095.13
984.969	2062.81
985.267	2088.58
985.566	2073.89
985.864	2042.7
986.162	2050.61
986.461	2028.01
986.759	2031.4
987.057	2007.67
987.355	2004.74
987.653	1986.88
987.951	1997.05
988.249	1945.75
988.547	1982.14
988.844	1950.73
989.142	1943.95
989.44	1956.6
989.737	1934.45
990.035	1904.85
990.332	1930.84
990.63	1914.34
990.927	1902.37
991.224	1877.06
991.521	1887.45
991.819	1879.54
992.116	1839.32
992.413	1858.98
992.71	1850.16
993.006	1841.35
993.303	1829.82
993.6	1847
993.897	1810.16
994.193	1842.71
994.49	1798.87
994.787	1776.27
995.083	1769.94
995.379	1777.62
995.676	1769.26
995.972	1745.53
996.268	1779.66
996.565	1712.54
996.861	1744.4
997.157	1754.12
997.453	1727.45
997.749	1695.59
998.044	1687.23
998.34	1699.43
998.636	1702.14
998.932	1655.82
999.227	1653.11
999.523	1651.52
999.818	1672.31
1000.114	1621.47
1000.409	1605.65
1000.704	1609.04
1001	1603.16
1001.295	1603.39
1001.59	1610.17
1001.885	1602.94
1002.18	1595.03
1002.475	1584.86
1002.77	1557.06
1003.065	1559.78
1003.359	1579.66
1003.654	1551.19
1003.949	1525.2
1004.243	1522.94
1004.538	1540.57
1004.832	1538.31
1005.127	1547.57
1005.421	1509.16
1005.715	1477.07
1006.009	1448.37
1006.304	1475.26
1006.598	1488.59
1006.892	1444.98
1007.186	1416.28
1007.48	1449.04
1007.773	1431.19
1008.067	1431.42
1008.361	1434.13
1008.655	1431.42
1008.948	1416.73
1009.242	1387.12
1009.535	1389.16
1009.829	1400.23
1010.122	1398.65
1010.415	1341.02
1010.708	1346.45
1011.001	1351.42
1011.295	1359.33
1011.588	1315.71
1011.881	1340.57
1012.173	1335.15
1012.466	1310.29
1012.759	1296.51
1013.052	1309.84
1013.344	1313
1013.637	1287.24
1013.93	1293.12
1014.222	1254.25
1014.514	1265.09
1014.807	1270.74
1015.099	1257.86
1015.391	1238.88
1015.683	1243.63
1015.976	1233.91
1016.268	1233
1016.56	1221.71
1016.851	1224.87
1017.143	1202.95
1017.435	1178.77
1017.727	1210.86
1018.018	1182.16
1018.31	1178.99
1018.602	1190.97
1018.893	1169.5
1019.185	1158.43
1019.476	1132.89
1019.767	1154.14
1020.058	1162.05
1020.35	1141.03
1020.641	1123.4
1020.932	1114.82
1021.223	1103.29
1021.514	1100.8
1021.804	1081.82
1022.095	1089.05
1022.386	1077.3
1022.677	1076.85
1022.967	1049.96
1023.258	1082.27
1023.548	1066.23
1023.839	1057.42
1024.129	1047.02
1024.419	1048.38
1024.709	1035.04
1025	1029.39
1025.29	1025.33
1025.58	1016.96
1025.87	1013.35
1026.16	995.95
1026.449	1013.12
1026.739	1024.42
1027.029	976.97
1027.319	981.26
1027.608	981.71
1027.898	955.72
1028.187	962.5
1028.477	941.49
1028.766	938.1
1029.055	929.06
1029.344	949.17
1029.634	939.45
1029.923	914.37
1030.212	921.15
1030.501	912.79
1030.79	929.28
1031.078	919.34
1031.367	898.78
1031.656	870.3
1031.945	880.7
1032.233	888.61
1032.522	892
1032.81	863.75
1033.099	875.95
1033.387	878.44
1033.675	868.72
1033.963	861.49
1034.251	854.03
1034.54	856.52
1034.828	829.63
1035.116	836.4
1035.403	812.9
1035.691	854.48
1035.979	840.47
1036.267	814.03
1036.554	830.53
1036.842	826.46
1037.129	829.17
1037.417	791.21
1037.704	800.7
1037.992	776.52
1038.279	798.21
1038.566	801.83
1038.853	801.83
1039.14	801.83
