Data from hue_100_FLMS001491_00014.txt Node
Date: Tue Feb 07 17:02:43 GMT 2017
User: dcchb
Spectrometer: FLMS00149
Trigger mode: 0
Integration Time (sec): 2.000000E-2
Scans to average: 10
Electric dark correction enabled: true
Nonlinearity correction enabled: false
Boxcar width: 0
XAxis mode: Wavelengths
Number of Pixels in Spectrum: 2048
>>>>>Begin Spectral Data<<<<<
341.393	-26.54
341.776	-26.54
342.16	-26.54
342.543	-68.35
342.927	-50.94
343.31	-75.58
343.693	-87.78
344.077	-58.85
344.46	-44.84
344.843	-56.82
345.226	-30.15
345.61	-23.83
345.993	-39.19
346.376	8.94
346.759	4.65
347.142	24.31
347.525	45.78
347.908	52.56
348.291	91.2
348.674	81.25
349.057	108.37
349.44	108.82
349.823	118.99
350.206	155.83
350.588	192.89
350.971	205.09
351.354	206.22
351.737	229.73
352.119	273.57
352.502	262.95
352.884	271.31
353.267	272.89
353.65	286
354.032	291.42
354.414	307.01
354.797	305.88
355.179	323.73
355.562	294.13
355.944	314.92
356.326	333.23
356.709	330.06
357.091	344.3
357.473	324.86
357.855	320.57
358.238	332.55
358.62	341.81
359.002	342.27
359.384	337.52
359.766	345.65
360.148	328.93
360.53	342.94
360.912	315.83
361.294	329.16
361.676	332.55
362.057	317.41
362.439	320.34
362.821	317.63
363.203	307.46
363.584	339.33
363.966	321.7
364.348	302.04
364.729	322.83
365.111	324.86
365.493	313.79
365.874	315.83
366.256	316.95
366.637	323.73
367.019	303.62
367.4	325.99
367.781	279.89
368.163	314.02
368.544	313.11
368.925	317.41
369.306	316.05
369.688	315.37
370.069	298.88
370.45	297.29
370.831	309.05
371.212	294.36
371.593	305.66
371.974	326.9
372.355	302.49
372.736	315.6
373.117	300.91
373.498	310.63
373.879	307.92
374.26	300.46
374.641	315.83
375.021	298.42
375.402	311.98
375.783	318.76
376.163	316.95
376.544	301.59
376.925	337.07
377.305	321.93
377.686	309.05
378.066	326.45
378.447	308.37
378.827	336.16
379.208	331.42
379.588	355.82
379.968	327.12
380.349	332.1
380.729	324.64
381.109	326.45
381.489	333.9
381.87	347.24
382.25	344.52
382.63	340.91
383.01	346.56
383.39	361.7
383.77	336.62
384.15	365.09
384.53	349.04
384.91	364.86
385.29	339.78
385.67	348.14
386.049	372.77
386.429	356.05
386.809	344.07
387.189	345.43
387.568	349.95
387.948	346.78
388.328	351.3
388.707	374.58
389.087	358.08
389.466	375.48
389.846	358.99
390.225	373
390.605	389.27
390.984	366.45
391.363	367.35
391.743	362.6
392.122	371.87
392.501	357.18
392.881	369.38
393.26	379.55
393.639	390.17
394.018	387.46
394.397	379.1
394.776	380.68
395.155	406.9
395.534	396.27
395.913	395.37
396.292	373.45
396.671	382.49
397.05	405.77
397.429	379.33
397.808	393.11
398.186	387.24
398.565	414.58
398.944	400.79
399.323	398.53
399.701	413
400.08	394.24
400.458	404.18
400.837	398.99
401.215	414.58
401.594	430.4
401.972	393.79
402.351	408.25
402.729	389.72
403.107	432.21
403.486	416.84
403.864	416.84
404.242	422.49
404.62	437.18
404.999	448.7
405.377	429.49
405.755	431.75
406.133	412.09
406.511	451.19
406.889	445.31
407.267	453.45
407.645	467.01
408.023	454.13
408.401	456.39
408.779	469.95
409.156	436.27
409.534	468.82
409.912	466.56
410.29	481.7
410.667	478.76
411.045	476.5
411.422	494.13
411.8	487.35
412.178	482.37
412.555	479.44
412.933	490.06
413.31	507.91
413.687	495.26
414.065	520.34
414.442	515.82
414.819	507.68
415.197	515.82
415.574	536.38
415.951	521.24
416.328	525.99
416.705	520.11
417.082	541.81
417.46	526.89
417.837	545.42
418.214	540.45
418.591	533.22
418.967	561.47
419.344	545.2
419.721	574.8
420.098	576.84
420.475	550.17
420.852	570.73
421.228	580.45
421.605	568.93
421.982	581.81
422.358	591.75
422.735	588.81
423.111	565.76
423.488	590.85
423.864	610.51
424.241	572.77
424.617	606.89
424.994	620.68
425.37	626.33
425.746	623.39
426.123	616.61
426.499	615.7
426.875	649.6
427.251	610.05
427.627	636.72
428.003	633.33
428.379	634.23
428.756	661.35
429.132	664.97
429.507	666.32
429.883	652.09
430.259	680.56
430.635	656.38
431.011	673.56
431.387	696.38
431.763	695.7
432.138	697.51
432.514	704.06
432.89	717.17
433.265	733.44
433.641	719.88
434.016	739.32
434.392	749.94
434.767	767.34
435.143	772.99
435.518	747.9
435.894	766.89
436.269	783.38
436.644	799.43
437.02	792.2
437.395	776.15
437.77	813.67
438.145	816.6
438.52	834.23
438.895	841.69
439.271	820.22
439.646	841.23
440.021	852.99
440.395	862.03
440.77	872.87
441.145	847.79
441.52	864.51
441.895	883.27
442.27	902.25
442.645	901.12
443.019	893.66
443.394	900.22
443.769	916.49
444.143	918.52
444.518	927.56
444.892	923.49
445.267	952.87
445.641	958.75
446.016	945.41
446.39	945.19
446.764	943.61
447.139	951.06
447.513	975.47
447.887	980.21
448.262	961.01
448.636	973.43
449.01	990.84
449.384	1010.95
449.758	991.97
450.132	1003.94
450.506	1053.88
450.88	1041.46
451.254	1032.87
451.628	1034
452.002	1064.05
452.376	1040.55
452.75	1066.54
453.123	1083.71
453.497	1126.43
453.871	1071.29
454.244	1132.53
454.618	1126.88
454.992	1131.17
455.365	1127.56
455.739	1166.65
456.112	1179.31
456.486	1200.1
456.859	1236.03
457.232	1238.29
457.606	1236.93
457.979	1254.33
458.352	1251.17
458.725	1272.86
459.099	1307.89
459.472	1315.8
459.845	1326.65
460.218	1331.62
460.591	1350.6
460.964	1383.14
461.337	1392.86
461.71	1432.41
462.083	1413.65
462.456	1457.72
462.829	1426.98
463.201	1480.54
463.574	1477.15
463.947	1524.15
464.32	1572.29
464.692	1553.76
465.065	1598.96
465.438	1618.84
465.81	1619.29
466.183	1653.19
466.555	1668.56
466.928	1704.26
467.3	1712.4
467.672	1730.25
468.045	1785.84
468.417	1779.29
468.789	1790.36
469.161	1883.47
469.534	1898.61
469.906	1917.82
470.278	1945.61
470.65	1913.98
471.022	2018.61
471.394	2053.41
471.766	2098.15
472.138	2157.36
472.51	2198.04
472.882	2224.02
473.253	2254.31
473.625	2303.8
473.997	2370.69
474.369	2401.42
474.74	2443
475.112	2486.84
475.484	2554.18
475.855	2626.27
476.227	2653.84
476.598	2767.96
476.97	2813.61
477.341	2936.55
477.713	2984
478.084	2998.01
478.455	3135.19
478.827	3177.9
479.198	3311.68
479.569	3345.8
479.94	3452.47
480.311	3523.2
480.682	3647.94
481.053	3748.05
481.424	3848.39
481.795	3894.71
482.166	4037.31
482.537	4178.32
482.908	4301.48
483.279	4403.18
483.65	4511.65
484.021	4651.08
484.391	4742.38
484.762	4864.63
485.133	4980.11
485.503	5059.2
485.874	5256.94
486.244	5345.52
486.615	5525.63
486.985	5645.18
487.356	5802.46
487.726	5930.37
488.097	6086.07
488.467	6215.1
488.837	6379.85
489.207	6477.24
489.578	6662.78
489.948	6863.22
490.318	7025.03
490.688	7110.45
491.058	7265.02
491.428	7470.44
491.798	7554.05
492.168	7776.87
492.538	7914.72
492.908	8088.95
493.278	8233.13
493.648	8325.78
494.017	8497.98
494.387	8722.38
494.757	8841.02
495.126	9001.47
495.496	9053.9
495.866	9224.97
496.235	9452.76
496.605	9614.34
496.974	9721.68
497.344	9806.65
497.713	9921.9
498.082	10082.35
498.452	10228.56
498.821	10422.68
499.19	10442.79
499.559	10559.62
499.928	10685.27
500.298	10865.6
500.667	10991.02
501.036	11112.83
501.405	11193.28
501.774	11235.76
502.143	11405.02
502.512	11478.02
502.88	11569.09
503.249	11669.88
503.618	11809.31
503.987	11858.12
504.356	12020.83
504.724	12101.96
505.093	12141.28
505.462	12203.2
505.83	12400.48
506.199	12486.13
506.567	12588.5
506.936	12651.55
507.304	12846.57
507.672	12966.34
508.041	12915.04
508.409	13103.74
508.777	13222.15
509.145	13288.37
509.514	13340.79
509.882	13330.17
510.25	13439.55
510.618	13464.18
510.986	13534.01
511.354	13643.61
511.722	13744.85
512.09	13902.36
512.458	13855.36
512.826	14023.49
513.193	14027.55
513.561	14015.35
513.929	14159.08
514.297	14220.77
514.664	14299.19
515.032	14288.34
515.4	14352.52
515.767	14460.76
516.135	14572.85
516.502	14388.9
516.869	14710.7
517.237	14665.05
517.604	14608.78
517.972	14704.83
518.339	14845.61
518.706	14834.54
519.073	14839.51
519.44	14835.67
519.808	15014.87
520.175	14957.93
520.542	15137.58
520.909	15193.63
521.276	15221.87
521.643	15107.98
522.009	15317.69
522.376	15331.93
522.743	15400.4
523.11	15491.25
523.477	15586.38
523.843	15575.54
524.21	15641.52
524.577	15745.02
524.943	15729.43
525.31	15737.57
525.676	15888.75
526.043	15966.71
526.409	15787.51
526.776	15957.9
527.142	15986.15
527.508	16008.75
527.874	16176.42
528.241	16103.66
528.607	16089.65
528.973	16185.69
529.339	16032.7
529.705	16192.92
530.071	16256.65
530.437	16210.55
530.803	16238.8
531.169	16316.99
531.535	16212.58
531.901	16179.36
532.267	16174.39
532.632	16288.96
532.998	16237.67
533.364	16234.05
533.73	16246.48
534.095	16331.45
534.461	16276.08
534.826	16366.25
535.192	16340.04
535.557	16333.93
535.923	16258.46
536.288	16271.79
536.653	16245.58
537.019	16138.69
537.384	16209.42
537.749	16154.05
538.114	16085.58
538.479	16077.67
538.845	16114.28
539.21	16033.38
539.575	15983.21
539.94	15999.48
540.305	16078.12
540.67	16047.16
541.034	15914.74
541.399	15914.74
541.764	15926.04
542.129	15798.36
542.494	15952.25
542.858	15883.55
543.223	15808.98
543.587	15910.22
543.952	15752.26
544.316	15744.8
544.681	15605.82
545.045	15780.5
545.41	15632.71
545.774	15614.41
546.138	15637
546.503	15543.45
546.867	15481.3
547.231	15593.16
547.595	15494.41
547.959	15522.88
548.324	15417.12
548.688	15416.9
549.052	15364.02
549.416	15365.82
549.779	15345.71
550.143	15232.49
550.507	15358.82
550.871	15244.02
551.235	15127.64
551.599	15345.26
551.962	15171.03
552.326	15220.07
552.689	15266.84
553.053	15033.18
553.417	15081.76
553.78	15312.27
554.143	15086.96
554.507	15070.24
554.87	15082.89
555.234	15169.9
555.597	14991.15
555.96	14940.3
556.323	15082.44
556.686	15014.2
557.05	15011.48
557.413	15044.93
557.776	15010.13
558.139	15011.71
558.502	15016.91
558.865	14981.88
559.228	14965.61
559.59	14935.33
559.953	14977.59
560.316	15157.47
560.679	15004.7
561.041	15003.57
561.404	15113.4
561.767	15021.43
562.129	15079.5
562.492	15114.08
562.854	15061.65
563.217	15012.39
563.579	15090.8
563.941	15064.82
564.304	15125.38
564.666	15164.02
565.028	15169.22
565.39	15178.03
565.753	15116.57
566.115	15190.01
566.477	15241.76
566.839	15237.92
567.201	15248.99
567.563	15310.23
567.925	15316.56
568.287	15329.22
568.648	15325.15
569.01	15355.43
569.372	15413.73
569.734	15404.02
570.095	15402.66
570.457	15465.71
570.819	15431.13
571.18	15458.03
571.542	15482.43
571.903	15521.07
572.265	15514.3
572.626	15532.83
572.987	15455.54
573.349	15511.81
573.71	15603.33
574.071	15511.13
574.432	15574.86
574.794	15615.76
575.155	15659.15
575.516	15651.92
575.877	15626.38
576.238	15585.03
576.599	15611.02
576.96	15578.02
577.32	15604.69
577.681	15755.42
578.042	15687.17
578.403	15746.61
578.763	15648.53
579.124	15646.04
579.485	15749.32
579.845	15750.22
580.206	15827.28
580.566	15640.62
580.927	15731.69
581.287	15678.58
581.648	15695.08
582.008	15673.84
582.368	15706.15
582.728	15645.14
583.089	15549.77
583.449	15695.31
583.809	15727.4
584.169	15695.99
584.529	15609.43
584.889	15690.56
585.249	15586.38
585.609	15601.75
585.969	15661.86
586.329	15554.07
586.688	15640.17
587.048	15506.16
587.408	15488.53
587.768	15466.39
588.127	15584.8
588.487	15468.42
588.846	15509.78
589.206	15457.35
589.565	15509.1
589.925	15541.41
590.284	15472.26
590.643	15519.04
591.003	15520.85
591.362	15574.41
591.721	15474.52
592.08	15502.77
592.44	15540.51
592.799	15450.79
593.158	15397.01
593.517	15378.71
593.876	15427.29
594.235	15320.18
594.593	15456.9
594.952	15469.78
595.311	15338.03
595.67	15349.55
596.029	15507.97
596.387	15501.87
596.746	15487.18
597.104	15381.42
597.463	15356.56
597.822	15446.95
598.18	15319.95
598.538	15377.8
598.897	15423.22
599.255	15229.56
599.613	15466.16
599.972	15375.09
600.33	15428.87
600.688	15263.68
601.046	15417.12
601.404	15422.55
601.762	15379.16
602.12	15381.87
602.478	15461.42
602.836	15350.68
603.194	15334.64
603.552	15315.66
603.91	15300.74
604.268	15396.11
604.625	15255.55
604.983	15413.51
605.341	15326.5
605.698	15370.57
606.056	15537.8
606.413	15435.2
606.771	15394.3
607.128	15564.46
607.485	15341.87
607.843	15399.72
608.2	15419.38
608.557	15524.69
608.914	15441.53
609.272	15535.54
609.629	15428.2
609.986	15420.74
610.343	15389.1
610.7	15571.24
611.057	15482.88
611.414	15489.66
611.771	15511.36
612.127	15531.02
612.484	15561.75
612.841	15603.11
613.198	15563.56
613.554	15529.44
613.911	15523.79
614.267	15586.84
614.624	15576.89
614.98	15643.11
615.337	15725.14
615.693	15734.85
616.05	15584.35
616.406	15743.22
616.762	15691.24
617.118	15719.94
617.475	15634.74
617.831	15749.77
618.187	15750.67
618.543	15756.77
618.899	15846.26
619.255	15773.95
619.611	15772.59
619.967	15839.03
620.323	15928.97
620.678	15822.08
621.034	15865.02
621.39	15803.33
621.746	15775.31
622.101	15948.86
622.457	15765.59
622.812	15922.87
623.168	15883.1
623.523	15861.18
623.879	15846.04
624.234	15711.35
624.589	15839.94
624.945	15762.42
625.3	15772.37
625.655	15861.18
626.01	15891.69
626.365	15855.53
626.72	15784.34
627.075	15889.2
627.43	15806.27
627.785	15783.67
628.14	15839.71
628.495	15817.34
628.85	15842.2
629.205	15766.04
629.559	15914.06
629.914	15711.13
630.269	15703.89
630.623	15679.04
630.978	15653.27
631.332	15703.89
631.687	15780.05
632.041	15617.8
632.396	15706.38
632.75	15549.55
633.104	15677.91
633.459	15601.52
633.813	15601.07
634.167	15591.13
634.521	15589.32
634.875	15519.04
635.229	15456.44
635.583	15459.83
635.937	15423.68
636.291	15502.77
636.645	15478.36
636.999	15376.45
637.352	15446.05
637.706	15392.72
638.06	15471.58
638.413	15334.41
638.767	15351.14
639.121	15359.27
639.474	15208.09
639.828	15263.68
640.181	15307.07
640.534	15317.69
640.888	15198.82
641.241	15153.63
641.594	15170.35
641.947	15236.34
642.301	15204.25
642.654	15260.06
643.007	15157.69
643.36	15192.27
643.713	15166.73
644.066	15274.53
644.419	15079.96
644.771	15025.04
645.124	14858.27
645.477	14924.71
645.83	14750.7
646.182	14713.41
646.535	14658.72
646.888	14700.53
647.24	14696.01
647.593	14723.58
647.945	14644.04
648.298	14615.56
648.65	14627.77
649.002	14519.75
649.355	14660.08
649.707	14623.02
650.059	14693.07
650.411	14848.78
650.763	14862.11
651.115	14998.83
651.467	14969
651.819	15025.49
652.171	15049.45
652.523	14970.35
652.875	14928.1
653.227	14869.11
653.578	14933.07
653.93	14974.87
654.282	14792.28
654.633	14936.68
654.985	14898.49
655.337	14887.19
655.688	14935.78
656.039	15025.27
656.391	14842.22
656.742	14880.19
657.094	14901.2
657.445	14931.49
657.796	15005.16
658.147	14916.12
658.498	14952.05
658.849	14969.45
659.2	14886.52
659.551	14881.77
659.902	15027.53
660.253	14944.82
660.604	14985.72
660.955	14929.45
661.306	15049
661.656	14980.3
662.007	15052.39
662.358	15044.7
662.708	15046.51
663.059	14976.91
663.409	14870.24
663.76	15005.61
664.11	15097.36
664.461	15036.12
664.811	15129.9
665.161	15039.05
665.511	14995.67
665.862	14976.46
666.212	15026.85
666.562	15079.96
666.912	14943.24
667.262	15025.04
667.612	15027.3
667.962	15077.24
668.312	14951.15
668.662	15107.07
669.011	14974.87
669.361	15042.9
669.711	15047.42
670.06	15021.43
670.41	14972.16
670.76	14953.86
671.109	14995.89
671.459	14923.8
671.808	14865.95
672.157	14959.73
672.507	14896.01
672.856	14937.59
673.205	14906.18
673.554	14996.12
673.904	14913.18
674.253	14945.04
674.602	14875.44
674.951	14613.98
675.3	14595.68
675.649	14779.63
675.998	14791.83
676.346	14830.25
676.695	14776.46
677.044	14712.06
677.393	14855.78
677.741	14743.24
678.09	14642.23
678.438	14662.79
678.787	14738.04
679.135	14698.5
679.484	14549.58
679.832	14565.62
680.181	14620.08
680.529	14501.67
680.877	14478.62
681.225	14618.27
681.573	14500.99
681.922	14388.9
682.27	14330.6
682.618	14429.13
682.966	14387.09
683.314	14410.6
683.661	14348
684.009	14217.61
684.357	14307.1
684.705	14234.1
685.053	14178.51
685.4	14270.26
685.748	14124.28
686.095	14175.57
686.443	14070.49
686.79	14063.71
687.138	14017.16
687.485	14001.79
687.832	14018.52
688.18	14023.71
688.527	13869.82
688.874	13853.77
689.221	13834.57
689.568	13791.18
689.915	13764.06
690.262	13739.88
690.609	13732.65
690.956	13686.55
691.303	13665.98
691.65	13487.23
691.997	13536.95
692.344	13488.13
692.69	13490.62
693.037	13441.36
693.383	13341.7
693.73	13359.55
694.077	13230.97
694.423	13300.12
694.769	13218.08
695.116	13110.29
695.462	13172.21
695.808	13068.48
696.155	13098.99
696.501	12940.58
696.847	12946
697.193	12851.77
697.539	12950.52
697.885	12879.11
698.231	12789.17
698.577	12740.81
698.923	12786.46
699.269	12656.07
699.614	12529.06
699.96	12521.61
700.306	12516.18
700.651	12433.02
700.997	12477.99
701.342	12419.24
701.688	12365.68
702.033	12275.96
702.379	12214.04
702.724	12251.1
703.069	12245.68
703.415	12082.97
703.76	12123.65
704.105	12054.73
704.45	12016.08
704.795	11966.82
705.14	11866.48
705.485	11956.87
705.83	11890.66
706.175	11946.03
706.52	11766.15
706.865	11772.7
707.209	11726.6
707.554	11624.68
707.899	11712.59
708.243	11623.55
708.588	11569.31
708.932	11481.63
709.277	11508.53
709.621	11452.48
709.966	11414.06
710.31	11421.97
710.654	11387.85
710.998	11354.4
711.342	11354.4
711.687	11384.91
712.031	11190.79
712.375	11253.16
712.719	11264.69
713.063	11196.67
713.407	11239.83
713.75	11243.67
714.094	11123
714.438	11067.41
714.782	11075.32
715.125	11065.6
715.469	11117.57
715.812	10942.66
716.156	10984.47
716.499	11014.07
716.843	10979.5
717.186	10877.36
717.53	10994.41
717.873	10986.28
718.216	10913.74
718.559	10868.09
718.902	10774.31
719.246	10824.48
719.589	10874.87
719.932	10678.72
720.275	10744.25
720.617	10781.76
720.96	10788.32
721.303	10757.58
721.646	10795.32
721.989	10669.9
722.331	10781.09
722.674	10661.09
723.016	10732.95
723.359	10677.59
723.701	10667.64
724.044	10627.64
724.386	10582.22
724.729	10685.95
725.071	10614.76
725.413	10653.41
725.755	10618.38
726.097	10617.93
726.439	10562.11
726.782	10500.87
727.124	10557.59
727.465	10477.37
727.807	10537.93
728.149	10502.45
728.491	10516.23
728.833	10484.15
729.175	10507.87
729.516	10454.99
729.858	10451.83
730.199	10542.67
730.541	10485.05
730.882	10457.71
731.224	10498.61
731.565	10458.61
731.906	10440.08
732.248	10458.84
732.589	10474.2
732.93	10414.99
733.271	10404.6
733.612	10503.35
733.953	10441.89
734.294	10413.86
734.635	10451.6
734.976	10440.76
735.317	10375.45
735.658	10337.03
735.999	10381.78
736.339	10422
736.68	10468.55
737.021	10400.98
737.361	10430.81
737.702	10449.12
738.042	10388.33
738.383	10391.72
738.723	10491.83
739.063	10514.88
739.404	10564.37
739.744	10435.11
740.084	10467.87
740.424	10546.06
740.764	10477.59
741.104	10579.06
741.444	10550.58
741.784	10494.09
742.124	10596.23
742.464	10614.31
742.804	10536.8
743.143	10671.26
743.483	10650.92
743.823	10586.52
744.162	10653.86
744.502	10744.48
744.841	10720.52
745.181	10807.07
745.52	10739.73
745.86	10813.63
746.199	10896.79
746.538	10983.79
746.877	10919.61
747.216	11056.79
747.556	11170
747.895	11146.27
748.234	11150.12
748.573	11203.9
748.911	11242.77
749.25	11360.96
749.589	11396.89
749.928	11511.69
750.267	11559.37
750.605	11553.27
750.944	11705.13
751.283	11757.11
751.621	11904.22
751.96	11989.42
752.298	12002.75
752.636	12268.28
752.975	12282.97
753.313	12287.71
753.651	12437.54
753.989	12533.13
754.327	12740.36
754.666	12769.96
755.004	12939.9
755.342	13124.98
755.679	13220.34
756.017	13404.97
756.355	13569.71
756.693	13651.07
757.031	13789.14
757.368	13869.14
757.706	14104.62
758.044	14255.57
758.381	14496.02
758.719	14508.45
759.056	14800.42
759.394	14843.13
759.731	15026.85
760.068	15200.86
760.405	15409.67
760.743	15460.74
761.08	15670.45
761.417	15822.76
761.754	15952.02
762.091	16282.41
762.428	16426.81
762.765	16415.51
763.102	16617.32
763.438	16845.79
763.775	17068.6
764.112	17180.24
764.449	17377.3
764.785	17509.95
765.122	17547.46
765.458	17731.19
765.795	18012.76
766.131	18082.59
766.467	18211.85
766.804	18326.42
767.14	18385.63
767.476	18612.52
767.812	18739.3
768.148	18856.58
768.485	18913.53
768.821	19003.92
769.157	19249.79
769.492	19247.08
769.828	19451.14
770.164	19412.72
770.5	19550.8
770.836	19721.64
771.171	19712.6
771.507	19837.57
771.842	19804.8
772.178	19987.17
772.513	20066.27
772.849	20152.37
773.184	20209.54
773.519	20253.61
773.855	20248.41
774.19	20441.17
774.525	20430.1
774.86	20511
775.195	20702.63
775.53	20596.2
775.865	20561.39
776.2	20590.09
776.535	20534.28
776.87	20654.5
777.205	20649.75
777.539	20726.14
777.874	20798.22
778.209	20695.4
778.543	20663.76
778.878	20669.64
779.212	20800.94
779.547	20710.77
779.881	20781.5
780.215	20827.15
780.55	20948.28
780.884	20838.68
781.218	20816.08
781.552	20854.95
781.886	20883.42
782.22	20817.66
782.554	20812.46
782.888	20679.58
783.222	20686.81
783.556	20594.39
783.889	20593.03
784.223	20507.16
784.557	20488.18
784.89	20630.32
785.224	20423.09
785.557	20430.32
785.891	20554.61
786.224	20497.44
786.558	20465.35
786.891	20326.37
787.224	20280.95
787.557	20283.44
787.891	20276.43
788.224	20282.31
788.557	20278.24
788.89	20288.18
789.223	20278.01
789.556	20182.42
789.888	20201.63
790.221	19968.87
790.554	19980.39
790.887	19978.13
791.219	19888.19
791.552	19862.43
791.884	19858.59
792.217	19880.51
792.549	19679.16
792.882	19700.85
793.214	19572.72
793.546	19701.98
793.879	19595.77
794.211	19430.12
794.543	19565.71
794.875	19514.87
795.207	19444.36
795.539	19418.83
795.871	19520.29
796.203	19234.88
796.535	19170.02
796.867	19331.14
797.198	19148.78
797.53	19205.05
797.862	19072.17
798.193	19162.79
798.525	18906.07
798.856	19010.7
799.188	18937.26
799.519	18714.66
799.85	18640.77
800.182	18756.24
800.513	18770.26
800.844	18542.24
801.175	18703.14
801.506	18587.89
801.837	18493.88
802.168	18494.56
802.499	18432.41
802.83	18326.42
803.161	18323.26
803.491	18392.19
803.822	18204.62
804.153	18246.65
804.483	18121.01
804.814	18142.25
805.145	18060.22
805.475	17994.23
805.805	17964.17
806.136	18022.25
806.466	17963.5
806.796	17893.67
807.126	17745.88
807.457	17820
807.787	17772.32
808.117	17655.26
808.447	17589.95
808.777	17575.48
809.107	17451.87
809.436	17530.29
809.766	17483.51
810.096	17426.34
810.426	17401.7
810.755	17393.57
811.085	17408.26
811.414	17352.67
811.744	17200.13
812.073	17118.77
812.403	17222.05
812.732	17161.94
813.061	17119.68
813.39	17066.8
813.719	16979.57
814.049	17065.44
814.378	16998.32
814.707	16874.03
815.036	16990.64
815.365	16866.35
815.693	16746.81
816.022	16735.73
816.351	16727.37
816.68	16660.03
817.008	16756.97
817.337	16568.96
817.665	16451.45
817.994	16551.1
818.322	16584.55
818.651	16446.02
818.979	16353.14
819.307	16465.91
819.636	16473.82
819.964	16311.34
820.292	16425.01
820.62	16379.13
820.948	16287.83
821.276	16408.74
821.604	16296.87
821.932	16314.5
822.259	16308.17
822.587	16290.77
822.915	16224.56
823.243	16321.96
823.57	16239.47
823.898	16301.17
824.225	16123.54
824.553	16142.75
824.88	16291.9
825.207	16296.42
825.535	16195.63
825.862	16326.93
826.189	16291.68
826.516	16296.87
826.843	16320.38
827.17	16310.43
827.497	16302.75
827.824	16325.8
828.151	16392.92
828.478	16303.43
828.805	16429.53
829.131	16319.7
829.458	16287.38
829.785	16158.57
830.111	16312.92
830.438	16380.94
830.764	16256.65
831.09	16356.08
831.417	16269.53
831.743	16224.79
832.069	16246.25
832.395	16233.6
832.722	16237.44
833.048	16257.1
833.374	16264.33
833.7	16156.54
834.026	16132.36
834.351	16100.27
834.677	16114.51
835.003	16175.97
835.329	16115.64
835.654	16127.84
835.98	16089.87
836.306	16086.48
836.631	16011.23
836.956	16076.31
837.282	16072.92
837.607	15964
837.932	15855.98
838.258	15991.35
838.583	15912.7
838.908	15798.81
839.233	15804.46
839.558	15877.9
839.883	15718.58
840.208	15697.34
840.533	15775.08
840.858	15724.01
841.182	15658.92
841.507	15643.56
841.832	15671.13
842.156	15491.47
842.481	15498.48
842.805	15566.95
843.13	15566.95
843.454	15463
843.778	15374.19
844.103	15355.66
844.427	15369.67
844.751	15344.58
845.075	15349.1
845.399	15237.92
845.723	15112.27
846.047	15166.06
846.371	15062.1
846.695	15085.38
847.019	14993.41
847.343	14887.42
847.666	14794.09
847.99	14766.29
848.313	14763.13
848.637	14696.24
848.96	14697.14
849.284	14578.5
849.607	14463.02
849.931	14456.92
850.254	14386.19
850.577	14265.29
850.9	14131.96
851.223	14269.81
851.546	14026.2
851.869	13994.56
852.192	14051.51
852.515	13966.54
852.838	13936.94
853.161	13828.01
853.483	13748.01
853.806	13755.47
854.129	13775.58
854.451	13663.72
854.774	13598.64
855.096	13623.05
855.419	13499.43
855.741	13492.88
856.063	13339.44
856.385	13342.83
856.708	13381.47
857.03	13275.94
857.352	13294.92
857.674	13255.15
857.996	13258.99
858.318	13135.83
858.64	13153.68
858.961	13160.01
859.283	13012.67
859.605	13055.6
859.926	13065.77
860.248	12973.57
860.57	12916.17
860.891	12930.18
861.212	12859.45
861.534	12809.51
861.855	12764.54
862.176	12785.1
862.498	12774.71
862.819	12787.59
863.14	12679.34
863.461	12612.45
863.782	12669.85
864.103	12587.59
864.424	12628.04
864.745	12572.68
865.065	12554.15
865.386	12493.81
865.707	12521.15
866.027	12508.72
866.348	12445.22
866.668	12510.08
866.989	12493.13
867.309	12365.23
867.63	12326.81
867.95	12376.3
868.27	12327.26
868.59	12342.4
868.91	12353.02
869.23	12334.94
869.55	12157.1
869.87	12225.34
870.19	12306.7
870.51	12241.61
870.83	12216.98
871.15	12142.18
871.469	12248.17
871.789	12132.24
872.109	12158.9
872.428	12000.26
872.748	12073.48
873.067	12037.55
873.386	12054.27
873.706	12052.92
874.025	11925.01
874.344	11924.79
874.663	11876.65
874.982	11829.19
875.301	11916.2
875.62	11869.87
875.939	11887.05
876.258	11861.51
876.577	11828.52
876.896	11764.11
877.214	11770.44
877.533	11803.21
877.852	11725.69
878.17	11727.28
878.489	11687.28
878.807	11646.6
879.125	11673.94
879.444	11678.24
879.762	11584.46
880.08	11670.55
880.398	11527.28
880.716	11650.67
881.034	11535.19
881.352	11513.27
881.67	11471.92
881.988	11463.78
882.306	11451.13
882.624	11406.38
882.941	11288.42
883.259	11254.52
883.577	11292.26
883.894	11305.59
884.212	11282.77
884.529	11259.94
884.846	11167.74
885.164	11181.08
885.481	11129.1
885.798	11095.88
886.115	11119.38
886.432	11093.17
886.75	11101.98
887.067	11063.11
887.383	10971.59
887.7	11032.83
888.017	10978.14
888.334	11010.46
888.651	10986.28
888.967	10879.84
889.284	10901.31
889.6	10819.28
889.917	10817.47
890.233	10803.01
890.55	10674.87
890.866	10797.58
891.182	10654.08
891.498	10652.73
891.815	10587.42
892.131	10574.76
892.447	10504.03
892.763	10535.44
893.079	10516.69
893.395	10446.63
893.71	10410.93
894.026	10306.07
894.342	10372.74
894.657	10271.5
894.973	10293.64
895.289	10307.65
895.604	10229.91
895.92	10105.4
896.235	10094.55
896.55	10126.64
896.865	10014.78
897.181	10051.61
897.496	10038.51
897.811	9929.81
898.126	9933.65
898.441	9881
898.756	9785.63
899.071	9830.15
899.386	9793.77
899.7	9711.51
900.015	9735.24
900.33	9600.78
900.644	9615.92
900.959	9624.28
901.273	9621.34
901.588	9552.19
901.902	9484.4
902.216	9526.2
902.531	9447.56
902.845	9468.13
903.159	9308.13
903.473	9320.33
903.787	9291.86
904.101	9205.31
904.415	9212.54
904.729	9198.08
905.042	9180.45
905.356	9125.99
905.67	9144.75
905.984	9096.39
906.297	9047.12
906.611	8946.33
906.924	8987.91
907.237	8948.14
907.551	8890.06
907.864	8811.42
908.177	8800.12
908.491	8783.17
908.804	8815.94
909.117	8746.34
909.43	8620.69
909.743	8539.56
910.056	8614.36
910.368	8566.46
910.681	8530.52
910.994	8463.86
911.307	8421.83
911.619	8473.35
911.932	8352
912.244	8393.35
912.557	8334.82
912.869	8286.91
913.181	8194.49
913.494	8253.92
913.806	8167.14
914.118	8162.62
914.43	8097.77
914.742	8111.33
915.054	8020.93
915.366	8005.11
915.678	7990.43
915.99	7969.64
916.302	7884.89
916.613	7860.49
916.925	7843.54
917.236	7805.12
917.548	7782.07
917.859	7765.8
918.171	7742.75
918.482	7720.38
918.794	7666.14
919.105	7686.25
919.416	7548.18
919.727	7550.21
920.038	7511.79
920.349	7489.65
920.66	7425.02
920.971	7511.12
921.282	7382.76
921.593	7380.05
921.903	7302.76
922.214	7333.27
922.525	7248.07
922.835	7285.59
923.146	7209.88
923.456	7194.29
923.767	7136.21
924.077	7094.86
924.387	7112.03
924.697	7016.44
925.008	7041.75
925.318	7040.62
925.628	6962.43
925.938	6959.49
926.248	6923.79
926.558	6863
926.867	6905.26
927.177	6836.78
927.487	6768.31
927.796	6771.25
928.106	6752.27
928.416	6722.89
928.725	6712.72
929.034	6694.41
929.344	6714.07
929.653	6636.34
929.962	6592.5
930.271	6592.5
930.581	6505.49
930.89	6479.28
931.199	6428.88
931.508	6428.43
931.817	6430.92
932.125	6414.87
932.434	6405.16
932.743	6345.72
933.051	6276.8
933.36	6236.35
933.669	6271.6
933.977	6224.37
934.286	6184.6
934.594	6185.95
934.902	6140.98
935.21	6124.94
935.519	6107.31
935.827	6056.92
936.135	6060.31
936.443	5972.4
936.751	5973.53
937.059	6014.88
937.367	5969.91
937.674	5893.53
937.982	5882.46
938.29	5842.01
938.597	5858.05
938.905	5767.21
939.213	5752.52
939.52	5757.04
939.827	5699.19
940.135	5695.57
940.442	5676.36
940.749	5712.52
941.056	5726.3
941.363	5637.72
941.67	5613.31
941.977	5607.21
942.284	5464.84
942.591	5534.9
942.898	5508.23
943.205	5523.82
943.511	5392.75
943.818	5414.45
944.125	5434.33
944.431	5369.03
944.738	5397.5
945.044	5334.22
945.35	5296.94
945.657	5284.96
945.963	5248.8
946.269	5233.21
946.575	5235.02
946.881	5202.7
947.187	5191.18
947.493	5130.61
947.799	5162.03
948.105	5117.51
948.41	5117.51
948.716	5093.55
949.022	5042.93
949.327	5088.58
949.633	5027.34
949.938	5024.85
950.244	4975.14
950.549	4937.17
950.854	4923.39
951.16	4921.35
951.465	4888.81
951.77	4833.67
952.075	4835.48
952.38	4818.53
952.685	4824.86
952.99	4740.34
953.294	4762.26
953.599	4716.84
953.904	4748.02
954.209	4670.74
954.513	4660.34
954.818	4671.19
955.122	4655.82
955.426	4649.27
955.731	4617.41
956.035	4557.3
956.339	4544.41
956.643	4578.09
956.948	4541.48
957.252	4501.48
957.556	4487.01
957.86	4409.05
958.163	4432.55
958.467	4389.39
958.771	4409.95
959.075	4378.54
959.378	4350.52
959.682	4328.37
959.985	4310.3
960.289	4306.45
960.592	4273.01
960.896	4229.39
961.199	4287.47
961.502	4240.92
961.805	4219.68
962.108	4161.15
962.411	4169.51
962.714	4129.74
963.017	4128.38
963.32	4146.01
963.623	4131.54
963.926	4058.33
964.228	4061.72
964.531	4014.48
964.833	4078.44
965.136	4001.38
965.438	4000.93
965.741	4013.81
966.043	3934.94
966.345	3948.72
966.648	3917.76
966.95	3920.7
967.252	3874.15
967.554	3891.1
967.856	3862.17
968.158	3835.05
968.46	3805.45
968.761	3768.39
969.063	3780.37
969.365	3774.94
969.666	3779.24
969.968	3750.54
970.269	3716.64
970.571	3708.5
970.872	3701.5
971.174	3659.24
971.475	3643.2
971.776	3645
972.077	3638.9
972.378	3608.17
972.679	3575.17
972.98	3591.22
973.281	3548.73
973.582	3578.56
973.883	3573.82
974.183	3514.16
974.484	3506.25
974.785	3494.5
975.085	3478.68
975.386	3447.95
975.686	3412.92
975.986	3443.88
976.287	3412.92
976.587	3396.2
976.887	3334.73
977.187	3379.25
977.487	3348.51
977.787	3353.26
978.087	3335.86
978.387	3284.11
978.687	3286.37
978.987	3231
979.286	3220.61
979.586	3249.08
979.885	3242.3
980.185	3211.12
980.484	3193.04
980.784	3192.59
981.083	3192.81
981.382	3169.08
981.682	3139.25
981.981	3123.21
982.28	3136.54
982.579	3111.01
982.878	3081.4
983.177	3072.59
983.475	3047.5
983.774	3018.13
984.073	3020.84
984.372	3009.31
984.67	2994.85
984.969	3038.01
985.267	2968.64
985.566	2965.47
985.864	2940.39
986.162	2915.08
986.461	2895.87
986.759	2901.29
987.057	2839.37
987.355	2834.85
987.653	2863.1
987.951	2841.18
988.249	2819.94
988.547	2807.74
988.844	2817.23
989.142	2809.32
989.44	2786.72
989.737	2802.99
990.035	2755.08
990.332	2728.19
990.63	2722.54
990.927	2721.19
991.224	2707.17
991.521	2688.42
991.819	2657.68
992.116	2686.16
992.413	2659.94
992.71	2636.22
993.006	2679.38
993.303	2630.79
993.6	2595.09
993.897	2582.21
994.193	2614.97
994.49	2603
994.787	2567.74
995.083	2565.71
995.379	2555.99
995.676	2534.07
995.972	2540.85
996.268	2496.11
996.565	2504.92
996.861	2455.43
997.157	2450.23
997.453	2459.27
997.749	2398.03
998.044	2406.62
998.34	2415.66
998.636	2382.21
998.932	2410.46
999.227	2375.43
999.523	2385.6
999.818	2347.41
1000.114	2315.09
1000.409	2327.3
1000.704	2311.03
1001	2312.16
1001.295	2299.28
1001.59	2270.35
1001.885	2253.18
1002.18	2254.31
1002.475	2222.44
1002.77	2227.19
1003.065	2188.77
1003.359	2200.75
1003.654	2210.92
1003.949	2192.61
1004.243	2174.08
1004.538	2135.89
1004.832	2120.07
1005.127	2141.54
1005.421	2143.57
1005.715	2132.05
1006.009	2087.53
1006.304	2104.7
1006.598	2048.66
1006.892	2079.17
1007.186	2032.84
1007.48	2032.39
1007.773	2053.86
1008.067	1995.1
1008.361	2001.66
1008.655	1969.57
1008.948	1985.16
1009.242	1948.78
1009.535	1980.19
1009.829	1938.61
1010.122	1920.53
1010.415	1904.03
1010.708	1884.37
1011.001	1863.13
1011.295	1901.77
1011.588	1857.71
1011.881	1850.47
1012.173	1894.99
1012.466	1827.65
1012.759	1843.24
1013.052	1798.72
1013.344	1811.38
1013.637	1785.39
1013.93	1786.29
1014.222	1760.08
1014.514	1757.6
1014.807	1734.77
1015.099	1751.72
1015.391	1728.44
1015.683	1728.9
1015.976	1689.35
1016.268	1694.09
1016.56	1691.16
1016.851	1665.39
1017.143	1674.66
1017.435	1696.35
1017.727	1633.98
1018.018	1647.09
1018.31	1614.55
1018.602	1605.51
1018.893	1610.71
1019.185	1578.84
1019.476	1569.35
1019.767	1564.83
1020.058	1563.02
1020.35	1533.42
1020.641	1528.45
1020.932	1504.95
1021.223	1515.12
1021.514	1512.63
1021.804	1506.75
1022.095	1498.39
1022.386	1484.38
1022.677	1451.84
1022.967	1487.77
1023.258	1453.2
1023.548	1443.7
1023.839	1440.77
1024.129	1432.63
1024.419	1399.86
1024.709	1395.34
1025	1385.4
1025.29	1373.88
1025.58	1370.49
1025.87	1352.41
1026.16	1358.06
1026.449	1341.11
1026.739	1339.98
1027.029	1325.52
1027.319	1322.8
1027.608	1339.53
1027.898	1304.5
1028.187	1305.86
1028.477	1307.66
1028.766	1289.81
1029.055	1278.51
1029.344	1271.73
1029.634	1244.39
1029.923	1259.76
1030.212	1241.68
1030.501	1236.93
1030.79	1211.85
1031.078	1216.59
1031.367	1211.17
1031.656	1193.99
1031.945	1207.33
1032.233	1181.56
1032.522	1154
1032.81	1189.7
1033.099	1176.82
1033.387	1135.46
1033.675	1134.33
1033.963	1155.35
1034.251	1127.56
1034.54	1114.45
1034.828	1104.5
1035.116	1113.54
1035.403	1085.97
1035.691	1087.33
1035.979	1086.88
1036.267	1062.02
1036.554	1092.75
1036.842	1075.13
1037.129	1064.96
1037.417	1033.09
1037.704	1061.34
1037.992	1037.16
1038.279	1019.99
1038.566	1012.76
1038.853	1012.76
1039.14	1012.76
