Data from hue_330_FLMS001491_53.txt Node
Date: Mon Feb 06 15:45:35 GMT 2017
User: dcchb
Spectrometer: FLMS00149
Trigger mode: 0
Integration Time (sec): 2.000000E-2
Scans to average: 10
Electric dark correction enabled: true
Nonlinearity correction enabled: false
Boxcar width: 0
XAxis mode: Wavelengths
Number of Pixels in Spectrum: 2048
>>>>>Begin Spectral Data<<<<<
341.393	1.47
341.776	1.47
342.16	1.47
342.543	-64.52
342.927	-67.91
343.31	-57.74
343.693	-71.3
344.077	-40.79
344.46	-58.19
344.843	-54.35
345.226	-49.15
345.61	-33.56
345.993	-26.33
346.376	-15.25
346.759	6.67
347.142	13.22
347.525	46.89
347.908	71.52
348.291	68.36
348.674	91.86
349.057	108.13
349.44	135.93
349.823	139.54
350.206	169.6
350.588	203.05
350.971	225.19
351.354	224.51
351.737	238.98
352.119	268.58
352.502	265.87
352.884	263.16
353.267	296.83
353.65	287.79
354.032	306.32
354.414	305.19
354.797	315.13
355.179	316.04
355.562	347.45
355.944	328.01
356.326	310.39
356.709	321.46
357.091	328.47
357.473	352.65
357.855	352.42
358.238	350.61
358.62	311.07
359.002	342.93
359.384	331.18
359.766	359.2
360.148	337.96
360.53	355.36
360.912	339.77
361.294	317.62
361.676	331.63
362.057	311.74
362.439	347.45
362.821	337.51
363.203	323.04
363.584	334.79
363.966	332.08
364.348	301.35
364.729	324.85
365.111	330.27
365.493	321.91
365.874	310.39
366.256	305.42
366.637	311.07
367.019	311.07
367.4	305.19
367.781	323.72
368.163	322.14
368.544	299.31
368.925	330.27
369.306	321.01
369.688	329.14
370.069	295.47
370.45	333.21
370.831	319.2
371.212	315.13
371.593	302.48
371.974	318.3
372.355	351.29
372.736	318.75
373.117	328.69
373.498	311.07
373.879	326.21
374.26	325.08
374.641	318.3
375.021	297.51
375.402	334.79
375.783	332.53
376.163	340.89
376.544	339.77
376.925	326.88
377.305	331.18
377.686	322.59
378.066	338.18
378.447	326.88
378.827	337.73
379.208	335.92
379.588	314
379.968	348.13
380.349	335.02
380.729	356.71
381.109	361.23
381.489	334.57
381.87	316.49
382.25	337.96
382.63	338.64
383.01	327.79
383.39	336.6
383.77	338.41
384.15	337.05
384.53	349.03
384.91	343.61
385.29	349.71
385.67	362.36
386.049	366.21
386.429	349.48
386.809	364.62
387.189	337.05
387.568	372.53
387.948	358.75
388.328	365.75
388.707	373.44
389.087	348.8
389.466	373.89
389.846	347.67
390.225	360.78
390.605	373.66
390.984	358.52
391.363	389.71
391.743	382.93
392.122	371.85
392.501	373.66
392.881	389.03
393.26	405.75
393.639	384.74
394.018	396.71
394.397	377.05
394.776	372.31
395.155	385.64
395.534	378.18
395.913	385.64
396.292	395.13
396.671	384.51
397.05	378.86
397.429	375.24
397.808	389.71
398.186	360.33
398.565	403.49
398.944	388.58
399.323	372.08
399.701	397.84
400.08	398.52
400.458	403.04
400.837	395.36
401.215	422.02
401.594	415.92
401.972	415.7
402.351	413.21
402.729	414.34
403.107	421.12
403.486	415.24
403.864	438.29
404.242	406.2
404.62	458.86
404.999	446.2
405.377	434.9
405.755	436.26
406.133	454.11
406.511	435.81
406.889	450.5
407.267	469.93
407.645	467.9
408.023	468.12
408.401	458.41
408.779	471.29
409.156	474
409.534	488.24
409.912	469.48
410.29	505.86
410.667	485.75
411.045	478.52
411.422	495.92
411.8	521.46
412.178	501.79
412.555	540.66
412.933	525.52
413.31	502.92
413.687	521.91
414.065	531.17
414.442	533.66
414.819	545.18
415.197	544.96
415.574	568.23
415.951	558.29
416.328	562.36
416.705	551.74
417.082	568.01
417.46	582.24
417.837	613.43
418.214	584.96
418.591	609.14
418.967	581.11
419.344	600.32
419.721	621.57
420.098	623.37
420.475	628.57
420.852	617.05
421.228	648.68
421.605	648.46
421.982	629.93
422.358	659.76
422.735	658.17
423.111	685.97
423.488	675.58
423.864	671.06
424.241	702.92
424.617	677.84
424.994	701.79
425.37	699.53
425.746	683.94
426.123	709.47
426.499	695.01
426.875	719.87
427.251	727.1
427.627	721.9
428.003	747.89
428.379	751.96
428.756	761.45
429.132	774.33
429.507	773.88
429.883	785.18
430.259	785.86
430.635	798.06
431.011	794.89
431.387	816.36
431.763	830.37
432.138	844.16
432.514	850.94
432.89	872.86
433.265	840.32
433.641	873.99
434.016	889.36
434.392	876.47
434.767	909.02
435.143	897.49
435.518	913.08
435.894	916.93
436.269	917.6
436.644	914.89
437.02	933.2
437.395	951.27
437.77	966.64
438.145	945.85
438.52	987.43
438.895	995.12
439.271	1010.93
439.646	989.24
440.021	1031.27
440.395	1005.74
440.77	1016.81
441.145	1025.17
441.52	1030.37
441.895	1046.87
442.27	1015.45
442.645	1031.5
443.019	1043.48
443.394	1058.62
443.769	1081.21
444.143	1064.27
444.518	1053.87
444.892	1073.08
445.267	1086.19
445.641	1109.46
446.016	1098.62
446.39	1091.16
446.764	1080.31
447.139	1119.63
447.513	1094.32
447.887	1128.22
448.262	1076.69
448.636	1136.58
449.01	1149.91
449.384	1141.1
449.758	1158.27
450.132	1170.03
450.506	1165.96
450.88	1127.99
451.254	1154.21
451.628	1172.29
452.002	1197.82
452.376	1176.13
452.75	1197.14
453.123	1188.78
453.497	1204.83
453.871	1239.4
454.244	1253.19
454.618	1225.84
454.992	1266.75
455.365	1257.71
455.739	1275.56
456.112	1303.58
456.486	1268.33
456.859	1283.02
457.232	1309.91
457.606	1318.27
457.979	1323.02
458.352	1344.48
458.725	1343.35
459.099	1362.34
459.472	1398.95
459.845	1401.21
460.218	1414.99
460.591	1409.57
460.964	1435.56
461.337	1452.28
461.71	1459.74
462.083	1457.48
462.456	1466.52
462.829	1482.79
463.201	1502.22
463.574	1482.56
463.947	1505.16
464.32	1530.24
464.692	1530.69
465.065	1536.12
465.438	1592.84
465.81	1560.98
466.183	1614.76
466.555	1611.6
466.928	1630.13
467.3	1621.31
467.672	1691.14
468.045	1715.77
468.417	1710.58
468.789	1679.84
469.161	1724.81
469.534	1764.81
469.906	1775.43
470.278	1777.92
470.65	1810.46
471.022	1811.14
471.394	1855.43
471.766	1884.58
472.138	1862.89
472.51	1941.3
472.882	1953.73
473.253	1921.19
473.625	1961.87
473.997	1997.8
474.369	2041.64
474.74	2034.64
475.112	2053.84
475.484	2122.32
475.855	2145.14
476.227	2123.67
476.598	2185.59
476.97	2164.58
477.341	2236.89
477.713	2240.05
478.084	2261.52
478.455	2310.79
478.827	2317.79
479.198	2419.03
479.569	2373.61
479.94	2467.84
480.311	2450.9
480.682	2488.18
481.053	2563.66
481.424	2584
481.795	2616.77
482.166	2635.75
482.537	2694.96
482.908	2727.27
483.279	2719.14
483.65	2774.96
484.021	2811.56
484.391	2840.94
484.762	2855.18
485.133	2915.29
485.503	2917.32
485.874	2992.8
486.244	2995.97
486.615	3031.22
486.985	3082.07
487.356	3147.37
487.726	3119.13
488.097	3196.87
488.467	3194.83
488.837	3197.54
489.207	3305.79
489.578	3335.84
489.948	3353.92
490.318	3409.97
490.688	3407.71
491.058	3455.62
491.428	3491.77
491.798	3494.71
492.168	3551.43
492.538	3561.38
492.908	3629.17
493.278	3663.52
493.648	3668.72
494.017	3714.59
494.387	3762.95
494.757	3752.33
495.126	3804.53
495.496	3780.35
495.866	3769.28
496.235	3841.82
496.605	3898.32
496.974	3915.26
497.344	3975.6
497.713	3942.61
498.082	3975.15
498.452	4003.4
498.821	4001.82
499.19	4009.95
499.559	4061.93
499.928	4093.34
500.298	4119.33
500.667	4112.1
501.036	4114.58
501.405	4178.99
501.774	4159.33
502.143	4196.61
502.512	4202.49
502.88	4219.66
503.249	4238.65
503.618	4247.91
503.987	4279.1
504.356	4302.6
504.724	4329.94
505.093	4289.27
505.462	4329.04
505.83	4385.99
506.199	4386.66
506.567	4446.78
506.936	4443.39
507.304	4471.86
507.672	4465.76
508.041	4494.68
508.409	4506.21
508.777	4550.05
509.145	4516.15
509.514	4522.48
509.882	4623.49
510.25	4575.59
510.618	4584.4
510.986	4651.97
511.354	4675.7
511.722	4689.03
512.09	4698.07
512.458	4699.88
512.826	4698.97
513.193	4741.01
513.561	4750.04
513.929	4752.08
514.297	4764.51
514.664	4837.27
515.032	4826.65
515.4	4877.95
515.767	4866.43
516.135	4865.75
516.502	4876.82
516.869	4902.81
517.237	4934.9
517.604	4898.06
517.972	4971.51
518.339	4965.63
518.706	5003.37
519.073	4997.04
519.44	4974.67
519.808	5050.15
520.175	5048.57
520.542	5068.68
520.909	5108.23
521.276	5124.95
521.643	5168.79
522.009	5139.64
522.376	5142.58
522.743	5190.94
523.11	5213.54
523.477	5257.38
523.843	5257.6
524.21	5264.83
524.577	5376.47
524.943	5319.07
525.31	5387.54
525.676	5406.07
526.043	5466.64
526.409	5503.7
526.776	5506.86
527.142	5498.95
527.508	5568.33
527.874	5592.51
528.241	5584.15
528.607	5618.5
528.973	5672.51
529.339	5689.45
529.705	5734.88
530.071	5740.75
530.437	5827.3
530.803	5822.33
531.169	5802.67
531.535	5804.25
531.901	5851.48
532.267	5874.08
532.632	5938.26
532.998	5887.87
533.364	5961.31
533.73	5965.38
534.095	5978.49
534.461	6011.25
534.826	6058.71
535.192	6060.29
535.557	6120.63
535.923	6119.95
536.288	6136.22
536.653	6152.72
537.019	6203.34
537.384	6234.53
537.749	6223.9
538.114	6298.7
538.479	6262.55
538.845	6338.7
539.21	6290.57
539.575	6320.85
539.94	6407.85
540.305	6394.07
540.67	6436.78
541.034	6437.23
541.399	6484.01
541.764	6496.21
542.129	6527.17
542.494	6593.61
542.858	6600.39
543.223	6605.14
543.587	6678.81
543.952	6720.16
544.316	6702.76
544.681	6662.54
545.045	6700.28
545.41	6784.34
545.774	6799.26
546.138	6816.2
546.503	6838.8
546.867	6839.71
547.231	6893.94
547.595	6907.5
547.959	6925.13
548.324	6978.01
548.688	6954.73
549.052	6990.66
549.416	7031.34
549.779	7051.45
550.143	7097.33
550.507	7147.72
550.871	7125.58
551.235	7127.38
551.599	7175.29
551.962	7183.65
552.326	7144.78
552.689	7242.41
553.053	7226.14
553.417	7299.58
553.78	7333.48
554.143	7330.32
554.507	7379.58
554.87	7326.7
555.234	7424.55
555.597	7357.66
555.96	7397.43
556.323	7523.98
556.686	7422.52
557.05	7543.42
557.413	7499.58
557.776	7577.77
558.139	7577.31
558.502	7582.06
558.865	7693.92
559.228	7679.23
559.59	7668.16
559.953	7679.23
560.316	7764.65
560.679	7775.05
561.041	7803.3
561.404	7839.68
561.767	7850.08
562.129	7808.04
562.492	7920.81
562.854	7918.55
563.217	7900.24
563.579	7949.51
563.941	8062.95
564.304	8081.71
564.666	8068.38
565.028	8085.32
565.39	8092.1
565.753	8072.44
566.115	8140.92
566.477	8198.54
566.839	8177.07
567.201	8253.23
567.563	8311.53
567.925	8261.36
568.287	8356.5
568.648	8391.98
569.01	8417.29
569.372	8455.48
569.734	8425.65
570.095	8549.27
570.457	8532.54
570.819	8574.12
571.18	8618.19
571.542	8703.84
571.903	8692.99
572.265	8765.31
572.626	8831.97
572.987	8831.75
573.349	8863.61
573.71	8900.67
574.071	9040.33
574.432	9040.55
574.794	9213.66
575.155	9175.69
575.516	9163.71
575.877	9223.15
576.238	9285.52
576.599	9422.24
576.96	9448
577.32	9488.23
577.681	9589.69
578.042	9723.25
578.403	9695
578.763	9826.97
579.124	9898.84
579.485	10106.51
579.845	10138.15
580.206	10174.99
580.566	10316.9
580.927	10492.04
581.287	10599.38
581.648	10725.25
582.008	10914.85
582.368	10942.88
582.728	11151.23
583.089	11298.12
583.449	11360.04
583.809	11518.45
584.169	11834.38
584.529	11928.84
584.889	12234.14
585.249	12316.4
585.609	12481.37
585.969	12815.14
586.329	12917.06
586.688	13102.14
587.048	13298.07
587.408	13527.67
587.768	13785.29
588.127	13976.69
588.487	14184.82
588.846	14565.61
589.206	14726.96
589.565	14910.23
589.925	15208.53
590.284	15456.43
590.643	15700.27
591.003	15901.16
591.362	16302.06
591.721	16588.83
592.08	16866.34
592.44	17195.37
592.799	17514.45
593.158	17724.17
593.517	18087.1
593.876	18288.22
594.235	18503.58
594.593	18845.95
594.952	19165.94
595.311	19492.48
595.67	19751.23
596.029	20163.88
596.387	20417.2
596.746	20672.34
597.104	21022.39
597.463	21067.58
597.822	21703.72
598.18	21853.55
598.538	22013.55
598.897	22571.95
599.255	22621.89
599.613	23158.83
599.972	23397.24
600.33	23727.17
600.688	23838.13
601.046	24326.25
601.404	24594.72
601.762	24748.39
602.12	25055.5
602.478	25301.59
602.836	25754.01
603.194	25841.24
603.552	26280.55
603.91	26424.28
604.268	26825.17
604.625	26934.55
604.983	27346.06
605.341	27391.94
605.698	27835.31
606.056	28003.9
606.413	28298.13
606.771	28541.28
607.128	28875.74
607.485	28963.87
607.843	29155.05
608.2	29608.15
608.557	29737.64
608.914	29741.93
609.272	30332.2
609.629	30494.23
609.986	30818.06
610.343	30819.64
610.7	31318.16
611.057	31423.24
611.414	31666.17
611.771	31807.19
612.127	31978.93
612.484	32169.66
612.841	32427.96
613.198	32527.17
613.554	32640.61
613.911	33026.36
614.267	33112.91
614.624	33353.81
614.98	33591.55
615.337	33949.95
615.693	33804.87
616.05	34042.83
616.406	34224.3
616.762	34339.78
617.118	34564.18
617.475	34749.93
617.831	34913.09
618.187	35085.52
618.543	35186.53
618.899	35498.84
619.255	35580.65
619.611	35670.14
619.967	35929.34
620.323	36052.5
620.678	35986.29
621.034	36112.61
621.39	36133.4
621.746	36201.65
622.101	36675.76
622.457	36485.48
622.812	36747.85
623.168	36918.01
623.523	37021.96
623.879	37028.52
624.234	36970.44
624.589	37139.7
624.945	37368.4
625.3	37402.07
625.655	37483.65
626.01	37588.96
626.365	37726.13
626.72	37688.61
627.075	37783.3
627.43	37889.29
627.785	37852.9
628.14	37890.64
628.495	37983.97
628.85	38013.8
629.205	37983.75
629.559	38238.88
629.914	38119.79
630.269	38248.15
630.623	38177.41
630.978	38093.12
631.332	38319.11
631.687	38447.92
632.041	38490.85
632.396	38541.7
632.75	38500.8
633.104	38491.76
633.459	38434.36
633.813	38369.27
634.167	38460.12
634.521	38519.1
634.875	38542.83
635.229	38503.96
635.583	38343.29
635.937	38357.3
636.291	38450.85
636.645	38547.35
636.999	38616.95
637.352	38657.63
637.706	38334.7
638.06	38550.51
638.413	38488.59
638.767	38334.92
639.121	38549.61
639.474	38342.38
639.828	38422.61
640.181	38409.72
640.534	38399.56
640.888	38366.56
641.241	38248.82
641.594	38361.14
641.947	38268.03
642.301	38346.9
642.654	38395.04
643.007	38457.86
643.36	38374.25
643.713	38381.7
644.066	38524.52
644.419	38207.7
644.771	37948.27
645.124	37703.75
645.477	37759.35
645.83	37534.04
646.182	37364.55
646.535	37342.18
646.888	37389.41
647.24	37137.44
647.593	37342.41
647.945	37258.12
648.298	37070.1
648.65	37279.13
649.002	37132.24
649.355	37187.84
649.707	37223.09
650.059	37348.28
650.411	37774.94
650.763	37832.79
651.115	38141.71
651.467	38054.48
651.819	38085.67
652.171	38001.15
652.523	37894.71
652.875	37932.67
653.227	37689.97
653.578	38040.47
653.93	38017.87
654.282	37778.55
654.633	37721.61
654.985	37777.42
655.337	37779.23
655.688	37820.81
656.039	37860.36
656.391	37697.65
656.742	37627.37
657.094	37513.02
657.445	37740.14
657.796	37749.63
658.147	37543.08
658.498	37550.31
658.849	37700.59
659.2	37710.53
659.551	37558.22
659.902	37639.8
660.253	37599.8
660.604	37579.92
660.955	37374.72
661.306	37677.54
661.656	37677.09
662.007	37618.11
662.358	37532.91
662.708	37725.22
663.059	37635.51
663.409	37501.73
663.76	37682.51
664.11	37720.93
664.461	37636.64
664.811	37538.79
665.161	37492.91
665.511	37507.6
665.862	37461.95
666.212	37721.61
666.562	37647.71
666.912	37533.36
667.262	37459.24
667.612	37391.45
667.962	37609.07
668.312	37457.21
668.662	37561.84
669.011	37539.92
669.361	37420.15
669.711	37363.88
670.06	37430.54
670.41	37182.19
670.76	37331.79
671.109	37424.67
671.459	37318.23
671.808	37519.58
672.157	37456.53
672.507	37250.21
672.856	37235.52
673.205	37295.18
673.554	37319.81
673.904	37191.45
674.253	37501.05
674.602	37303.99
674.951	36681.86
675.3	36668.98
675.649	37264.9
675.998	37040.27
676.346	37119.14
676.695	37335.63
677.044	36923.89
677.393	37079.82
677.741	37176.54
678.09	37036.2
678.438	36996.2
678.787	37041.4
679.135	37049.53
679.484	36760.05
679.832	37000.95
680.181	36656.1
680.529	36876.66
680.877	36659.04
681.225	36659.04
681.573	36926.37
681.922	36638.47
682.27	36493.62
682.618	36457.23
682.966	36487.29
683.314	36636.21
683.661	36386.05
684.009	36198.03
684.357	36200.97
684.705	36159.39
685.053	36116.23
685.4	36108.09
685.748	36020.63
686.095	35963.46
686.443	35867.64
686.79	35805.05
687.138	36026.06
687.485	35886.85
687.832	35758.95
688.18	35789.45
688.527	35625.62
688.874	35516.24
689.221	35363.25
689.568	35553.3
689.915	35290.03
690.262	35406.19
690.609	35273.08
690.956	35142.47
691.303	35171.39
691.65	34936.14
691.997	34986.31
692.344	34776.37
692.69	34849.82
693.037	34708.13
693.383	34390.17
693.73	34582.25
694.077	34427.68
694.423	34420.9
694.769	34225.43
695.116	34277.86
695.462	34341.81
695.808	34073.12
696.155	34104.53
696.501	33793.12
696.847	33841.48
697.193	33633.13
697.539	33719.23
697.885	33500.7
698.231	33370.53
698.577	33441.72
698.923	33358.56
699.269	33179.13
699.614	33034.05
699.96	32986.36
700.306	32995.86
700.651	32919.25
700.997	32866.37
701.342	32727.39
701.688	32730.33
702.033	32641.97
702.379	32540.95
702.724	32401.29
703.069	32545.7
703.415	32126.73
703.76	32228.19
704.105	32157.01
704.45	32002.21
704.795	31877.69
705.14	31762.22
705.485	31808.54
705.83	31608.77
706.175	31724.93
706.52	31613.07
706.865	31492.84
707.209	31427.99
707.554	31400.19
707.899	31340.08
708.243	31292.4
708.588	31245.17
708.932	30978.28
709.277	30981.45
709.621	31157.03
709.966	30843.37
710.31	30878.85
710.654	30612.19
710.998	30663.94
711.342	30730.15
711.687	30597.27
712.031	30484.51
712.375	30349.37
712.719	30583.94
713.063	30395.92
713.407	30418.3
713.75	30200.22
714.094	30248.58
714.438	30064.63
714.782	30137.63
715.125	29929.27
715.469	29963.17
715.812	29796.39
716.156	29749.39
716.499	29682.72
716.843	29619.67
717.186	29482.73
717.53	29583.29
717.873	29706.9
718.216	29644.76
718.559	29527.47
718.902	29181.72
719.246	29382.84
719.589	29286.12
719.932	29143.53
720.275	29065.34
720.617	29115.28
720.96	29051.78
721.303	29051.55
721.646	29027.15
721.989	28798.23
722.331	28938.79
722.674	28886.36
723.016	28792.8
723.359	28788.96
723.701	28793.48
724.044	28653.14
724.386	28472.13
724.729	28614.5
725.071	28588.74
725.413	28535.41
725.755	28461.96
726.097	28248.64
726.439	28197.34
726.782	28228.75
727.124	28247.96
727.465	28146.94
727.807	28252.25
728.149	28107.85
728.491	28066.72
728.833	28118.02
729.175	27999.38
729.516	27938.36
729.858	27842.32
730.199	27835.54
730.541	27892.71
730.882	27727.52
731.224	27858.59
731.565	27656.79
731.906	27717.35
732.248	27642.32
732.589	27535.89
732.93	27498.6
733.271	27510.12
733.612	27405.27
733.953	27483.23
734.294	27377.92
734.635	27332.95
734.976	27345.16
735.317	27271.71
735.658	27184.03
735.999	27149.91
736.339	27147.42
736.68	27252.28
737.021	26990.59
737.361	26909.24
737.702	27034.2
738.042	26912.4
738.383	26878.5
738.723	26892.06
739.063	26756.02
739.404	26932.51
739.744	26783.82
740.084	26670.37
740.424	26769.58
740.764	26726.42
741.104	26766.41
741.444	26589.7
741.784	26431.73
742.124	26532.75
742.464	26401.9
742.804	26441.9
743.143	26261.8
743.483	26323.04
743.823	26273.77
744.162	26241.23
744.502	26231.51
744.841	26229.03
745.181	26203.04
745.52	26172.53
745.86	26176.15
746.199	26094.12
746.538	26022.03
746.877	26080.56
747.216	26170.95
747.556	25875.36
747.895	25996.94
748.234	25899.54
748.573	25798.08
748.911	25898.64
749.25	25694.35
749.589	25629.72
749.928	25709.49
750.267	25647.57
750.605	25530.06
750.944	25473.12
751.283	25517.18
751.621	25444.19
751.96	25317.19
752.298	25440.35
752.636	25359.22
752.975	25139.11
753.313	25111.77
753.651	25170.07
753.989	25039.91
754.327	25032.9
754.666	24912.45
755.004	24806.01
755.342	24940.47
755.679	24889.63
756.017	24701.38
756.355	24835.39
756.693	24717.66
757.031	24672.68
757.368	24541.16
757.706	24572.35
758.044	24508.17
758.381	24414.39
758.719	24291.68
759.056	24357.89
759.394	24223.66
759.731	24126.48
760.068	24107.95
760.405	24020.27
760.743	23964.68
761.08	23960.84
761.417	23819.37
761.754	23793.16
762.091	23653.73
762.428	23598.36
762.765	23582.54
763.102	23517.46
763.438	23465.94
763.775	23325.38
764.112	23322.21
764.449	23298.26
764.785	23244.7
765.122	23021.65
765.458	23025.04
765.795	22994.54
766.131	22876.35
766.467	22850.36
766.804	22710.48
767.14	22667.31
767.476	22558.62
767.812	22476.36
768.148	22532.4
768.485	22382.58
768.821	22208.12
769.157	22229.81
769.492	22160.66
769.828	22118.4
770.164	21957.95
770.5	21889.48
770.836	21905.98
771.171	21808.81
771.507	21707.11
771.842	21551.64
772.178	21485.88
772.513	21500.56
772.849	21378.76
773.184	21423.96
773.519	21348.93
773.855	21192.55
774.19	21153.68
774.525	21040.24
774.86	21079.56
775.195	20932.44
775.53	20854.03
775.865	20773.13
776.2	20578.33
776.535	20552.11
776.87	20453.36
777.205	20420.59
777.539	20404.77
777.874	20381.05
778.209	20194.84
778.543	20104.44
778.878	20019.25
779.212	19951.68
779.547	19853.38
779.881	19981.06
780.215	19778.35
780.55	19720.72
780.884	19781.51
781.218	19551.24
781.552	19607.73
781.886	19596.43
782.22	19410.22
782.554	19336.78
782.888	19067.63
783.222	19150.34
783.556	19009.56
783.889	18944.7
784.223	18841.88
784.557	18844.36
784.89	18894.98
785.224	18717.36
785.557	18677.81
785.891	18654.76
786.224	18613.63
786.558	18555.11
786.891	18447.76
787.224	18325.28
787.557	18316.69
787.891	18296.81
788.224	18221.78
788.557	18247.54
788.89	18164.16
789.223	18036.93
789.556	17883.48
789.888	17937.04
790.221	17863.15
790.554	17706.31
790.887	17671.51
791.219	17555.36
791.552	17491.86
791.884	17482.37
792.217	17460.44
792.549	17401.46
792.882	17314.23
793.214	17252.31
793.546	17312.88
793.879	17092.77
794.211	17078.08
794.543	17041.92
794.875	16968.03
795.207	16954.24
795.539	16944.75
795.871	16859.33
796.203	16720.35
796.535	16648.26
796.867	16693.23
797.198	16590.19
797.53	16529.17
797.862	16458.44
798.193	16519.23
798.525	16352.68
798.856	16406.69
799.188	16196.98
799.519	16212.12
799.85	16101.38
800.182	16100.93
800.513	16061.39
800.844	15883.09
801.175	16008.28
801.506	15893.25
801.837	15845.35
802.168	15761.51
802.499	15846.48
802.83	15648.52
803.161	15669.08
803.491	15583.21
803.822	15601.51
804.153	15660.94
804.483	15465.02
804.814	15350.44
805.145	15367.17
805.475	15310.44
805.805	15234.29
806.136	15337.79
806.466	15286.49
806.796	15119.26
807.126	15068.87
807.457	15117.23
807.787	15009.21
808.117	14971.02
808.447	14998.59
808.777	15005.37
809.107	14882.21
809.436	14920.4
809.766	14881.76
810.096	14870.91
810.426	14716.79
810.755	14680.63
811.085	14728.31
811.414	14697.13
811.744	14497.58
812.073	14482.22
812.403	14470.69
812.732	14415.55
813.061	14351.37
813.39	14270.47
813.719	14323.8
814.049	14368.77
814.378	14260.08
814.707	14179.4
815.036	14117.48
815.365	14077.26
815.693	13994.1
816.022	13982.34
816.351	13981.44
816.68	13917.94
817.008	13934.89
817.337	13828
817.665	13818.28
817.994	13857.38
818.322	13802.46
818.651	13755.91
818.979	13720.43
819.307	13792.07
819.636	13599.3
819.964	13576.03
820.292	13697.15
820.62	13553.2
820.948	13582.13
821.276	13580.55
821.604	13537.84
821.932	13621.22
822.259	13599.3
822.587	13659.19
822.915	13456.03
823.243	13579.42
823.57	13510.72
823.898	13655.12
824.225	13448.8
824.553	13489.7
824.88	13421.46
825.207	13555.24
825.535	13499.65
825.862	13491.28
826.189	13487.22
826.516	13486.76
826.843	13573.77
827.17	13496.03
827.497	13519.31
827.824	13535.58
828.151	13548.91
828.478	13488.57
828.805	13548.68
829.131	13445.41
829.458	13439.99
829.785	13364.51
830.111	13414.22
830.438	13510.27
830.764	13454.9
831.09	13431.4
831.417	13395.92
831.743	13377.61
832.069	13447.44
832.395	13325.64
832.722	13388.69
833.048	13312.08
833.374	13370.38
833.7	13357.28
834.026	13376.71
834.351	13363.6
834.677	13367.45
835.003	13372.19
835.329	13324.96
835.654	13301.91
835.98	13257.17
836.306	13255.81
836.631	13124.97
836.956	13205.42
837.282	13240.44
837.607	13143.04
837.932	13127.9
838.258	13101.69
838.583	13127.45
838.908	13045.65
839.233	13049.49
839.558	12930.17
839.883	12999.32
840.208	12923.84
840.533	12967.46
840.858	12945.99
841.182	12874.35
841.507	12946.67
841.832	12831.19
842.156	12778.99
842.481	12781.02
842.805	12788.48
843.13	12720
843.454	12692.21
843.778	12628.71
844.103	12592.55
844.427	12590.52
844.751	12649.27
845.075	12518.88
845.399	12523.63
845.723	12499.9
846.047	12510.97
846.371	12365.66
846.695	12339.45
847.019	12244.08
847.343	12243.41
847.666	12171.77
847.99	12075.73
848.313	12052.45
848.637	12041.38
848.96	12030.53
849.284	12021.94
849.607	11889.29
849.931	11819.24
850.254	11719.8
850.577	11715.74
850.9	11642.97
851.223	11736.3
851.546	11585.8
851.869	11513.26
852.192	11567.72
852.515	11448.85
852.838	11399.36
853.161	11442.75
853.483	11365.92
853.806	11319.14
854.129	11263.77
854.451	11198.24
854.774	11183.55
855.096	11136.77
855.419	11041.86
855.741	11111.01
856.063	11108.97
856.385	11006.6
856.708	10903.1
857.03	10903.56
857.352	10967.73
857.674	10853.61
857.996	10871.69
858.318	10808.64
858.64	10751.69
858.961	10761.86
859.283	10706.72
859.605	10644.8
859.926	10688.65
860.248	10746.72
860.57	10613.39
860.891	10523.9
861.212	10574.3
861.534	10524.13
861.855	10544.02
862.176	10482.1
862.498	10431.93
862.819	10401.87
863.14	10393.29
863.461	10385.83
863.782	10414.3
864.103	10353.06
864.424	10266.96
864.745	10426.73
865.065	10322.78
865.386	10250.24
865.707	10299.73
866.027	10282.33
866.348	10205.27
866.668	10291.14
866.989	10162.56
867.309	10160.07
867.63	10192.61
867.95	10104.93
868.27	10097.7
868.59	10119.85
868.91	10106.29
869.23	10049.11
869.55	10035.56
869.87	10067.87
870.19	10003.24
870.51	10028.32
870.83	10049.79
871.15	9992.17
871.469	10039.62
871.789	9950.81
872.109	9957.37
872.428	9906.75
872.748	9887.76
873.067	9938.61
873.386	9885.28
873.706	9787.88
874.025	9855.67
874.344	9785.62
874.663	9844.83
874.982	9812.96
875.301	9765.28
875.62	9724.6
875.939	9720.54
876.258	9737.94
876.577	9663.36
876.896	9702.46
877.214	9668.79
877.533	9652.29
877.852	9647.32
878.17	9660.2
878.489	9592.18
878.807	9604.83
879.125	9500.88
879.444	9556.47
879.762	9511.5
880.08	9591.05
880.398	9548.56
880.716	9462.01
881.034	9444.16
881.352	9459.07
881.67	9426.76
881.988	9375.01
882.306	9421.79
882.624	9359.41
882.941	9296.82
883.259	9327.1
883.577	9342.01
883.894	9274.45
884.212	9197.16
884.529	9259.3
884.846	9234.67
885.164	9282.58
885.481	9235.58
885.798	9171.4
886.115	9110.61
886.432	9084.62
886.75	9069.03
887.067	9090.27
887.383	9060.89
887.7	9072.64
888.017	8984.74
888.334	9001.01
888.651	9009.14
888.967	8926.43
889.284	8867.45
889.6	8863.16
889.917	8825.19
890.233	8859.32
890.55	8757.62
890.866	8802.37
891.182	8737.74
891.498	8674.24
891.815	8636.27
892.131	8666.1
892.447	8640.56
892.763	8625.87
893.079	8630.17
893.395	8561.24
893.71	8565.99
894.026	8534.58
894.342	8538.42
894.657	8475.37
894.973	8450.29
895.289	8445.77
895.604	8405.99
895.92	8371.42
896.235	8304.75
896.55	8352.44
896.865	8334.36
897.181	8284.19
897.496	8251.87
897.811	8246.9
898.126	8200.12
898.441	8159.67
898.756	8073.35
899.071	8114.48
899.386	8147.02
899.7	8013.46
900.015	8050.3
900.33	7954.03
900.644	7994.25
900.959	7987.47
901.273	7923.29
901.588	7839.68
901.902	7894.37
902.216	7859.34
902.531	7815.27
902.845	7764.65
903.159	7727.82
903.473	7698.22
903.787	7685.33
904.101	7602.85
904.415	7668.84
904.729	7606.92
905.042	7523.08
905.356	7441.27
905.67	7488.73
905.984	7535.06
906.297	7459.8
906.611	7386.81
906.924	7394.72
907.237	7383.42
907.551	7377.32
907.864	7307.04
908.177	7276.76
908.491	7258.68
908.804	7244.67
909.117	7202.86
909.43	7143.43
909.743	7109.98
910.056	7134.84
910.368	7062.53
910.681	7056.88
910.994	7035.18
911.307	7052.58
911.619	6928.07
911.932	6921.74
912.244	6939.37
912.557	6851.23
912.869	6839.48
913.181	6778.24
913.494	6764.45
913.806	6798.35
914.118	6764.68
914.43	6694.17
914.742	6669.32
915.054	6599.26
915.366	6617.11
915.678	6590.22
915.99	6539.83
916.302	6525.59
916.613	6454.63
916.925	6499.6
917.236	6458.7
917.548	6417.35
917.859	6422.77
918.171	6381.87
918.482	6367.86
918.794	6312.72
919.105	6345.48
919.416	6268.42
919.727	6235.43
920.038	6219.84
920.349	6163.57
920.66	6159.05
920.971	6133.74
921.282	6148.43
921.593	6097.81
921.903	6057.35
922.214	6089.67
922.525	6040.63
922.835	6061.2
923.146	5973.97
923.456	5960.63
923.767	5962.44
924.077	5927.64
924.387	5878.6
924.697	5905.95
925.008	5840.86
925.318	5828.43
925.628	5808.55
925.938	5736.23
926.248	5761.32
926.558	5700.75
926.867	5691.71
927.177	5665.95
927.487	5665.95
927.796	5620.08
928.106	5554.54
928.416	5569.46
928.725	5564.26
929.034	5505.05
929.344	5537.37
929.653	5463.25
929.962	5438.16
930.271	5387.09
930.581	5446.07
930.89	5356.13
931.199	5272.06
931.508	5326.98
931.817	5318.84
932.125	5356.81
932.434	5242.24
932.743	5248.56
933.051	5173.08
933.36	5161.33
933.669	5153.2
933.977	5122.69
934.286	5157.49
934.594	5109.36
934.902	5088.11
935.21	5025.29
935.519	5030.26
935.827	5016.7
936.135	4982.58
936.443	4919.98
936.751	4930.6
937.059	4919.98
937.367	4890.83
937.674	4923.15
937.982	4883.37
938.29	4806.09
938.597	4848.57
938.905	4799.31
939.213	4768.12
939.52	4769.93
939.827	4768.58
940.135	4745.75
940.442	4705.07
940.749	4674.11
941.056	4732.42
941.363	4619.65
941.67	4660.1
941.977	4607.68
942.284	4585.3
942.591	4562.25
942.898	4594.12
943.205	4519.32
943.511	4469.83
943.818	4484.74
944.125	4467.11
944.431	4446.78
944.738	4456.94
945.044	4431.86
945.35	4376.5
945.657	4367.46
945.963	4326.33
946.269	4318.64
946.575	4336.27
946.881	4329.26
947.187	4280.9
947.493	4263.5
947.799	4282.71
948.105	4219.66
948.41	4184.86
948.716	4191.19
949.022	4162.26
949.327	4136.73
949.633	4156.39
949.938	4152.32
950.244	4138.54
950.549	4052.89
950.854	4060.35
951.16	4048.82
951.465	4043.62
951.77	4029.39
952.075	3998.88
952.38	3984.64
952.685	3968.6
952.99	3960.23
953.294	3910.97
953.599	3906.22
953.904	3957.3
954.209	3876.17
954.513	3902.38
954.818	3863.74
955.122	3816.96
955.426	3805.89
955.731	3813.35
956.035	3755.27
956.339	3750.52
956.643	3753.69
956.948	3711.2
957.252	3723.86
957.556	3690.64
957.86	3678.89
958.163	3687.47
958.467	3669.85
958.771	3636.4
959.075	3637.31
959.378	3623.75
959.682	3606.57
959.985	3603.63
960.289	3554.82
960.592	3549.62
960.896	3521.38
961.199	3555.95
961.502	3536.29
961.805	3485.67
962.108	3435.28
962.411	3488.61
962.714	3435.73
963.017	3414.49
963.32	3456.29
963.623	3369.29
963.926	3394.83
964.228	3359.35
964.531	3329.97
964.833	3310.08
965.136	3288.16
965.438	3351.89
965.741	3249.75
966.043	3258.78
966.345	3266.47
966.648	3230.99
966.95	3263.98
967.252	3223.98
967.554	3200.03
967.856	3215.62
968.158	3186.24
968.46	3150.31
968.761	3175.17
969.063	3154.15
969.365	3144.66
969.666	3137.66
969.968	3096.75
970.269	3074.83
970.571	3052.01
970.872	3097.21
971.174	3042.29
971.475	3023.99
971.776	3021.28
972.077	2989.64
972.378	2976.98
972.679	2987.15
972.98	3011.11
973.281	2947.15
973.582	2942.18
973.883	2933.37
974.183	2912.8
974.484	2912.13
974.785	2906.48
975.085	2866.03
975.386	2915.06
975.686	2892.69
975.986	2850.43
976.287	2839.81
976.587	2779.25
976.887	2798.91
977.187	2805.69
977.487	2767.05
977.787	2747.61
978.087	2744.45
978.387	2772.02
978.687	2750.55
978.987	2724.56
979.286	2708.06
979.586	2719.82
979.885	2682.98
980.185	2678.23
980.484	2694.28
980.784	2654.51
981.083	2681.4
981.382	2623.09
981.682	2624.9
981.981	2625.81
982.28	2597.33
982.579	2585.13
982.878	2600.95
983.177	2534.28
983.475	2558.24
983.774	2578.8
984.073	2527.5
984.372	2501.06
984.67	2513.72
984.969	2498.58
985.267	2525.02
985.566	2471.46
985.864	2482.53
986.162	2454.74
986.461	2453.83
986.759	2424.91
987.057	2412.93
987.355	2375.64
987.653	2432.59
987.951	2379.94
988.249	2384.91
988.547	2376.1
988.844	2321.41
989.142	2362.54
989.44	2352.14
989.737	2332.48
990.035	2321.18
990.332	2254.97
990.63	2294.29
990.927	2283.22
991.224	2310.56
991.521	2242.31
991.819	2223.78
992.116	2233.5
992.413	2228.08
992.71	2233.05
993.006	2227.85
993.303	2225.37
993.6	2184.69
993.897	2200.28
994.193	2171.81
994.49	2158.7
994.787	2156.67
995.083	2137.91
995.379	2138.14
995.676	2150.34
995.972	2105.37
996.268	2066.27
996.565	2089.78
996.861	2079.15
997.157	2081.19
997.453	2055.2
997.749	2057.46
998.044	2026.73
998.34	2042.32
998.636	2013.85
998.932	2010.68
999.227	2013.85
999.523	1995.31
999.818	1978.37
1000.114	1951.25
1000.409	1958.93
1000.704	1944.69
1001	1915.32
1001.295	1926.16
1001.59	1927.29
1001.885	1943.79
1002.18	1879.84
1002.475	1913.28
1002.77	1860.86
1003.065	1882.1
1003.359	1882.55
1003.654	1860.86
1003.949	1833.06
1004.243	1851.82
1004.538	1825.38
1004.832	1808.2
1005.127	1776.56
1005.421	1794.64
1005.715	1793.96
1006.009	1788.09
1006.304	1762.55
1006.598	1771.14
1006.892	1737.69
1007.186	1712.84
1007.48	1716.45
1007.773	1717.36
1008.067	1699.73
1008.361	1720.75
1008.655	1682.1
1008.948	1718.94
1009.242	1678.94
1009.535	1642.1
1009.829	1656.57
1010.122	1638.94
1010.415	1644.59
1010.708	1623.12
1011.001	1639.17
1011.295	1631.26
1011.588	1618.83
1011.881	1582.9
1012.173	1569.56
1012.466	1548.77
1012.759	1551.71
1013.052	1550.58
1013.344	1516.23
1013.637	1537.25
1013.93	1513.75
1014.222	1530.47
1014.514	1533.63
1014.807	1480.07
1015.099	1504.71
1015.391	1474.2
1015.683	1478.72
1015.976	1480.98
1016.268	1476.23
1016.56	1443.92
1016.851	1439.4
1017.143	1436.46
1017.435	1458.38
1017.727	1420.87
1018.018	1415.44
1018.31	1420.87
1018.602	1395.1
1018.893	1393.97
1019.185	1354.65
1019.476	1371.38
1019.767	1366.4
1020.058	1360.98
1020.35	1315.11
1020.641	1337.25
1020.932	1323.47
1021.223	1307.88
1021.514	1299.06
1021.804	1310.14
1022.095	1285.95
1022.386	1316.91
1022.677	1266.29
1022.967	1276.46
1023.258	1248.89
1023.548	1234.88
1023.839	1218.61
1024.129	1230.82
1024.419	1216.58
1024.709	1204.6
1025	1226.75
1025.29	1205.73
1025.58	1199.4
1025.87	1217.48
1026.16	1195.11
1026.449	1182.45
1026.739	1170.93
1027.029	1161.44
1027.319	1152.63
1027.608	1147.65
1027.898	1121.67
1028.187	1118.95
1028.477	1131.61
1028.766	1142.46
1029.055	1120.54
1029.344	1124.15
1029.634	1097.71
1029.923	1074.21
1030.212	1103.36
1030.501	1081.67
1030.79	1073.76
1031.078	1069.01
1031.367	1026.98
1031.656	1013.42
1031.945	1041.22
1032.233	1033.08
1032.522	1035.79
1032.81	1026.75
1033.099	1033.31
1033.387	1001.44
1033.675	1003.93
1033.963	1017.71
1034.251	987.21
1034.54	996.92
1034.828	979.3
1035.116	997.15
1035.403	952.63
1035.691	945.85
1035.979	943.37
1036.267	939.98
1036.554	934.33
1036.842	953.53
1037.129	931.16
1037.417	914.44
1037.704	902.24
1037.992	921.44
1038.279	914.21
1038.566	892.52
1038.853	892.52
1039.14	892.52
