Data from hue_24_FLMS001491_00093.txt Node
Date: Tue Feb 07 17:13:00 GMT 2017
User: dcchb
Spectrometer: FLMS00149
Trigger mode: 0
Integration Time (sec): 2.000000E-2
Scans to average: 10
Electric dark correction enabled: true
Nonlinearity correction enabled: false
Boxcar width: 0
XAxis mode: Wavelengths
Number of Pixels in Spectrum: 2048
>>>>>Begin Spectral Data<<<<<
341.393	-20.71
341.776	-20.71
342.16	-20.71
342.543	-57.09
342.927	-45.56
343.31	-68.39
343.693	-61.16
344.077	-57.54
344.46	-52.57
344.843	-45.56
345.226	-35.39
345.61	-42.63
345.993	-6.47
346.376	-10.54
346.759	14.1
347.142	17.03
347.525	50.25
347.908	50.48
348.291	74.43
348.674	79.18
349.057	94.77
349.44	116.69
349.823	143.58
350.206	163.7
350.588	182
350.971	222.23
351.354	238.5
351.737	263.35
352.119	268.55
352.502	274.65
352.884	285.27
353.267	292.73
353.65	309.68
354.032	303.35
354.414	315.33
354.797	326.86
355.179	318.49
355.562	362.56
355.944	334.31
356.326	345.16
356.709	337.25
357.091	348.1
357.473	326.4
357.855	356.01
358.238	360.98
358.62	356.01
359.002	347.42
359.384	350.36
359.766	370.02
360.148	347.65
360.53	332.96
360.912	358.04
361.294	352.84
361.676	338.38
362.057	345.16
362.439	316.01
362.821	344.93
363.203	357.14
363.584	339.28
363.966	329.79
364.348	333.86
364.729	329.57
365.111	329.12
365.493	337.48
365.874	325.73
366.256	332.96
366.637	318.95
367.019	334.77
367.4	316.91
367.781	314.88
368.163	322.34
368.544	323.92
368.925	335.67
369.306	346.06
369.688	335.22
370.069	334.99
370.45	325.73
370.831	325.73
371.212	329.79
371.593	322.11
371.974	328.44
372.355	333.86
372.736	327.99
373.117	316.23
373.498	338.38
373.879	318.72
374.26	345.16
374.641	335.22
375.021	340.41
375.402	337.25
375.783	355.56
376.163	359.85
376.544	342.9
376.925	338.38
377.305	348.55
377.686	329.34
378.066	339.96
378.447	354.2
378.827	367.08
379.208	346.74
379.588	344.26
379.968	360.75
380.349	339.51
380.729	352.62
381.109	365.72
381.489	384.71
381.87	351.71
382.25	351.04
382.63	352.62
383.01	367.53
383.39	350.81
383.77	351.94
384.15	363.92
384.53	373.86
384.91	359.62
385.29	372.5
385.67	386.06
386.049	365.27
386.429	367.31
386.809	378.15
387.189	368.66
387.568	368.89
387.948	382.9
388.328	387.42
388.707	373.86
389.087	391.71
389.466	400.98
389.846	391.94
390.225	396.46
390.605	401.66
390.984	405.5
391.363	397.81
391.743	404.82
392.122	408.89
392.501	403.24
392.881	399.17
393.26	419.06
393.639	418.6
394.018	395.1
394.397	420.19
394.776	424.71
395.155	426.97
395.534	422.9
395.913	393.07
396.292	425.16
396.671	403.01
397.05	420.41
397.429	412.05
397.808	433.97
398.186	411.37
398.565	431.49
398.944	435.55
399.323	433.52
399.701	429
400.08	442.56
400.458	440.98
400.837	448.89
401.215	459.06
401.594	432.84
401.972	444.82
402.351	452.5
402.729	469
403.107	463.58
403.486	457.25
403.864	449.34
404.242	459.73
404.62	486.85
404.999	487.3
405.377	478.04
405.755	468.77
406.133	494.76
406.511	476
406.889	471.48
407.267	491.6
407.645	488.66
408.023	498.83
408.401	492.5
408.779	499.73
409.156	498.6
409.534	516
409.912	536.12
410.29	505.38
410.667	526.85
411.045	518.94
411.422	537.7
411.8	532.73
412.178	534.53
412.555	540.86
412.933	552.61
413.31	541.09
413.687	548.09
414.065	558.26
414.442	561.2
414.819	564.82
415.197	570.47
415.574	557.81
415.951	566.85
416.328	575.66
416.705	581.76
417.082	585.15
417.46	582.44
417.837	599.84
418.214	578.83
418.591	617.47
418.967	591.71
419.344	613.4
419.721	600.07
420.098	628.32
420.475	612.72
420.852	616.57
421.228	636
421.605	639.84
421.982	626.51
422.358	625.83
422.735	645.27
423.111	645.94
423.488	666.73
423.864	677.36
424.241	675.1
424.617	675.1
424.994	703.34
425.37	671.48
425.746	684.36
426.123	697.02
426.499	685.72
426.875	687.75
427.251	685.72
427.627	710.35
428.003	714.87
428.379	737.24
428.756	754.64
429.132	727.98
429.507	715.55
429.883	747.64
430.259	766.62
430.635	746.96
431.011	780.63
431.387	771.14
431.763	786.73
432.138	788.76
432.514	785.83
432.89	787.18
433.265	818.82
433.641	835.32
434.016	830.57
434.392	816.33
434.767	838.71
435.143	846.39
435.518	873.73
435.894	852.72
436.269	884.13
436.644	878.71
437.02	885.03
437.395	869.67
437.77	909.44
438.145	909.21
438.52	932.72
438.895	918.7
439.271	917.57
439.646	951.47
440.021	951.02
440.395	950.57
440.77	947.18
441.145	959.61
441.52	964.35
441.895	968.87
442.27	991.25
442.645	983.79
443.019	985.6
443.394	993.05
443.769	986.73
444.143	993.96
444.518	1029.89
444.892	1021.07
445.267	1013.17
445.641	1022.43
446.016	1015.65
446.39	1055.2
446.764	1053.84
447.139	1039.83
447.513	1055.2
447.887	1066.5
448.262	1070.11
448.636	1083.9
449.01	1077.8
449.384	1112.82
449.758	1108.98
450.132	1099.26
450.506	1131.81
450.88	1120.96
451.254	1103.78
451.628	1119.15
452.002	1159.6
452.376	1165.48
452.75	1170
453.123	1181.97
453.497	1179.94
453.871	1206.61
454.244	1224.01
454.618	1242.99
454.992	1239.6
455.365	1227.85
455.739	1274.63
456.112	1289.54
456.486	1304.91
456.859	1308.75
457.232	1329.32
457.606	1315.08
457.979	1370.22
458.352	1378.35
458.725	1368.18
459.099	1384.23
459.472	1399.82
459.845	1404.79
460.218	1428.07
460.591	1472.36
460.964	1442.53
461.337	1495.86
461.71	1489.76
462.083	1510.1
462.456	1534.96
462.829	1547.84
463.201	1560.72
463.574	1567.73
463.947	1570.66
464.32	1614.73
464.692	1595.75
465.065	1638.69
465.438	1639.82
465.81	1633.26
466.183	1716.2
466.555	1745.35
466.928	1732.24
467.3	1749.19
467.672	1795.97
468.045	1827.38
468.417	1841.84
468.789	1836.65
469.161	1885.46
469.534	1888.85
469.906	1929.75
470.278	1914.84
470.65	2024.21
471.022	1990.31
471.394	2048.39
471.766	2043.19
472.138	2068.96
472.51	2145.79
472.882	2163.19
473.253	2199.57
473.625	2239.8
473.997	2257.65
474.369	2302.62
474.74	2355.5
475.112	2353.47
475.484	2398.21
475.855	2440.25
476.227	2478.44
476.598	2564.09
476.97	2564.54
477.341	2603.18
477.713	2654.93
478.084	2702.84
478.455	2772.44
478.827	2763.63
479.198	2869.61
479.569	2863.96
479.94	2983.06
480.311	2981.7
480.682	3071.87
481.053	3150.51
481.424	3205.88
481.795	3216.27
482.166	3270.06
482.537	3343.27
482.908	3421.92
483.279	3473.44
483.65	3543.72
484.021	3596.15
484.391	3670.72
484.762	3672.3
485.133	3746.43
485.503	3827.78
485.874	3888.34
486.244	3917.72
486.615	4031.39
486.985	4112.29
487.356	4152.74
487.726	4199.07
488.097	4294.89
488.467	4327.2
488.837	4407.65
489.207	4464.37
489.578	4526.07
489.948	4620.75
490.318	4667.31
490.688	4705.05
491.058	4812.61
491.428	4820.3
491.798	4937.13
492.168	5006.73
492.538	5099.39
492.908	5106.62
493.278	5154.98
493.648	5219.16
494.017	5228.87
494.387	5340.51
494.757	5374.18
495.126	5455.99
495.496	5481.52
495.866	5500.96
496.235	5600.84
496.605	5641.07
496.974	5708.18
497.344	5723.78
497.713	5800.61
498.082	5814.85
498.452	5863.43
498.821	5875.64
499.19	5943.66
499.559	6004.67
499.928	6028.63
500.298	6072.47
500.667	6140.71
501.036	6145.01
501.405	6168.96
501.774	6273.82
502.143	6341.84
502.512	6293.93
502.88	6387.71
503.249	6416.87
503.618	6450.99
503.987	6478.33
504.356	6467.03
504.724	6576.18
505.093	6578.22
505.462	6611.89
505.83	6681.04
506.199	6768.72
506.567	6756.07
506.936	6784.99
507.304	6852.33
507.672	6893.24
508.041	6939.34
508.409	6984.76
508.777	6999.67
509.145	7046.91
509.514	7080.8
509.882	7098.43
510.25	7110.18
510.618	7181.14
510.986	7222.95
511.354	7260.91
511.722	7325.32
512.09	7405.31
512.458	7364.41
512.826	7420.45
513.193	7452.09
513.561	7483.05
513.929	7535.25
514.297	7638.53
514.664	7610.73
515.032	7663.16
515.4	7703.84
515.767	7723.95
516.135	7772.31
516.502	7775.25
516.869	7839.2
517.237	7848.92
517.604	7892.98
517.972	7901.12
518.339	7976.82
518.706	7996.26
519.073	8044.84
519.44	8108.57
519.808	8199.19
520.175	8140.66
520.542	8208.68
520.909	8262.24
521.276	8210.26
521.643	8397.83
522.009	8399.41
522.376	8478.73
522.743	8494.1
523.11	8580.2
523.477	8630.59
523.843	8674.43
524.21	8800.53
524.577	8718.5
524.943	8836.91
525.31	8894.54
525.676	9002.11
526.043	9023.12
526.409	9042.11
526.776	9130.01
527.142	9105.83
527.508	9191.03
527.874	9308.77
528.241	9309.67
528.607	9371.36
528.973	9375.43
529.339	9438.03
529.705	9496.56
530.071	9637.57
530.437	9585.37
530.803	9672.15
531.169	9687.97
531.535	9679.38
531.901	9823.56
532.267	9766.38
532.632	9829.66
532.998	9915.53
533.364	9972.7
533.73	10019.48
534.095	10101.06
534.461	10134.73
534.826	10204.11
535.192	10201.85
535.557	10211.57
535.923	10291.57
536.288	10324.79
536.653	10316.65
537.019	10400.94
537.384	10475.29
537.749	10398
538.114	10464.44
538.479	10536.76
538.845	10581.73
539.21	10560.94
539.575	10640.71
539.94	10745.56
540.305	10720.03
540.67	10762.97
541.034	10764.32
541.399	10898.56
541.764	10974.26
542.129	10908.05
542.494	10968.16
542.858	11067.14
543.223	11046.57
543.587	11217.87
543.952	11160.24
544.316	11178.1
544.681	11234.82
545.045	11283.4
545.41	11352.55
545.774	11386.9
546.138	11387.13
546.503	11376.51
546.867	11410.63
547.231	11567.01
547.595	11590.29
547.959	11651.53
548.324	11716.39
548.688	11689.95
549.052	11754.58
549.416	11820.34
549.779	11879.77
550.143	11828.93
550.507	11887.23
550.871	11971.97
551.235	11922.71
551.599	12065.08
551.962	12035.47
552.326	12167.45
552.689	12141.91
553.053	12175.36
553.417	12176.94
553.78	12400.89
554.143	12305.52
554.507	12384.84
554.87	12431.17
555.234	12547.55
555.597	12494.22
555.96	12457.61
556.323	12571.73
556.686	12560.88
557.05	12776.7
557.413	12710.26
557.776	12773.08
558.139	12821.67
558.502	12802.46
558.865	12818.73
559.228	13048.1
559.59	13018.73
559.953	13041.78
560.316	13167.87
560.679	13196.57
561.041	13193.64
561.404	13258.49
561.767	13386.4
562.129	13334.42
562.492	13399.96
562.854	13459.62
563.217	13458.49
563.579	13505.27
563.941	13670.46
564.304	13656.9
564.666	13698.48
565.028	13743.45
565.39	13805.6
565.753	13884.69
566.115	13868.42
566.477	14005.59
566.839	14099.15
567.201	14153.38
567.563	14119.26
567.925	14237.22
568.287	14270.9
568.648	14212.37
569.01	14297.56
569.372	14507.5
569.734	14419.59
570.095	14499.36
570.457	14679.47
570.819	14636.99
571.18	14693.71
571.542	14732.8
571.903	14880.37
572.265	14868.39
572.626	14877.21
572.987	14985.68
573.349	15016.19
573.71	15107.48
574.071	15164.66
574.432	15198.56
574.794	15401.04
575.155	15383.86
575.516	15474.25
575.877	15533.91
576.238	15645.32
576.599	15758.31
576.96	15750.86
577.32	15865.2
577.681	15961.92
578.042	16099.32
578.403	16165.31
578.763	16236.04
579.124	16507.22
579.485	16595.81
579.845	16683.26
580.206	16725.29
580.566	16978.4
580.927	17102.01
581.287	17251.16
581.648	17344.94
582.008	17629.9
582.368	17614.31
582.728	17902.21
583.089	18043.9
583.449	18113.96
583.809	18395.53
584.169	18528.19
584.529	18692.25
584.889	19058.11
585.249	19127.49
585.609	19261.73
585.969	19571.1
586.329	19754.14
586.688	20071.65
587.048	20159.33
587.408	20469.83
587.768	20724.74
588.127	20970.61
588.487	21289.69
588.846	21659.85
589.206	21738.5
589.565	22097.13
589.925	22506.16
590.284	22652.82
590.643	23045.35
591.003	23358.57
591.362	23712.23
591.721	23935.5
592.08	24283.51
592.44	24645.54
592.799	24909.26
593.158	25163.26
593.517	25591.73
593.876	25944.71
594.235	26325.95
594.593	26741.08
594.952	27068.53
595.311	27188.75
595.67	27637.32
596.029	28195.5
596.387	28460.35
596.746	28803.85
597.104	29188.47
597.463	29331.52
597.822	29921.33
598.18	30111.38
598.538	30303.47
598.897	30970.57
599.255	31187.51
599.613	31878.34
599.972	31957.89
600.33	32462.96
600.688	32532.34
601.046	33003.74
601.404	33537.51
601.762	33635.36
602.12	34255.23
602.478	34564.15
602.836	34863.12
603.194	34924.82
603.552	35333.84
603.91	35580.39
604.268	36032.81
604.625	36256.31
604.983	36639.57
605.341	36764.54
605.698	37353.9
606.056	37577.4
606.413	37930.16
606.771	38194.56
607.128	38559.97
607.485	38836.8
607.843	38990.92
608.2	39446.73
608.557	39750
608.914	39887.4
609.272	40373.03
609.629	40601.73
609.986	41014.6
610.343	40997.65
610.7	41517.86
611.057	41605.09
611.414	41841.24
611.771	42249.37
612.127	42493.66
612.484	42572.52
612.841	42970.93
613.198	42970.25
613.554	43141.32
613.911	43693.85
614.267	43730.01
614.624	43894.52
614.98	44127.74
615.337	44412.48
615.693	44561.62
616.05	44616.76
616.406	45161.61
616.762	45290.42
617.118	45198.67
617.475	45526.8
617.831	45679.79
618.187	45765.66
618.543	45979.44
618.899	46334.91
619.255	46385.98
619.611	46581.23
619.967	46772.64
620.323	46897.38
620.678	46911.62
621.034	46988.45
621.39	46969.92
621.746	47045.85
622.101	47540.53
622.457	47514.09
622.812	47649
623.168	47784.14
623.523	47807.19
623.879	47986.17
624.234	47966.96
624.589	48082.66
624.945	48205.6
625.3	48368.98
625.655	48364.69
626.01	48390.9
626.365	48504.35
626.72	48562.65
627.075	48670.67
627.43	48771.01
627.785	48699.6
628.14	48830.21
628.495	48824.56
628.85	48918.35
629.205	48838.8
629.559	49020.72
629.914	48879.93
630.269	49093.94
630.623	48995.18
630.978	49026.14
631.332	49155.63
631.687	49344.78
632.041	49174.16
632.396	49179.13
632.75	49187.27
633.104	49304.78
633.459	49072.69
633.813	49256.19
634.167	49287.6
634.521	49294.16
634.875	49344.78
635.229	49326.7
635.583	49211.45
635.937	49338
636.291	49184.55
636.645	49225.01
636.999	49107.04
637.352	49331.67
637.706	49219.58
638.06	49272.24
638.413	49259.13
638.767	49063.88
639.121	49300.26
639.474	49014.62
639.828	49059.36
640.181	49177.1
640.534	49163.31
640.888	49115.18
641.241	49029.08
641.594	49068.85
641.947	49297.77
642.301	49107.95
642.654	49113.82
643.007	49152.01
643.36	49140.94
643.713	49010.32
644.066	49302.52
644.419	49042.41
644.771	48836.77
645.124	48390.45
645.477	48438.59
645.83	48190.23
646.182	48083.11
646.535	47993.17
646.888	48100.97
647.24	47743.91
647.593	48148.42
647.945	48089.44
648.298	47923.8
648.65	47845.83
649.002	47606.29
649.355	47917.92
649.707	47878.15
650.059	48158.14
650.411	48456.44
650.763	48534.63
651.115	48972.81
651.467	48779.82
651.819	48791.57
652.171	48669.09
652.523	48668.18
652.875	48745.02
653.227	48432.26
653.578	48818.91
653.93	48750.44
654.282	48508.41
654.633	48413.95
654.985	48578.92
655.337	48612.37
655.688	48697.34
656.039	48774.85
656.391	48417.12
656.742	48514.52
657.094	48509.54
657.445	48532.37
657.796	48490.56
658.147	48365.59
658.498	48400.39
658.849	48401.75
659.2	48530.11
659.551	48366.95
659.902	48443.56
660.253	48316.1
660.604	48526.72
660.955	48271.36
661.306	48444.23
661.656	48443.1
662.007	48419.38
662.358	48308.42
662.708	48308.19
663.059	48244.69
663.409	48072.49
663.76	48424.8
664.11	48418.25
664.461	48422.54
664.811	48290.79
665.161	48406.5
665.511	48220.74
665.862	48362.43
666.212	48367.17
666.562	48394.07
666.912	48186.39
667.262	48218.48
667.612	48290.11
667.962	48243.11
668.312	48307.74
668.662	48439.49
669.011	48222.77
669.361	48188.65
669.711	48130.57
670.06	48212.83
670.41	48081.31
670.76	47976.9
671.109	48292.15
671.459	48119.95
671.808	48045.38
672.157	48092.61
672.507	47890.58
672.856	47962.67
673.205	47985.94
673.554	48253.96
673.904	47955.89
674.253	48084.02
674.602	48077.24
674.951	47575.33
675.3	47272.51
675.649	47912.72
675.998	47858.49
676.346	47890.12
676.695	47995.66
677.044	47734.65
677.393	47778.04
677.741	47872.27
678.09	47725.61
678.438	47706.4
678.787	47678.15
679.135	47715.67
679.484	47474.77
679.832	47639.74
680.181	47377.6
680.529	47568.55
680.877	47380.08
681.225	47324.94
681.573	47552.28
681.922	47380.53
682.27	47185.74
682.618	47252.63
682.966	47150.26
683.314	47298.73
683.661	47064.84
684.009	46937.38
684.357	46921.11
684.705	46737.84
685.053	46746.88
685.4	46733.32
685.748	46555.24
686.095	46527
686.443	46421.69
686.79	46381.24
687.138	46490.39
687.485	46475.25
687.832	46329.71
688.18	46354.35
688.527	46102.15
688.874	46100.79
689.221	46072.55
689.568	45942.38
689.915	45905.77
690.262	45706.91
690.609	45687.7
690.956	45699.67
691.303	45551.66
691.65	45374.26
691.997	45333.36
692.344	45121.38
692.69	45103.76
693.037	45019.24
693.383	44741.96
693.73	44909.86
694.077	44656.76
694.423	44718
694.769	44562.53
695.116	44341.29
695.462	44455.41
695.808	44280.95
696.155	44311.46
696.501	43919.16
696.847	43991.92
697.193	43761.42
697.539	43896.56
697.885	43639.16
698.231	43612.27
698.577	43600.75
698.923	43463.57
699.269	43341.54
699.614	43225.39
699.96	43041.21
700.306	43174.77
700.651	42957.6
700.997	42759.86
701.342	42833.76
701.688	42623.6
702.033	42602.35
702.379	42569.13
702.724	42388.57
703.069	42389.93
703.415	42052.76
703.76	42025.65
704.105	42119.88
704.45	41871.75
704.795	41772.09
705.14	41640.57
705.485	41689.61
705.83	41474.7
706.175	41544.08
706.52	41392.22
706.865	41314.25
707.209	41291.43
707.554	41032.9
707.899	41098.67
708.243	40883.3
708.588	40965.56
708.932	40494.61
709.277	40482.18
709.621	40609.86
709.966	40348.63
710.31	40431.11
710.654	40164.9
710.998	40254.17
711.342	40071.35
711.687	39993.84
712.031	39820.73
712.375	39848.98
712.719	39706.39
713.063	39655.54
713.407	39851.69
713.75	39576.67
714.094	39602.21
714.438	39617.12
714.782	39373.06
715.125	39119.51
715.469	39310.24
715.812	39277.7
716.156	38994.77
716.499	38995.44
716.843	39112.5
717.186	38759.74
717.53	38964.94
717.873	38911.6
718.216	38761.78
718.559	38437.94
718.902	38337.16
719.246	38486.53
719.589	38300.55
719.932	38139.65
720.275	38310.49
720.617	38296.7
720.96	38109.82
721.303	38180.32
721.646	38123.83
721.989	37912.31
722.331	38020.1
722.674	37791.63
723.016	37908.24
723.359	37760.45
723.701	37831.86
724.044	37551.41
724.386	37350.74
724.729	37501.92
725.071	37527.91
725.413	37534.69
725.755	37362.49
726.097	37101.93
726.439	37137.19
726.782	36961.82
727.124	37246.56
727.465	36988.94
727.807	36861.71
728.149	36804.31
728.491	36843.41
728.833	36944.2
729.175	36695.84
729.516	36757.54
729.858	36593.25
730.199	36723.19
730.541	36461.5
730.882	36534.04
731.224	36542.4
731.565	36352.8
731.906	36418.34
732.248	36265.8
732.589	36158.23
732.93	36066.48
733.271	36051.79
733.612	35934.28
733.953	36193.26
734.294	35819.03
734.635	35907.84
734.976	35970.21
735.317	35701.52
735.658	35826.71
735.999	35673.72
736.339	35632.37
736.68	35863.1
737.021	35594.18
737.361	35544.69
737.702	35431.24
738.042	35437.35
738.383	35410.68
738.723	35622.2
739.063	35453.84
739.404	35346.95
739.744	35238.03
740.084	35183.11
740.424	35216.11
740.764	34992.39
741.104	35172.27
741.444	35013.18
741.784	34963.23
742.124	35024.47
742.464	34873.07
742.804	34824.03
743.143	34746.97
743.483	34703.35
743.823	34545.62
744.162	34621.32
744.502	34632.39
744.841	34401.44
745.181	34579.74
745.52	34329.13
745.86	34453.64
746.199	34242.12
746.538	34261.1
746.877	34406.86
747.216	34310.14
747.556	34248.22
747.895	34198.73
748.234	34065.4
748.573	34020.89
748.911	33959.42
749.25	33981.34
749.589	33802.13
749.928	33838.29
750.267	33812.08
750.605	33659.31
750.944	33759.88
751.283	33586.09
751.621	33681.46
751.96	33421.13
752.298	33517.85
752.636	33553.1
752.975	33289.15
753.313	33245.99
753.651	33299.1
753.989	33039.89
754.327	32992.89
754.666	33007.8
755.004	32954.47
755.342	32908.37
755.679	32772.33
756.017	32668.15
756.355	32742.5
756.693	32584.54
757.031	32590.41
757.368	32346.8
757.706	32374.15
758.044	32412.34
758.381	32318.56
758.719	32119.92
759.056	32244.66
759.394	32114.72
759.731	31881.73
760.068	31909.75
760.405	31740.27
760.743	31739.59
761.08	31777.33
761.417	31485.58
761.754	31529.65
762.091	31419.6
762.428	31180.28
762.765	31211.02
763.102	31303.67
763.438	31079.27
763.775	30974.64
764.112	30995.65
764.449	30908.65
764.785	30848.77
765.122	30569.9
765.458	30477.02
765.795	30342.11
766.131	30351.15
766.467	30349.57
766.804	30242
767.14	30053.98
767.476	30173.3
767.812	29809.7
768.148	29974.21
768.485	29689.25
768.821	29510.95
769.157	29509.14
769.492	29441.8
769.828	29311.18
770.164	29039.32
770.5	29172.88
770.836	29136.27
771.171	28877.52
771.507	28909.38
771.842	28695.15
772.178	28650.4
772.513	28501.03
772.849	28412.9
773.184	28342.39
773.519	28349.62
773.855	28180.59
774.19	28057.88
774.525	27903.76
774.86	27984.89
775.195	27859.01
775.53	27774.95
775.865	27478.23
776.2	27391.91
776.535	27155.08
776.87	27318.46
777.205	27208.41
777.539	27064.01
777.874	27072.82
778.209	26705.37
778.543	26940.85
778.878	26611.36
779.212	26570.69
779.547	26501.31
779.881	26456.56
780.215	26302.9
780.55	26396.9
780.884	26198.27
781.218	26086.63
781.552	26142.9
781.886	25925.05
782.22	25801.44
782.554	25739.52
782.888	25620.65
783.222	25438.06
783.556	25342.92
783.889	25356.03
784.223	25116.49
784.557	25096.37
784.89	25100.22
785.224	24905.42
785.557	24897.06
785.891	24822.71
786.224	24860.45
786.558	24657.52
786.891	24418.2
787.224	24453.45
787.557	24297.52
787.891	24387.69
788.224	24150.64
788.557	24062.05
788.89	24099.79
789.223	24029.06
789.556	23902.28
789.888	23954.48
790.221	23705.45
790.554	23550.2
790.887	23584.32
791.219	23514.27
791.552	23326.7
791.884	23314.05
792.217	23185.46
792.549	23262.3
792.882	23081.06
793.214	22893.95
793.546	22872.03
793.879	22791.8
794.211	22704.12
794.543	22664.12
794.875	22563.79
795.207	22680.39
795.539	22459.61
795.871	22390
796.203	22281.08
796.535	22208.31
796.867	22147.53
797.198	22129.45
797.53	22027.08
797.862	21975.55
798.193	21910.47
798.525	21800.19
798.856	21794.99
799.188	21557.03
799.519	21496.69
799.85	21404.95
800.182	21463.7
800.513	21447.66
800.844	21199.75
801.175	21330.15
801.506	21277.72
801.837	21086.54
802.168	21156.36
802.499	21027.1
802.83	20844.06
803.161	20839.54
803.491	20845.41
803.822	20789.14
804.153	20785.75
804.483	20534.91
804.814	20593.44
805.145	20388.02
805.475	20374.92
805.805	20351.64
806.136	20353.22
806.466	20318.65
806.796	20241.13
807.126	20028.48
807.457	19965.44
807.787	20072.55
808.117	19994.14
808.447	19894.02
808.777	19972.44
809.107	19838.43
809.436	19673.47
809.766	19819.45
810.096	19677.99
810.426	19564.77
810.755	19626.69
811.085	19456.97
811.414	19506.92
811.744	19330.65
812.073	19335.17
812.403	19305.79
812.732	19152.12
813.061	19248.84
813.39	19057.66
813.719	19086.36
814.049	19156.87
814.378	18990.09
814.707	18915.07
815.036	18954.16
815.365	18739.93
815.693	18622.42
816.022	18702.19
816.351	18726.6
816.68	18602.99
817.008	18581.52
817.337	18434.4
817.665	18405.7
817.994	18457.68
818.322	18429.43
818.651	18287.97
818.979	18283.9
819.307	18283.67
819.636	18278.02
819.964	18213.39
820.292	18234.63
820.62	18195.76
820.948	18086.61
821.276	18189.66
821.604	18084.81
821.932	18142.43
822.259	18106.5
822.587	18031.93
822.915	17918.48
823.243	18121.42
823.57	18020.18
823.898	18029.44
824.225	17907.41
824.553	17958.26
824.88	17899.05
825.207	18054.75
825.535	17986.96
825.862	17947.86
826.189	17967.3
826.516	17958.26
826.843	17982.89
827.17	18054.75
827.497	18032.38
827.824	18005.49
828.151	18057.69
828.478	17939.73
828.805	17988.09
829.131	17928.43
829.458	17994.64
829.785	17944.47
830.111	17886.39
830.438	17927.3
830.764	17953.51
831.09	17960.52
831.417	17899.95
831.743	17905.15
832.069	17879.16
832.395	17887.52
832.722	17803.23
833.048	17780.86
833.374	17807.3
833.7	17680.75
834.026	17822.22
834.351	17805.49
834.677	17744.25
835.003	17749.22
835.329	17838.94
835.654	17695.44
835.98	17697.02
836.306	17680.98
836.631	17621.09
836.956	17711.94
837.282	17686.4
837.607	17587.42
837.932	17541.32
838.258	17506.52
838.583	17459.29
838.908	17365.5
839.233	17384.03
839.558	17406.86
839.883	17358.95
840.208	17212.97
840.533	17255.45
840.858	17148.11
841.182	17284.83
841.507	17150.37
841.832	17092.74
842.156	17005.06
842.481	16948.34
842.805	17013.87
843.13	16996.93
843.454	16963.93
843.778	16887.55
844.103	16813.65
844.427	16774.33
844.751	16861.34
845.075	16775.91
845.399	16654.11
845.723	16636.26
846.047	16608.46
846.371	16508.13
846.695	16502.7
847.019	16351.97
847.343	16277.4
847.666	16110.85
847.99	16101.13
848.313	16095.93
848.637	16026.56
848.96	15999.44
849.284	15939.55
849.607	15758.31
849.931	15778.43
850.254	15635.83
850.577	15628.83
850.9	15477.42
851.223	15511.77
851.546	15395.61
851.869	15342.05
852.192	15354.48
852.515	15331.21
852.838	15130.08
853.161	15203.53
853.483	15076.3
853.806	14987.04
854.129	14989.3
854.451	14944.55
854.774	14868.39
855.096	14873.37
855.419	14751.56
855.741	14767.38
856.063	14686.25
856.385	14748.17
856.708	14485.81
857.03	14555.18
857.352	14580.04
857.674	14524.67
857.996	14446.71
858.318	14370.55
858.64	14356.32
858.961	14258.01
859.283	14270.44
859.605	14188.41
859.926	14215.3
860.248	14192.25
860.57	14127.17
860.891	14124.23
861.212	14033.16
861.534	13905.48
861.855	13964.69
862.176	13994.52
862.498	13962.66
862.819	13915.43
863.14	13827.07
863.461	13815.54
863.782	13749.78
864.103	13804.47
864.424	13858.7
864.745	13778.25
865.065	13727.18
865.386	13699.39
865.707	13627.52
866.027	13658.71
866.348	13641.99
866.668	13663.23
866.989	13497.36
867.309	13468.21
867.63	13512.27
867.95	13478.83
868.27	13466.85
868.59	13504.14
868.91	13431.14
869.23	13444.48
869.55	13304.37
869.87	13475.89
870.19	13363.58
870.51	13345.95
870.83	13334.2
871.15	13252.17
871.469	13219.4
871.789	13318.6
872.109	13248.1
872.428	13188.21
872.748	13146.63
873.067	13198.16
873.386	13154.09
873.706	13146.41
874.025	13018.5
874.344	12970.37
874.663	13035.22
874.982	12952.51
875.301	12927.65
875.62	12933.08
875.939	12931.04
876.258	12939.63
876.577	12802.91
876.896	12910.48
877.214	12825.06
877.533	12767.66
877.852	12785.51
878.17	12751.16
878.489	12764.04
878.807	12677.94
879.125	12703.03
879.444	12648.34
879.762	12613.31
880.08	12590.71
880.398	12585.74
880.716	12610.15
881.034	12607.44
881.352	12557.72
881.67	12511.85
881.988	12504.61
882.306	12459.19
882.624	12410.61
882.941	12420.78
883.259	12400.44
883.577	12230.72
883.894	12241.8
884.212	12278.86
884.529	12232.08
884.846	12240.89
885.164	12159.09
885.481	12120.9
885.798	12143.95
886.115	12127.45
886.432	12053.1
886.75	12091.97
887.067	12082.25
887.383	12024.4
887.7	12022.82
888.017	11933.33
888.334	11984.85
888.651	11871.19
888.967	11855.82
889.284	11790.51
889.6	11810.4
889.917	11739.21
890.233	11659.89
890.55	11677.52
890.866	11636.39
891.182	11624.64
891.498	11549.61
891.815	11569.95
892.131	11520.23
892.447	11481.82
892.763	11425.1
893.079	11480.91
893.395	11397.3
893.71	11364.76
894.026	11303.29
894.342	11279.56
894.657	11216.51
894.973	11100.13
895.289	11147.14
895.604	11219
895.92	11060.81
896.235	11031.21
896.55	10966.8
896.865	10955.73
897.181	10900.59
897.496	10961.6
897.811	10972.23
898.126	10887.93
898.441	10737.88
898.756	10838.67
899.071	10740.14
899.386	10749.18
899.7	10557.77
900.015	10578.34
900.33	10503.31
900.644	10476.42
900.959	10545.34
901.273	10432.58
901.588	10416.99
901.902	10338.57
902.216	10353.71
902.531	10285.69
902.845	10257.44
903.159	10216.99
903.473	10166.15
903.787	10071.91
904.101	10074.4
904.415	10070.55
904.729	10098.58
905.042	10001.63
905.356	10019.71
905.67	9964.79
905.984	9929.77
906.297	9919.37
906.611	9847.74
906.924	9826.27
907.237	9851.13
907.551	9776.55
907.864	9758.02
908.177	9634.41
908.491	9577.46
908.804	9593.73
909.117	9573.39
909.43	9415.66
909.743	9482.1
910.056	9365.94
910.368	9440.51
910.681	9313.96
910.994	9318.03
911.307	9292.27
911.619	9188.54
911.932	9235.55
912.244	9144.93
912.557	9122.56
912.869	9079.17
913.181	9017.7
913.494	9024.48
913.806	8975.22
914.118	8934.99
914.43	8877.82
914.742	8849.12
915.054	8814.99
915.366	8750.82
915.678	8739.97
915.99	8727.99
916.302	8636.69
916.613	8575.23
916.925	8566.19
917.236	8532.74
917.548	8500.2
917.859	8518.28
918.171	8458.62
918.482	8424.5
918.794	8333.65
919.105	8373.65
919.416	8316.25
919.727	8297.27
920.038	8264.5
920.349	8192.86
920.66	8133.2
920.971	8160.77
921.282	8111.28
921.593	8056.37
921.903	8024.96
922.214	8045.07
922.525	7958.07
922.835	7942.25
923.146	7835.13
923.456	7866.77
923.767	7768.47
924.077	7840.33
924.387	7743.16
924.697	7698.87
925.008	7616.61
925.318	7636.72
925.628	7635.82
925.938	7565.99
926.248	7464.97
926.558	7525.08
926.867	7482.6
927.177	7461.13
927.487	7431.3
927.796	7377.29
928.106	7296.39
928.416	7294.81
928.725	7259.78
929.034	7270.63
929.344	7260.68
929.653	7184.08
929.962	7140.91
930.271	7077.41
930.581	7109.28
930.89	7051.42
931.199	7032.89
931.508	6958.55
931.817	6991.99
932.125	7009.39
932.434	6918.55
932.743	6852.33
933.051	6887.59
933.36	6854.14
933.669	6792.9
933.977	6763.52
934.286	6731.89
934.594	6684.2
934.902	6622.06
935.21	6642.17
935.519	6618.22
935.827	6605.56
936.135	6533.47
936.443	6515.85
936.751	6460.93
937.059	6457.09
937.367	6401.5
937.674	6473.59
937.982	6425.9
938.29	6348.62
938.597	6379.35
938.905	6297.32
939.213	6311.56
939.52	6223.2
939.827	6265.46
940.135	6252.8
940.442	6149.75
940.749	6177.32
941.056	6163.76
941.363	6066.59
941.67	6058.23
941.977	5991.57
942.284	6016.2
942.591	6008.74
942.898	5932.36
943.205	5931
943.511	5913.6
943.818	5911.34
944.125	5885.58
944.431	5820.04
944.738	5847.61
945.044	5787.96
945.35	5752.48
945.657	5710.44
945.963	5674.51
946.269	5652.59
946.575	5638.13
946.881	5629.32
947.187	5653.95
947.493	5553.39
947.799	5589.09
948.105	5528.07
948.41	5507.06
948.716	5494.63
949.022	5460.51
949.327	5408.98
949.633	5403.78
949.938	5401.3
950.244	5391.81
950.549	5355.2
950.854	5342.54
951.16	5297.57
951.465	5264.58
951.77	5272.26
952.075	5276.56
952.38	5196.11
952.685	5221.64
952.99	5165.15
953.294	5095.54
953.599	5088.31
953.904	5031.36
954.209	5079.95
954.513	5008.31
954.818	5046.05
955.122	4991.37
955.426	4998.37
955.731	4984.59
956.035	4970.35
956.339	4934.64
956.643	4910.24
956.948	4850.13
957.252	4843.57
957.556	4879.05
957.86	4785.27
958.163	4758.15
958.467	4731.49
958.771	4711.15
959.075	4754.54
959.378	4691.94
959.682	4725.16
959.985	4700.75
960.289	4673.86
960.592	4648.1
960.896	4628.89
961.199	4543.69
961.502	4600.87
961.805	4569.91
962.108	4510.7
962.411	4497.14
962.714	4458.95
963.017	4467.31
963.32	4459.85
963.623	4391.83
963.926	4394.77
964.228	4374.21
964.531	4336.92
964.833	4350.25
965.136	4314.32
965.438	4278.84
965.741	4281.1
966.043	4309.8
966.345	4277.94
966.648	4208.34
966.95	4199.3
967.252	4175.12
967.554	4157.72
967.856	4166.3
968.158	4152.97
968.46	4104.16
968.761	4131.5
969.063	4051.73
969.365	4045.4
969.666	4032.07
969.968	4010.15
970.269	3960.43
970.571	3960.43
970.872	3996.14
971.174	3960.43
971.475	3932.86
971.776	3929.25
972.077	3912.98
972.378	3922.69
972.679	3886.08
972.98	3868.01
973.281	3793.43
973.582	3854.22
973.883	3846.09
974.183	3798.85
974.484	3817.84
974.785	3718.86
975.085	3732.19
975.386	3788.01
975.686	3725.18
975.986	3681.8
976.287	3702.59
976.587	3675.02
976.887	3649.25
977.187	3656.26
977.487	3634.79
977.787	3585.08
978.087	3569.26
978.387	3532.65
978.687	3574.68
978.987	3529.26
979.286	3497.62
979.586	3507.56
979.885	3443.16
980.185	3475.02
980.484	3434.34
980.784	3411.07
981.083	3436.15
981.382	3391.41
981.682	3391.41
981.981	3371.75
982.28	3352.76
982.579	3332.2
982.878	3315.25
983.177	3296.72
983.475	3307.57
983.774	3264.86
984.073	3275.93
984.372	3255.59
984.67	3278.42
984.969	3180.11
985.267	3201.36
985.566	3164.97
985.864	3189.38
986.162	3169.04
986.461	3153.67
986.759	3148.02
987.057	3089.72
987.355	3081.13
987.653	3114.13
987.951	3070.74
988.249	3061.02
988.547	3043.39
988.844	3006.79
989.142	3059.89
989.44	3019.67
989.737	3002.94
990.035	2974.24
990.332	2974.7
990.63	2942.38
990.927	2976.73
991.224	2921.59
991.521	2938.31
991.819	2894.92
992.116	2845.66
992.413	2864.42
992.71	2849.95
993.006	2830.29
993.303	2791.65
993.6	2811.54
993.897	2778.54
994.193	2795.49
994.49	2772.89
994.787	2749.17
995.083	2739.67
995.379	2710.3
995.676	2684.53
995.972	2684.99
996.268	2678.21
996.565	2672.78
996.861	2650.18
997.157	2626.46
997.453	2647.92
997.749	2616.29
998.044	2619.22
998.34	2581.71
998.636	2570.41
998.932	2568.83
999.227	2558.89
999.523	2537.42
999.818	2532.45
1000.114	2532.9
1000.409	2500.13
1000.704	2490.19
1001	2494.71
1001.295	2455.61
1001.59	2459.46
1001.885	2447.25
1002.18	2438.44
1002.475	2412.22
1002.77	2375.16
1003.065	2367.93
1003.359	2357.99
1003.654	2383.98
1003.949	2355.73
1004.243	2360.25
1004.538	2312.34
1004.832	2303.98
1005.127	2301.72
1005.421	2255.17
1005.715	2262.85
1006.009	2256.3
1006.304	2217.65
1006.598	2212.68
1006.892	2217.2
1007.186	2227.14
1007.48	2203.19
1007.773	2157.09
1008.067	2179.91
1008.361	2145.11
1008.655	2123.87
1008.948	2116.87
1009.242	2119.58
1009.535	2109.41
1009.829	2102.18
1010.122	2082.52
1010.415	2084.55
1010.708	2095.4
1011.001	2015.62
1011.295	2008.39
1011.588	2007.94
1011.881	1998.45
1012.173	1996.42
1012.466	1965.91
1012.759	1938.11
1013.052	1955.74
1013.344	1957.77
1013.637	1931.33
1013.93	1950.32
1014.222	1881.17
1014.514	1859.24
1014.807	1855.18
1015.099	1861.05
1015.391	1860.6
1015.683	1855.18
1015.976	1857.66
1016.268	1843.43
1016.56	1808.85
1016.851	1814.73
1017.143	1813.37
1017.435	1788.06
1017.727	1754.39
1018.018	1748.97
1018.31	1704.45
1018.602	1718.68
1018.893	1718.01
1019.185	1692.02
1019.476	1732.02
1019.767	1701.73
1020.058	1684.11
1020.35	1669.19
1020.641	1676.65
1020.932	1659.48
1021.223	1658.57
1021.514	1632.36
1021.804	1614.96
1022.095	1587.84
1022.386	1587.61
1022.677	1591.46
1022.967	1608.86
1023.258	1567.5
1023.548	1546.94
1023.839	1523.66
1024.129	1548.74
1024.419	1560.04
1024.709	1482.08
1025	1517.78
1025.29	1491.8
1025.58	1489.54
1025.87	1424.91
1026.16	1448.18
1026.449	1479.14
1026.739	1444.11
1027.029	1428.07
1027.319	1431.69
1027.608	1423.1
1027.898	1383.55
1028.187	1368.41
1028.477	1404.12
1028.766	1386.71
1029.055	1348.3
1029.344	1350.33
1029.634	1350.78
1029.923	1326.83
1030.212	1335.87
1030.501	1327.73
1030.79	1290.9
1031.078	1294.97
1031.367	1296.1
1031.656	1305.81
1031.945	1263.1
1032.233	1253.16
1032.522	1262.2
1032.81	1255.64
1033.099	1239.6
1033.387	1224.69
1033.675	1227.62
1033.963	1217.45
1034.251	1221.52
1034.54	1211.35
1034.828	1202.31
1035.116	1171.13
1035.403	1184.01
1035.691	1175.65
1035.979	1137.46
1036.267	1160.05
1036.554	1156.66
1036.842	1128.64
1037.129	1142.43
1037.417	1088.64
1037.704	1129.55
1037.992	1107.4
1038.279	1085.03
1038.566	1105.14
1038.853	1105.14
1039.14	1105.14
