Data from hue_130_FLMS001491_00045.txt Node
Date: Tue Feb 07 16:57:39 GMT 2017
User: dcchb
Spectrometer: FLMS00149
Trigger mode: 0
Integration Time (sec): 2.000000E-2
Scans to average: 10
Electric dark correction enabled: true
Nonlinearity correction enabled: false
Boxcar width: 0
XAxis mode: Wavelengths
Number of Pixels in Spectrum: 2048
>>>>>Begin Spectral Data<<<<<
341.393	-1.98
341.776	-1.98
342.16	-1.98
342.543	-55.76
342.927	-56.21
343.31	-60.51
343.693	-65.48
344.077	-70.45
344.46	-46.27
344.843	-45.59
345.226	-25.71
345.61	-23.9
345.993	-24.12
346.376	2.54
346.759	14.97
347.142	22.65
347.525	46.61
347.908	38.02
348.291	50.22
348.674	86.16
349.057	100.84
349.44	104.01
349.823	141.3
350.206	167.28
350.588	216.77
350.971	233.04
351.354	211.58
351.737	232.14
352.119	236.43
352.502	260.39
352.884	278.92
353.267	273.27
353.65	290.9
354.032	290.22
354.414	301.97
354.797	300.16
355.179	304.46
355.562	310.56
355.944	325.92
356.326	317.11
356.709	321.63
357.091	325.47
357.473	345.13
357.855	328.41
358.238	347.39
358.62	332.03
359.002	346.71
359.384	321.63
359.766	361.4
360.148	327.96
360.53	334.96
360.912	331.57
361.294	325.92
361.676	323.21
362.057	340.39
362.439	322.99
362.821	320.5
363.203	327.73
363.584	336.77
363.966	340.16
364.348	328.41
364.729	319.82
365.111	324.12
365.493	299.03
365.874	319.82
366.256	314.85
366.637	320.05
367.019	287.28
367.4	311.46
367.781	317.56
368.163	335.19
368.544	309.2
368.925	312.36
369.306	324.34
369.688	335.41
370.069	314.4
370.45	320.5
370.831	313.72
371.212	309.43
371.593	303.55
371.974	302.42
372.355	320.5
372.736	310.1
373.117	311.46
373.498	306.49
373.879	322.08
374.26	300.39
374.641	308.75
375.021	311.01
375.402	293.16
375.783	312.36
376.163	341.29
376.544	323.44
376.925	327.05
377.305	326.83
377.686	320.73
378.066	320.73
378.447	303.78
378.827	325.92
379.208	312.59
379.588	331.57
379.968	326.83
380.349	331.57
380.729	319.6
381.109	336.32
381.489	337.45
381.87	342.42
382.25	316.43
382.63	333.61
383.01	363.66
383.39	327.28
383.77	325.25
384.15	353.72
384.53	326.15
384.91	358.24
385.29	356.21
385.67	348.3
386.049	356.43
386.429	362.31
386.809	358.24
387.189	350.78
387.568	319.37
387.948	358.47
388.328	349.2
388.707	344.23
389.087	336.32
389.466	350.56
389.846	362.31
390.225	380.61
390.605	369.54
390.984	348.07
391.363	366.37
391.743	357.34
392.122	381.97
392.501	349.2
392.881	390.55
393.26	382.65
393.639	376.09
394.018	382.65
394.397	387.16
394.776	364.34
395.155	373.61
395.534	376.09
395.913	375.41
396.292	405.47
396.671	388.75
397.05	395.75
397.429	382.19
397.808	408.86
398.186	380.39
398.565	399.82
398.944	387.62
399.323	382.42
399.701	411.8
400.08	406.6
400.458	416.09
400.837	406.6
401.215	419.48
401.594	419.03
401.972	399.59
402.351	401.4
402.729	397.11
403.107	404.79
403.486	428.75
403.864	417.22
404.242	401.85
404.62	430.33
404.999	415.64
405.377	418.8
405.755	415.41
406.133	422.19
406.511	437.33
406.889	424.23
407.267	443.21
407.645	423.1
408.023	438.46
408.401	446.37
408.779	425.81
409.156	454.73
409.534	456.99
409.912	478.69
410.29	461.51
410.667	460.38
411.045	469.2
411.422	478.24
411.8	451.12
412.178	459.25
412.555	484.11
412.933	469.65
413.31	509.42
413.687	494.51
414.065	488.86
414.442	510.33
414.819	499.25
415.197	486.37
415.574	501.29
415.951	508.97
416.328	513.49
416.705	510.1
417.082	511.46
417.46	517.33
417.837	498.12
418.214	513.26
418.591	511.91
418.967	532.02
419.344	537.67
419.721	533.6
420.098	531.12
420.475	534.51
420.852	550.78
421.228	530.89
421.605	540.83
421.982	566.6
422.358	559.14
422.735	560.27
423.111	560.49
423.488	560.04
423.864	553.04
424.241	567.73
424.617	573.37
424.994	562.75
425.37	584.45
425.746	579.02
426.123	598.46
426.499	612.24
426.875	585.58
427.251	614.05
427.627	592.81
428.003	634.39
428.379	604.11
428.756	628.06
429.132	619.93
429.507	611.11
429.883	665.58
430.259	633.49
430.635	652.69
431.011	662.86
431.387	666.71
431.763	653.82
432.138	673.26
432.514	657.44
432.89	679.81
433.265	681.17
433.641	702.18
434.016	712.81
434.392	722.52
434.767	725.01
435.143	742.64
435.518	723.65
435.894	706.25
436.269	754.61
436.644	717.55
437.02	716.65
437.395	736.08
437.77	743.99
438.145	751.9
438.52	758.68
438.895	758.68
439.271	771.79
439.646	780.6
440.021	812.69
440.395	793.03
440.77	784.67
441.145	815.4
441.52	783.76
441.895	812.46
442.27	810.2
442.645	816.31
443.019	865.57
443.394	834.61
443.769	857.89
444.143	823.54
444.518	865.12
444.892	869.64
445.267	840.03
445.641	837.32
446.016	873.25
446.39	882.52
446.764	866.25
447.139	901.28
447.513	894.27
447.887	903.99
448.262	887.26
448.636	902.86
449.01	915.06
449.384	933.59
449.758	941.05
450.132	943.31
450.506	946.92
450.88	944.44
451.254	961.84
451.628	958
452.002	953.03
452.376	980.14
452.75	992.57
453.123	991.44
453.497	986.25
453.871	1021.95
454.244	1020.82
454.618	1030.31
454.992	1055.62
455.365	1079.58
455.739	1078.67
456.112	1089.75
456.486	1094.49
456.859	1099.91
457.232	1112.8
457.606	1112.8
457.979	1134.04
458.352	1199.57
458.725	1165.22
459.099	1151.66
459.472	1179.01
459.845	1197.77
460.218	1197.54
460.591	1217.65
460.964	1234.83
461.337	1268.5
461.71	1294.94
462.083	1282.51
462.456	1289.74
462.829	1306.24
463.201	1320.7
463.574	1350.76
463.947	1368.38
464.32	1394.37
464.692	1383.3
465.065	1414.03
465.438	1424.43
465.81	1472.11
466.183	1446.8
466.555	1490.41
466.928	1510.3
467.3	1533.35
467.672	1572.44
468.045	1593.91
468.417	1609.05
468.789	1634.82
469.161	1654.48
469.534	1709.16
469.906	1704.19
470.278	1734.7
470.65	1733.12
471.022	1817.18
471.394	1830.97
471.766	1842.49
472.138	1884.3
472.51	1942.83
472.882	1961.81
473.253	1983.06
473.625	2045.2
473.997	2111.64
474.369	2136.95
474.74	2188.25
475.112	2235.48
475.484	2269.83
475.855	2323.16
476.227	2380.78
476.598	2442.93
476.97	2483.38
477.341	2575.13
477.713	2636.37
478.084	2659.42
478.455	2737.16
478.827	2821
479.198	2912.75
479.569	3000.88
479.94	3089.47
480.311	3107.77
480.682	3204.49
481.053	3318.16
481.424	3426.86
481.795	3484.71
482.166	3575.1
482.537	3680.41
482.908	3797.92
483.279	3881.76
483.65	4027.3
484.021	4081.76
484.391	4206.05
484.762	4254.63
485.133	4338.47
485.503	4501.86
485.874	4621.63
486.244	4695.53
486.615	4876.76
486.985	4967.61
487.356	5124.44
487.726	5234.72
488.097	5359.24
488.467	5460.25
488.837	5657.31
489.207	5722.62
489.578	5888.49
489.948	6003.74
490.318	6164.87
490.688	6271.3
491.058	6391.98
491.428	6556.27
491.798	6710.84
492.168	6909.48
492.538	6969.36
492.908	7084.39
493.278	7329.36
493.648	7314.21
494.017	7455.45
494.387	7713.07
494.757	7835.33
495.126	7958.27
495.496	7984.71
495.866	8175.43
496.235	8262.44
496.605	8397.8
496.974	8592.6
497.344	8668.08
497.713	8720.28
498.082	8897.9
498.452	9019.03
498.821	9110.1
499.19	9196.88
499.559	9368.62
499.928	9433.03
500.298	9565.23
500.667	9673.25
501.036	9741.27
501.405	9887.03
501.774	9944.88
502.143	10052.45
502.512	10160.47
502.88	10234.14
503.249	10325.21
503.618	10431.65
503.987	10493.79
504.356	10624.18
504.724	10710.06
505.093	10793.67
505.462	10852.2
505.83	10932.65
506.199	11074.57
506.567	11192.98
506.936	11155.47
507.304	11311.4
507.672	11381.45
508.041	11456.03
508.409	11504.16
508.777	11668.68
509.145	11694.44
509.514	11660.09
509.882	11822.34
510.25	11851.04
510.618	11870.25
510.986	12008.55
511.354	12029.57
511.722	12133.3
512.09	12258.27
512.458	12133.97
512.826	12299.17
513.193	12366.29
513.561	12412.39
513.929	12481.08
514.297	12560.18
514.664	12595.21
515.032	12668.88
515.4	12735.77
515.767	12717.24
516.135	12826.16
516.502	12688.99
516.869	12884.24
517.237	12916.78
517.604	12832.94
517.972	12991.13
518.339	13018.92
518.706	13091.46
519.073	13092.82
519.44	13123.55
519.808	13230.67
520.175	13173.95
520.542	13314.73
520.909	13303.44
521.276	13269.54
521.643	13451.68
522.009	13440.16
522.376	13560.15
522.743	13507.05
523.11	13592.47
523.477	13659.81
523.843	13647.83
524.21	13740.49
524.577	13804.44
524.943	13872.69
525.31	13864.1
525.676	13946.81
526.043	13957.66
526.409	13955.62
526.776	13986.81
527.142	14002.63
527.508	13994.26
527.874	14045.56
528.241	14020.93
528.607	14051.89
528.973	14168.95
529.339	14059.8
529.705	14274.26
530.071	14132.57
530.437	14184.32
530.803	14198.55
531.169	14254.37
531.535	14206.24
531.901	14138.89
532.267	14163.3
532.632	14311.77
532.998	14217.08
533.364	14203.98
533.73	14227.25
534.095	14249.85
534.461	14244.2
534.826	14213.92
535.192	14205.33
535.557	14272.68
535.923	14161.72
536.288	14215.28
536.653	14133.02
537.019	14088.95
537.384	14164.43
537.749	14115.62
538.114	14072.45
538.479	14056.64
538.845	14094.15
539.21	13942.29
539.575	13997.43
539.94	13962.85
540.305	13939.13
540.67	13902.06
541.034	13914.49
541.399	13839.01
541.764	13812.8
542.129	13834.27
542.494	13829.52
542.858	13737.1
543.223	13742.97
543.587	13820.48
543.952	13784.1
544.316	13712.46
544.681	13583.65
545.045	13683.09
545.41	13670.66
545.774	13658
546.138	13549.08
546.503	13455.52
546.867	13520.6
547.231	13553.82
547.595	13444
547.959	13414.85
548.324	13424.11
548.688	13325.13
549.052	13308.41
549.416	13370.55
549.779	13268.41
550.143	13302.76
550.507	13342.76
550.871	13216.43
551.235	13233.38
551.599	13206.71
551.962	13242.42
552.326	13132.37
552.689	13147.06
553.053	13093.95
553.417	13112.93
553.78	13160.84
554.143	13099.83
554.507	13019.6
554.87	13018.25
555.234	13129.65
555.597	13027.06
555.96	12950.45
556.323	12935.99
556.686	12963.11
557.05	12978.7
557.413	13016.21
557.776	12995.42
558.139	12982.31
558.502	12952.48
558.865	12875.88
559.228	13115.19
559.59	12952.26
559.953	13018.92
560.316	13053.27
560.679	13062.54
561.041	13048.3
561.404	13087.85
561.767	13130.11
562.129	12989.32
562.492	13050.56
562.854	13033.39
563.217	13006.49
563.579	13066.83
563.941	13106.38
564.304	13143.21
564.666	13092.14
565.028	13085.81
565.39	13109.32
565.753	13196.09
566.115	13176.43
566.477	13157.45
566.839	13258.46
567.201	13285.36
567.563	13184.34
567.925	13299.59
568.287	13323.32
568.648	13227.96
569.01	13304.34
569.372	13367.84
569.734	13321.74
570.095	13339.82
570.457	13408.97
570.819	13361.74
571.18	13378.91
571.542	13423.66
571.903	13458.69
572.265	13425.24
572.626	13446.26
572.987	13444.67
573.349	13465.24
573.71	13424.56
574.071	13409.42
574.432	13555.41
574.794	13604.9
575.155	13542.07
575.516	13458.23
575.877	13514.05
576.238	13521.28
576.599	13614.16
576.96	13645.8
577.32	13539.59
577.681	13639.02
578.042	13634.05
578.403	13652.35
578.763	13625.91
579.124	13614.61
579.485	13601.96
579.845	13683.31
580.206	13638.12
580.566	13666.82
580.927	13656.87
581.287	13674.73
581.648	13653.71
582.008	13649.19
582.368	13624.56
582.728	13631.11
583.089	13607.83
583.449	13671.34
583.809	13577.78
584.169	13614.84
584.529	13563.32
584.889	13719.02
585.249	13626.82
585.609	13516.76
585.969	13580.04
586.329	13560.83
586.688	13515.86
587.048	13478.8
587.408	13432.47
587.768	13456.65
588.127	13512.24
588.487	13460.04
588.846	13571.23
589.206	13436.77
589.565	13457.56
589.925	13464.34
590.284	13417.78
590.643	13476.99
591.003	13473.15
591.362	13441.51
591.721	13385.24
592.08	13493.94
592.44	13411.46
592.799	13414.85
593.158	13397.67
593.517	13395.18
593.876	13371.91
594.235	13375.75
594.593	13412.36
594.952	13363.55
595.311	13382.98
595.67	13368.97
596.029	13484.67
596.387	13352.7
596.746	13386.82
597.104	13380.72
597.463	13281.52
597.822	13346.15
598.18	13394.28
598.538	13319.25
598.897	13369.65
599.255	13193.83
599.613	13447.61
599.972	13269.54
600.33	13393.6
600.688	13359.25
601.046	13332.36
601.404	13408.29
601.762	13334.17
602.12	13371
602.478	13400.16
602.836	13424.79
603.194	13345.92
603.552	13382.53
603.91	13270.89
604.268	13337.33
604.625	13276.54
604.983	13345.02
605.341	13297.33
605.698	13360.38
606.056	13374.39
606.413	13378.24
606.771	13365.81
607.128	13431.57
607.485	13387.95
607.843	13395.41
608.2	13440.83
608.557	13475.41
608.914	13402.42
609.272	13503.88
609.629	13522.41
609.986	13616.42
610.343	13448.06
610.7	13543.2
611.057	13528.74
611.414	13589.98
611.771	13492.13
612.127	13592.69
612.484	13507.05
612.841	13592.69
613.198	13476.76
613.554	13502.98
613.911	13565.12
614.267	13657.78
614.624	13542.07
614.98	13643.99
615.337	13674.73
615.693	13686.48
616.05	13678.34
616.406	13725.8
616.762	13571.23
617.118	13739.36
617.475	13564.67
617.831	13710.43
618.187	13718.57
618.543	13686.7
618.899	13835.85
619.255	13694.84
619.611	13748.17
619.967	13801.73
620.323	13873.14
620.678	13686.93
621.034	13695.06
621.39	13726.48
621.746	13670.43
622.101	13857.77
622.457	13741.62
622.812	13783.2
623.168	13812.57
623.523	13792.69
623.879	13860.71
624.234	13705.23
624.589	13797.89
624.945	13796.53
625.3	13823.87
625.655	13779.36
626.01	13808.73
626.365	13773.48
626.72	13708.62
627.075	13753.82
627.43	13787.94
627.785	13704.55
628.14	13784.55
628.495	13747.49
628.85	13707.94
629.205	13644.9
629.559	13808.96
629.914	13674.05
630.269	13743.42
630.623	13685.57
630.978	13682.18
631.332	13761.73
631.687	13716.31
632.041	13653.03
632.396	13672.01
632.75	13582.3
633.104	13691
633.459	13599.92
633.813	13558.34
634.167	13561.73
634.521	13538.68
634.875	13564.45
635.229	13591.79
635.583	13523.54
635.937	13499.59
636.291	13478.12
636.645	13391.34
636.999	13419.59
637.352	13454.84
637.706	13357.22
638.06	13499.59
638.413	13389.76
638.767	13322.42
639.121	13389.53
639.474	13318.8
639.828	13233.15
640.181	13349.31
640.534	13408.52
640.888	13266.37
641.241	13225.92
641.594	13271.35
641.947	13301.63
642.301	13281.97
642.654	13205.58
643.007	13215.08
643.36	13277.45
643.713	13200.16
644.066	13184.34
644.419	13189.31
644.771	13097.34
645.124	12989.55
645.477	12932.15
645.83	12932.37
646.182	12884.01
646.535	12833.39
646.888	12774.41
647.24	12735.77
647.593	12836.33
647.945	12728.08
648.298	12676.33
648.65	12703.9
649.002	12674.3
649.355	12762.21
649.707	12721.3
650.059	12830.68
650.411	12900.06
650.763	12972.37
651.115	13034.97
651.467	13017.34
651.819	13018.25
652.171	13034.97
652.523	12955.65
652.875	12988.87
653.227	12926.04
653.578	13078.36
653.93	12997.23
654.282	13032.03
654.633	12941.64
654.985	13015.99
655.337	12988.19
655.688	13061.41
656.039	12994.07
656.391	12993.84
656.742	13009.66
657.094	12936.89
657.445	13033.39
657.796	13010.11
658.147	12976.21
658.498	12997.23
658.849	13044.46
659.2	13049.66
659.551	12994.97
659.902	13034.52
660.253	13011.69
660.604	13065.7
660.955	12913.84
661.306	13077.68
661.656	13050.56
662.007	13052.82
662.358	13003.1
662.708	13028.87
663.059	13106.38
663.409	12991.13
663.76	13110.22
664.11	13097.11
664.461	13137.34
664.811	13081.29
665.161	13076.32
665.511	13033.16
665.862	13082.88
666.212	13102.76
666.562	13171.91
666.912	13029.77
667.262	13034.06
667.612	12981.64
667.962	13005.14
668.312	13018.47
668.662	13105.47
669.011	13140.28
669.361	12994.52
669.711	13094.4
670.06	13055.31
670.41	13049.43
670.76	12915.88
671.109	13034.74
671.459	12948.19
671.808	12967.85
672.157	13059.6
672.507	12919.72
672.856	12968.98
673.205	12920.39
673.554	12968.3
673.904	12935.76
674.253	12976.66
674.602	12920.85
674.951	12722.21
675.3	12716.33
675.649	12847.63
675.998	12841.75
676.346	12782.32
676.695	12889.44
677.044	12826.61
677.393	12833.62
677.741	12854.18
678.09	12792.04
678.438	12771.47
678.787	12735.99
679.135	12780.06
679.484	12752.94
679.832	12716.78
680.181	12632.27
680.529	12687.18
680.877	12622.32
681.225	12559.27
681.573	12682.66
681.922	12597.69
682.27	12573.96
682.618	12604.92
682.966	12503
683.314	12595.66
683.661	12485.6
684.009	12478.15
684.357	12442.22
684.705	12421.42
685.053	12472.95
685.4	12418.04
685.748	12302.11
686.095	12344.59
686.443	12229.34
686.79	12240.19
687.138	12365.16
687.485	12237.93
687.832	12157.25
688.18	12264.59
688.527	12116.57
688.874	12108.21
689.221	12074.99
689.568	12045.39
689.915	12044.03
690.262	11980.08
690.609	12018.27
690.956	11910.48
691.303	11916.35
691.65	11819.63
691.997	11786.41
692.344	11709.35
692.69	11691.5
693.037	11747.54
693.383	11640.65
693.73	11668.22
694.077	11584.38
694.423	11533.54
694.769	11484.05
695.116	11439.98
695.462	11434.78
695.808	11415.35
696.155	11460.09
696.501	11260.33
696.847	11289.25
697.193	11270.27
697.539	11253.77
697.885	11165.19
698.231	11138.07
698.577	11087.67
698.923	11117.28
699.269	11032.53
699.614	10962.48
699.96	10933.33
700.306	10905.53
700.651	10825.76
700.997	10807.68
701.342	10792.09
701.688	10775.59
702.033	10782.37
702.379	10713
702.724	10736.05
703.069	10704.86
703.415	10532.89
703.76	10537.63
704.105	10552.32
704.45	10543.73
704.795	10513.9
705.14	10448.6
705.485	10394.81
705.83	10328.82
706.175	10354.13
706.52	10347.58
706.865	10247.47
707.209	10248.6
707.554	10257.64
707.899	10201.14
708.243	10123.63
708.588	10188.94
708.932	10042.05
709.277	10054.26
709.621	10087.7
709.966	10027.59
710.31	9965.9
710.654	9890.42
710.998	9925.22
711.342	9945.78
711.687	9908.04
712.031	9833.7
712.375	9838.44
712.719	9875.96
713.063	9805.45
713.407	9866.46
713.75	9811.1
714.094	9748.5
714.438	9750.08
714.782	9763.87
715.125	9642.51
715.469	9726.35
715.812	9642.74
716.156	9624.89
716.499	9546.25
716.843	9601.61
717.186	9685
717.53	9609.52
717.873	9662.63
718.216	9583.08
718.559	9556.42
718.902	9508.96
719.246	9541.27
719.589	9410.43
719.932	9410.88
720.275	9477.1
720.617	9458.79
720.96	9453.59
721.303	9453.37
721.646	9367.72
721.989	9394.61
722.331	9372.92
722.674	9357.55
723.016	9375.18
723.359	9367.27
723.701	9346.48
724.044	9273.03
724.386	9255.18
724.729	9267.38
725.071	9220.38
725.413	9284.56
725.755	9285.69
726.097	9225.12
726.439	9130.89
726.782	9168.63
727.124	9288.63
727.465	9218.12
727.807	9172.92
728.149	9152.13
728.491	9125.69
728.833	9154.62
729.175	9161.4
729.516	9146.93
729.858	9124.11
730.199	9115.75
730.541	9115.07
730.882	9156.88
731.224	9163.21
731.565	9167.95
731.906	9111.46
732.248	9091.12
732.589	9107.61
732.93	9101.06
733.271	9134.73
733.612	9110.78
733.953	9072.59
734.294	9092.02
734.635	9004.57
734.976	9153.94
735.317	9102.19
735.658	9103.77
735.999	9167.27
736.339	9154.17
736.68	9118.91
737.021	9125.92
737.361	9085.92
737.702	9115.97
738.042	9136.54
738.383	9113.94
738.723	9141.29
739.063	9097.44
739.404	9215.63
739.744	9126.6
740.084	9149.19
740.424	9218.57
740.764	9181.74
741.104	9159.36
741.444	9162.53
741.784	9229.64
742.124	9261.06
742.464	9205.92
742.804	9235.52
743.143	9222.41
743.483	9298.34
743.823	9268.74
744.162	9269.87
744.502	9405.01
744.841	9305.35
745.181	9360.71
745.52	9415.4
745.86	9415.18
746.199	9553.48
746.538	9530.65
746.877	9576.53
747.216	9577.66
747.556	9652.68
747.895	9778.78
748.234	9766.81
748.573	9745.34
748.911	9799.8
749.25	9926.35
749.589	9930.87
749.928	10019
750.267	10116.63
750.605	10128.15
750.944	10161.15
751.283	10274.59
751.621	10385.55
751.96	10414.92
752.298	10544.19
752.636	10607.91
752.975	10615.14
753.313	10709.61
753.651	10884.29
753.989	10965.42
754.327	11096.04
754.666	11235.47
755.004	11261.46
755.342	11473.2
755.679	11516.59
756.017	11572.41
756.355	11823.93
756.693	11837.26
757.031	12143.47
757.368	12173.97
757.706	12258.94
758.044	12419.16
758.381	12626.62
758.719	12721.98
759.056	12869.77
759.394	13000.84
759.731	13090.79
760.068	13273.61
760.405	13417.33
760.743	13576.42
761.08	13770.54
761.417	13854.83
761.754	14042.4
762.091	14211.43
762.428	14312.67
762.765	14503.63
763.102	14714.02
763.438	14830.63
763.775	15006.89
764.112	15257.06
764.449	15287.34
764.785	15432.42
765.122	15563.26
765.458	15617.5
765.795	15788.12
766.131	15974.33
766.467	16063.59
766.804	16303.13
767.14	16248.89
767.476	16466.06
767.812	16596.23
768.148	16782.44
768.485	16804.59
768.821	16864.02
769.157	17071.92
769.492	17166.16
769.828	17282.99
770.164	17261.07
770.5	17464.68
770.836	17637.78
771.171	17631.68
771.507	17727.5
771.842	17776.76
772.178	17799.36
772.513	17889.3
772.849	17997.32
773.184	18076.19
773.519	18126.13
773.855	18256.07
774.19	18206.13
774.525	18255.85
774.86	18448.84
775.195	18563.64
775.53	18506.69
775.865	18537.2
776.2	18548.72
776.535	18473.7
776.87	18593.24
777.205	18580.13
777.539	18571.77
777.874	18734.03
778.209	18756.85
778.543	18699.9
778.878	18676.63
779.212	18738.55
779.547	18723.41
779.881	18767.25
780.215	18788.49
780.55	18826.68
780.884	18789.39
781.218	18891.76
781.552	18855.61
781.886	18836.4
782.22	18786
782.554	18760.47
782.888	18775.38
783.222	18616.06
783.556	18679.11
783.889	18623.07
784.223	18568.38
784.557	18553.24
784.89	18677.76
785.224	18595.73
785.557	18539.46
785.891	18517.99
786.224	18595.5
786.558	18508.95
786.891	18468.95
787.224	18383.3
787.557	18482.28
787.891	18497.2
788.224	18456.75
788.557	18413.13
788.89	18446.35
789.223	18448.16
789.556	18304.89
789.888	18320.03
790.221	18268.73
790.554	18193.7
790.887	18090.65
791.219	18067.6
791.552	18060.15
791.884	18066.93
792.217	17939.7
792.549	18031.67
792.882	17946.7
793.214	17875.74
793.546	17968.4
793.879	17751
794.211	17730.66
794.543	17843.66
794.875	17706.48
795.207	17815.63
795.539	17676.43
795.871	17697.44
796.203	17536.32
796.535	17504.91
796.867	17426.49
797.198	17449.99
797.53	17475.53
797.862	17372.93
798.193	17384.91
798.525	17300.17
798.856	17360.5
799.188	17148.08
799.519	17173.62
799.85	17027.63
800.182	17057.46
800.513	17030.57
800.844	16974.3
801.175	17087.74
801.506	16944.47
801.837	16911.48
802.168	16878.71
802.499	16808.43
802.83	16777.24
803.161	16753.29
803.491	16674.19
803.822	16777.47
804.153	16664.03
804.483	16521.43
804.814	16442.34
805.145	16558.72
805.475	16453.18
805.805	16421.09
806.136	16423.13
806.466	16452.73
806.796	16312.62
807.126	16271.72
807.457	16184.49
807.787	16229.69
808.117	16224.04
808.447	16110.14
808.777	16264.49
809.107	16117.37
809.436	16041.67
809.766	16037.83
810.096	15922.58
810.426	15816.59
810.755	15911.28
811.085	15842.35
811.414	15850.04
811.744	15682.58
812.073	15713.54
812.403	15700.21
812.732	15551.96
813.061	15628.35
813.39	15542.02
813.719	15509.93
814.049	15608.91
814.378	15530.27
814.707	15505.64
815.036	15447.79
815.365	15376.83
815.693	15391.29
816.022	15292.54
816.351	15279.88
816.68	15248.92
817.008	15280.56
817.337	15115.82
817.665	15143.39
817.994	15123.05
818.322	15119.66
818.651	15065.2
818.979	14956.73
819.307	15057.97
819.636	15011.64
819.964	14939.1
820.292	14965.99
820.62	14974.35
820.948	14903.39
821.276	14981.58
821.604	14901.13
821.932	14970.51
822.259	14968.25
822.587	14878.31
822.915	14963.96
823.243	14919.44
823.57	14853.45
823.898	14913.34
824.225	14851.19
824.553	14796.28
824.88	14911.75
825.207	14914.92
825.535	14819.1
825.862	14822.04
826.189	14940
826.516	14926.67
826.843	14954.24
827.17	14956.27
827.497	14937.52
827.824	14925.31
828.151	15012.32
828.478	14930.74
828.805	15016.38
829.131	14942.94
829.458	14903.17
829.785	14816.84
830.111	14864.3
830.438	14918.31
830.764	14930.96
831.09	14956.73
831.417	14896.61
831.743	14865.2
832.069	14965.09
832.395	14869.5
832.722	14889.16
833.048	14800.12
833.374	14872.89
833.7	14733.45
834.026	14803.74
834.351	14859.55
834.677	14725.77
835.003	14843.28
835.329	14813
835.654	14822.04
835.98	14776.62
836.306	14755.83
836.631	14667.47
836.956	14728.71
837.282	14643.06
837.607	14586.34
837.932	14601.25
838.258	14551.99
838.583	14635.38
838.908	14517.64
839.233	14540.69
839.558	14533.69
839.883	14481.71
840.208	14417.98
840.533	14394.25
840.858	14460.69
841.182	14350.19
841.507	14398.32
841.832	14300.47
842.156	14208.5
842.481	14267.03
842.805	14268.38
843.13	14235.61
843.454	14218.89
843.778	14137.31
844.103	14121.95
844.427	14097.31
844.751	14097.76
845.075	14024.77
845.399	13969.86
845.723	13883.99
846.047	13932.12
846.371	13895.06
846.695	13826.36
847.019	13727.61
847.343	13666.59
847.666	13582.52
847.99	13555.86
848.313	13590.89
848.637	13473.37
848.96	13441.96
849.284	13365.13
849.607	13371.46
849.931	13172.37
850.254	13238.35
850.577	13135.98
850.9	13040.84
851.223	13021.64
851.546	12973.5
851.869	12890.57
852.192	12969.88
852.515	12798.14
852.838	12790.45
853.161	12708.2
853.483	12671.81
853.806	12651.02
854.129	12578.26
854.451	12540.74
854.774	12525.83
855.096	12480.86
855.419	12470.24
855.741	12401.54
856.063	12330.35
856.385	12317.92
856.708	12338.26
857.03	12263.24
857.352	12309.79
857.674	12150.47
857.996	12163.58
858.318	12045.84
858.64	12123.58
858.961	11978.05
859.283	12010.59
859.605	11911.83
859.926	11987.09
860.248	11944.38
860.57	11900.76
860.891	11910.7
861.212	11766.07
861.534	11854.43
861.855	11772.63
862.176	11768.79
862.498	11718.39
862.819	11693.08
863.14	11614.89
863.461	11650.6
863.782	11556.14
864.103	11520.66
864.424	11606.3
864.745	11591.62
865.065	11535.57
865.386	11422.81
865.707	11514.33
866.027	11465.07
866.348	11433.2
866.668	11450.6
866.989	11380.32
867.309	11354.79
867.63	11358.85
867.95	11331.06
868.27	11227.78
868.59	11312.3
868.91	11262.13
869.23	11202.25
869.55	11180.1
869.87	11265.07
870.19	11214.22
870.51	11184.62
870.83	11216.26
871.15	11140.1
871.469	11112.76
871.789	11135.13
872.109	11098.3
872.428	11020.56
872.748	11063.49
873.067	11062.59
873.386	11059.88
873.706	11001.12
874.025	10995.02
874.344	11028.92
874.663	11065.3
874.982	10926.55
875.301	10992.99
875.62	10879.54
875.939	10908.24
876.258	10904.18
876.577	10943.95
876.896	10935.36
877.214	10850.39
877.533	10882.71
877.852	10809.94
878.17	10785.08
878.489	10808.13
878.807	10784.86
879.125	10770.39
879.444	10686.1
879.762	10732.88
880.08	10701.02
880.398	10683.84
880.716	10715.93
881.034	10601.81
881.352	10621.25
881.67	10554.58
881.988	10532.66
882.306	10497.86
882.624	10466.9
882.941	10407.92
883.259	10389.39
883.577	10372.67
883.894	10370.18
884.212	10446.11
884.529	10386.22
884.846	10315.27
885.164	10348.71
885.481	10247.7
885.798	10277.3
886.115	10139.45
886.432	10222.84
886.75	10124.76
887.067	10183.74
887.383	10161.82
887.7	10094.71
888.017	10108.72
888.334	10063.52
888.651	10071.43
888.967	9965.67
889.284	9934.48
889.6	9943.52
889.917	9893.81
890.233	9925.45
890.55	9824.43
890.866	9870.53
891.182	9781.04
891.498	9781.72
891.815	9722.74
892.131	9685.68
892.447	9692.46
892.763	9623.08
893.079	9612.23
893.395	9587.38
893.71	9577.66
894.026	9574.27
894.342	9528.17
894.657	9529.75
894.973	9439.13
895.289	9411.79
895.604	9428.06
895.92	9367.04
896.235	9299.7
896.55	9345.57
896.865	9299.47
897.181	9316.65
897.496	9262.19
897.811	9190.32
898.126	9156.43
898.441	9142.87
898.756	9096.09
899.071	9008.41
899.386	9066.48
899.7	8942.19
900.015	8906.49
900.33	8835.98
900.644	8796.66
900.959	8891.8
901.273	8854.74
901.588	8871.91
901.902	8716.89
902.216	8696.33
902.531	8678.02
902.845	8661.98
903.159	8574.97
903.473	8621.3
903.787	8521.87
904.101	8494.3
904.415	8533.17
904.729	8485.26
905.042	8402.1
905.356	8429.44
905.67	8373.62
905.984	8362.32
906.297	8330.46
906.611	8261.08
906.924	8274.19
907.237	8266.28
907.551	8165.94
907.864	8206.85
908.177	8117.81
908.491	8071.71
908.804	8029.45
909.117	7967.3
909.43	7964.37
909.743	7939.73
910.056	7898.15
910.368	7929.79
910.681	7839.62
910.994	7824.94
911.307	7821.55
911.619	7666.07
911.932	7757.37
912.244	7727.31
912.557	7641.21
912.869	7560.31
913.181	7591.5
913.494	7534.55
913.806	7523.25
914.118	7517.37
914.43	7452.06
914.742	7442.8
915.054	7384.72
915.366	7406.87
915.678	7295.68
915.99	7335.68
916.302	7210.71
916.613	7201.22
916.925	7221.34
917.236	7184.5
917.548	7119.87
917.859	7112.86
918.171	7146.99
918.482	7069.02
918.794	7012.3
919.105	7093.66
919.416	6988.12
919.727	6970.49
920.038	6966.65
920.349	6869.25
920.66	6845.3
920.971	6886.88
921.282	6821.12
921.593	6780.67
921.903	6709.03
922.214	6737.28
922.525	6705.87
922.835	6704.96
923.146	6629.71
923.456	6577.74
923.767	6571.41
924.077	6556.04
924.387	6534.35
924.697	6461.58
925.008	6526.21
925.318	6505.2
925.628	6449.6
925.938	6439.44
926.248	6363.96
926.558	6360.57
926.867	6284.41
927.177	6279.44
927.487	6302.94
927.796	6285.09
928.106	6233.56
928.416	6204.87
928.725	6170.29
929.034	6150.86
929.344	6186.11
929.653	6177.3
929.962	6088.26
930.271	6064.08
930.581	5996.28
930.89	5989.28
931.199	5976.17
931.508	5969.84
931.817	5960.35
932.125	5928.49
932.434	5947.47
932.743	5884.87
933.051	5846.23
933.36	5803.97
933.669	5794.48
933.977	5758.32
934.286	5757.19
934.594	5717.87
934.902	5694.82
935.21	5642.17
935.519	5694.14
935.827	5621.38
936.135	5667.25
936.443	5557.42
936.751	5561.49
937.059	5508.39
937.367	5545.67
937.674	5500.25
937.982	5497.77
938.29	5467.03
938.597	5439.69
938.905	5419.12
939.213	5343.19
939.52	5307.71
939.827	5359.69
940.135	5256.87
940.442	5303.19
940.749	5304.78
941.056	5278.56
941.363	5209.41
941.67	5162.41
941.977	5137.55
942.284	5111.33
942.591	5082.86
942.898	5097.78
943.205	5122.63
943.511	5033.14
943.818	5001.05
944.125	5046.03
944.431	5045.35
944.738	4955.86
945.044	4929.87
945.35	4922.64
945.657	4892.36
945.963	4908.63
946.269	4825.01
946.575	4860.04
946.881	4807.39
947.187	4771.68
947.493	4750.21
947.799	4761.29
948.105	4780.04
948.41	4678.13
948.716	4687.16
949.022	4656.88
949.327	4687.16
949.633	4641.06
949.938	4603.55
950.244	4613.04
950.549	4598.13
950.854	4545.47
951.16	4552.93
951.465	4517.23
951.77	4505.93
952.075	4526.49
952.38	4479.94
952.685	4436.78
952.99	4439.94
953.294	4441.07
953.599	4400.62
953.904	4340.06
954.209	4362.2
954.513	4333.73
954.818	4328.08
955.122	4274.75
955.426	4268.64
955.731	4229.55
956.035	4220.74
956.339	4190.91
956.643	4217.57
956.948	4211.25
957.252	4170.12
957.556	4150.91
957.86	4079.27
958.163	4105.03
958.467	4064.58
958.771	4076.79
959.075	4068.65
959.378	4028.2
959.682	4033.85
959.985	4029.56
960.289	4011.02
960.592	3981.19
960.896	3954.3
961.199	3929.67
961.502	3940.29
961.805	3906.39
962.108	3910.69
962.411	3897.13
962.714	3831.37
963.017	3831.59
963.32	3836.34
963.623	3780.52
963.926	3744.82
964.228	3784.82
964.531	3760.18
964.833	3781.88
965.136	3712.73
965.438	3707.98
965.741	3685.84
966.043	3675.44
966.345	3658.04
966.648	3597.25
966.95	3669.34
967.252	3576.91
967.554	3600.87
967.856	3577.14
968.158	3543.47
968.46	3584.82
968.761	3545.05
969.063	3510.02
969.365	3522.45
969.666	3487.2
969.968	3461.66
970.269	3493.3
970.571	3474.99
970.872	3447.88
971.174	3436.12
971.475	3350.25
971.776	3365.84
972.077	3340.08
972.378	3344.15
972.679	3371.27
972.98	3313.42
973.281	3312.29
973.582	3305.28
973.883	3282.68
974.183	3287.43
974.484	3250.37
974.785	3271.16
975.085	3255.11
975.386	3229.12
975.686	3203.36
975.986	3188.45
976.287	3192.97
976.587	3157.71
976.887	3135.79
977.187	3150.48
977.487	3115.45
977.787	3052.18
978.087	3078.62
978.387	3058.96
978.687	3069.81
978.987	3038.17
979.286	3018.96
979.586	3040.65
979.885	2994.78
980.185	2982.35
980.484	2984.61
980.784	2963.82
981.083	2940.54
981.382	2936.48
981.682	2906.65
981.981	2876.14
982.28	2899.64
982.579	2887.66
982.878	2898.74
983.177	2889.7
983.475	2878.62
983.774	2847.67
984.073	2856.48
984.372	2787.1
984.67	2788.01
984.969	2758.63
985.267	2750.49
985.566	2767.89
985.864	2708.23
986.162	2744.84
986.461	2717.95
986.759	2674.56
987.057	2671.4
987.355	2669.36
987.653	2617.84
987.951	2695.13
988.249	2636.82
988.547	2645.86
988.844	2617.39
989.142	2581.46
989.44	2574.68
989.737	2597.73
990.035	2562.47
990.332	2562.93
990.63	2545.53
990.927	2576.71
991.224	2523.61
991.521	2501.23
991.819	2545.75
992.116	2479.54
992.413	2509.82
992.71	2450.61
993.006	2444.74
993.303	2444.74
993.6	2420.33
993.897	2456.49
994.193	2430.73
994.49	2364.74
994.787	2385.76
995.083	2363.61
995.379	2334.23
995.676	2350.28
995.972	2307.79
996.268	2325.87
996.565	2348.7
996.861	2322.03
997.157	2315.93
997.453	2286.55
997.749	2279.09
998.044	2294.46
998.34	2265.31
998.636	2231.41
998.932	2233.9
999.227	2202.48
999.523	2204.52
999.818	2176.95
1000.114	2189.15
1000.409	2166.1
1000.704	2131.75
1001	2176.04
1001.295	2109.38
1001.59	2147.34
1001.885	2104.86
1002.18	2099.44
1002.475	2073.22
1002.77	2098.53
1003.065	2058.31
1003.359	2051.98
1003.654	2064.86
1003.949	2047.01
1004.243	2023.73
1004.538	2033
1004.832	2006.56
1005.127	2025.31
1005.421	1961.81
1005.715	1961.81
1006.009	1908.25
1006.304	1945.09
1006.598	1912.32
1006.892	1941.93
1007.186	1903.51
1007.48	1908.03
1007.773	1904.64
1008.067	1882.04
1008.361	1828.71
1008.655	1844.75
1008.948	1862.83
1009.242	1859.67
1009.535	1831.65
1009.829	1814.47
1010.122	1794.36
1010.415	1783.29
1010.708	1779.44
1011.001	1775.38
1011.295	1786.22
1011.588	1764.08
1011.881	1731.99
1012.173	1729.05
1012.466	1728.6
1012.759	1725.43
1013.052	1693.57
1013.344	1681.37
1013.637	1671.65
1013.93	1651.09
1014.222	1666.91
1014.514	1647.02
1014.807	1666.45
1015.099	1647.02
1015.391	1629.39
1015.683	1624.42
1015.976	1632.33
1016.268	1592.11
1016.56	1600.47
1016.851	1595.27
1017.143	1572.44
1017.435	1542.39
1017.727	1543.97
1018.018	1558.21
1018.31	1542.39
1018.602	1548.94
1018.893	1509.62
1019.185	1476.63
1019.476	1494.25
1019.767	1494.25
1020.058	1482.73
1020.35	1447.48
1020.641	1471.88
1020.932	1425.56
1021.223	1441.6
1021.514	1420.81
1021.804	1418.55
1022.095	1420.81
1022.386	1416.52
1022.677	1371.77
1022.967	1364.77
1023.258	1406.35
1023.548	1370.87
1023.839	1347.37
1024.129	1299.91
1024.419	1336.52
1024.709	1286.58
1025	1291.55
1025.29	1323.86
1025.58	1296.75
1025.87	1276.18
1026.16	1277.54
1026.449	1256.97
1026.739	1257.42
1027.029	1254.71
1027.319	1245.67
1027.608	1248.16
1027.898	1242.28
1028.187	1202.74
1028.477	1207.93
1028.766	1245.67
1029.055	1218.56
1029.344	1215.17
1029.634	1186.01
1029.923	1157.77
1030.212	1178.33
1030.501	1148.95
1030.79	1149.18
1031.078	1153.02
1031.367	1141.72
1031.656	1141.5
1031.945	1117.32
1032.233	1144.66
1032.522	1124.55
1032.81	1093.59
1033.099	1106.92
1033.387	1112.8
1033.675	1103.53
1033.963	1076.19
1034.251	1069.41
1034.54	1052.46
1034.828	1038
1035.116	1036.87
1035.403	1052.01
1035.691	1040.26
1035.979	1038.45
1036.267	995.74
1036.554	1017.88
1036.842	1017.66
1037.129	1031.22
1037.417	983.31
1037.704	978.79
1037.992	971.56
1038.279	967.49
1038.566	958.68
1038.853	958.68
1039.14	958.68
