Data from hue_38_FLMS001491_00020.txt Node
Date: Tue Feb 07 17:31:08 GMT 2017
User: dcchb
Spectrometer: FLMS00149
Trigger mode: 0
Integration Time (sec): 2.000000E-2
Scans to average: 10
Electric dark correction enabled: true
Nonlinearity correction enabled: false
Boxcar width: 0
XAxis mode: Wavelengths
Number of Pixels in Spectrum: 2048
>>>>>Begin Spectral Data<<<<<
341.393	-21.92
341.776	-21.92
342.16	-21.92
342.543	-35.25
342.927	-70.28
343.31	-83.16
343.693	-70.05
344.077	-76.16
344.46	-58.98
344.843	-56.5
345.226	-46.1
345.61	-30.28
345.993	-8.81
346.376	-3.62
346.759	26.89
347.142	23.28
347.525	44.07
347.908	59.89
348.291	77.51
348.674	92.2
349.057	109.83
349.44	138.75
349.823	142.6
350.206	154.35
350.588	195.25
350.971	218.07
351.354	212.2
351.737	234.8
352.119	252.65
352.502	270.28
352.884	268.69
353.267	294.23
353.65	310.73
354.032	329.26
354.414	295.36
354.797	313.66
355.179	318.41
355.562	315.02
355.944	325.64
356.326	326.77
356.709	335.36
357.091	331.97
357.473	354.57
357.855	347.79
358.238	332.87
358.62	361.35
359.002	353.44
359.384	353.89
359.766	336.71
360.148	336.04
360.53	350.05
360.912	347.79
361.294	346.66
361.676	323.16
362.057	337.39
362.439	348.47
362.821	328.35
363.203	317.96
363.584	324.51
363.966	317.51
364.348	331.06
364.729	331.06
365.111	312.76
365.493	326.77
365.874	321.57
366.256	323.83
366.637	321.35
367.019	337.62
367.4	345.08
367.781	333.32
368.163	322.48
368.544	321.57
368.925	316.6
369.306	312.99
369.688	337.39
370.069	324.74
370.45	317.73
370.831	348.92
371.212	334.68
371.593	318.18
371.974	311.86
372.355	334
372.736	315.02
373.117	320.22
373.498	322.03
373.879	327
374.26	317.28
374.641	324.29
375.021	340.78
375.402	329.26
375.783	342.14
376.163	331.06
376.544	335.13
376.925	342.14
377.305	334.45
377.686	329.48
378.066	332.65
378.447	329.48
378.827	335.58
379.208	324.74
379.588	340.78
379.968	335.36
380.349	326.32
380.729	344.62
381.109	336.71
381.489	329.26
381.87	370.84
382.25	333.32
382.63	343.27
383.01	335.81
383.39	345.98
383.77	346.43
384.15	339.65
384.53	357.73
384.91	375.58
385.29	352.08
385.67	363.61
386.049	339.65
386.429	343.49
386.809	340.78
387.189	365.41
387.568	362.7
387.948	345.3
388.328	356.37
388.707	379.43
389.087	382.14
389.466	357.96
389.846	366.77
390.225	362.93
390.605	371.74
390.984	379.2
391.363	348.69
391.743	352.08
392.122	376.94
392.501	368.58
392.881	367.9
393.26	357.73
393.639	376.26
394.018	385.98
394.397	364.06
394.776	386.43
395.155	364.96
395.534	380.55
395.913	382.14
396.292	374.68
396.671	385.53
397.05	375.58
397.429	360.89
397.808	382.59
398.186	394.11
398.565	399.76
398.944	397.96
399.323	385.75
399.701	386.2
400.08	410.16
400.458	370.61
400.837	431.63
401.215	421.23
401.594	402.48
401.972	403.15
402.351	393.66
402.729	408.58
403.107	429.59
403.486	419.65
403.864	411.51
404.242	424.17
404.62	440.89
404.999	421.23
405.377	399.31
405.755	405.19
406.133	438.18
406.511	420.33
406.889	428.92
407.267	427.11
407.645	430.95
408.023	417.16
408.401	462.36
408.779	446.77
409.156	449.03
409.534	425.07
409.912	440.89
410.29	465.98
410.667	457.39
411.045	454.45
411.422	458.07
411.8	442.25
412.178	463.04
412.555	447.45
412.933	470.95
413.31	478.41
413.687	484.06
414.065	468.24
414.442	465.75
414.819	479.31
415.197	503.72
415.574	477.05
415.951	485.18
416.328	497.16
416.705	468.69
417.082	483.15
417.46	486.09
417.837	503.26
418.214	498.07
418.591	521.34
418.967	512.75
419.344	514.79
419.721	517.73
420.098	521.79
420.475	530.16
420.852	539.42
421.228	536.71
421.605	537.39
421.982	514.79
422.358	540.55
422.735	536.03
423.111	541.23
423.488	545.75
423.864	568.57
424.241	547.78
424.617	548.91
424.994	553.43
425.37	562.47
425.746	565.18
426.123	548.46
426.499	580.32
426.875	548.23
427.251	567.67
427.627	594.33
428.003	596.14
428.379	596.59
428.756	582.13
429.132	608.35
429.507	633.66
429.883	616.03
430.259	622.13
430.635	604.05
431.011	638.18
431.387	634.79
431.763	644.28
432.138	634.56
432.514	661.9
432.89	635.01
433.265	655.58
433.641	667.78
434.016	670.26
434.392	656.71
434.767	679.53
435.143	690.38
435.518	684.5
435.894	690.6
436.269	688.34
436.644	686.99
437.02	701.9
437.395	704.61
437.77	715.01
438.145	703.71
438.52	738.74
438.895	736.93
439.271	746.65
439.646	748
440.021	757.49
440.395	751.17
440.77	746.2
441.145	786.19
441.52	787.55
441.895	776.02
442.27	771.96
442.645	782.13
443.019	786.87
443.394	810.15
443.769	786.65
444.143	793.43
444.518	810.15
444.892	796.14
445.267	809.47
445.641	788.23
446.016	822.58
446.39	811.28
446.764	809.7
447.139	784.84
447.513	824.39
447.887	842.24
448.262	827.77
448.636	809.47
449.01	848.34
449.384	843.14
449.758	845.85
450.132	849.7
450.506	843.59
450.88	881.78
451.254	862.8
451.628	879.75
452.002	901.22
452.376	900.54
452.75	892.63
453.123	908.45
453.497	914.1
453.871	947.09
454.244	947.09
454.618	945.51
454.992	957.04
455.365	939.41
455.739	959.52
456.112	992.97
456.486	994.78
456.859	991.61
457.232	1024.83
457.606	1025.51
457.979	1035.68
458.352	1048.11
458.725	1048.56
459.099	1056.92
459.472	1077.49
459.845	1054.89
460.218	1090.14
460.591	1114.77
460.964	1112.06
461.337	1134.43
461.71	1152.06
462.083	1173.53
462.456	1160.87
462.829	1154.09
463.201	1182.79
463.574	1219.85
463.947	1194.54
464.32	1245.84
464.692	1259.85
465.065	1247.42
465.438	1300.08
465.81	1300.76
466.183	1321.77
466.555	1328.1
466.928	1349.57
467.3	1361.32
467.672	1365.39
468.045	1402
468.417	1398.61
468.789	1440.19
469.161	1436.12
469.534	1486.97
469.906	1536.91
470.278	1554.31
470.65	1572.61
471.022	1563.57
471.394	1608.32
471.766	1641.31
472.138	1637.25
472.51	1672.05
472.882	1758.37
473.253	1763.12
473.625	1810.12
473.997	1835.66
474.369	1865.94
474.74	1877.92
475.112	1907.75
475.484	1953.62
475.855	1979.38
476.227	2049.66
476.598	2123.56
476.97	2125.82
477.341	2186.38
477.713	2232.03
478.084	2257.57
478.455	2313.84
478.827	2397.9
479.198	2496.21
479.569	2503.21
479.94	2582.53
480.311	2593.83
480.682	2707.27
481.053	2764.22
481.424	2849.87
481.795	2920.83
482.166	2967.61
482.537	3027.49
482.908	3184.1
483.279	3180.71
483.65	3290.76
484.021	3386.35
484.391	3454.82
484.762	3545.67
485.133	3574.14
485.503	3642.62
485.874	3802.84
486.244	3891.2
486.615	3967.81
486.985	4030.18
487.356	4168.48
487.726	4255.26
488.097	4357.17
488.467	4410.73
488.837	4548.81
489.207	4605.08
489.578	4743.15
489.948	4858.4
490.318	4927.33
490.688	5016.37
491.058	5135.46
491.428	5230.37
491.798	5348.33
492.168	5476.24
492.538	5582.9
492.908	5716.46
493.278	5755.55
493.648	5857.25
494.017	5997.13
494.387	6064.25
494.757	6217.46
495.126	6311.7
495.496	6358.93
495.866	6442.77
496.235	6605.7
496.605	6699.03
496.974	6782.87
497.344	6898.12
497.713	6963.66
498.082	7062.87
498.452	7146.48
498.821	7229.87
499.19	7331.78
499.559	7394.38
499.928	7458.11
500.298	7588.05
500.667	7675.28
501.036	7751.89
501.405	7870.98
501.774	7944.65
502.143	7973.58
502.512	8121.37
502.88	8215.83
503.249	8204.98
503.618	8274.58
503.987	8446.56
504.356	8507.12
504.724	8594.35
505.093	8616.95
505.462	8688.59
505.83	8827.11
506.199	8843.84
506.567	9044.51
506.936	9091.29
507.304	9196.14
507.672	9265.07
508.041	9249.47
508.409	9385.52
508.777	9420.54
509.145	9464.61
509.514	9621.44
509.882	9660.76
510.25	9657.83
510.618	9868.67
510.986	9827.09
511.354	9969.46
511.722	10058.04
512.09	10142.78
512.458	10090.36
512.826	10214.65
513.193	10400.63
513.561	10372.38
513.929	10439.95
514.297	10547.52
514.664	10564.02
515.032	10672.49
515.4	10676.1
515.767	10888.3
516.135	10818.7
516.502	10814.63
516.869	11051.46
517.237	11059.14
517.604	11103.89
517.972	11193.6
518.339	11253.26
518.706	11305.01
519.073	11336.65
519.44	11462.07
519.808	11593.82
520.175	11503.2
520.542	11655.96
520.909	11853.93
521.276	11776.64
521.643	11952.23
522.009	11984.09
522.376	12059.8
522.743	12104.99
523.11	12270.19
523.477	12301.37
523.843	12433.35
524.21	12505.21
524.577	12618.65
524.943	12716.95
525.31	12780.23
525.676	12901.81
526.043	12928.25
526.409	12946.33
526.776	13126.89
527.142	13140.67
527.508	13281.01
527.874	13384.51
528.241	13409.59
528.607	13443.71
528.973	13507.22
529.339	13618.17
529.705	13710.15
530.071	13813.87
530.437	13902.69
530.803	13983.36
531.169	14019.97
531.535	14073.08
531.901	14080.31
532.267	14178.16
532.632	14244.15
532.998	14262
533.364	14444.59
533.73	14433.29
534.095	14545.83
534.461	14644.36
534.826	14645.94
535.192	14674.87
535.557	14876.22
535.923	14770.69
536.288	14883.22
536.653	14965.93
537.019	14984.24
537.384	15044.8
537.749	15089.55
538.114	15150.56
538.479	15240.96
538.845	15252.71
539.21	15229.43
539.575	15369.54
539.94	15372.93
540.305	15531.34
540.67	15441.63
541.034	15551.23
541.399	15723.2
541.764	15752.13
542.129	15695.41
542.494	15802.52
542.858	15916.19
543.223	15782.41
543.587	16018.56
543.952	15988.73
544.316	16075.06
544.681	16049.97
545.045	16187.37
545.41	16238.9
545.774	16369.06
546.138	16279.8
546.503	16339.91
546.867	16376.52
547.231	16579.68
547.595	16675.49
547.959	16582.16
548.324	16685.66
548.688	16747.81
549.052	16830.97
549.416	16804.76
549.779	16900.35
550.143	16882.72
550.507	17018.54
550.871	17162.94
551.235	17087.69
551.599	17267.34
551.962	17279.32
552.326	17314.12
552.689	17427.56
553.053	17442.03
553.417	17379.2
553.78	17661.46
554.143	17662.59
554.507	17697.84
554.87	17698.74
555.234	17957.72
555.597	17816.71
555.96	17951.62
556.323	17979.41
556.686	18073.2
557.05	18100.54
557.413	18182.8
557.776	18177.83
558.139	18303.93
558.502	18291.5
558.865	18369.69
559.228	18524.48
559.59	18618.04
559.953	18576.91
560.316	18856.91
560.679	18787.53
561.041	18940.97
561.404	18962.67
561.767	19095.77
562.129	19038.14
562.492	19159.27
562.854	19086.28
563.217	19219.83
563.579	19303.45
563.941	19401.75
564.304	19553.84
564.666	19583.44
565.028	19650.33
565.39	19642.87
565.753	19804
566.115	19902.75
566.477	19956.76
566.839	20017.33
567.201	20133.26
567.563	20077.89
567.925	20326.47
568.287	20401.05
568.648	20381.84
569.01	20472
569.372	20553.58
569.734	20484.89
570.095	20775.05
570.457	20816.18
570.819	20908.83
571.18	20830.64
571.542	21134.81
571.903	21010.97
572.265	21227.46
572.626	21233.11
572.987	21289.38
573.349	21459.77
573.71	21546.1
574.071	21575.7
574.432	21625.87
574.794	21866.09
575.155	21864.28
575.516	21905.86
575.877	22056.37
576.238	22152.41
576.599	22205.74
576.96	22293.2
577.32	22455.68
577.681	22669.23
578.042	22790.14
578.403	22893.86
578.763	23024.93
579.124	23047.98
579.485	23268.54
579.845	23420.85
580.206	23633.73
580.566	23648.42
580.927	23713.73
581.287	23992.14
581.648	24080.04
582.008	24256.31
582.368	24405.91
582.728	24583.76
583.089	24599.81
583.449	24860.14
583.809	24981.94
584.169	25242.5
584.529	25328.37
584.889	25628.25
585.249	25559.1
585.609	25759.1
585.969	26141.46
586.329	26296.48
586.688	26501.45
587.048	26597.49
587.408	26749.13
587.768	26933.53
588.127	27121.55
588.487	27398.38
588.846	27742.1
589.206	27766.05
589.565	27993.39
589.925	28118.81
590.284	28357.45
590.643	28634.95
591.003	28857.09
591.362	29088.95
591.721	29206.92
592.08	29505.66
592.44	29879.89
592.799	29974.81
593.158	30059.55
593.517	30288.02
593.876	30558.97
594.235	30595.58
594.593	30775.01
594.952	31101.56
595.311	31126.64
595.67	31362.34
596.029	31733.63
596.387	31941.53
596.746	32194.86
597.104	32125.71
597.463	32389.88
597.822	32744.68
598.18	32625.81
598.538	32965.69
598.897	33375.62
599.255	33273.02
599.613	33769.73
599.972	33795.27
600.33	33832.33
600.688	33908.71
601.046	34259.66
601.404	34615.14
601.762	34647
602.12	34927.44
602.478	35049.7
602.836	35207.89
603.194	35256.47
603.552	35344.38
603.91	35422.57
604.268	35674.99
604.625	35713.86
604.983	36110.01
605.341	35887.42
605.698	36357.69
606.056	36580.96
606.413	36639.49
606.771	36852.82
607.128	36991.12
607.485	36916.09
607.843	37069.08
608.2	37399.47
608.557	37579.8
608.914	37593.81
609.272	37745
609.629	37910.64
609.986	38194.48
610.343	38117.64
610.7	38562.15
611.057	38470.4
611.414	38558.53
611.771	38814.35
612.127	38941.8
612.484	38960.56
612.841	39247.33
613.198	39057.5
613.554	39253.88
613.911	39522.58
614.267	39583.59
614.624	39573.42
614.98	39727.54
615.337	39967.76
615.693	39943.13
616.05	39989.68
616.406	40344.48
616.762	40345.15
617.118	40325.95
617.475	40377.24
617.831	40402.55
618.187	40570.91
618.543	40782.43
618.899	40881.86
619.255	40929.77
619.611	40892.48
619.967	41041.63
620.323	41219.93
620.678	41170.44
621.034	41209.31
621.39	41169.54
621.746	41267.16
622.101	41725.91
622.457	41557.78
622.812	41543.09
623.168	41772.46
623.523	41699.69
623.879	41904.43
624.234	41727.04
624.589	41910.99
624.945	41864.21
625.3	42042.06
625.655	41972.68
626.01	41933.36
626.365	42062.85
626.72	42182.17
627.075	42155.28
627.43	42187.14
627.785	42094.03
628.14	42216.74
628.495	42326.57
628.85	42167.48
629.205	42180.81
629.559	42385.33
629.914	42391.2
630.269	42283.63
630.623	42271.2
630.978	42166.57
631.332	42462.61
631.687	42354.37
632.041	42237.76
632.396	42387.36
632.75	42171.55
633.104	42293.58
633.459	42211.55
633.813	42143.98
634.167	42255.61
634.521	42277.08
634.875	42496.51
635.229	42372.22
635.583	42123.19
635.937	42169.74
636.291	42221.49
636.645	42215.16
636.999	42071.89
637.352	42246.57
637.706	42045
638.06	42253.58
638.413	42102.17
638.767	42032.34
639.121	42119.12
639.474	41893.59
639.828	41844.55
640.181	41872.12
640.534	42048.84
640.888	41883.87
641.241	41767.49
641.594	41834.38
641.947	41923.42
642.301	41821.27
642.654	41762.52
643.007	41829.86
643.36	41862.18
643.713	41817.66
644.066	41929.97
644.419	41594.61
644.771	41498.8
645.124	41014.74
645.477	41139.94
645.83	40798.93
646.182	40693.85
646.535	40635.32
646.888	40819.49
647.24	40505.38
647.593	40761.19
647.945	40635.99
648.298	40496.34
648.65	40381.31
649.002	40380.18
649.355	40538.37
649.707	40442.1
650.059	40844.12
650.411	41084.12
650.763	41154.62
651.115	41581.05
651.467	41380.61
651.819	41441.85
652.171	41286.6
652.523	41194.62
652.875	41143.78
653.227	40967.96
653.578	41233.49
653.93	41215.64
654.282	41049.99
654.633	40840.28
654.985	41055.19
655.337	40978.13
655.688	41020.39
656.039	41231.01
656.391	40880.96
656.742	40930.9
657.094	40947.62
657.445	41070.78
657.796	40961.41
658.147	40923.9
658.498	40979.94
658.849	41001.18
659.2	40829.66
659.551	40877.34
659.902	41012.93
660.253	40905.37
660.604	40966.38
660.955	40844.58
661.306	40941.75
661.656	40834.18
662.007	40809.55
662.358	40951.24
662.708	40737.91
663.059	40882.54
663.409	40659.5
663.76	40921.41
664.11	40897
664.461	40715.77
664.811	40814.75
665.161	40821.53
665.511	40662.21
665.862	40760.74
666.212	40802.54
666.562	40969.77
666.912	40707.4
667.262	40694.52
667.612	40784.01
667.962	40864.24
668.312	40851.81
668.662	40845.25
669.011	40715.54
669.361	40688.87
669.711	40576.33
670.06	40510.57
670.41	40531.82
670.76	40578.14
671.109	40694.75
671.459	40567.97
671.808	40395.32
672.157	40603
672.507	40339.28
672.856	40297.25
673.205	40451.14
673.554	40448.88
673.904	40360.52
674.253	40626.95
674.602	40483.46
674.951	40015.22
675.3	39709.69
675.649	40438.71
675.998	40206.4
676.346	40412.72
676.695	40562.55
677.044	40146.06
677.393	40201.88
677.741	40440.29
678.09	40253.18
678.438	40159.85
678.787	40135.67
679.135	40233.52
679.484	39935.9
679.832	40045.5
680.181	39848.9
680.529	39911.27
680.877	39751.72
681.225	39701.78
681.573	40171.15
681.922	39854.32
682.27	39771.84
682.618	39659.97
682.966	39504.27
683.314	39584.95
683.661	39528
684.009	39342.92
684.357	39197.16
684.705	39119.65
685.053	39298.18
685.4	39244.84
685.748	39096.37
686.095	39080.1
686.443	39046.2
686.79	38907.23
687.138	38953.33
687.485	38899.09
687.832	38916.94
688.18	38857.96
688.527	38678.31
688.874	38651.87
689.221	38491.64
689.568	38435.15
689.915	38478.99
690.262	38277.86
690.609	38331.87
690.956	38325.55
691.303	38148.6
691.65	38029.28
691.997	38023.41
692.344	37710.42
692.69	37797.42
693.037	37683.75
693.383	37523.76
693.73	37639.91
694.077	37391.33
694.423	37292.35
694.769	37343.42
695.116	37183.43
695.462	37265.69
695.808	37022.76
696.155	37102.53
696.501	36820.5
696.847	36661.86
697.193	36544.12
697.539	36726.94
697.885	36523.33
698.231	36368.08
698.577	36425.93
698.923	36322.66
699.269	36098.71
699.614	35938.26
699.96	36049.9
700.306	35869.34
700.651	35820.3
700.997	35653.3
701.342	35554.09
701.688	35562
702.033	35448.56
702.379	35428.67
702.724	35421.44
703.069	35467.99
703.415	34929.03
703.76	35085.18
704.105	35028.68
704.45	34894.22
704.795	34777.62
705.14	34661.24
705.485	34523.16
705.83	34441.35
706.175	34461.92
706.52	34454.24
706.865	34201.13
707.209	34336.27
707.554	34144.41
707.899	34143.96
708.243	34017.64
708.588	33985.32
708.932	33798.21
709.277	33808.6
709.621	33782.16
709.966	33613.81
710.31	33683.63
710.654	33440.02
710.998	33273.48
711.342	33388.95
711.687	33314.83
712.031	33134.04
712.375	33045.23
712.719	33078
713.063	32975.4
713.407	33103.31
713.75	32903.99
714.094	32904.22
714.438	32634.85
714.782	32779.25
715.125	32629.42
715.469	32776.77
715.812	32491.35
716.156	32333.16
716.499	32314.18
716.843	32393.95
717.186	32115.54
717.53	32267.63
717.873	32296.78
718.216	32249.55
718.559	32085.48
718.902	31783.12
719.246	31907.41
719.589	31802.78
719.932	31784.25
720.275	31826.06
720.617	31647.08
720.96	31628.77
721.303	31504.71
721.646	31507.19
721.989	31383.36
722.331	31537.25
722.674	31311.72
723.016	31484.37
723.359	31390.81
723.701	31404.6
724.044	31154.66
724.386	30990.6
724.729	31184.49
725.071	31124.61
725.413	31029.69
725.755	30941.33
726.097	30931.62
726.439	30850.49
726.782	30851.17
727.124	30862.69
727.465	30691.4
727.807	30713.32
728.149	30615.01
728.491	30530.27
728.833	30573.21
729.175	30573.89
729.516	30473.32
729.858	30342.25
730.199	30368.69
730.541	30220.9
730.882	30208.47
731.224	30344.29
731.565	30073.56
731.906	30153.56
732.248	30224.74
732.589	29992.66
732.93	29873.79
733.271	29989.27
733.612	29988.36
733.953	30017.06
734.294	29918.08
734.635	29912.66
734.976	29849.16
735.317	29730.74
735.658	29515.16
735.999	29696.62
736.339	29686.45
736.68	29666.11
737.021	29347.48
737.361	29513.35
737.702	29550.41
738.042	29390.19
738.383	29282.85
738.723	29531.43
739.063	29328.95
739.404	29354.48
739.744	29246.91
740.084	29077.65
740.424	29159.46
740.764	29160.82
741.104	29216.63
741.444	29074.49
741.784	28854.16
742.124	28916.53
742.464	28957.66
742.804	28930.99
743.143	28832.46
743.483	28846.47
743.823	28675.4
744.162	28683.99
744.502	28674.27
744.841	28529.87
745.181	28633.82
745.52	28510.66
745.86	28551.11
746.199	28561.96
746.538	28381.4
746.877	28590.66
747.216	28484.9
747.556	28275.87
747.895	28400.38
748.234	28200.16
748.573	28238.13
748.911	28207.62
749.25	28161.29
749.589	27959.94
749.928	28022.09
750.267	28020.51
750.605	28036.78
750.944	27930.57
751.283	27769.44
751.621	27804.24
751.96	27690.12
752.298	27696.9
752.636	27725.37
752.975	27560.86
753.313	27485.83
753.651	27703.23
753.989	27444.7
754.327	27401.09
754.666	27220.3
755.004	27303.01
755.342	27239.51
755.679	27347.53
756.017	27015.56
756.355	27149.79
756.693	26886.52
757.031	27084.71
757.368	26873.64
757.706	26796.36
758.044	26728.34
758.381	26832.51
758.719	26718.62
759.056	26701.44
759.394	26519.98
759.731	26429.81
760.068	26229.14
760.405	26249.71
760.743	26250.16
761.08	26237.95
761.417	26087.9
761.754	26097.17
762.091	26009.49
762.428	25904.18
762.765	25737.4
763.102	25846.33
763.438	25650.4
763.775	25663.28
764.112	25628.25
764.449	25640
764.785	25428.03
765.122	25240.24
765.458	25222.61
765.795	25129.28
766.131	25186.68
766.467	24975.84
766.804	24993.02
767.14	24787.6
767.476	24819.69
767.812	24664.21
768.148	24704.66
768.485	24517.1
768.821	24445.91
769.157	24370.21
769.492	24275.29
769.828	24367.49
770.164	24056.77
770.5	24072.14
770.836	24055.19
771.171	23982.65
771.507	23782.2
771.842	23661.75
772.178	23671.02
772.513	23678.25
772.849	23454.98
773.184	23335.88
773.519	23477.57
773.855	23316.45
774.19	23187.86
774.525	23012.73
774.86	23134.53
775.195	22952.84
775.53	22899.06
775.865	22753.07
776.2	22707.65
776.535	22554.89
776.87	22569.8
777.205	22404.61
777.539	22245.97
777.874	22321.45
778.209	22196.03
778.543	22064.05
778.878	21944.51
779.212	22030.38
779.547	21864.06
779.881	21923.49
780.215	21756.04
780.55	21750.16
780.884	21594.46
781.218	21466.78
781.552	21558.98
781.886	21358.76
782.22	21239.89
782.554	21152.89
782.888	21015.27
783.222	20984.76
783.556	20909.96
783.889	20853.91
784.223	20658.67
784.557	20701.6
784.89	20667.71
785.224	20576.41
785.557	20545.67
785.891	20376.19
786.224	20405.34
786.558	20338.22
786.891	20219.36
787.224	20117.21
787.557	20056.42
787.891	20019.81
788.224	20003.09
788.557	19989.53
788.89	19856.2
789.223	19700.5
789.556	19689.43
789.888	19644.46
790.221	19592.71
790.554	19474.06
790.887	19496.66
791.219	19379.38
791.552	19329.44
791.884	19164.69
792.217	19176.44
792.549	19063
792.882	18960.41
793.214	18851.48
793.546	18885.61
793.879	18878.15
794.211	18719.51
794.543	18825.49
794.875	18649.68
795.207	18750.02
795.539	18512.73
795.871	18517.48
796.203	18355.68
796.535	18265.96
796.867	18191.16
797.198	18300.76
797.53	18123.14
797.862	18075.68
798.193	18078.62
798.525	18029.81
798.856	17939.87
799.188	17749.82
799.519	17832.3
799.85	17677.5
800.182	17668.69
800.513	17655.58
800.844	17443.38
801.175	17571.97
801.506	17564.74
801.837	17451.74
802.168	17449.26
802.499	17354.35
802.83	17269.6
803.161	17302.37
803.491	17208.81
803.822	17170.17
804.153	17144.41
804.483	17051.98
804.814	16827.58
805.145	16891.99
805.475	16987.35
805.805	16778.54
806.136	16771.31
806.466	16771.31
806.796	16719.56
807.126	16638.88
807.457	16583.29
807.787	16525.67
808.117	16468.72
808.447	16333.58
808.777	16424.88
809.107	16289.06
809.436	16360.93
809.766	16294.03
810.096	16182.63
810.426	16112.57
810.755	16184.43
811.085	16104.89
811.414	16103.76
811.744	15928.62
812.073	16033.93
812.403	15918
812.732	15827.38
813.061	15871.9
813.39	15752.35
813.719	15734.73
814.049	15838.45
814.378	15737.89
814.707	15651.11
815.036	15549.42
815.365	15456.54
815.693	15425.81
816.022	15409.31
816.351	15428.07
816.68	15255.87
817.008	15308.75
817.337	15138.36
817.665	15185.36
817.994	15206.15
818.322	15058.14
818.651	15047.51
818.979	15126.83
819.307	15173.84
819.636	15104.24
819.964	14967.29
820.292	14977.46
820.62	15010.45
820.948	14927.07
821.276	14921.64
821.604	14865.6
821.932	14903.56
822.259	15020.85
822.587	14878.48
822.915	14868.99
823.243	14866.5
823.57	14807.29
823.898	14801.87
824.225	14810.23
824.553	14866.95
824.88	14856.56
825.207	14847.97
825.535	14782.21
825.862	14878.7
826.189	14750.57
826.516	14845.26
826.843	14889.33
827.17	14924.35
827.497	14809.33
827.824	14834.64
828.151	14865.15
828.478	14775.88
828.805	14956.67
829.131	14828.08
829.458	14737.92
829.785	14696.34
830.111	14821.53
830.438	14775.43
830.764	14796.67
831.09	14803.45
831.417	14749.22
831.743	14765.26
832.069	14801.87
832.395	14581.54
832.722	14700.86
833.048	14676.68
833.374	14727.97
833.7	14613.18
834.026	14676.9
834.351	14635.77
834.677	14645.26
835.003	14703.79
835.329	14685.72
835.654	14597.58
835.98	14601.65
836.306	14546.51
836.631	14449.79
836.956	14541.54
837.282	14496.12
837.607	14376.57
837.932	14345.39
838.258	14377.02
838.583	14371.6
838.908	14335.67
839.233	14340.64
839.558	14312.39
839.883	14357.36
840.208	14192.62
840.533	14259.51
840.858	14180.42
841.182	14198.72
841.507	14162.34
841.832	14084.6
842.156	14100.65
842.481	14083.92
842.805	14019.29
843.13	13964.83
843.454	14062.91
843.778	13933.19
844.103	13930.93
844.427	13918.96
844.751	13862.23
845.075	13839.18
845.399	13716.93
845.723	13735.68
846.047	13677.61
846.371	13566.87
846.695	13604.16
847.019	13469.93
847.343	13456.6
847.666	13331.63
847.99	13390.61
848.313	13307.9
848.637	13201.91
848.96	13195.59
849.284	13146.32
849.607	13058.87
849.931	13041.69
850.254	12923.28
850.577	12846.44
850.9	12789.04
851.223	12780.23
851.546	12733
851.869	12645.54
852.192	12762.15
852.515	12584.08
852.838	12571.42
853.161	12464.53
853.483	12487.36
853.806	12414.59
854.129	12310.86
854.451	12226.57
854.774	12305.21
855.096	12196.52
855.419	12218.44
855.741	12236.51
856.063	12139.12
856.385	12044.2
856.708	12064.99
857.03	11935.73
857.352	11992.23
857.674	11900.25
857.996	11944.09
858.318	11807.83
858.64	11837.88
858.961	11771.67
859.283	11734.38
859.605	11640.6
859.926	11719.01
860.248	11699.81
860.57	11647.15
860.891	11632.24
861.212	11540.49
861.534	11493.03
861.855	11453.26
862.176	11497.55
862.498	11523.76
862.819	11561.73
863.14	11405.35
863.461	11382.07
863.782	11359.02
864.103	11371.9
864.424	11371.45
864.745	11351.79
865.065	11296.2
865.386	11295.07
865.707	11235.86
866.027	11307.05
866.348	11269.53
866.668	11296.65
866.989	11202.64
867.309	11166.03
867.63	11202.64
867.95	11142.76
868.27	11015.53
868.59	11136.88
868.91	11038.35
869.23	11062.31
869.55	11046.49
869.87	11056.43
870.19	11009.43
870.51	10975.76
870.83	10936.44
871.15	10863.9
871.469	10914.74
871.789	10863.44
872.109	10896.21
872.428	10877.91
872.748	10884.01
873.067	10858.92
873.386	10805.37
873.706	10822.09
874.025	10789.32
874.344	10735.08
874.663	10776.67
874.982	10747.06
875.301	10688.08
875.62	10686.95
875.939	10710.23
876.258	10632.26
876.577	10621.19
876.896	10626.61
877.214	10585.48
877.533	10552.26
877.852	10605.14
878.17	10561.98
878.489	10561.53
878.807	10517.92
879.125	10482.66
879.444	10459.61
879.762	10423
880.08	10448.76
880.398	10398.6
880.716	10357.24
881.034	10379.39
881.352	10427.52
881.67	10313.18
881.988	10350.24
882.306	10189.11
882.624	10242.67
882.941	10202.44
883.259	10183.01
883.577	10152.73
883.894	10147.08
884.212	10135.55
884.529	10148.66
884.846	10126.97
885.164	10033.63
885.481	10029.79
885.798	10035.44
886.115	10035.22
886.432	9999.96
886.75	9955.44
887.067	9946.86
887.383	9915.67
887.7	9919.97
888.017	9864.83
888.334	9856.01
888.651	9795.22
888.967	9815.11
889.284	9756.35
889.6	9700.99
889.917	9629.58
890.233	9726.52
890.55	9607.43
890.866	9641.1
891.182	9613.76
891.498	9580.77
891.815	9472.07
892.131	9508.68
892.447	9472.75
892.763	9505.96
893.079	9408.34
893.395	9434.33
893.71	9385.52
894.026	9404.27
894.342	9309.81
894.657	9242.92
894.973	9249.25
895.289	9209.7
895.604	9224.62
895.92	9219.64
896.235	9134.9
896.55	9118.18
896.865	9072.08
897.181	9065.98
897.496	9030.72
897.811	9011.51
898.126	8945.53
898.441	8928.58
898.756	8942.14
899.071	8835.25
899.386	8903.27
899.7	8797.51
900.015	8775.81
900.33	8732.88
900.644	8696.04
900.959	8720.67
901.273	8671.18
901.588	8604.29
901.902	8561.58
902.216	8556.84
902.531	8484.07
902.845	8498.08
903.159	8392.32
903.473	8381.02
903.787	8404.98
904.101	8394.13
904.415	8388.71
904.729	8316.62
905.042	8287.47
905.356	8280.46
905.67	8230.97
905.984	8222.61
906.297	8176.06
906.611	8141.25
906.924	8141.03
907.237	8078.43
907.551	8007.25
907.864	8036.4
908.177	7932.22
908.491	7996.17
908.804	7913.92
909.117	7917.08
909.43	7817.2
909.743	7776.74
910.056	7788.27
910.368	7731.32
910.681	7681.15
910.994	7667.14
911.307	7655.39
911.619	7551.67
911.932	7556.41
912.244	7534.49
912.557	7552.12
912.869	7499.24
913.181	7426.7
913.494	7420.6
913.806	7385.34
914.118	7341.28
914.43	7285.46
914.742	7358.68
915.054	7299.47
915.366	7282.75
915.678	7271.67
915.99	7157.1
916.302	7141.06
916.613	7168.85
916.925	7107.61
917.236	7071.9
917.548	7026.03
917.859	6980.16
918.171	7014.96
918.482	6990.78
918.794	6941.74
919.105	6978.57
919.416	6862.19
919.727	6873.27
920.038	6852.48
920.349	6797.11
920.66	6749.2
920.971	6740.61
921.282	6756.43
921.593	6720.28
921.903	6616.55
922.214	6599.15
922.525	6577.23
922.835	6539.04
923.146	6496.33
923.456	6482.77
923.767	6471.47
924.077	6456.78
924.387	6439.15
924.697	6418.81
925.008	6372.71
925.318	6381.75
925.628	6346.05
925.938	6335.43
926.248	6226.95
926.558	6222.44
926.867	6235.32
927.177	6215.88
927.487	6176.33
927.796	6133.4
928.106	6148.99
928.416	6075.32
928.725	6076
929.034	6010.24
929.344	6025.83
929.653	5958.04
929.962	5888.88
930.271	5927.98
930.581	5870.81
930.89	5906.06
931.199	5800.75
931.508	5799.85
931.817	5815.89
932.125	5800.98
932.434	5772.5
932.743	5702.22
933.051	5709
933.36	5654.31
933.669	5573.86
933.977	5627.2
934.286	5625.16
934.594	5611.83
934.902	5560.53
935.21	5480.31
935.519	5534.32
935.827	5473.75
936.135	5534.09
936.443	5410.48
936.751	5435.11
937.059	5398.5
937.367	5361.67
937.674	5341.33
937.982	5354.21
938.29	5238.73
938.597	5272.4
938.905	5238.51
939.213	5226.76
939.52	5218.62
939.827	5215.46
940.135	5161.67
940.442	5142.01
940.749	5146.98
941.056	5109.24
941.363	5040.32
941.67	5093.43
941.977	5023.82
942.284	4958.74
942.591	5016.82
942.898	4965.29
943.205	4982.47
943.511	4982.69
943.818	4933.2
944.125	4854.56
944.431	4870.15
944.738	4871.28
945.044	4856.82
945.35	4786.54
945.657	4778.63
945.963	4752.64
946.269	4741.12
946.575	4749.71
946.881	4728.46
947.187	4679.88
947.493	4650.05
947.799	4604.17
948.105	4621.35
948.41	4629.26
948.716	4580.67
949.022	4575.02
949.327	4538.41
949.633	4481.01
949.938	4487.34
950.244	4515.36
950.549	4464.52
950.854	4469.04
951.16	4411.64
951.465	4452.76
951.77	4405.31
952.075	4340.22
952.38	4360.56
952.685	4323.73
952.99	4341.35
953.294	4276.5
953.599	4258.19
953.904	4207.57
954.209	4237.85
954.513	4247.12
954.818	4209.38
955.122	4200.57
955.426	4154.47
955.731	4107.24
956.035	4109.27
956.339	4119.89
956.643	4104.75
956.948	4050.97
957.252	4015.94
957.556	4036.73
957.86	4027.24
958.163	4005.32
958.467	3954.25
958.771	3961.03
959.075	3968.26
959.378	3964.42
959.682	3934.59
959.985	3891.42
960.289	3900.46
960.592	3856.62
960.896	3840.58
961.199	3815.27
961.502	3806
961.805	3791.76
962.108	3764.87
962.411	3755.83
962.714	3776.17
963.017	3704.54
963.32	3760.13
963.623	3691.65
963.926	3699.34
964.228	3655.27
964.531	3663.41
964.833	3643.97
965.136	3616.4
965.438	3610.53
965.741	3551.55
966.043	3550.42
966.345	3512.9
966.648	3549.74
966.95	3520.59
967.252	3546.35
967.554	3492.11
967.856	3493.02
968.158	3471.55
968.46	3467.93
968.761	3449.17
969.063	3398.33
969.365	3430.64
969.666	3383.64
969.968	3382.74
970.269	3346.8
970.571	3341.16
970.872	3332.34
971.174	3302.74
971.475	3283.76
971.776	3314.72
972.077	3305.22
972.378	3263.87
972.679	3239.69
972.98	3235.62
973.281	3250.99
973.582	3200.37
973.883	3219.8
974.183	3180.71
974.484	3144.32
974.785	3136.41
975.085	3119.69
975.386	3152.46
975.686	3102.29
975.986	3091.67
976.287	3100.48
976.587	3069.07
976.887	3047.38
977.187	3067.49
977.487	3037.43
977.787	3018
978.087	2978.9
978.387	3005.57
978.687	2995.4
978.987	2947.72
979.286	2982.07
979.586	2922.41
979.885	2880.6
980.185	2899.81
980.484	2856.42
980.784	2906.82
981.083	2913.37
981.382	2851.22
981.682	2865.46
981.981	2847.83
982.28	2792.02
982.579	2786.37
982.878	2839.25
983.177	2799.7
983.475	2782.75
983.774	2759.25
984.073	2742.98
984.372	2722.64
984.67	2732.13
984.969	2688.97
985.267	2690.1
985.566	2678.35
985.864	2665.69
986.162	2650.1
986.461	2634.73
986.759	2632.7
987.057	2617.78
987.355	2604.23
987.653	2614.62
987.951	2617.56
988.249	2604.9
988.547	2560.84
988.844	2529.2
989.142	2550.89
989.44	2545.47
989.737	2550.89
990.035	2533.72
990.332	2456.88
990.63	2491.46
990.927	2481.74
991.224	2451.91
991.521	2469.31
991.819	2422.99
992.116	2454.62
992.413	2412.82
992.71	2392.93
993.006	2402.42
993.303	2388.19
993.6	2343.67
993.897	2397.9
994.193	2346.15
994.49	2345.02
994.787	2322.88
995.083	2324.01
995.379	2290.79
995.676	2301.63
995.972	2278.36
996.268	2268.41
996.565	2274.74
996.861	2279.71
997.157	2227.06
997.453	2231.35
997.749	2222.31
998.044	2218.25
998.34	2193.39
998.636	2208.76
998.932	2192.03
999.227	2182.32
999.523	2138.47
999.818	2110.9
1000.114	2135.09
1000.409	2118.36
1000.704	2100.74
1001	2117.91
1001.295	2097.57
1001.59	2112.49
1001.885	2065.93
1002.18	2066.39
1002.475	2022.55
1002.77	2024.58
1003.065	2020.96
1003.359	2018.03
1003.654	1996.56
1003.949	1986.84
1004.243	1976.9
1004.538	1954.98
1004.832	1956.56
1005.127	1935.77
1005.421	1934.86
1005.715	1905.71
1006.009	1932.83
1006.304	1887.63
1006.598	1887.63
1006.892	1901.64
1007.186	1857.8
1007.48	1886.05
1007.773	1807.86
1008.067	1826.39
1008.361	1859.84
1008.655	1837.24
1008.948	1812.83
1009.242	1807.18
1009.535	1809.44
1009.829	1799.27
1010.122	1783.46
1010.415	1744.81
1010.708	1746.39
1011.001	1750.46
1011.295	1731.48
1011.588	1719.73
1011.881	1711.37
1012.173	1713.63
1012.466	1685.61
1012.759	1695.1
1013.052	1673.18
1013.344	1672.27
1013.637	1652.84
1013.93	1625.04
1014.222	1617.36
1014.514	1591.14
1014.807	1582.78
1015.099	1582.78
1015.391	1580.07
1015.683	1568.09
1015.976	1563.12
1016.268	1606.74
1016.56	1587.98
1016.851	1555.21
1017.143	1559.73
1017.435	1525.38
1017.727	1523.8
1018.018	1533.52
1018.31	1493.07
1018.602	1504.37
1018.893	1490.81
1019.185	1498.27
1019.476	1454.2
1019.767	1476.8
1020.058	1437.93
1020.35	1421.21
1020.641	1404.03
1020.932	1421.66
1021.223	1406.29
1021.514	1426.18
1021.804	1363.81
1022.095	1362
1022.386	1363.35
1022.677	1353.64
1022.967	1350.47
1023.258	1346.18
1023.548	1357.7
1023.839	1355.67
1024.129	1327.65
1024.419	1310.25
1024.709	1307.31
1025	1310.25
1025.29	1298.27
1025.58	1274.77
1025.87	1281.77
1026.16	1264.15
1026.449	1269.8
1026.739	1268.22
1027.029	1240.65
1027.319	1225.73
1027.608	1237.03
1027.898	1242.45
1028.187	1221.66
1028.477	1160.2
1028.766	1163.36
1029.055	1186.64
1029.344	1197.03
1029.634	1174.66
1029.923	1165.17
1030.212	1161.33
1030.501	1135.34
1030.79	1113.64
1031.078	1141.66
1031.367	1111.16
1031.656	1123.36
1031.945	1115.9
1032.233	1086.07
1032.522	1090.82
1032.81	1112.74
1033.099	1086.53
1033.387	1055.34
1033.675	1070.03
1033.963	1049.92
1034.251	1075.68
1034.54	1028.22
1034.828	1046.3
1035.116	1053.08
1035.403	1035.68
1035.691	1008.11
1035.979	1008.79
1036.267	1027.09
1036.554	990.26
1036.842	980.31
1037.129	979.86
1037.417	996.36
1037.704	976.92
1037.992	995
1038.279	959.52
1038.566	961.56
1038.853	961.56
1039.14	961.56
