Data from hue_26_FLMS001491_00065.txt Node
Date: Tue Feb 07 17:14:21 GMT 2017
User: dcchb
Spectrometer: FLMS00149
Trigger mode: 0
Integration Time (sec): 2.000000E-2
Scans to average: 10
Electric dark correction enabled: true
Nonlinearity correction enabled: false
Boxcar width: 0
XAxis mode: Wavelengths
Number of Pixels in Spectrum: 2048
>>>>>Begin Spectral Data<<<<<
341.393	-10.47
341.776	-10.47
342.16	-10.47
342.543	-66.06
342.927	-70.35
343.31	-79.16
343.693	-64.02
344.077	-80.75
344.46	-49.11
344.843	-32.39
345.226	-45.72
345.61	-29.9
345.993	-7.3
346.376	-2.56
346.759	-6.62
347.142	2.87
347.525	42.41
347.908	67.05
348.291	96.65
348.674	84.67
349.057	103.88
349.44	126.03
349.823	131.45
350.206	192.69
350.588	188.17
350.971	199.92
351.354	218.68
351.737	240.38
352.119	251.22
352.502	267.72
352.884	275.63
353.267	310.2
353.65	276.53
354.032	313.59
354.414	323.08
354.797	352.91
355.179	326.25
355.562	335.29
355.944	323.08
356.326	347.26
356.709	341.62
357.091	346.13
357.473	355.17
357.855	334.61
358.238	356.98
358.62	351.11
359.002	329.86
359.384	342.97
359.766	345.68
360.148	353.82
360.53	356.98
360.912	330.77
361.294	329.19
361.676	327.15
362.057	332.12
362.439	334.16
362.821	336.19
363.203	330.09
363.584	334.61
363.966	339.13
364.348	346.36
364.729	351.56
365.111	304.78
365.493	323.76
365.874	299.13
366.256	333.03
366.637	323.31
367.019	315.18
367.4	334.38
367.781	322.41
368.163	327.83
368.544	326.93
368.925	345.46
369.306	344.1
369.688	337.1
370.069	337.77
370.45	349.52
370.831	319.69
371.212	321.5
371.593	319.92
371.974	328.73
372.355	311.79
372.736	315.63
373.117	334.38
373.498	335.51
373.879	327.83
374.26	300.71
374.641	317.66
375.021	342.29
375.402	319.02
375.783	313.37
376.163	332.35
376.544	334.61
376.925	343.88
377.305	327.83
377.686	340.94
378.066	315.4
378.447	344.55
378.827	331.45
379.208	333.03
379.588	371.67
379.968	350.65
380.349	344.1
380.729	353.82
381.109	367.83
381.489	352.46
381.87	357.43
382.25	358.11
382.63	354.72
383.01	347.49
383.39	356.76
383.77	364.21
384.15	383.65
384.53	372.12
384.91	364.67
385.29	366.47
385.67	354.5
386.049	355.85
386.429	360.37
386.809	359.47
387.189	373.93
387.568	384.33
387.948	363.99
388.328	394.04
388.707	355.63
389.087	402.18
389.466	372.12
389.846	367.38
390.225	397.43
390.605	380.94
390.984	379.81
391.363	380.26
391.743	384.33
392.122	394.72
392.501	376.19
392.881	391.56
393.26	412.8
393.639	404.21
394.018	394.27
394.397	402.18
394.776	417.55
395.155	426.81
395.534	413.7
395.913	396.98
396.292	413.7
396.671	427.49
397.05	425.23
397.429	435.17
397.808	443.76
398.186	412.35
398.565	429.3
398.944	414.83
399.323	434.72
399.701	429.52
400.08	417.09
400.458	448.05
400.837	448.05
401.215	451.67
401.594	436.75
401.972	415.51
402.351	424.1
402.729	429.3
403.107	439.69
403.486	448.96
403.864	424.33
404.242	467.26
404.62	442.18
404.999	459.58
405.377	468.62
405.755	478.56
406.133	463.87
406.511	466.81
406.889	469.3
407.267	463.87
407.645	477.2
408.023	490.31
408.401	483.31
408.779	488.96
409.156	485.11
409.534	479.01
409.912	502.29
410.29	520.82
410.667	496.41
411.045	509.75
411.422	487.15
411.8	513.59
412.178	500.03
412.555	505.45
412.933	534.38
413.31	537.09
413.687	515.4
414.065	514.27
414.442	517.43
414.819	563.3
415.197	509.29
415.574	564.66
415.951	562.4
416.328	536.86
416.705	558.78
417.082	540.71
417.46	560.82
417.837	553.14
418.214	564.89
418.591	568.28
418.967	579.35
419.344	571.21
419.721	566.24
420.098	565.11
420.475	596.52
420.852	607.37
421.228	596.75
421.605	605.34
421.982	630.2
422.358	610.08
422.735	611.89
423.111	615.73
423.488	639.69
423.864	623.19
424.241	647.37
424.617	647.82
424.994	642.85
425.37	649.63
425.746	645.56
426.123	655.73
426.499	651.66
426.875	653.92
427.251	656.41
427.627	686.69
428.003	677.88
428.379	685.11
428.756	700.25
429.132	689.4
429.507	705.67
429.883	721.27
430.259	719.01
430.635	707.71
431.011	727.59
431.387	738.22
431.763	738.89
432.138	756.29
432.514	729.63
432.89	771.21
433.265	770.53
433.641	773.02
434.016	780.7
434.392	806.24
434.767	815.73
435.143	795.39
435.518	819.34
435.894	836.97
436.269	812.34
436.644	821.6
437.02	842.62
437.395	846.46
437.77	844.2
438.145	839.68
438.52	871.32
438.895	865.44
439.271	876.97
439.646	892.11
440.021	895.5
440.395	892.56
440.77	896.4
441.145	909.74
441.52	921.04
441.895	901.37
442.27	914.03
442.645	905.89
443.019	942.73
443.394	947.7
443.769	950.19
444.143	935.27
444.518	942.28
444.892	975.5
445.267	944.09
445.641	987.47
446.016	965.55
446.39	957.19
446.764	994.03
447.139	987.25
447.513	998.77
447.887	999.45
448.262	1027.7
448.636	1022.73
449.01	999.68
449.384	1008.72
449.758	1032.44
450.132	1041.94
450.506	1046.23
450.88	1046.23
451.254	1064.31
451.628	1068.83
452.002	1084.87
452.376	1111.76
452.75	1102.5
453.123	1097.53
453.497	1091.43
453.871	1095.27
454.244	1147.24
454.618	1173.46
454.992	1148.83
455.365	1129.62
455.739	1163.06
456.112	1195.15
456.486	1226.56
456.859	1198.77
457.232	1225.21
457.606	1246.68
457.979	1256.39
458.352	1306.56
458.725	1265.21
459.099	1297.97
459.472	1295.71
459.845	1346.56
460.218	1353.57
460.591	1375.94
460.964	1356.28
461.337	1375.03
461.71	1408.48
462.083	1429.72
462.456	1413.9
462.829	1442.15
463.201	1455.71
463.574	1449.61
463.947	1505.2
464.32	1511.75
464.692	1523.96
465.065	1545.43
465.438	1537.06
465.81	1581.81
466.183	1572.32
466.555	1634.46
466.928	1640.34
467.3	1631.75
467.672	1689.6
468.045	1697.29
468.417	1712.65
468.789	1734.57
469.161	1747.68
469.534	1771.18
469.906	1788.13
470.278	1814.12
470.65	1795.81
471.022	1885.53
471.394	1922.14
471.766	1951.74
472.138	1957.39
472.51	1979.31
472.882	2010.72
473.253	2049.82
473.625	2049.82
473.997	2131.17
474.369	2142.7
474.74	2165.75
475.112	2173.43
475.484	2243.03
475.855	2278.97
476.227	2327.78
476.598	2378.4
476.97	2394.44
477.341	2440.09
477.713	2463.14
478.084	2500.65
478.455	2562.35
478.827	2633.53
479.198	2688.22
479.569	2686.19
479.94	2749.46
480.311	2768.9
480.682	2872.17
481.053	2916.01
481.424	3000.53
481.795	3049.11
482.166	3040.75
482.537	3088.66
482.908	3203.91
483.279	3241.43
483.65	3343.8
484.021	3354.87
484.391	3436.68
484.762	3452.04
485.133	3499.95
485.503	3579.04
485.874	3658.14
486.244	3695.88
486.615	3779.72
486.985	3830.11
487.356	3910.11
487.726	3954.85
488.097	4017
488.467	4020.61
488.837	4152.59
489.207	4176.54
489.578	4256.09
489.948	4318.46
490.318	4375.63
490.688	4395.97
491.058	4465.35
491.428	4550.54
491.798	4621.28
492.168	4691.56
492.538	4769.75
492.908	4817.43
493.278	4898.11
493.648	4900.37
494.017	4924.77
494.387	5041.6
494.757	5074.37
495.126	5139.68
495.496	5187.36
495.866	5195.72
496.235	5259.9
496.605	5308.26
496.974	5336.29
497.344	5372.67
497.713	5429.62
498.082	5506.9
498.452	5555.04
498.821	5584.87
499.19	5578.77
499.559	5653.79
499.928	5677.97
500.298	5725.43
500.667	5787.57
501.036	5818.31
501.405	5882.94
501.774	5884.29
502.143	5977.17
502.512	5969.04
502.88	6055.14
503.249	6079.32
503.618	6088.36
503.987	6121.35
504.356	6164.97
504.724	6188.69
505.093	6226.88
505.462	6300.78
505.83	6325.19
506.199	6321.57
506.567	6424.17
506.936	6439.99
507.304	6441.57
507.672	6513.66
508.041	6506.65
508.409	6578.29
508.777	6636.37
509.145	6666.42
509.514	6633.88
509.882	6749.36
510.25	6758.17
510.618	6784.38
510.986	6862.35
511.354	6873.65
511.722	6958.62
512.09	6939.86
512.458	6971.95
512.826	7005.17
513.193	7031.16
513.561	7062.34
513.929	7136.69
514.297	7210.14
514.664	7225.73
515.032	7251.04
515.4	7235.45
515.767	7275.44
516.135	7315.44
516.502	7268.44
516.869	7417.59
517.237	7464.14
517.604	7419.17
517.972	7519.96
518.339	7519.05
518.706	7586.4
519.073	7552.5
519.44	7605.61
519.808	7764.25
520.175	7685.15
520.542	7715.88
520.909	7829.1
521.276	7804.7
521.643	7853.51
522.009	7872.04
522.376	7967.4
522.743	8015.99
523.11	8071.81
523.477	8115.2
523.843	8169.88
524.21	8232.03
524.577	8276.1
524.943	8312.48
525.31	8340.73
525.676	8458.01
526.043	8455.75
526.409	8517.22
526.776	8650.32
527.142	8537.78
527.508	8668.18
527.874	8722.86
528.241	8733.26
528.607	8809.42
528.973	8870.66
529.339	8881.05
529.705	8946.59
530.071	9053.48
530.437	9046.25
530.803	9121.5
531.169	9106.36
531.535	9171.44
531.901	9193.36
532.267	9253.47
532.632	9337.31
532.998	9332.57
533.364	9371.89
533.73	9390.87
534.095	9453.01
534.461	9562.16
534.826	9613.24
535.192	9629.51
535.557	9729.62
535.923	9647.59
536.288	9704.98
536.653	9739.33
537.019	9787.47
537.384	9765.77
537.749	9852.78
538.114	9927.8
538.479	9938.65
538.845	9963.28
539.21	9942.04
539.575	9953.34
539.94	10095.26
540.305	10150.62
540.67	10146.78
541.034	10119.66
541.399	10256.61
541.764	10267.23
542.129	10244.63
542.494	10354.69
542.858	10395.36
543.223	10440.33
543.587	10457.51
543.952	10474
544.316	10499.31
544.681	10586.77
545.045	10647.79
545.41	10735.92
545.774	10728.91
546.138	10758.52
546.503	10838.97
546.867	10798.29
547.231	10891.85
547.595	10890.94
547.959	10899.3
548.324	10973.2
548.688	11000.54
549.052	11029.02
549.416	11105.63
549.779	11106.08
550.143	11140.43
550.507	11235.11
550.871	11306.75
551.235	11236.47
551.599	11389.46
551.962	11347.2
552.326	11405.28
552.689	11500.87
553.053	11340.65
553.417	11464.94
553.78	11606.4
554.143	11629.68
554.507	11639.17
554.87	11656.57
555.234	11753.97
555.597	11722.78
555.96	11817.02
556.323	11779.28
556.686	11919.62
557.05	11872.39
557.413	11980.86
557.776	12003.68
558.139	12055.66
558.502	12093.62
558.865	12097.01
559.228	12185.37
559.59	12228.76
559.953	12272.6
560.316	12393.28
560.679	12392.82
561.041	12379.26
561.404	12495.65
561.767	12577.68
562.129	12465.14
562.492	12673.04
562.854	12616.32
563.217	12617.22
563.579	12728.86
563.941	12746.49
564.304	12792.59
564.666	12863.32
565.028	12881.4
565.39	12958.01
565.753	13068.29
566.115	13094.27
566.477	13137.66
566.839	13142.18
567.201	13297.88
567.563	13271.22
567.925	13338.34
568.287	13326.81
568.648	13358.9
569.01	13530.2
569.372	13642.06
569.734	13563.64
570.095	13645.45
570.457	13676.86
570.819	13727.03
571.18	13745.56
571.542	13834.59
571.903	13997.53
572.265	13934.7
572.626	14049.28
572.987	14091.31
573.349	14175.6
573.71	14245.88
574.071	14260.57
574.432	14345.77
574.794	14518.42
575.155	14475.03
575.516	14495.82
575.877	14647.45
576.238	14723.84
576.599	14819.2
576.96	14795.02
577.32	14976.26
577.681	15099.87
578.042	15191.62
578.403	15260.77
578.763	15366.31
579.124	15511.84
579.485	15622.34
579.845	15740.98
580.206	15862.11
580.566	16016.91
580.927	16125.61
581.287	16277.69
581.648	16352.72
582.008	16545.94
582.368	16723.11
582.728	16882.42
583.089	17019.59
583.449	17229.08
583.809	17359.47
584.169	17724.66
584.529	17720.14
584.889	18131.43
585.249	18139.57
585.609	18302.95
585.969	18615.49
586.329	18864.07
586.688	19180.44
587.048	19340.44
587.408	19522.81
587.768	19790.82
588.127	20048.44
588.487	20264.93
588.846	20701.98
589.206	20835.09
589.565	21100.62
589.925	21426.03
590.284	21689.75
590.643	21896.53
591.003	22361.6
591.362	22655.15
591.721	22934.02
592.08	23303.95
592.44	23628.69
592.799	23852.18
593.158	24268.9
593.517	24529.91
593.876	24987.97
594.235	25193.17
594.593	25373.73
594.952	26013.93
595.311	26138
595.67	26495.96
596.029	27016.62
596.387	27235.6
596.746	27624.29
597.104	27840.55
597.463	28153.99
597.822	28670.59
598.18	28958.94
598.538	29130.69
598.897	29663.1
599.255	29880.05
599.613	30555.06
599.972	30618.11
600.33	31168.15
600.688	31177.87
601.046	31622.83
601.404	32000.67
601.762	32263.71
602.12	32798.84
602.478	33046.52
602.836	33332.16
603.194	33474.3
603.552	33837.01
603.91	34011.24
604.268	34567.61
604.625	34700.03
604.983	35051.89
605.341	35314.03
605.698	35690.06
606.056	36096.61
606.413	36266.77
606.771	36664.05
607.128	36832.18
607.485	36872.18
607.843	37239.4
608.2	37713.51
608.557	38076.89
608.914	38160.51
609.272	38488.63
609.629	38835.52
609.986	39148.05
610.343	39174.27
610.7	39587.82
611.057	39740.35
611.414	39959.78
611.771	40218.98
612.127	40517.51
612.484	40675.47
612.841	41021.22
613.198	41040.66
613.554	41267.54
613.911	41639.96
614.267	41737.81
614.624	42027.52
614.98	42170.12
615.337	42499.6
615.693	42498.47
616.05	42695.98
616.406	43177.55
616.762	43087.84
617.118	43222.07
617.475	43513.81
617.831	43669.97
618.187	43807.82
618.543	43916.51
618.899	44341.36
619.255	44366.9
619.611	44363.06
619.967	44743.61
620.323	44788.81
620.678	44789.94
621.034	44802.82
621.39	44987.9
621.746	45029.93
622.101	45605.06
622.457	45396.7
622.812	45542.46
623.168	45813.87
623.523	45772.96
623.879	45987.87
624.234	45765.28
624.589	46072.62
624.945	46281.88
625.3	46370.46
625.655	46276.9
626.01	46495.2
626.365	46564.81
626.72	46467.86
627.075	46550.8
627.43	46686.84
627.785	46496.56
628.14	46757.12
628.495	46800.51
628.85	46794.41
629.205	46775.2
629.559	47125.7
629.914	46909.66
630.269	47054.96
630.623	47030.78
630.978	46868.08
631.332	47095.64
631.687	47172.47
632.041	47127.28
632.396	47265.35
632.75	47116.88
633.104	47146.94
633.459	47169.54
633.813	47236.88
634.167	47090.44
634.521	47299.02
634.875	47236.88
635.229	47181.74
635.583	47030.11
635.937	47145.81
636.291	47073.04
636.645	47174.06
636.999	47066.49
637.352	47128.18
637.706	47044.34
638.06	47244.56
638.413	47147.39
638.767	47028.98
639.121	47202.53
639.474	46949.2
639.828	47040.5
640.181	47240.72
640.534	46986.04
640.888	47064.91
641.241	46843.22
641.594	46988.52
641.947	47123.89
642.301	47007.05
642.654	47079.6
643.007	47019.48
643.36	46864.01
643.713	47017
644.066	47109.2
644.419	46814.97
644.771	46632.83
645.124	46224.02
645.477	46219.05
645.83	46038.72
646.182	45849.12
646.535	45651.38
646.888	45791.04
647.24	45502.01
647.593	45725.28
647.945	45770.48
648.298	45577.94
648.65	45510.82
649.002	45417.49
649.355	45647.09
649.707	45575.68
650.059	45724.83
650.411	46207.08
650.763	46264.7
651.115	46763.45
651.467	46464.24
651.819	46520.74
652.171	46408.65
652.523	46274.19
652.875	46318.26
653.227	46193.07
653.578	46527.07
653.93	46404.13
654.282	46235.78
654.633	46118.26
654.985	46339.28
655.337	46334.53
655.688	46325.94
656.039	46427.41
656.391	46012.28
656.742	46112.84
657.094	46312.61
657.445	46332.72
657.796	46217.7
658.147	46124.59
658.498	46115.78
658.849	46244.36
659.2	46149.9
659.551	46078.72
659.902	46254.31
660.253	46111.26
660.604	46218.15
660.955	45974.09
661.306	46164.59
661.656	46073.97
662.007	46044.37
662.358	46066.97
662.708	46179.96
663.059	46066.51
663.409	45878.95
663.76	46013.86
664.11	46105.16
664.461	46094.08
664.811	45997.14
665.161	46106.06
665.511	46015.22
665.862	45952.39
666.212	46055.89
666.562	45946.97
666.912	45958.27
667.262	45979.96
667.612	45819.06
667.962	45915.56
668.312	45844.6
668.662	46038.27
669.011	46013.41
669.361	45913.07
669.711	45916.01
670.06	45835.33
670.41	45704.49
670.76	45736.81
671.109	45814.54
671.459	45690.93
671.808	45695.45
672.157	45812.28
672.507	45640.54
672.856	45619.29
673.205	45662.01
673.554	45726.41
673.904	45667.66
674.253	45880.98
674.602	45509.02
674.951	45129.82
675.3	44828.81
675.649	45515.57
675.998	45480.77
676.346	45523.03
676.695	45650.25
677.044	45190.15
677.393	45392.63
677.741	45528
678.09	45377.27
678.438	45267.44
678.787	45289.36
679.135	45361.67
679.484	45097.5
679.832	45324.61
680.181	44914.91
680.529	45125.97
680.877	44934.79
681.225	44852.76
681.573	45087.78
681.922	44930.27
682.27	44782.25
682.618	44731.63
682.966	44617.29
683.314	44865.64
683.661	44744.97
684.009	44503.39
684.357	44343.85
684.705	44408.93
685.053	44453.45
685.4	44371.19
685.748	44188.37
686.095	44158.09
686.443	44013.46
686.79	43929.62
687.138	44049.62
687.485	44112.44
687.832	43798.55
688.18	43957.87
688.527	43713.13
688.874	43515.62
689.221	43536.86
689.568	43502.74
689.915	43365.79
690.262	43270.88
690.609	43240.37
690.956	43070.89
691.303	43052.36
691.65	42851.01
691.997	42839.03
692.344	42527.17
692.69	42745.92
693.037	42691.24
693.383	42357.46
693.73	42382.54
694.077	42252.38
694.423	42256.45
694.769	42183.9
695.116	42069.56
695.462	42031.59
695.808	41853.52
696.155	41930.58
696.501	41658.27
696.847	41656.69
697.193	41420.31
697.539	41494.88
697.885	41289.69
698.231	41117.04
698.577	41109.36
698.923	41017.61
699.269	40907.78
699.614	40587.56
699.96	40547.34
700.306	40500.56
700.651	40425.76
700.997	40393.44
701.342	40231.87
701.688	40359.77
702.033	40179.21
702.379	40033.23
702.724	40022.38
703.069	40049.95
703.415	39721.6
703.76	39565.89
704.105	39534.03
704.45	39401.38
704.795	39338.78
705.14	39160.93
705.485	39143.53
705.83	39034.16
706.175	39111.9
706.52	38973.14
706.865	38842.07
707.209	38856.76
707.554	38624.9
707.899	38716.88
708.243	38402.76
708.588	38460.39
708.932	38103.79
709.277	38231.92
709.621	38193.5
709.966	37876
710.31	38017.91
710.654	37595.1
710.998	37807.75
711.342	37750.12
711.687	37718.26
712.031	37719.62
712.375	37320.08
712.719	37473.75
713.063	37322.79
713.407	37523.24
713.75	37218.84
714.094	37232.17
714.438	36995.34
714.782	37058.84
715.125	37027.66
715.469	36883.71
715.812	36678.74
716.156	36560.55
716.499	36633.99
716.843	36680.77
717.186	36517.84
717.53	36624.28
717.873	36578.85
718.216	36452.53
718.559	36330.95
718.902	35942.94
719.246	36191.07
719.589	36108.58
719.932	36006.67
720.275	35939.55
720.617	35845.09
720.96	35776.62
721.303	35764.64
721.646	35750.85
721.989	35503.4
722.331	35759.67
722.674	35622.5
723.016	35634.92
723.359	35629.5
723.701	35554.25
724.044	35320.58
724.386	35171.89
724.729	35477.41
725.071	35174.15
725.413	35125.33
725.755	35088.72
726.097	35059.12
726.439	34840.37
726.782	34775.96
727.124	35072.23
727.465	34759.92
727.807	34810.31
728.149	34691.22
728.491	34590.43
728.833	34635.18
729.175	34548.63
729.516	34550.89
729.858	34477.44
730.199	34453.94
730.541	34404.67
730.882	34320.61
731.224	34373.94
731.565	34176.21
731.906	34141.86
732.248	34197.22
732.589	34063.89
732.93	33990.22
733.271	33920.17
733.612	33943.9
733.953	33923.56
734.294	33769.66
734.635	33719.04
734.976	33850.56
735.317	33595.66
735.658	33537.35
735.999	33672.49
736.339	33457.58
736.68	33559.72
737.021	33453.06
737.361	33333.52
737.702	33391.14
738.042	33230.24
738.383	33364.7
738.723	33416.68
739.063	33220.3
739.404	33199.96
739.744	33184.82
740.084	33083.35
740.424	33098.72
740.764	32872.96
741.104	33091.49
741.444	32873.19
741.784	32811.95
742.124	32845.62
742.464	32648.11
742.804	32737.37
743.143	32703.93
743.483	32681.33
743.823	32248.57
744.162	32306.42
744.502	32403.15
744.841	32226.43
745.181	32461.67
745.52	32352.75
745.86	32359.98
746.199	32244.05
746.538	32215.81
746.877	32153.66
747.216	32268.23
747.556	32109.59
747.895	32125.41
748.234	31942.37
748.573	31912.08
748.911	31864.63
749.25	31990.73
749.589	31742.15
749.928	31760.22
750.267	31808.13
750.605	31799.32
750.944	31608.14
751.283	31501.02
751.621	31579.21
751.96	31477.52
752.298	31379.22
752.636	31471.19
752.975	31294.47
753.313	31224.87
753.651	31444.98
753.989	31076.4
754.327	31025.55
754.666	30921.15
755.004	31019.45
755.342	30919.79
755.679	30784.43
756.017	30685.9
756.355	30771.78
756.693	30635.73
757.031	30639.35
757.368	30511.44
757.706	30463.08
758.044	30245.01
758.381	30314.61
758.719	30219.7
759.056	30322.07
759.394	30120.49
759.731	29974.28
760.068	29908.52
760.405	29816.77
760.743	29846.83
761.08	29888.64
761.417	29717.57
761.754	29534.29
762.091	29627.85
762.428	29475.99
762.765	29307.86
763.102	29309.89
763.438	29227.86
763.775	29171.59
764.112	29227.86
764.449	29137.02
764.785	28964.37
765.122	28763.24
765.458	28649.57
765.795	28698.38
766.131	28651.83
766.467	28419.07
766.804	28364.83
767.14	28262.01
767.476	28152.18
767.812	28112.86
768.148	28026.54
768.485	27830.84
768.821	27700.9
769.157	27689.14
769.492	27588.13
769.828	27615.93
770.164	27261.36
770.5	27281.02
770.836	27380.68
771.171	27100.23
771.507	27115.6
771.842	26924.65
772.178	26919
772.513	26791.77
772.849	26706.12
773.184	26592.22
773.519	26586.8
773.855	26487.59
774.19	26332.57
774.525	26294.38
774.86	26201.73
775.195	26238.34
775.53	26079.02
775.865	25909.08
776.2	25798.12
776.535	25698.69
776.87	25632.93
777.205	25443.55
777.539	25409.43
777.874	25431.13
778.209	25305.03
778.543	25170.79
778.878	25110.91
779.212	25005.15
779.547	24848.77
779.881	24924.02
780.215	24728.77
780.55	24709.11
780.884	24523.13
781.218	24504.14
781.552	24444.94
781.886	24320.87
782.22	24247.43
782.554	24138.5
782.888	23963.59
783.222	23890.83
783.556	23824.61
783.889	23754.33
784.223	23502.36
784.557	23545.52
784.89	23564.73
785.224	23397.73
785.557	23298.75
785.891	23253.78
786.224	23158.64
786.558	23126.1
786.891	22909.16
787.224	22949.83
787.557	22795.26
787.891	22747.58
788.224	22668.49
788.557	22686.56
788.89	22687.69
789.223	22574.25
789.556	22475.04
789.888	22339.91
790.221	22340.13
790.554	22062.4
790.887	22076.19
791.219	22019.01
791.552	21989.41
791.884	21854.27
792.217	21879.58
792.549	21760.26
792.882	21603.66
793.214	21434.62
793.546	21634.39
793.879	21438.24
794.211	21216.09
794.543	21415.19
794.875	21328.41
795.207	21373.83
795.539	21241.86
795.871	21175.42
796.203	21005.03
796.535	20845.93
796.867	20766.61
797.198	20741.08
797.53	20846.16
797.862	20671.7
798.193	20606.85
798.525	20496.57
798.856	20489.79
799.188	20245.95
799.519	20182.45
799.85	20065.16
800.182	20094.77
800.513	20121.89
800.844	19887.77
801.175	20078.72
801.506	19974.09
801.837	19858.62
802.168	19874.44
802.499	19772.29
802.83	19598.06
803.161	19544.27
803.491	19549.92
803.822	19592.86
804.153	19492.75
804.483	19323.04
804.814	19214.34
805.145	19230.38
805.475	19213.66
805.805	19111.29
806.136	19139.31
806.466	19060.22
806.796	19130.05
807.126	18834.24
807.457	18873.56
807.787	18837.63
808.117	18770.06
808.447	18665.65
808.777	18791.98
809.107	18637.18
809.436	18592.66
809.766	18507.01
810.096	18473.12
810.426	18439.22
810.755	18391.54
811.085	18370.97
811.414	18326.91
811.744	18163.29
812.073	18137.76
812.403	18125.55
812.732	18018.66
813.061	18080.58
813.39	17932.11
813.719	17914.49
814.049	17908.16
814.378	17833.36
814.707	17802.63
815.036	17780.48
815.365	17613.25
815.693	17447.83
816.022	17593.82
816.351	17418
816.68	17412.8
817.008	17468.85
817.337	17264.79
817.665	17258.68
817.994	17364.9
818.322	17225.47
818.651	17189.08
818.979	17113.38
819.307	17187.5
819.636	17187.27
819.964	17039.71
820.292	17090.1
820.62	17096.65
820.948	17021.85
821.276	17065.24
821.604	17041.74
821.932	16991.57
822.259	16980.73
822.587	16955.64
822.915	16925.36
823.243	17011.23
823.57	16881.07
823.898	16938.24
824.225	16829.77
824.553	16849.88
824.88	16854.4
825.207	16901.86
825.535	16917.22
825.862	16898.24
826.189	16804.46
826.516	16917.68
826.843	16924.46
827.17	16954.29
827.497	16846.04
827.824	16963.55
828.151	16920.16
828.478	16903.67
828.805	16980.73
829.131	16892.37
829.458	16851.69
829.785	16866.83
830.111	16825.25
830.438	16902.99
830.764	16854.4
831.09	16858.24
831.417	16765.14
831.743	16867.96
832.069	16817.57
832.395	16714.52
832.722	16799.71
833.048	16760.84
833.374	16814.4
833.7	16642.88
834.026	16640.62
834.351	16699.6
834.677	16631.81
835.003	16702.32
835.329	16623.22
835.654	16565.37
835.98	16560.17
836.306	16594.3
836.631	16527.18
836.956	16468.87
837.282	16615.99
837.607	16440.18
837.932	16397.24
838.258	16455.77
838.583	16353.62
838.908	16345.49
839.233	16312.49
839.558	16270.01
839.883	16322.89
840.208	16207.86
840.533	16259.16
840.858	16165.15
841.182	16195.44
841.507	16201.76
841.832	16104.82
842.156	16092.16
842.481	16157.02
842.805	15990.24
843.13	15978.27
843.454	15903.47
843.778	15777.14
844.103	15780.53
844.427	15874.99
844.751	15845.84
845.075	15784.83
845.399	15675
845.723	15546.64
846.047	15649.69
846.371	15432.52
846.695	15466.87
847.019	15352.07
847.343	15320.66
847.666	15155.01
847.99	15191.62
848.313	15151.17
848.637	15065.97
848.96	15044.51
849.284	14971.29
849.607	14850.84
849.931	14804.51
850.254	14679.09
850.577	14656.95
850.9	14608.81
851.223	14560.45
851.546	14468.93
851.869	14393.45
852.192	14432.09
852.515	14369.27
852.838	14283.62
853.161	14287.69
853.483	14122.95
853.806	14115.72
854.129	14092.67
854.451	14122.95
854.774	13954.59
855.096	13950.97
855.419	13977.64
855.741	13862.39
856.063	13771.77
856.385	13731.32
856.708	13782.84
857.03	13728.16
857.352	13684.99
857.674	13725.9
857.996	13627.82
858.318	13406.13
858.64	13527.48
858.961	13459.46
859.283	13499.91
859.605	13371.33
859.926	13399.58
860.248	13327.49
860.57	13302.4
860.891	13299.01
861.212	13279.13
861.534	13218.79
861.855	13155.74
862.176	13133.14
862.498	13135.4
862.819	13086.82
863.14	13029.64
863.461	13037.1
863.782	13014.05
864.103	12989.42
864.424	12931.11
864.745	12948.52
865.065	12834.17
865.386	12754.17
865.707	12680.95
866.027	12819.03
866.348	12821.29
866.668	12765.7
866.989	12803.21
867.309	12701.97
867.63	12725.02
867.95	12665.36
868.27	12574.74
868.59	12683.66
868.91	12555.76
869.23	12623.1
869.55	12496.32
869.87	12575.42
870.19	12543.1
870.51	12527.51
870.83	12589.2
871.15	12388.98
871.469	12432.6
871.789	12481.64
872.109	12395.54
872.428	12327.74
872.748	12382.2
873.067	12370.68
873.386	12383.33
873.706	12357.12
874.025	12323.45
874.344	12291.81
874.663	12183.79
874.982	12186.95
875.301	12211.59
875.62	12172.26
875.939	12152.38
876.258	12133.17
876.577	12079.16
876.896	12081.87
877.214	12053.17
877.533	12084.36
877.852	12018.14
878.17	12003.46
878.489	12055.43
878.807	12065.37
879.125	12025.83
879.444	11890.92
879.762	11919.39
880.08	11891.82
880.398	11819.96
880.716	11806.62
881.034	11775.89
881.352	11794.42
881.67	11805.27
881.988	11814.08
882.306	11645.27
882.624	11626.74
882.941	11662.9
883.259	11626.29
883.577	11599.4
883.894	11628.32
884.212	11485.96
884.529	11518.72
884.846	11497.71
885.164	11468.78
885.481	11398.27
885.798	11464.03
886.115	11356.01
886.432	11398.27
886.75	11383.81
887.067	11346.52
887.383	11275.79
887.7	11294.1
888.017	11254.32
888.334	11194.21
888.651	11173.65
888.967	11180.2
889.284	11103.14
889.6	11106.3
889.917	11041.45
890.233	11016.36
890.55	10974.1
890.866	11022.01
891.182	10925.29
891.498	10881
891.815	10848.68
892.131	10836.48
892.447	10765.3
892.763	10707.44
893.079	10712.42
893.395	10627.22
893.71	10661.34
894.026	10626.32
894.342	10604.17
894.657	10547
894.973	10622.25
895.289	10488.69
895.604	10454.34
895.92	10394.01
896.235	10332.77
896.55	10439.2
896.865	10394.01
897.181	10302.71
897.496	10218.42
897.811	10142.26
898.126	10220.23
898.441	10221.81
898.756	10141.13
899.071	10094.13
899.386	10049.16
899.7	9990.63
900.015	9944.53
900.33	9833.34
900.644	9870.63
900.959	9861.37
901.273	9845.77
901.588	9799.67
901.902	9687.58
902.216	9761.48
902.531	9726.45
902.845	9662.73
903.159	9688.49
903.473	9573.01
903.787	9537.53
904.101	9493.92
904.415	9512
904.729	9443.07
905.042	9377.76
905.356	9361.49
905.67	9334.37
905.984	9254.15
906.297	9304.32
906.611	9242.85
906.924	9205.34
907.237	9215.96
907.551	9151.78
907.864	9067.49
908.177	9097.09
908.491	9056.64
908.804	8970.54
909.117	8984.55
909.43	8887.61
909.743	8842.41
910.056	8821.39
910.368	8832.69
910.681	8713.15
910.994	8755.86
911.307	8705.01
911.619	8625.92
911.932	8625.01
912.244	8647.61
912.557	8586.82
912.869	8524
913.181	8463.44
913.494	8541.17
913.806	8455.98
914.118	8404.68
914.43	8309.77
914.742	8333.04
915.054	8282.42
915.366	8312.93
915.678	8286.72
915.99	8228.64
916.302	8057.34
916.613	8067.51
916.925	8125.59
917.236	8104.58
917.548	8019.38
917.859	7951.13
918.171	8009.66
918.482	7908.2
918.794	7905.71
919.105	7870.68
919.416	7854.19
919.727	7869.1
920.038	7764.7
920.349	7703.46
920.66	7677.02
920.971	7723.79
921.282	7622.1
921.593	7591.82
921.903	7554.53
922.214	7527.19
922.525	7516.12
922.835	7442.22
923.146	7407.19
923.456	7348.21
923.767	7406.97
924.077	7349.34
924.387	7265.73
924.697	7302.11
925.008	7235.67
925.318	7256.46
925.628	7159.97
925.938	7129.69
926.248	7070.03
926.558	7066.18
926.867	7078.61
927.177	7040.2
927.487	7054.89
927.796	6912.29
928.106	6959.07
928.416	6882.91
928.725	6882.91
929.034	6796.36
929.344	6806.98
929.653	6804.72
929.962	6708.91
930.271	6736.93
930.581	6672.97
930.89	6651.28
931.199	6616.7
931.508	6550.49
931.817	6552.98
932.125	6567.89
932.434	6544.84
932.743	6470.72
933.051	6475.24
933.36	6414.22
933.669	6342.14
933.977	6390.04
934.286	6325.41
934.594	6307.79
934.902	6279.09
935.21	6280.89
935.519	6268.47
935.827	6214.23
936.135	6189.82
936.443	6093.55
936.751	6148.92
937.059	6100.79
937.367	6086.1
937.674	6080.67
937.982	6032.99
938.29	6009.04
938.597	6006.1
938.905	5921.36
939.213	5907.12
939.52	5869.83
939.827	5914.58
940.135	5805.65
940.442	5872.32
940.749	5791.42
941.056	5816.27
941.363	5718.42
941.67	5699.21
941.977	5652.66
942.284	5671.87
942.591	5649.5
942.898	5641.36
943.205	5637.97
943.511	5580.8
943.818	5553
944.125	5511.2
944.431	5502.38
944.738	5464.42
945.044	5461.93
945.35	5433.68
945.657	5411.54
945.963	5383.29
946.269	5368.38
946.575	5317.53
946.881	5338.09
947.187	5324.54
947.493	5253.12
947.799	5270.75
948.105	5258.55
948.41	5131.32
948.716	5152.11
949.022	5152.56
949.327	5116.41
949.633	5101.49
949.938	5089.74
950.244	5055.84
950.549	5050.64
950.854	4996.41
951.16	5026.69
951.465	4963.64
951.77	4932.91
952.075	4942.85
952.38	4947.82
952.685	4922.96
952.99	4845.45
953.294	4843.42
953.599	4813.59
953.904	4775.62
954.209	4769.97
954.513	4800.48
954.818	4748.96
955.122	4713.03
955.426	4710.77
955.731	4676.87
956.035	4644.1
956.339	4610.66
956.643	4596.19
956.948	4567.72
957.252	4622.18
957.556	4562.97
957.86	4545.35
958.163	4536.76
958.467	4485.24
958.771	4534.05
959.075	4502.64
959.378	4424.9
959.682	4424.22
959.985	4369.76
960.289	4374.28
960.592	4346.03
960.896	4332.02
961.199	4320.95
961.502	4288.86
961.805	4267.16
962.108	4242.53
962.411	4249.31
962.714	4257.9
963.017	4227.61
963.32	4192.81
963.623	4206.6
963.926	4152.14
964.228	4122.76
964.531	4098.8
964.833	4116.21
965.136	4045.25
965.438	4065.13
965.741	4054.51
966.043	4046.38
966.345	3998.24
966.648	3974.74
966.95	4002.31
967.252	3972.48
967.554	3980.84
967.856	3952.14
968.158	3932.48
968.46	3909.88
968.761	3867.85
969.063	3862.43
969.365	3884.12
969.666	3841.41
969.968	3758.25
970.269	3772.03
970.571	3789.43
970.872	3800.28
971.174	3743.56
971.475	3719.61
971.776	3702.43
972.077	3713.73
972.378	3691.58
972.679	3692.04
972.98	3638.03
973.281	3624.69
973.582	3586.73
973.883	3584.24
974.183	3603.45
974.484	3593.28
974.785	3539.72
975.085	3504.7
975.386	3512.61
975.686	3460.86
975.986	3492.04
976.287	3482.32
976.587	3455.66
976.887	3408.43
977.187	3438.71
977.487	3454.98
977.787	3374.98
978.087	3373.85
978.387	3380.63
978.687	3354.64
978.987	3330.24
979.286	3314.42
979.586	3296.11
979.885	3256.57
980.185	3271.48
980.484	3242.56
980.784	3249.34
981.083	3231.03
981.382	3225.16
981.682	3219.73
981.981	3202.11
982.28	3154.2
982.579	3114.65
982.878	3111.94
983.177	3144.25
983.475	3136.34
983.774	3117.59
984.073	3070.58
984.372	3094.31
984.67	3070.13
984.969	3038.95
985.267	3061.77
985.566	3019.06
985.864	3005.95
986.162	3003.24
986.461	2988.55
986.759	2976.35
987.057	2948.55
987.355	2923.02
987.653	2941.32
987.951	2883.92
988.249	2850.02
988.547	2899.06
988.844	2881.89
989.142	2842.79
989.44	2846.41
989.737	2830.36
990.035	2804.15
990.332	2843.7
990.63	2806.41
990.927	2791.04
991.224	2781.55
991.521	2733.64
991.819	2718.28
992.116	2691.61
992.413	2730.93
992.71	2680.54
993.006	2660.2
993.303	2675.57
993.6	2659.97
993.897	2624.72
994.193	2628.11
994.49	2636.02
994.787	2600.54
995.083	2610.93
995.379	2592.86
995.676	2579.52
995.972	2529.13
996.268	2569.13
996.565	2497.94
996.861	2535.23
997.157	2524.83
997.453	2512.63
997.749	2490.26
998.044	2458.4
998.34	2471.05
998.636	2422.24
998.932	2427.66
999.227	2412.07
999.523	2431.05
999.818	2396.7
1000.114	2380.43
1000.409	2359.19
1000.704	2391.05
1001	2348.57
1001.295	2327.55
1001.59	2308.8
1001.885	2319.87
1002.18	2288.23
1002.475	2278.51
1002.77	2292.75
1003.065	2258.4
1003.359	2256.14
1003.654	2210.72
1003.949	2246.65
1004.243	2203.26
1004.538	2151.06
1004.832	2212.07
1005.127	2178.4
1005.421	2136.14
1005.715	2117.84
1006.009	2158.06
1006.304	2154.45
1006.598	2109.93
1006.892	2089.59
1007.186	2098.86
1007.48	2079.42
1007.773	2067.45
1008.067	2067.9
1008.361	2024.28
1008.655	2083.72
1008.948	1986.09
1009.242	2004.17
1009.535	2005.98
1009.829	1991.74
1010.122	1969.6
1010.415	1963.49
1010.708	1961.23
1011.001	1940.9
1011.295	1956.94
1011.588	1914.23
1011.881	1934.57
1012.173	1888.69
1012.466	1893.89
1012.759	1888.69
1013.052	1872.42
1013.344	1852.99
1013.637	1833.33
1013.93	1851.63
1014.222	1817.06
1014.514	1804.18
1014.807	1777.74
1015.099	1774.12
1015.391	1750.62
1015.683	1763.05
1015.976	1738.87
1016.268	1739.09
1016.56	1734.12
1016.851	1721.69
1017.143	1702.48
1017.435	1701.58
1017.727	1679.43
1018.018	1696.83
1018.31	1643.05
1018.602	1673.33
1018.893	1629.94
1019.185	1645.54
1019.476	1639.43
1019.767	1602.15
1020.058	1571.87
1020.35	1600.11
1020.641	1561.47
1020.932	1567.35
1021.223	1564.63
1021.514	1585.2
1021.804	1538.87
1022.095	1541.13
1022.386	1511.53
1022.677	1521.7
1022.967	1483.51
1023.258	1493
1023.548	1487.12
1023.839	1480.79
1024.129	1430.4
1024.419	1449.38
1024.709	1416.39
1025	1423.62
1025.29	1392.66
1025.58	1424.07
1025.87	1380.91
1026.16	1370.29
1026.449	1379.55
1026.739	1344.75
1027.029	1362.83
1027.319	1351.08
1027.608	1335.04
1027.898	1341.36
1028.187	1311.76
1028.477	1303.17
1028.766	1317.63
1029.055	1313.12
1029.344	1283.51
1029.634	1291.42
1029.923	1297.97
1030.212	1292.32
1030.501	1246
1030.79	1258.65
1031.078	1226.56
1031.367	1235.83
1031.656	1214.81
1031.945	1210.07
1032.233	1215.72
1032.522	1172.78
1032.81	1199.9
1033.099	1173.91
1033.387	1192.21
1033.675	1154.93
1033.963	1138.88
1034.251	1166
1034.54	1154.93
1034.828	1134.81
1035.116	1127.13
1035.403	1112.44
1035.691	1111.76
1035.979	1114.25
1036.267	1100.47
1036.554	1081.03
1036.842	1095.04
1037.129	1074.03
1037.417	1057.08
1037.704	1072.44
1037.992	1046.91
1038.279	1044.87
1038.566	1029.96
1038.853	1029.96
1039.14	1029.96
