Data from hue_38_FLMS001491_00008.txt Node
Date: Tue Feb 07 17:30:58 GMT 2017
User: dcchb
Spectrometer: FLMS00149
Trigger mode: 0
Integration Time (sec): 2.000000E-2
Scans to average: 10
Electric dark correction enabled: true
Nonlinearity correction enabled: false
Boxcar width: 0
XAxis mode: Wavelengths
Number of Pixels in Spectrum: 2048
>>>>>Begin Spectral Data<<<<<
341.393	-26.34
341.776	-26.34
342.16	-26.34
342.543	-66.57
342.927	-73.57
343.31	-72.22
343.693	-46.23
344.077	-44.87
344.46	-70.18
344.843	-71.54
345.226	-40.35
345.61	-31.09
345.993	-16.17
346.376	-9.62
346.759	14.34
347.142	12.98
347.525	44.17
347.908	58.18
348.291	67.89
348.674	103.37
349.057	101.34
349.44	120.32
349.823	144.05
350.206	163.94
350.588	188.12
350.971	203.71
351.354	243.48
351.737	253.2
352.119	254.78
352.502	264.05
352.884	259.08
353.267	283.26
353.65	283.71
354.032	289.81
354.414	306.98
354.797	317.6
355.179	308.79
355.562	329.58
355.944	321.22
356.326	327.55
356.709	329.13
357.091	351.95
357.473	329.13
357.855	343.37
358.238	354.67
358.62	343.14
359.002	345.63
359.384	349.69
359.766	344.27
360.148	323.48
360.53	350.15
360.912	352.63
361.294	328.45
361.676	332.52
362.057	319.19
362.439	321.22
362.821	344.5
363.203	309.92
363.584	314.44
363.966	330.71
364.348	333.42
364.729	344.95
365.111	328.9
365.493	313.08
365.874	309.7
366.256	325.97
366.637	317.15
367.019	300.88
367.4	324.84
367.781	312.63
368.163	314.67
368.544	308.57
368.925	328
369.306	316.93
369.688	313.54
370.069	298.62
370.45	327.55
370.831	321.67
371.212	302.92
371.593	323.25
371.974	319.41
372.355	323.25
372.736	332.97
373.117	313.76
373.498	318.06
373.879	328
374.26	323.03
374.641	312.86
375.021	321.67
375.402	306.08
375.783	288
376.163	334.33
376.544	311.5
376.925	332.97
377.305	338.4
377.686	329.81
378.066	340.2
378.447	332.52
378.827	327.77
379.208	342.46
379.588	345.4
379.968	335.46
380.349	340.2
380.729	325.74
381.109	349.02
381.489	326.87
381.87	355.34
382.25	339.3
382.63	358.51
383.01	346.3
383.39	345.17
383.77	351.28
384.15	345.63
384.53	336.59
384.91	358.28
385.29	344.04
385.67	352.41
386.049	351.73
386.429	347.89
386.809	368.22
387.189	338.62
387.568	365.96
387.948	357.15
388.328	355.12
388.707	369.58
389.087	342.69
389.466	348.79
389.846	342.69
390.225	366.19
390.605	376.13
390.984	369.13
391.363	376.36
391.743	359.19
392.122	358.28
392.501	376.13
392.881	412.97
393.26	368.9
393.639	369.35
394.018	386.3
394.397	377.94
394.776	375.23
395.155	368.22
395.534	375.91
395.913	362.8
396.292	375.68
396.671	405.06
397.05	377.72
397.429	391.28
397.808	389.47
398.186	394.66
398.565	370.48
398.944	393.76
399.323	394.21
399.701	392.4
400.08	410.48
400.458	387.21
400.837	390.6
401.215	407.09
401.594	407.32
401.972	402.57
402.351	400.77
402.729	417.94
403.107	417.94
403.486	431.5
403.864	429.47
404.242	424.04
404.62	429.92
404.999	430.82
405.377	424.27
405.755	428.11
406.133	436.7
406.511	427.66
406.889	444.15
407.267	416.81
407.645	453.65
408.023	454.32
408.401	462.23
408.779	442.57
409.156	450.48
409.534	433.53
409.912	460.2
410.29	459.75
410.667	463.14
411.045	472.4
411.422	464.49
411.8	485.74
412.178	467.43
412.555	486.87
412.933	482.35
413.31	481.67
413.687	476.02
414.065	483.93
414.442	477.6
414.819	496.81
415.197	483.7
415.574	476.7
415.951	514.89
416.328	514.44
416.705	498.16
417.082	518.5
417.46	525.28
417.837	513.98
418.214	525.06
418.591	517.6
418.967	513.08
419.344	515.57
419.721	529.8
420.098	539.52
420.475	549.01
420.852	565.51
421.228	554.66
421.605	552.85
421.982	540.88
422.358	527.99
422.735	543.14
423.111	583.81
423.488	576.35
423.864	558.05
424.241	559.41
424.617	594.21
424.994	592.63
425.37	581.55
425.746	594.66
426.123	582.91
426.499	598.5
426.875	600.99
427.251	580.2
427.627	606.86
428.003	621.78
428.379	610.25
428.756	609.12
429.132	620.87
429.507	637.37
429.883	617.94
430.259	643.7
430.635	632.62
431.011	666.75
431.387	691.38
431.763	642.57
432.138	686.86
432.514	665.17
432.89	695.22
433.265	683.02
433.641	692.28
434.016	685.05
434.392	665.84
434.767	707.42
435.143	703.58
435.518	709.91
435.894	777.03
436.269	744.26
436.644	741.32
437.02	727.09
437.395	743.36
437.77	743.81
438.145	747.65
438.52	772.06
438.895	758.05
439.271	785.39
439.646	780.64
440.021	786.74
440.395	786.52
440.77	793.07
441.145	816.35
441.52	812.73
441.895	799.4
442.27	799.17
442.645	824.71
443.019	811.38
443.394	834.2
443.769	848.44
444.143	811.15
444.518	851.83
444.892	832.17
445.267	829.91
445.641	832.39
446.016	866.97
446.39	850.25
446.764	848.89
447.139	883.24
447.513	857.48
447.887	852.28
448.262	871.94
448.636	882.79
449.01	900.87
449.384	913.52
449.758	905.16
450.132	874.88
450.506	921.43
450.88	920.75
451.254	942
451.628	944.25
452.002	945.61
452.376	959.62
452.75	953.52
453.123	980.19
453.497	995.78
453.871	944.03
454.244	1000.52
454.618	1005.5
454.992	1029.68
455.365	991.03
455.739	1024.03
456.112	1031.48
456.486	1052.5
456.859	1064.7
457.232	1068.55
457.606	1070.58
457.979	1082.56
458.352	1116
458.725	1097.92
459.099	1123.69
459.472	1144.02
459.845	1157.13
460.218	1148.32
460.591	1172.27
460.964	1182.89
461.337	1200.52
461.71	1224.7
462.083	1236.9
462.456	1236.45
462.829	1247.98
463.201	1257.47
463.574	1266.73
463.947	1284.81
464.32	1312.38
464.692	1325.94
465.065	1317.35
465.438	1363.45
465.81	1377.01
466.183	1388.99
466.555	1407.75
466.928	1438.71
467.3	1443.9
467.672	1460.63
468.045	1467.4
468.417	1499.72
468.789	1502.88
469.161	1585.82
469.534	1574.75
469.906	1596.67
470.278	1577.46
470.65	1624.01
471.022	1715.76
471.394	1700.85
471.766	1734.52
472.138	1735.65
472.51	1741.97
472.882	1790.11
473.253	1835.76
473.625	1875.08
473.997	1917.56
474.369	1925.92
474.74	1955.53
475.112	2015.41
475.484	2075.98
475.855	2093.83
476.227	2152.36
476.598	2160.04
476.97	2221.06
477.341	2307.16
477.713	2344.67
478.084	2412.69
478.455	2456.53
478.827	2479.36
479.198	2561.39
479.569	2628.5
479.94	2674.83
480.311	2697.2
480.682	2827.37
481.053	2886.12
481.424	2932.45
481.795	2986.24
482.166	3073.69
482.537	3144.87
482.908	3273.91
483.279	3310.75
483.65	3407.24
484.021	3466.9
484.391	3545.99
484.762	3638.2
485.133	3700.79
485.503	3735.59
485.874	3889.71
486.244	3974.46
486.615	4075.02
486.985	4115.92
487.356	4207.67
487.726	4305.97
488.097	4435.69
488.467	4477.27
488.837	4638.85
489.207	4711.39
489.578	4757.49
489.948	4906.18
490.318	5018.05
490.688	5086.29
491.058	5169.23
491.428	5345.95
491.798	5411.48
492.168	5530.12
492.538	5623.45
492.908	5714.07
493.278	5815.99
493.648	5894.18
494.017	5987.29
494.387	6083.55
494.757	6217.56
495.126	6333.04
495.496	6382.98
495.866	6467.05
496.235	6615.07
496.605	6711.33
496.974	6785.46
497.344	6907.71
497.713	6953.36
498.082	7054.38
498.452	7135.73
498.821	7255.5
499.19	7299.57
499.559	7382.5
499.928	7480.58
500.298	7528.94
500.667	7731.65
501.036	7743.62
501.405	7754.02
501.774	7852.77
502.143	7982.26
502.512	8060.68
502.88	8100.68
503.249	8164.63
503.618	8271.07
503.987	8345.87
504.356	8455.7
504.724	8524.17
505.093	8553.09
505.462	8674.67
505.83	8738.85
506.199	8859.3
506.567	8972.97
506.936	8968.45
507.304	9155.11
507.672	9106.53
508.041	9200.99
508.409	9248.22
508.777	9363.47
509.145	9472.17
509.514	9498.83
509.882	9601.88
510.25	9657.92
510.618	9734.08
510.986	9734.53
511.354	9846.17
511.722	9941.53
512.09	9976.33
512.458	10046.61
512.826	10132.04
513.193	10205.03
513.561	10296.78
513.929	10391.92
514.297	10346.04
514.664	10502.2
515.032	10538.8
515.4	10600.95
515.767	10605.02
516.135	10751
516.502	10699.25
516.869	10875.29
517.237	10985.8
517.604	10930.88
517.972	11046.59
518.339	11179.24
518.706	11128.39
519.073	11204.78
519.44	11288.84
519.808	11430.53
520.175	11492
520.542	11582.62
520.909	11624.2
521.276	11595.95
521.643	11767.93
522.009	11764.99
522.376	11868.04
522.743	11874.14
523.11	12103.51
523.477	12189.38
523.843	12153
524.21	12352.77
524.577	12463.05
524.943	12485.42
525.31	12476.16
525.676	12686.32
526.043	12759.76
526.409	12758.41
526.776	12874.11
527.142	12904.39
527.508	13003.15
527.874	13156.36
528.241	13195.68
528.607	13229.36
528.973	13329.01
529.339	13334.21
529.705	13477.94
530.071	13581.21
530.437	13662.34
530.803	13713.41
531.169	13832.73
531.535	13906.85
531.901	13832.28
532.267	13934.65
532.632	14048.54
532.998	14042.67
533.364	14178.48
533.73	14218.71
534.095	14376.9
534.461	14347.29
534.826	14487.4
535.192	14551.81
535.557	14538.93
535.923	14609.43
536.288	14645.14
536.653	14698.47
537.019	14728.53
537.384	14837.67
537.749	14932.81
538.114	14878.13
538.479	14947.73
538.845	15034.05
539.21	15113.37
539.575	15142.53
539.94	15230.21
540.305	15252.58
540.67	15267.49
541.034	15327.15
541.399	15418.9
541.764	15460.03
542.129	15525.11
542.494	15598.33
542.858	15685.56
543.223	15584.1
543.587	15792.9
543.952	15787.48
544.316	15872.68
544.681	15868.83
545.045	15954.48
545.41	16032.9
545.774	16196.74
546.138	16134.14
546.503	16156.96
546.867	16328.94
547.231	16380.69
547.595	16457.75
547.959	16385.43
548.324	16515.6
548.688	16536.16
549.052	16595.82
549.416	16643.5
549.779	16748.81
550.143	16774.12
550.507	16846.44
550.871	16942.25
551.235	16930.28
551.599	17066.77
551.962	17130.5
552.326	17129.59
552.689	17151.51
553.053	17245.75
553.417	17214.56
553.78	17428.34
554.143	17371.85
554.507	17535.01
554.87	17519.19
555.234	17761.44
555.597	17543.59
555.96	17698.84
556.323	17825.62
556.686	17714.44
557.05	17885.73
557.413	17918.05
557.776	17971.15
558.139	18134.31
558.502	18187.42
558.865	18192.84
559.228	18198.94
559.59	18374.76
559.953	18408.65
560.316	18623.11
560.679	18616.56
561.041	18724.8
561.404	18694.07
561.767	18832.15
562.129	18874.86
562.492	19061.97
562.854	18982.42
563.217	18960.28
563.579	19074.17
563.941	19156.66
564.304	19261.29
564.666	19341.74
565.028	19333.38
565.39	19412.02
565.753	19545.57
566.115	19721.39
566.477	19667.15
566.839	19760.48
567.201	19833.48
567.563	19839.13
567.925	20065.11
568.287	20085.9
568.648	20130.87
569.01	20200.25
569.372	20368.6
569.734	20312.11
570.095	20562.04
570.457	20541.25
570.819	20676.62
571.18	20626.22
571.542	20825.09
571.903	20824.86
572.265	20891.98
572.626	21061.92
572.987	21014.01
573.349	21205.42
573.71	21260.78
574.071	21387.56
574.432	21379.42
574.794	21604.95
575.155	21743.48
575.516	21730.15
575.877	21876.81
576.238	22006.3
576.599	22211.04
576.96	22101.89
577.32	22275.22
577.681	22413.29
578.042	22666.17
578.403	22717.47
578.763	22658.03
579.124	22924.47
579.485	23069.1
579.845	23319.03
580.206	23362.42
580.566	23492.14
580.927	23679.02
581.287	23944.78
581.648	23869.98
582.008	24089.41
582.368	24343.64
582.728	24373.7
583.089	24530.53
583.449	24715.16
583.809	24868.15
584.169	25125.31
584.529	25204.63
584.889	25551.29
585.249	25604.62
585.609	25712.42
585.969	26003.93
586.329	26170.71
586.688	26368.22
587.048	26569.8
587.408	26801.88
587.768	26994.64
588.127	27236.67
588.487	27371.36
588.846	27761.18
589.206	27675.76
589.565	27912.81
589.925	28324.1
590.284	28429.18
590.643	28532.23
591.003	28831.66
591.362	29263.28
591.721	29282.72
592.08	29460.79
592.44	29781.24
592.799	29995.69
593.158	30020.1
593.517	30308.45
593.876	30548.45
594.235	30809.23
594.593	31030.02
594.952	31341.87
595.311	31415.32
595.67	31715.2
596.029	32037.67
596.387	32153.15
596.746	32356.54
597.104	32484.67
597.463	32567.6
597.822	33034.71
598.18	32992.45
598.538	33210.07
598.897	33589.5
599.255	33472.21
599.613	34134.34
599.972	34009.37
600.33	34356.48
600.688	34432.19
601.046	34600.77
601.404	34875.11
601.762	34915.11
602.12	35205.73
602.478	35344.71
602.836	35581.08
603.194	35434.87
603.552	35745.83
603.91	35871.7
604.268	36200.73
604.625	36127.28
604.983	36469.42
605.341	36460.84
605.698	36803.65
606.056	36841.16
606.413	36910.77
606.771	37182.85
607.128	37286.8
607.485	37314.15
607.843	37397.31
608.2	37837.75
608.557	38056.73
608.914	38035.71
609.272	38253.1
609.629	38398.19
609.986	38579.88
610.343	38550.27
610.7	38867.33
611.057	38976.93
611.414	38982.12
611.771	39099.86
612.127	39413.3
612.484	39450.59
612.841	39741.88
613.198	39538.04
613.554	39724.25
613.911	40032.04
614.267	40015.77
614.624	39963.12
614.98	40167.86
615.337	40526.04
615.693	40592.93
616.05	40428.19
616.406	40832.7
616.762	40733.94
617.118	40744.56
617.475	40834.28
617.831	40938.01
618.187	40951.34
618.543	41342.97
618.899	41394.72
619.255	41425.45
619.611	41429.52
619.967	41749.96
620.323	41847.13
620.678	41673.58
621.034	41680.58
621.39	41716.52
621.746	41776.85
622.101	42273.56
622.457	42203.73
622.812	42113.34
623.168	42176.84
623.523	42207.35
623.879	42324.64
624.234	42153.57
624.589	42337.74
624.945	42506.33
625.3	42614.57
625.655	42527.79
626.01	42568.47
626.365	42632.2
626.72	42641.24
627.075	42627
627.43	42676.49
627.785	42614.35
628.14	42786.54
628.495	42691.63
628.85	42808.46
629.205	42698.41
629.559	42894.79
629.914	42871.51
630.269	42770.27
630.623	42724.4
630.978	42763.49
631.332	43036.03
631.687	43018.18
632.041	42853.66
632.396	42926.88
632.75	42700.22
633.104	42973.66
633.459	42678.75
633.813	42709.94
634.167	42738.18
634.521	42827.67
634.875	42727.56
635.229	42795.58
635.583	42679.65
635.937	42647.34
636.291	42714
636.645	42804.4
636.999	42643.72
637.352	42829.26
637.706	42608.24
638.06	42632.42
638.413	42681.24
638.767	42558.3
639.121	42525.31
639.474	42455.25
639.828	42502.48
640.181	42540.45
640.534	42554.91
640.888	42320.79
641.241	42212.55
641.594	42285.99
641.947	42349.04
642.301	42324.86
642.654	42514.91
643.007	42262.72
643.36	42309.95
643.713	42217.75
644.066	42390.4
644.419	42087.81
644.771	41901.14
645.124	41516.07
645.477	41386.36
645.83	41386.81
646.182	41221.16
646.535	41015.97
646.888	41038.79
647.24	40887.39
647.593	41142.52
647.945	41042.18
648.298	40895.75
648.65	40836.31
649.002	40817.1
649.355	41016.65
649.707	40970.32
650.059	40979.81
650.411	41554.26
650.763	41474.94
651.115	41924.19
651.467	41848.49
651.819	41799.68
652.171	41730.08
652.523	41589.97
652.875	41685.33
653.227	41425.68
653.578	41695.05
653.93	41655.5
654.282	41489.18
654.633	41308.17
654.985	41437.2
655.337	41502.06
655.688	41515.84
656.039	41722.39
656.391	41302.06
656.742	41342.51
657.094	41472.91
657.445	41584.99
657.796	41439.24
658.147	41453.47
658.498	41458.9
658.849	41494.6
659.2	41479.46
659.551	41241.05
659.902	41393.36
660.253	41262.06
660.604	41390.42
660.955	41264.1
661.306	41421.83
661.656	41274.27
662.007	41188.62
662.358	41242.63
662.708	41182.97
663.059	41172.35
663.409	41077.44
663.76	41378.22
664.11	41287.15
664.461	41298
664.811	41193.82
665.161	41234.49
665.511	41192.91
665.862	41110.2
666.212	41220.48
666.562	41306.58
666.912	41206.7
667.262	41109.3
667.612	41099.36
667.962	41072.24
668.312	41199.92
668.662	41318.11
669.011	41195.4
669.361	41022.52
669.711	41117.44
670.06	40889.42
670.41	41027.49
670.76	40985.46
671.109	41046.25
671.459	40969.19
671.808	40877.89
672.157	40952.92
672.507	40721.51
672.856	40760.61
673.205	40806.71
673.554	41001.73
673.904	40872.02
674.253	41077.89
674.602	40839.25
674.951	40331.92
675.3	40082.66
675.649	40860.95
675.998	40752.02
676.346	40651.46
676.695	40821.17
677.044	40438.36
677.393	40619.37
677.741	40522.65
678.09	40552.03
678.438	40551.12
678.787	40585.02
679.135	40574.17
679.484	40246.95
679.832	40477.68
680.181	40265.48
680.529	40403.56
680.877	40272.49
681.225	40155.2
681.573	40412.14
681.922	40148.42
682.27	40059.16
682.618	40055.77
682.966	40008.76
683.314	40002.89
683.661	39932.61
684.009	39775.32
684.357	39731.71
684.705	39642.67
685.053	39702.78
685.4	39725.61
685.748	39505.5
686.095	39451.49
686.443	39336.69
686.79	39353.87
687.138	39326.75
687.485	39313.87
687.832	39187.54
688.18	39237.03
688.527	38955.68
688.874	38954.33
689.221	38934.89
689.568	38902.58
689.915	38690.16
690.262	38777.38
690.609	38647.9
690.956	38550.95
691.303	38480.89
691.65	38248.13
691.997	38320.22
692.344	37987.35
692.69	38055.14
693.037	37956.61
693.383	37734.7
693.73	37903.51
694.077	37625.32
694.423	37545.78
694.769	37540.58
695.116	37456.74
695.462	37423.97
695.808	37309.4
696.155	37550.3
696.501	37067.82
696.847	37054.04
697.193	36792.35
697.539	36980.82
697.885	36703.31
698.231	36601.17
698.577	36623.09
698.923	36561.17
699.269	36504.45
699.614	36219.71
699.96	36090.22
700.306	36233.04
700.651	36019.94
700.997	35888.65
701.342	35902.43
701.688	35860.62
702.033	35679.84
702.379	35813.62
702.724	35518.49
703.069	35636.22
703.415	35350.13
703.76	35301.54
704.105	35334.54
704.45	35321.88
704.795	34983.81
705.14	34859.75
705.485	34871.72
705.83	34816.58
706.175	34918.5
706.52	34665.4
706.865	34578.4
707.209	34493.2
707.554	34410.72
707.899	34432.64
708.243	34228.58
708.588	34320.33
708.932	34093.21
709.277	34035.36
709.621	33927.12
709.966	33807.57
710.31	33821.36
710.654	33638.08
710.998	33682.38
711.342	33689.83
711.687	33451.87
712.031	33407.58
712.375	33320.58
712.719	33203.29
713.063	33199.45
713.407	33343.18
713.75	33142.96
714.094	33132.79
714.438	33023.19
714.782	33036.74
715.125	32782.06
715.469	32911.78
715.812	32744.55
716.156	32742.51
716.499	32752.46
716.843	32635.62
717.186	32494.84
717.53	32615.51
717.873	32569.19
718.216	32389.76
718.559	32352.02
718.902	32201.51
719.246	32178.91
719.589	32044.23
719.932	32028.86
720.275	32099.82
720.617	31946.38
720.96	31923.55
721.303	31818.02
721.646	31897.11
721.989	31673.16
722.331	31682.2
722.674	31618.48
723.016	31700.96
723.359	31548.65
723.701	31672.03
724.044	31407.63
724.386	31283.12
724.729	31541.64
725.071	31301.2
725.413	31395.66
725.755	31310.01
726.097	31020.53
726.439	31009
726.782	31021.2
727.124	31176
727.465	30884.94
727.807	30897.59
728.149	30765.84
728.491	30952.73
728.833	30829.57
729.175	30751.15
729.516	30616.47
729.858	30648.33
730.199	30591.84
730.541	30584.61
730.882	30453.54
731.224	30653.3
731.565	30437.94
731.906	30398.85
732.248	30361.79
732.589	30215.35
732.93	30079.08
733.271	30134.45
733.612	30225.07
733.953	30215.8
734.294	30055.58
734.635	30085.86
734.976	30218.51
735.317	29876.83
735.658	29934.68
735.999	29871.18
736.339	29875.02
736.68	29831.63
737.021	29760.9
737.361	29603.16
737.702	29840.67
738.042	29761.58
738.383	29588.7
738.723	29593.22
739.063	29565.88
739.404	29480.68
739.744	29504.18
740.084	29294.24
740.424	29365.65
740.764	29284.98
741.104	29352.1
741.444	29117.53
741.784	29123.85
742.124	29168.37
742.464	29107.81
742.804	29090.86
743.143	29142.38
743.483	29069.17
743.823	28965.44
744.162	28947.36
744.502	28859.23
744.841	28633.47
745.181	28852.9
745.52	28727.48
745.86	28730.42
746.199	28669.18
746.538	28616.97
746.877	28726.8
747.216	28719.12
747.556	28430.76
747.895	28494.72
748.234	28394.15
748.573	28390.99
748.911	28253.14
749.25	28299.47
749.589	28142.18
749.928	28189.64
750.267	28313.7
750.605	28101.05
750.944	27996.65
751.283	28050.43
751.621	28016.99
751.96	27894.51
752.298	27858.35
752.636	27914.17
752.975	27649.99
753.313	27478.25
753.651	27824.9
753.989	27483.22
754.327	27598.24
754.666	27404.12
755.004	27480.28
755.342	27421.75
755.679	27440.06
756.017	27238.93
756.355	27305.6
756.693	27174.98
757.031	27183.11
757.368	27075.55
757.706	27124.36
758.044	26883.23
758.381	26964.14
758.719	26840.07
759.056	26839.85
759.394	26738.15
759.731	26606.63
760.068	26486.18
760.405	26511.27
760.743	26458.84
761.08	26410.25
761.417	26268.11
761.754	26301.33
762.091	26219.75
762.428	26121.45
762.765	25900.89
763.102	26009.81
763.438	25916.03
763.775	25738.86
764.112	25730.95
764.449	25794.22
764.785	25608.69
765.122	25602.36
765.458	25405.08
765.795	25390.62
766.131	25229.94
766.467	25192.88
766.804	25009.84
767.14	25093.68
767.476	24967.58
767.812	24788.37
768.148	24891.42
768.485	24636.06
768.821	24608.04
769.157	24539.11
769.492	24463.18
769.828	24403.53
770.164	24166.02
770.5	24187.03
770.836	24275.17
771.171	24016.19
771.507	23954.5
771.842	23745.92
772.178	23768.29
772.513	23762.64
772.849	23659.36
773.184	23634.28
773.519	23565.81
773.855	23453.04
774.19	23329.2
774.525	23178.7
774.86	23150.22
775.195	23075.88
775.53	22990.68
775.865	22869.55
776.2	22746.39
776.535	22674.3
776.87	22633.63
777.205	22497.13
777.539	22366.97
777.874	22494.2
778.209	22321.09
778.543	22323.13
778.878	22213.3
779.212	22063.47
779.547	21966.98
779.881	22058.28
780.215	21794.33
780.55	21894.66
780.884	21731.05
781.218	21735.57
781.552	21658.96
781.886	21590.04
782.22	21382.36
782.554	21363.15
782.888	21185.3
783.222	21214.23
783.556	21108.47
783.889	20976.5
784.223	20820.12
784.557	20728.14
784.89	20796.61
785.224	20761.13
785.557	20609.27
785.891	20597.3
786.224	20549.16
786.558	20496.06
786.891	20290.41
787.224	20259.23
787.557	20249.51
787.891	20017.88
788.224	20167.03
788.557	20098.33
788.89	20045.67
789.223	20018.33
789.556	19836.41
789.888	19794.83
790.221	19708.06
790.554	19535.18
790.887	19562.07
791.219	19463.77
791.552	19521.62
791.884	19257.45
792.217	19278.91
792.549	19215.41
792.882	19060.16
793.214	19059.26
793.546	18921.41
793.879	18945.59
794.211	18801.64
794.543	18835.76
794.875	18696.1
795.207	18777.68
795.539	18818.81
795.871	18625.15
796.203	18473.29
796.535	18422.44
796.867	18345.83
797.198	18366.85
797.53	18262.67
797.862	18184.03
798.193	18246.17
798.525	18112.17
798.856	18091.6
799.188	17871.95
799.519	17892.28
799.85	17745.17
800.182	17752.4
800.513	17728.22
800.844	17551.73
801.175	17739.29
801.506	17669.92
801.837	17545.85
802.168	17457.94
802.499	17450.26
802.83	17389.47
803.161	17288.46
803.491	17376.82
803.822	17273.09
804.153	17259.53
804.483	17019.76
804.814	16944.74
805.145	16897.96
805.475	16994.23
805.805	16825.65
806.136	16945.19
806.466	16880.33
806.796	16824.52
807.126	16679.89
807.457	16676.72
807.787	16649.83
808.117	16586.56
808.447	16487.12
808.777	16528.25
809.107	16480.8
809.436	16354.92
809.766	16338.43
810.096	16271.99
810.426	16259.78
810.755	16292.55
811.085	16160.58
811.414	16210.07
811.744	16047.36
812.073	15992.9
812.403	15975.95
812.732	15940.92
813.061	15966.23
813.39	15830.19
813.719	15826.8
814.049	15754.71
814.378	15714.26
814.707	15695.96
815.036	15682.85
815.365	15669.29
815.693	15455.51
816.022	15468.84
816.351	15525.79
816.68	15460.94
817.008	15362.63
817.337	15216.2
817.665	15209.64
817.994	15300.49
818.322	15253.94
818.651	15117.67
818.979	15116.54
819.307	15110.89
819.636	15055.3
819.964	15008.97
820.292	15058.01
820.62	15058.23
820.948	15005.81
821.276	15044.45
821.604	15040.61
821.932	14935.75
822.259	15043.09
822.587	14953.83
822.915	14946.82
823.243	14953.38
823.57	14886.04
823.898	14889.42
824.225	14946.82
824.553	14901.63
824.88	14938.24
825.207	14935.75
825.535	14848.07
825.862	14905.47
826.189	14833.83
826.516	14906.83
826.843	14925.58
827.17	14934.62
827.497	14939.14
827.824	14961.97
828.151	14919.25
828.478	14893.94
828.805	14937.33
829.131	14857.34
829.458	14868.63
829.785	14825.25
830.111	14782.54
830.438	14875.19
830.764	14805.36
831.09	14877.22
831.417	14755.87
831.743	14800.61
832.069	14897.11
832.395	14742.31
832.722	14823.66
833.048	14754.06
833.374	14788.41
833.7	14655.31
834.026	14647.4
834.351	14775.98
834.677	14690.33
835.003	14691.69
835.329	14696.44
835.654	14661.63
835.98	14541.19
836.306	14622.31
836.631	14553.16
836.956	14627.28
837.282	14573.28
837.607	14531.24
837.932	14463.22
838.258	14492.37
838.583	14463.22
838.908	14426.39
839.233	14353.39
839.558	14289.67
839.883	14305.49
840.208	14185.49
840.533	14254.87
840.858	14209.44
841.182	14263.9
841.507	14179.61
841.832	14162.89
842.156	14107.98
842.481	14156.34
842.805	14134.42
843.13	14084.93
843.454	14042.89
843.778	13970.13
844.103	13942.78
844.427	13846.51
844.751	13893.97
845.075	13867.98
845.399	13852.62
845.723	13655.33
846.047	13790.47
846.371	13602.45
846.695	13641.55
847.019	13534.66
847.343	13530.59
847.666	13399.75
847.99	13374.21
848.313	13378.73
848.637	13320.43
848.96	13330.14
849.284	13264.61
849.607	13165.4
849.931	13061.68
850.254	12959.98
850.577	12981.68
850.9	12839.99
851.223	12843.6
851.546	12753.21
851.869	12732.42
852.192	12806.09
852.515	12677.28
852.838	12537.85
853.161	12633.44
853.483	12529.03
853.806	12575.14
854.129	12442.48
854.451	12428.47
854.774	12334.01
855.096	12357.51
855.419	12300.57
855.741	12228.93
856.063	12187.8
856.385	12119.1
856.708	12091.76
857.03	12117.07
857.352	12035.71
857.674	12083.85
857.996	11920.69
858.318	11872.33
858.64	11870.52
858.961	11858.09
859.283	11854.93
859.605	11762.28
859.926	11788.26
860.248	11789.39
860.57	11660.13
860.891	11654.93
861.212	11607.93
861.534	11610.64
861.855	11541.04
862.176	11492
862.498	11543.98
862.819	11574.94
863.14	11546.91
863.461	11494.49
863.782	11439.8
864.103	11463.75
864.424	11429.4
864.745	11429.4
865.065	11314.6
865.386	11320.93
865.707	11343.76
866.027	11345.34
866.348	11269.86
866.668	11208.84
866.989	11294.72
867.309	11193.25
867.63	11178.34
867.95	11153.48
868.27	11109.41
868.59	11150.54
868.91	11120.03
869.23	11103.08
869.55	11036.64
869.87	11151.67
870.19	11061.05
870.51	11056.08
870.83	10987.61
871.15	10992.13
871.469	11026.02
871.789	11068.51
872.109	10967.27
872.428	10923.88
872.748	10951.22
873.067	10875.97
873.386	10885.91
873.706	10871.68
874.025	10844.79
874.344	10795.3
874.663	10873.03
874.982	10794.39
875.301	10770.44
875.62	10752.81
875.939	10744.9
876.258	10733.6
876.577	10643.21
876.896	10653.15
877.214	10568.63
877.533	10654.06
877.852	10593.49
878.17	10628.52
878.489	10595.98
878.807	10537.9
879.125	10532.93
879.444	10448.41
879.762	10499.26
880.08	10502.65
880.398	10478.24
880.716	10480.5
881.034	10391.92
881.352	10357.79
881.67	10344.46
881.988	10335.19
882.306	10437.56
882.624	10279.38
882.941	10217.68
883.259	10185.14
883.577	10216.78
883.894	10212.03
884.212	10156.89
884.529	10179.94
884.846	10130.68
885.164	10092.94
885.481	10078.48
885.798	10071.02
886.115	9967.29
886.432	10049.55
886.75	10002.55
887.067	10070.57
887.383	9953.06
887.7	10021.08
888.017	9890.23
888.334	9928.88
888.651	9904.25
888.967	9830.8
889.284	9772.05
889.6	9812.95
889.917	9721.2
890.233	9703.35
890.55	9707.87
890.866	9696.12
891.182	9638.72
891.498	9623.8
891.815	9626.29
892.131	9540.19
892.447	9536.57
892.763	9467.65
893.079	9457.25
893.395	9413.86
893.71	9404.15
894.026	9381.55
894.342	9347.65
894.657	9280.53
894.973	9322.57
895.289	9349.01
895.604	9269.46
895.92	9247.31
896.235	9182
896.55	9213.19
896.865	9175.45
897.181	9083.93
897.496	9118.96
897.811	9014.1
898.126	9045.51
898.441	8934.78
898.756	8954.89
899.071	8916.7
899.386	8953.31
899.7	8808.68
900.015	8795.35
900.33	8756.03
900.644	8778.63
900.959	8751.96
901.273	8662.47
901.588	8691.4
901.902	8639.42
902.216	8615.24
902.531	8577.05
902.845	8525.52
903.159	8550.83
903.473	8469.48
903.787	8386.55
904.101	8351.74
904.415	8396.26
904.729	8437.62
905.042	8387
905.356	8287.34
905.67	8322.82
905.984	8241.92
906.297	8178.19
906.611	8113.78
906.924	8152.65
907.237	8148.59
907.551	8066.78
907.864	8037.18
908.177	8054.8
908.491	7949.49
908.804	7955.82
909.117	7876.95
909.43	7974.8
909.743	7842.83
910.056	7805.54
910.368	7813.9
910.681	7719.22
910.994	7738.2
911.307	7700.91
911.619	7654.81
911.932	7590.18
912.244	7571.2
912.557	7618.2
912.869	7521.03
913.181	7441.71
913.494	7520.35
913.806	7407.36
914.118	7415.5
914.43	7382.28
914.742	7424.54
915.054	7320.58
915.366	7314.26
915.678	7261.6
915.99	7285.78
916.302	7206.92
916.613	7155.39
916.925	7124.21
917.236	7107.03
917.548	7086.47
917.859	7053.7
918.171	7061.83
918.482	6987.94
918.794	6988.84
919.105	6944.78
919.416	6927.15
919.727	6886.02
920.038	6856.42
920.349	6809.86
920.66	6812.58
920.971	6773.48
921.282	6735.74
921.593	6745.01
921.903	6647.83
922.214	6651.22
922.525	6616.42
922.835	6628.4
923.146	6555.86
923.456	6539.81
923.767	6525.58
924.077	6553.37
924.387	6479.48
924.697	6458.01
925.008	6404.68
925.318	6396.09
925.628	6339.82
925.938	6309.31
926.248	6285.13
926.558	6260.27
926.867	6218.24
927.177	6151.35
927.487	6183.44
927.796	6146.83
928.106	6146.15
928.416	6137.79
928.725	6117.23
929.034	6082.42
929.344	6097.11
929.653	5994.29
929.962	6001.52
930.271	5938.02
930.581	5933.5
930.89	5893.28
931.199	5861.19
931.508	5863.45
931.817	5832.04
932.125	5818.25
932.434	5838.14
932.743	5719.5
933.051	5705.26
933.36	5681.98
933.669	5690.34
933.977	5666.16
934.286	5608.31
934.594	5630.91
934.902	5531.25
935.21	5549.11
935.519	5531.7
935.827	5533.29
936.135	5497.13
936.443	5409.9
936.751	5409
937.059	5427.07
937.367	5398.83
937.674	5411.03
937.982	5380.52
938.29	5338.49
938.597	5316.57
938.905	5225.95
939.213	5247.64
939.52	5228.21
939.827	5259.4
940.135	5173.3
940.442	5179.17
940.749	5110.02
941.056	5140.53
941.363	5078.84
941.67	5079.29
941.977	5070.02
942.284	4995.67
942.591	5024.6
942.898	5022.57
943.205	5002.91
943.511	5001.78
943.818	4942.57
944.125	4902.57
944.431	4876.81
944.738	4861.21
945.044	4855.11
945.35	4873.87
945.657	4785.28
945.963	4801.55
946.269	4744.83
946.575	4757.26
946.881	4684.72
947.187	4721.78
947.493	4660.77
947.799	4688.34
948.105	4666.42
948.41	4606.31
948.716	4596.81
949.022	4603.59
949.327	4590.49
949.633	4537.61
949.938	4494.22
950.244	4496.7
950.549	4437.72
950.854	4440.43
951.16	4446.54
951.465	4440.89
951.77	4406.08
952.075	4396.37
952.38	4366.31
952.685	4343.04
952.99	4283.38
953.294	4324.28
953.599	4264.85
953.904	4269.59
954.209	4255.81
954.513	4197.73
954.818	4161.35
955.122	4227.78
955.426	4201.12
955.731	4169.71
956.035	4134
956.339	4157.96
956.643	4098.3
956.948	4080.44
957.252	4068.01
957.556	4060.78
957.86	3981.69
958.163	4004.74
958.467	4005.64
958.771	3966.77
959.075	3993.44
959.378	3948.92
959.682	3945.53
959.985	3937.4
960.289	3903.5
960.592	3877.51
960.896	3887.91
961.199	3872.09
961.502	3882.93
961.805	3813.56
962.108	3831.86
962.411	3781.24
962.714	3763.62
963.017	3749.6
963.32	3735.37
963.623	3679.1
963.926	3710.51
964.228	3700.11
964.531	3688.14
964.833	3657.63
965.136	3615.6
965.438	3632.32
965.741	3550.06
966.043	3582.83
966.345	3558.2
966.648	3558.65
966.95	3531.31
967.252	3530.4
967.554	3504.64
967.856	3463.06
968.158	3456.96
968.46	3480.69
968.761	3433
969.063	3424.87
969.365	3412.44
969.666	3368.37
969.968	3397.07
970.269	3349.39
970.571	3359.11
970.872	3360.69
971.174	3336.73
971.475	3313.68
971.776	3320.01
972.077	3327.47
972.378	3292.89
972.679	3260.58
972.98	3277.07
973.281	3250.41
973.582	3263.97
973.883	3205.44
974.183	3204.08
974.484	3181.26
974.785	3165.67
975.085	3153.24
975.386	3166.12
975.686	3150.07
975.986	3142.84
976.287	3114.82
976.587	3060.81
976.887	3055.39
977.187	3086.12
977.487	3047.25
977.787	3047.02
978.087	3067.59
978.387	3028.49
978.687	3005.22
978.987	3022.17
979.286	2942.39
979.586	2976.29
979.885	2908.72
980.185	2952.34
980.484	2903.07
980.784	2911.21
981.083	2867.14
981.382	2889.29
981.682	2866.46
981.981	2854.26
982.28	2826.69
982.579	2810.65
982.878	2842.06
983.177	2828.5
983.475	2790.53
983.774	2747.6
984.073	2753.25
984.372	2739.46
984.67	2753.7
984.969	2723.19
985.267	2707.82
985.566	2681.16
985.864	2710.54
986.162	2693.59
986.461	2668.28
986.759	2645.23
987.057	2617.66
987.355	2625.11
987.653	2627.37
987.951	2624.21
988.249	2548.51
988.547	2588.96
988.844	2559.13
989.142	2549.18
989.44	2561.16
989.737	2516.87
990.035	2524.78
990.332	2503.76
990.63	2491.33
990.927	2492.91
991.224	2456.08
991.521	2478.68
991.819	2455.85
992.116	2443.88
992.413	2442.75
992.71	2395.06
993.006	2409.08
993.303	2391
993.6	2377.66
993.897	2370.21
994.193	2374.27
994.49	2368.4
994.787	2280.26
995.083	2286.82
995.379	2321.62
995.676	2321.39
995.972	2282.52
996.268	2285.69
996.565	2221.74
996.861	2246.14
997.157	2252.7
997.453	2283.43
997.749	2226.48
998.044	2192.36
998.34	2218.12
998.636	2216.76
998.932	2169.08
999.227	2158.23
999.523	2193.26
999.818	2165.47
1000.114	2125.24
1000.409	2124.56
1000.704	2122.75
1001	2120.72
1001.295	2087.05
1001.59	2087.73
1001.885	2097.67
1002.18	2094.28
1002.475	2041.63
1002.77	2054.73
1003.065	2038.46
1003.359	2038.01
1003.654	1996.66
1003.949	1991.46
1004.243	2011.8
1004.538	1963.89
1004.832	1970.22
1005.127	1993.27
1005.421	1933.61
1005.715	1920.05
1006.009	1925.25
1006.304	1927.05
1006.598	1915.3
1006.892	1927.96
1007.186	1869.88
1007.48	1862.42
1007.773	1868.3
1008.067	1881.18
1008.361	1839.37
1008.655	1849.77
1008.948	1826.27
1009.242	1800.05
1009.535	1790.79
1009.829	1784.23
1010.122	1752.37
1010.415	1760.28
1010.708	1781.52
1011.001	1766.83
1011.295	1760.28
1011.588	1723.67
1011.881	1707.85
1012.173	1695.65
1012.466	1710.79
1012.759	1718.47
1013.052	1695.42
1013.344	1658.59
1013.637	1663.78
1013.93	1617.46
1014.222	1636.44
1014.514	1640.06
1014.807	1608.42
1015.099	1646.84
1015.391	1574.29
1015.683	1581.3
1015.976	1560.74
1016.268	1566.84
1016.56	1576.55
1016.851	1562.54
1017.143	1537.01
1017.435	1532.04
1017.727	1537.91
1018.018	1500.4
1018.31	1487.52
1018.602	1498.14
1018.893	1494.3
1019.185	1487.07
1019.476	1452.72
1019.767	1440.51
1020.058	1464.69
1020.35	1429.21
1020.641	1391.02
1020.932	1436.45
1021.223	1422.21
1021.514	1408.2
1021.804	1362.77
1022.095	1355.32
1022.386	1369.55
1022.677	1353.74
1022.967	1366.39
1023.258	1346.28
1023.548	1342.21
1023.839	1337.92
1024.129	1334.3
1024.419	1303.79
1024.709	1306.28
1025	1301.08
1025.29	1279.16
1025.58	1271.7
1025.87	1250.24
1026.16	1258.14
1026.449	1279.16
1026.739	1253.17
1027.029	1265.15
1027.319	1243.91
1027.608	1224.47
1027.898	1214.3
1028.187	1212.5
1028.477	1217.47
1028.766	1189.67
1029.055	1204.81
1029.344	1167.98
1029.634	1177.47
1029.923	1157.13
1030.212	1137.47
1030.501	1158.94
1030.79	1118.49
1031.078	1134.76
1031.367	1111.93
1031.656	1121.43
1031.945	1109.22
1032.233	1099.73
1032.522	1065.83
1032.81	1085.27
1033.099	1079.84
1033.387	1092.5
1033.675	1099.96
1033.963	1068.09
1034.251	1047.75
1034.54	1070.35
1034.828	1072.16
1035.116	1051.82
1035.403	1045.27
1035.691	1008.89
1035.979	1041.65
1036.267	991.71
1036.554	1004.82
1036.842	1000.98
1037.129	1003.01
1037.417	1000.52
1037.704	991.49
1037.992	956.46
1038.279	959.62
1038.566	967.98
1038.853	967.98
1039.14	967.98
