Data from hue_180_FLMS001491_00028.txt Node
Date: Tue Feb 07 16:46:46 GMT 2017
User: dcchb
Spectrometer: FLMS00149
Trigger mode: 0
Integration Time (sec): 2.000000E-2
Scans to average: 10
Electric dark correction enabled: true
Nonlinearity correction enabled: false
Boxcar width: 0
XAxis mode: Wavelengths
Number of Pixels in Spectrum: 2048
>>>>>Begin Spectral Data<<<<<
341.393	-17.53
341.776	-17.53
342.16	-17.53
342.543	-81.48
342.927	-93.01
343.31	-83.51
343.693	-67.92
344.077	-61.59
344.46	-65.66
344.843	-57.53
345.226	-46.91
345.61	-34.7
345.993	-8.26
346.376	10.95
346.759	15.47
347.142	48.01
347.525	45.97
347.908	59.31
348.291	73.77
348.674	79.87
349.057	92.75
349.44	115.8
349.823	142.92
350.206	141.79
350.588	198.74
350.971	211.84
351.354	204.84
351.737	233.77
352.119	232.41
352.502	253.43
352.884	264.72
353.267	282.58
353.65	301.79
354.032	283.71
354.414	287.1
354.797	302.01
355.179	292.97
355.562	313.99
355.944	317.6
356.326	345.4
356.709	330.94
357.091	318.28
357.473	330.94
357.855	336.36
358.238	341.11
358.62	335.23
359.002	337.49
359.384	329.81
359.766	347.43
360.148	334.78
360.53	327.1
360.912	323.48
361.294	338.85
361.676	328.68
362.057	334.55
362.439	322.8
362.821	320.99
363.203	324.38
363.584	298.17
363.966	303.14
364.348	305.85
364.729	318.73
365.111	318.96
365.493	292.75
365.874	293.42
366.256	280.77
366.637	309.47
367.019	304.5
367.4	303.59
367.781	304.72
368.163	315.57
368.544	322.35
368.925	330.49
369.306	300.2
369.688	330.03
370.069	323.93
370.45	313.08
370.831	303.59
371.212	291.62
371.593	314.44
371.974	314.44
372.355	304.95
372.736	313.76
373.117	316.7
373.498	296.59
373.879	316.02
374.26	307.89
374.641	311.28
375.021	288.45
375.402	311.73
375.783	296.81
376.163	310.37
376.544	309.02
376.925	335.68
377.305	315.12
377.686	310.15
378.066	307.89
378.447	313.08
378.827	332.97
379.208	302.69
379.588	337.94
379.968	316.02
380.349	318.73
380.729	326.19
381.109	323.48
381.489	336.81
381.87	306.31
382.25	326.87
382.63	340.2
383.01	322.58
383.39	316.93
383.77	308.11
384.15	337.72
384.53	339.75
384.91	307.44
385.29	341.78
385.67	341.11
386.049	332.07
386.429	351.05
386.809	342.91
387.189	355.12
387.568	347.43
387.948	340.43
388.328	349.69
388.707	355.57
389.087	331.84
389.466	356.93
389.846	344.95
390.225	342.24
390.605	358.28
390.984	368.68
391.363	353.99
391.743	351.73
392.122	368
392.501	372.29
392.881	371.39
393.26	364.61
393.639	356.7
394.018	360.32
394.397	377.72
394.776	374.55
395.155	366.19
395.534	371.61
395.913	344.04
396.292	366.87
396.671	383.82
397.05	387.89
397.429	370.26
397.808	400.99
398.186	387.21
398.565	396.92
398.944	373.42
399.323	392.63
399.701	400.09
400.08	390.82
400.458	411.16
400.837	397.15
401.215	401.22
401.594	387.21
401.972	410.71
402.351	405.74
402.729	397.38
403.107	403.48
403.486	409.58
403.864	437.38
404.242	419.75
404.62	393.99
404.999	432.63
405.377	415
405.755	438.73
406.133	431.27
406.511	435.57
406.889	449.35
407.267	454.32
407.645	438.05
408.023	452.06
408.401	452.29
408.779	462.91
409.156	455
409.534	486.41
409.912	487.32
410.29	492.29
410.667	495.45
411.045	494.32
411.422	502.23
411.8	502.91
412.178	529.12
412.555	537.03
412.933	525.06
413.31	533.19
413.687	549.01
414.065	560.54
414.442	581.78
414.819	570.71
415.197	593.3
415.574	583.13
415.951	594.66
416.328	570.03
416.705	593.76
417.082	619.74
417.46	599.63
417.837	630.36
418.214	620.65
418.591	646.64
418.967	652.74
419.344	652.96
419.721	637.82
420.098	659.74
420.475	683.02
420.852	678.5
421.228	693.87
421.605	685.73
421.982	690.93
422.358	722.57
422.735	728.89
423.111	719.18
423.488	745.16
423.864	767.99
424.241	752.17
424.617	782.23
424.994	814.77
425.37	799.4
425.746	788.1
426.123	832.62
426.499	808.67
426.875	846.18
427.251	845.5
427.627	862.22
428.003	875.78
428.379	868.1
428.756	920.07
429.132	903.13
429.507	914.2
429.883	904.03
430.259	940.87
430.635	933.63
431.011	930.02
431.387	988.32
431.763	981.77
432.138	975.67
432.514	1028.77
432.89	1020.19
433.265	1046.17
433.641	1060.18
434.016	1070.35
434.392	1099.96
434.767	1099.5
435.143	1139.73
435.518	1145.61
435.894	1154.19
436.269	1171.37
436.644	1189.22
437.02	1189.67
437.395	1209.78
437.77	1239.39
438.145	1264.47
438.52	1270.8
438.895	1298.6
439.271	1305.6
439.646	1323
440.021	1351.25
440.395	1348.31
440.77	1345.83
441.145	1382.66
441.52	1391.7
441.895	1400.51
442.27	1430.57
442.645	1416.11
443.019	1448.65
443.394	1450.68
443.769	1490.23
444.143	1480.74
444.518	1523.22
444.892	1524.35
445.267	1562.32
445.641	1552.6
446.016	1556.22
446.39	1574.07
446.764	1568.87
447.139	1589.66
447.513	1599.15
447.887	1607.06
448.262	1627.4
448.636	1608.87
449.01	1659.94
449.384	1664.46
449.758	1687.29
450.132	1712.14
450.506	1722.99
450.88	1731.58
451.254	1749.43
451.628	1764.35
452.002	1766.83
452.376	1794.85
452.75	1798.24
453.123	1818.13
453.497	1883.21
453.871	1864.91
454.244	1900.84
454.618	1912.36
454.992	1969.76
455.365	1941.74
455.739	2042.76
456.112	2029.2
456.486	2020.61
456.859	2061.29
457.232	2108.52
457.606	2084.11
457.979	2111.46
458.352	2166.14
458.725	2229.42
459.099	2226.93
459.472	2251.57
459.845	2257.44
460.218	2299.7
460.591	2303.09
460.964	2320.94
461.337	2366.36
461.71	2400.26
462.083	2459.47
462.456	2463.76
462.829	2525
463.201	2516.19
463.574	2514.61
463.947	2555.74
464.32	2612.69
464.692	2639.35
465.065	2705.11
465.438	2703.53
465.81	2737.88
466.183	2817.65
466.555	2859.46
466.928	2835.5
467.3	2906.46
467.672	2918.44
468.045	2992.11
468.417	3016.97
468.789	3060.81
469.161	3108.04
469.534	3130.64
469.906	3235.27
470.278	3247.25
470.65	3278.88
471.022	3311.65
471.394	3407.69
471.766	3424.87
472.138	3488.82
472.51	3578.08
472.882	3652.43
473.253	3684.75
473.625	3720.23
473.997	3811.52
474.369	3871.18
474.74	3910.05
475.112	4035.7
475.484	4104.62
475.855	4140.78
476.227	4204.51
476.598	4304.39
476.97	4352.53
477.341	4466.2
477.713	4548
478.084	4565.85
478.455	4723.59
478.827	4769.69
479.198	4917.48
479.569	4931.04
479.94	5100.08
480.311	5138.04
480.682	5306.63
481.053	5427.53
481.424	5474.53
481.795	5514.3
482.166	5641.98
482.537	5724.47
482.908	5859.38
483.279	5888.31
483.65	6044.91
484.021	6217.56
484.391	6279.03
484.762	6328.97
485.133	6427.73
485.503	6533.26
485.874	6691
486.244	6740.26
486.615	6843.99
486.985	6986.81
487.356	7163.3
487.726	7205.33
488.097	7344.54
488.467	7373.01
488.837	7523.06
489.207	7671.54
489.578	7770.97
489.948	7846.9
490.318	7991.53
490.688	8019.78
491.058	8214.35
491.428	8309.03
491.798	8325.76
492.168	8566.43
492.538	8528.01
492.908	8741.34
493.278	8849.13
493.648	8791.96
494.017	9024.49
494.387	9056.81
494.757	9063.59
495.126	9230.36
495.496	9207.09
495.866	9298.16
496.235	9351.94
496.605	9480.53
496.974	9521.66
497.344	9677.36
497.713	9647.08
498.082	9781.31
498.452	9787.41
498.821	9845.04
499.19	9815.43
499.559	9920.97
499.928	9961.42
500.298	10106.95
500.667	10140.17
501.036	10132.49
501.405	10183.11
501.774	10243.9
502.143	10270.34
502.512	10401.86
502.88	10435.53
503.249	10465.59
503.618	10495.87
503.987	10521.86
504.356	10629.42
504.724	10664.68
505.093	10602.53
505.462	10627.16
505.83	10644.56
506.199	10749.42
506.567	10849.31
506.936	10803.43
507.304	10904.44
507.672	10912.58
508.041	10861.51
508.409	11029.41
508.777	11074.16
509.145	11102.41
509.514	11070.77
509.882	11166.13
510.25	11153.7
510.618	11226.02
510.986	11221.05
511.354	11325
511.722	11263.53
512.09	11369.29
512.458	11323.87
512.826	11424.66
513.193	11403.41
513.561	11382.85
513.929	11465.79
514.297	11549.63
514.664	11536.74
515.032	11549.85
515.4	11599.79
515.767	11616.97
516.135	11597.31
516.502	11548.95
516.869	11654.71
517.237	11584.88
517.604	11545.33
517.972	11683.18
518.339	11709.4
518.706	11721.15
519.073	11718.89
519.44	11701.94
519.808	11822.16
520.175	11738.55
520.542	11796.17
520.909	11773.57
521.276	11812.9
521.643	11862.61
522.009	11858.77
522.376	11910.52
522.743	11867.13
523.11	11921.59
523.477	11961.82
523.843	11996.85
524.21	11998.88
524.577	12042.49
524.943	12014.02
525.31	11973.34
525.676	12030.97
526.043	12109.61
526.409	12079.56
526.776	12157.52
527.142	12060.8
527.508	12082.72
527.874	11991.42
528.241	12098.54
528.607	12074.58
528.973	12101.25
529.339	12026.22
529.705	12097.41
530.071	12090.85
530.437	12113.23
530.803	12042.27
531.169	11988.48
531.535	12043.85
531.901	11955.04
532.267	12009.73
532.632	11999.56
532.998	11903.97
533.364	11995.49
533.73	11863.06
534.095	11854.93
534.461	11878.2
534.826	11871.88
535.192	11841.14
535.557	11815.38
535.923	11707.14
536.288	11789.85
536.653	11677.53
537.019	11608.83
537.384	11658.1
537.749	11581.49
538.114	11579.46
538.479	11498.78
538.845	11391.44
539.21	11375.84
539.575	11360.93
539.94	11288.39
540.305	11330.42
540.67	11297.88
541.034	11235.96
541.399	11219.01
541.764	11211.1
542.129	11129.98
542.494	11064.89
542.858	11028.28
543.223	11029.19
543.587	11010.88
543.952	10928.85
544.316	10901.73
544.681	10884.78
545.045	10810.44
545.41	10813.6
545.774	10715.07
546.138	10720.72
546.503	10695.64
546.867	10640.5
547.231	10634.62
547.595	10623.55
547.959	10520.05
548.324	10507.17
548.688	10382.88
549.052	10469.43
549.416	10371.13
549.779	10371.8
550.143	10292.48
550.507	10242.99
550.871	10195.31
551.235	10100.62
551.599	10135.65
551.962	10103.79
552.326	10017.46
552.689	10086.61
553.053	9894.98
553.417	9949.22
553.78	10024.92
554.143	9912.83
554.507	9904.92
554.87	9863.34
555.234	9848.65
555.597	9799.39
555.96	9748.77
556.323	9822.67
556.686	9744.25
557.05	9722.33
557.413	9709.67
557.776	9662.9
558.139	9753.74
558.502	9649.34
558.865	9588.32
559.228	9685.95
559.59	9609.11
559.953	9565.72
560.316	9581.77
560.679	9613.18
561.041	9578.6
561.404	9567.76
561.767	9606.4
562.129	9527.76
562.492	9532.96
562.854	9518.27
563.217	9410.02
563.579	9536.35
563.941	9459.96
564.304	9490.7
564.666	9553.75
565.028	9500.64
565.39	9467.87
565.753	9489.11
566.115	9548.55
566.477	9532.28
566.839	9506.74
567.201	9565.5
567.563	9469.68
567.925	9528.89
568.287	9447.76
568.648	9550.13
569.01	9545.84
569.372	9543.8
569.734	9486.4
570.095	9550.81
570.457	9567.76
570.819	9573.63
571.18	9503.35
571.542	9533.18
571.903	9507.65
572.265	9562.11
572.626	9518.72
572.987	9572.28
573.349	9528.66
573.71	9544.71
574.071	9561.88
574.432	9476.69
574.794	9585.38
575.155	9544.03
575.516	9544.03
575.877	9523.01
576.238	9478.04
576.599	9504.03
576.96	9498.38
577.32	9497.02
577.681	9511.71
578.042	9542.9
578.403	9513.07
578.763	9490.92
579.124	9479.62
579.485	9538.61
579.845	9408.67
580.206	9518.94
580.566	9532.96
580.927	9453.86
581.287	9495.44
581.648	9524.14
582.008	9478.27
582.368	9524.82
582.728	9494.99
583.089	9402.56
583.449	9466.52
583.809	9415.9
584.169	9564.59
584.529	9431.04
584.889	9460.87
585.249	9421.32
585.609	9316.92
585.969	9414.77
586.329	9302.23
586.688	9329.57
587.048	9371.15
587.408	9273.75
587.768	9298.84
588.127	9241.44
588.487	9261.1
588.846	9274.43
589.206	9263.58
589.565	9250.7
589.925	9251.38
590.284	9274.43
590.643	9237.14
591.003	9271.95
591.362	9301.55
591.721	9203.47
592.08	9227.2
592.44	9182.46
592.799	9249.35
593.158	9151.5
593.517	9158.05
593.876	9171.38
594.235	9130.03
594.593	9175.9
594.952	9119.63
595.311	9128.45
595.67	9174.09
596.029	9177.26
596.387	9169.58
596.746	9189.91
597.104	9205.28
597.463	9109.46
597.822	9151.95
598.18	9107.66
598.538	9128.45
598.897	9124.15
599.255	9102.23
599.613	9192.85
599.972	9061.56
600.33	9110.59
600.688	9092.97
601.046	9096.58
601.404	9104.04
601.762	9034.21
602.12	9131.38
602.478	9103.81
602.836	9113.31
603.194	9014.33
603.552	9006.42
603.91	9007.55
604.268	9065.17
604.625	9027.66
604.983	9092.74
605.341	9037.15
605.698	9054.32
606.056	9028.56
606.413	9042.12
606.771	9032.4
607.128	9061.56
607.485	9021.56
607.843	9088.45
608.2	9062.23
608.557	9087.32
608.914	9068.56
609.272	9029.69
609.629	9094.1
609.986	9052.97
610.343	9050.03
610.7	9148.33
611.057	9134.32
611.414	9049.13
611.771	9086.41
612.127	9204.6
612.484	9123.47
612.841	9130.93
613.198	9140.65
613.554	9099.97
613.911	9170.03
614.267	9142.01
614.624	9131.38
614.98	9193.53
615.337	9105.17
615.693	9220.2
616.05	9194.21
616.406	9238.05
616.762	9186.75
617.118	9207.99
617.475	9199.41
617.831	9209.57
618.187	9230.14
618.543	9195.34
618.899	9230.59
619.255	9275.34
619.611	9277.14
619.967	9253.87
620.323	9299.06
620.678	9200.99
621.034	9167.99
621.39	9234.21
621.746	9246.64
622.101	9314.66
622.457	9173.42
622.812	9218.84
623.168	9329.8
623.523	9245.73
623.879	9286.41
624.234	9215.22
624.589	9238.27
624.945	9229.01
625.3	9270.14
625.655	9235.34
626.01	9179.97
626.365	9264.49
626.72	9199.63
627.075	9229.69
627.43	9227.88
627.785	9176.58
628.14	9217.26
628.495	9224.49
628.85	9173.64
629.205	9145.85
629.559	9189.01
629.914	9118.73
630.269	9200.99
630.623	9086.19
630.978	9144.49
631.332	9143.36
631.687	9161.21
632.041	9102.46
632.396	9098.84
632.75	9076.47
633.104	9086.64
633.459	9085.74
633.813	9045.96
634.167	9057.71
634.521	9059.3
634.875	8976.13
635.229	9001.44
635.583	8996.47
635.937	8995.79
636.291	9003.48
636.645	8956.93
636.999	8937.72
637.352	8970.94
637.706	8967.32
638.06	8936.36
638.413	8903.59
638.767	8910.15
639.121	8919.86
639.474	8876.7
639.828	8900.2
640.181	8904.5
640.534	8858.85
640.888	8847.32
641.241	8808.45
641.594	8789.7
641.947	8811.17
642.301	8814.56
642.654	8796.48
643.007	8787.44
643.36	8816.59
643.713	8815.46
644.066	8824.05
644.419	8728.68
644.771	8727.33
645.124	8677.84
645.477	8625.41
645.83	8583.83
646.182	8556.26
646.535	8524.85
646.888	8557.39
647.24	8500.44
647.593	8570.27
647.945	8565.3
648.298	8473.32
648.65	8426.09
649.002	8446.2
649.355	8464.96
649.707	8487.11
650.059	8517.16
650.411	8617.73
650.763	8651.4
651.115	8701.11
651.467	8723.94
651.819	8660.66
652.171	8675.8
652.523	8679.19
652.875	8700.21
653.227	8653.66
653.578	8703.37
653.93	8735.24
654.282	8586.77
654.633	8647.33
654.985	8737.72
655.337	8711.96
655.688	8671.28
656.039	8753.32
656.391	8658.4
656.742	8681.23
657.094	8628.35
657.445	8732.07
657.796	8685.07
658.147	8657.5
658.498	8728.68
658.849	8760.55
659.2	8744.28
659.551	8765.29
659.902	8798.96
660.253	8700.44
660.604	8789.25
660.955	8700.44
661.306	8747.21
661.656	8761.68
662.007	8804.84
662.358	8753.77
662.708	8708.34
663.059	8794.44
663.409	8719.87
663.76	8784.73
664.11	8767.55
664.461	8814.78
664.811	8795.12
665.161	8760.09
665.511	8754.44
665.862	8745.86
666.212	8789.7
666.562	8789.47
666.912	8742.02
667.262	8823.37
667.612	8805.29
667.962	8844.16
668.312	8840.54
668.662	8821.11
669.011	8791.05
669.361	8836.48
669.711	8841.45
670.06	8825.86
670.41	8793.09
670.76	8721.23
671.109	8780.43
671.459	8746.54
671.808	8746.76
672.157	8716.71
672.507	8792.64
672.856	8707.89
673.205	8733.2
673.554	8757.83
673.904	8722.81
674.253	8726.88
674.602	8751.28
674.951	8570.95
675.3	8539.54
675.649	8727.1
675.998	8619.08
676.346	8672.41
676.695	8714.67
677.044	8697.27
677.393	8661.57
677.741	8640.32
678.09	8623.15
678.438	8628.12
678.787	8546.99
679.135	8583.83
679.484	8533.89
679.832	8490.72
680.181	8494.34
680.529	8524.62
680.877	8510.38
681.225	8439.2
681.573	8501.12
681.922	8451.85
682.27	8466.09
682.618	8463.15
682.966	8421.8
683.314	8401.46
683.661	8392.42
684.009	8338.86
684.357	8369.37
684.705	8317.17
685.053	8342.93
685.4	8318.3
685.748	8299.99
686.095	8316.26
686.443	8210.28
686.79	8203.72
687.138	8236.49
687.485	8210.28
687.832	8189.71
688.18	8212.09
688.527	8140.22
688.874	8096.16
689.221	8043.73
689.568	8071.07
689.915	8076.95
690.262	7996.27
690.609	7958.53
690.956	7981.36
691.303	7963.05
691.65	7884.86
691.997	7956.95
692.344	7865.88
692.69	7873.79
693.037	7801.93
693.383	7740.01
693.73	7710.18
694.077	7751.76
694.423	7725.09
694.769	7652.55
695.116	7690.29
695.462	7613.91
695.808	7547.92
696.155	7649.16
696.501	7505.89
696.847	7528.26
697.193	7490.07
697.539	7490.75
697.885	7462.5
698.231	7444.87
698.577	7368.27
698.923	7358.78
699.269	7310.64
699.614	7289.4
699.96	7233.36
700.306	7225.9
700.651	7208.5
700.997	7153.13
701.342	7183.64
701.688	7130.31
702.033	7072.91
702.379	7060.48
702.724	7082.4
703.069	7074.26
703.415	6976.86
703.76	6929.18
704.105	6944.1
704.45	6889.64
704.795	6915.62
705.14	6884.21
705.485	6886.47
705.83	6831.56
706.175	6855.06
706.52	6803.31
706.865	6770.54
707.209	6755.4
707.554	6705.69
707.899	6692.58
708.243	6705.91
708.588	6678.57
708.932	6689.41
709.277	6586.14
709.621	6603.09
709.966	6585.01
710.31	6561.28
710.654	6581.17
710.998	6566.25
711.342	6499.36
711.687	6517.89
712.031	6474.05
712.375	6483.09
712.719	6454.84
713.063	6447.39
713.407	6436.54
713.75	6492.36
714.094	6382.76
714.438	6424.34
714.782	6336.43
715.125	6335.75
715.469	6365.81
715.812	6292.59
716.156	6371.46
716.499	6278.35
716.843	6286.94
717.186	6246.71
717.53	6351.12
717.873	6294.17
718.216	6270.44
718.559	6231.12
718.902	6210.56
719.246	6238.13
719.589	6223.21
719.932	6188.41
720.275	6222.53
720.617	6170.78
720.96	6230.9
721.303	6219.14
721.646	6224.57
721.989	6163.55
722.331	6182.54
722.674	6179.82
723.016	6183.67
723.359	6163.55
723.701	6159.48
724.044	6141.63
724.386	6098.7
724.729	6153.16
725.071	6170.33
725.413	6117.45
725.755	6136.21
726.097	6060.73
726.439	6049.66
726.782	6084.23
727.124	6155.19
727.465	6081.29
727.807	6135.76
728.149	6043.78
728.491	6089.43
728.833	6101.86
729.175	6028.41
729.516	6085.81
729.858	6144.12
730.199	6056.89
730.541	6064.35
730.882	6077.23
731.224	6067.74
731.565	6025.25
731.906	6100.96
732.248	6034.29
732.589	6091.01
732.93	6030
733.271	6063.89
733.612	6071.58
733.953	6112.48
734.294	6103.44
734.635	6116.55
734.976	6084.91
735.317	6114.74
735.658	6157
735.999	6073.61
736.339	6062.76
736.68	6140.5
737.021	6177.11
737.361	6052.14
737.702	6139.6
738.042	6149.77
738.383	6124.68
738.723	6197
739.063	6115.42
739.404	6142.54
739.744	6172.14
740.084	6181.86
740.424	6197.9
740.764	6193.61
741.104	6265.7
741.444	6169.2
741.784	6222.99
742.124	6287.17
742.464	6243.55
742.804	6285.58
743.143	6318.35
743.483	6296.88
743.823	6307.28
744.162	6367.62
744.502	6379.59
744.841	6406.48
745.181	6481.74
745.52	6406.48
745.86	6476.99
746.199	6584.33
746.538	6550.89
746.877	6611.22
747.216	6653.48
747.556	6698.23
747.895	6755.4
748.234	6798.34
748.573	6873.36
748.911	6955.62
749.25	6959.46
749.589	6996.3
749.928	7065.9
750.267	7150.42
750.605	7182.28
750.944	7234.71
751.283	7337.76
751.621	7378.44
751.96	7546.57
752.298	7552.67
752.636	7692.33
752.975	7762.83
753.313	7838.08
753.651	8013
753.989	8053.45
754.327	8188.36
754.666	8206.89
755.004	8438.3
755.342	8550.38
755.679	8663.15
756.017	8742.24
756.355	8906.53
756.693	8994.89
757.031	9150.14
757.368	9320.98
757.706	9412.05
758.044	9508.78
758.381	9752.84
758.719	9840.07
759.056	10035.54
759.394	10202.32
759.731	10316.44
760.068	10458.81
760.405	10561.86
760.743	10776.54
761.08	10936.53
761.417	11052.01
761.754	11273.47
762.091	11459.68
762.428	11628.04
762.765	11699.23
763.102	11993.23
763.438	12064.19
763.775	12279.55
764.112	12370.85
764.449	12574.91
764.785	12754.57
765.122	12849.03
765.458	12941.45
765.795	13153.88
766.131	13310.48
766.467	13490.59
766.804	13623.47
767.14	13674.32
767.476	13898.72
767.812	14120.18
768.148	14272.27
768.485	14375.31
768.821	14471.36
769.157	14664.35
769.492	14641.3
769.828	14855.08
770.164	14871.57
770.5	14981.63
770.836	15195.63
771.171	15186.14
771.507	15340.03
771.842	15364.67
772.178	15475.85
772.513	15629.97
772.849	15730.76
773.184	15727.82
773.519	15946.35
773.855	15911.09
774.19	16012.33
774.525	16131.2
774.86	16264.98
775.195	16297.07
775.53	16425.43
775.865	16369.16
776.2	16354.02
776.535	16369.16
776.87	16487.57
777.205	16420.46
777.539	16535.94
777.874	16635.59
778.209	16545.43
778.543	16669.49
778.878	16667.23
779.212	16819.09
779.547	16690.73
779.881	16888.92
780.215	16776.61
780.55	16869.94
780.884	16876.49
781.218	16850.73
781.552	16950.84
781.886	16989.03
782.22	16864.29
782.554	16915.36
782.888	16850.28
783.222	16815.25
783.556	16815.02
783.889	16804.4
784.223	16805.08
784.557	16813.67
784.89	16835.36
785.224	16848.7
785.557	16780
785.891	16834.23
786.224	16830.39
786.558	16852.31
786.891	16712.88
787.224	16702.71
787.557	16712.43
787.891	16613.22
788.224	16725.31
788.557	16768.92
788.89	16662.71
789.223	16835.36
789.556	16636.5
789.888	16688.25
790.221	16571.87
790.554	16413
790.887	16561.47
791.219	16512.43
791.552	16448.71
791.884	16485.54
792.217	16426.56
792.549	16435.6
792.882	16300.01
793.214	16309.05
793.546	16433.79
793.879	16260.91
794.211	16147.7
794.543	16265.21
794.875	16259.33
795.207	16270.18
795.539	16165.1
795.871	16231.99
796.203	16119.68
796.535	16009.85
796.867	15991.09
797.198	15998.1
797.53	16043.97
797.862	15946.12
798.193	15953.8
798.525	15877.87
798.856	15869.96
799.188	15729.4
799.519	15691.44
799.85	15670.65
800.182	15746.8
800.513	15712.68
800.844	15559.92
801.175	15656.41
801.506	15662.96
801.837	15580.25
802.168	15410.99
802.499	15451.9
802.83	15432.24
803.161	15344.55
803.491	15359.7
803.822	15400.6
804.153	15221.39
804.483	15166.71
804.814	15171.45
805.145	15135.29
805.475	15132.81
805.805	15052.13
806.136	15098.68
806.466	15144.79
806.796	15038.57
807.126	14952.02
807.457	14927.84
807.787	14926.71
808.117	14827.28
808.447	14855.3
808.777	14828.64
809.107	14827.73
809.436	14666.83
809.766	14798.35
810.096	14671.58
810.426	14683.1
810.755	14620.73
811.085	14663.22
811.414	14603.33
811.744	14636.55
812.073	14417.35
812.403	14554.97
812.732	14445.82
813.061	14440.4
813.39	14336.45
813.719	14348.42
814.049	14422.77
814.378	14332.6
814.707	14393.84
815.036	14372.38
815.365	14136.22
815.693	14068.2
816.022	14186.39
816.351	14121.31
816.68	14085.6
817.008	14053.51
817.337	14001.31
817.665	14012.84
817.994	13966.74
818.322	13944.36
818.651	13885.61
818.979	13906.63
819.307	13898.94
819.636	13935.1
819.964	13873.63
820.292	13881.32
820.62	13908.66
820.948	13772.17
821.276	13914.31
821.604	13900.07
821.932	13853.52
822.259	13874.31
822.587	13920.41
822.915	13825.95
823.243	13852.62
823.57	13779.62
823.898	13852.62
824.225	13854.2
824.553	13811.94
824.88	13879.51
825.207	13833.86
825.535	13898.94
825.862	13877.47
826.189	13784.14
826.516	13895.1
826.843	13902.78
827.17	13845.61
827.497	13857.36
827.824	13828.21
828.151	13985.04
828.478	13831.6
828.805	13927.87
829.131	13820.75
829.458	13884.25
829.785	13840.19
830.111	13865.05
830.438	13954.99
830.764	13878.38
831.09	13870.92
831.417	13893.29
831.743	13905.5
832.069	13850.81
832.395	13716.8
832.722	13780.75
833.048	13812.84
833.374	13807.19
833.7	13731.49
834.026	13771.49
834.351	13775.1
834.677	13728.33
835.003	13757.48
835.329	13780.3
835.654	13636.8
835.98	13639.29
836.306	13662.79
836.631	13660.98
836.956	13736.69
837.282	13641.77
837.607	13641.55
837.932	13575.56
838.258	13578.95
838.583	13506.86
838.908	13415.79
839.233	13455.34
839.558	13539.4
839.883	13393.19
840.208	13407.2
840.533	13331.27
840.858	13428.9
841.182	13374.89
841.507	13321.33
841.832	13294.66
842.156	13292.4
842.481	13307.09
842.805	13251.5
843.13	13185.51
843.454	13251.73
843.778	13142.58
844.103	13108.23
844.427	13023.26
844.751	13091.73
845.075	13060.32
845.399	12993.2
845.723	12916.37
846.047	12884.51
846.371	12870.49
846.695	12865.3
847.019	12690.84
847.343	12699.65
847.666	12625.98
847.99	12688.58
848.313	12625.08
848.637	12479.32
848.96	12449.04
849.284	12396.84
849.607	12407.68
849.931	12280.68
850.254	12276.16
850.577	12177.63
850.9	12120.91
851.223	12165.65
851.546	12009.05
851.869	11956.62
852.192	12095.15
852.515	11871.2
852.838	11819.9
853.161	11898.09
853.483	11828.26
853.806	11716.85
854.129	11722.95
854.451	11724.08
854.774	11657.87
855.096	11524.32
855.419	11591.21
855.741	11586.46
856.063	11425.34
856.385	11482.28
856.708	11383.53
857.03	11349.63
857.352	11410.87
857.674	11355.73
857.996	11280.93
858.318	11199.58
858.64	11267.6
858.961	11235.74
859.283	11222.85
859.605	11113.48
859.926	11119.58
860.248	11087.26
860.57	11040.71
860.891	11050.2
861.212	11012.01
861.534	10935.18
861.855	10939.7
862.176	10893.15
862.498	10946.25
862.819	10980.6
863.14	10889.3
863.461	10814.73
863.782	10877.1
864.103	10795.97
864.424	10735.18
864.745	10760.27
865.065	10732.92
865.386	10653.15
865.707	10643.43
866.027	10719.37
866.348	10623.32
866.668	10660.61
866.989	10643.43
867.309	10563.89
867.63	10567.96
867.95	10564.11
868.27	10543.32
868.59	10620.16
868.91	10536.54
869.23	10442.76
869.55	10448.86
869.87	10539.71
870.19	10449.32
870.51	10456.77
870.83	10466.26
871.15	10387.85
871.469	10440.95
871.789	10404.12
872.109	10398.7
872.428	10311.01
872.748	10284.35
873.067	10369.09
873.386	10313.5
873.706	10301.75
874.025	10270.11
874.344	10218.81
874.663	10303.56
874.982	10221.98
875.301	10224.24
875.62	10115.31
875.939	10129.55
876.258	10182.2
876.577	10148.08
876.896	10124.13
877.214	10084.13
877.533	10057.91
877.852	10059.27
878.17	10068.53
878.489	10075.77
878.807	10004.58
879.125	9981.31
879.444	10028.99
879.762	9999.38
880.08	9988.76
880.398	9844.13
880.716	9976.11
881.034	9887.75
881.352	9947.63
881.67	9835.77
881.988	9844.59
882.306	9838.03
882.624	9759.62
882.941	9712.16
883.259	9672.61
883.577	9729.33
883.894	9687.08
884.212	9678.49
884.529	9668.77
884.846	9641.65
885.164	9664.7
885.481	9662.44
885.798	9603.91
886.115	9466.52
886.432	9581.99
886.75	9448.21
887.067	9539.51
887.383	9476.91
887.7	9502
888.017	9362.34
888.334	9391.04
888.651	9435.56
888.967	9336.12
889.284	9300.87
889.6	9297.26
889.917	9163.25
890.233	9264.49
890.55	9189.46
890.866	9219.97
891.182	9107.66
891.498	9125.73
891.815	9097.49
892.131	9040.54
892.447	9081.44
892.763	9038.73
893.079	8992.63
893.395	8954.44
893.71	8948.34
894.026	8950.15
894.342	8888.23
894.657	8841.9
894.973	8828.79
895.289	8865.4
895.604	8780.43
895.92	8712.19
896.235	8709.7
896.55	8707.21
896.865	8613.88
897.181	8621.57
897.496	8566.43
897.811	8544.28
898.126	8478.52
898.441	8483.49
898.756	8438.3
899.071	8434.45
899.386	8423.83
899.7	8365.53
900.015	8304.97
900.33	8221.35
900.644	8251.18
900.959	8268.36
901.273	8224.29
901.588	8213.44
901.902	8146.1
902.216	8130.73
902.531	8086.21
902.845	8076.72
903.159	8032.2
903.473	8019.78
903.787	7995.59
904.101	7914.92
904.415	7927.8
904.729	7890.96
905.042	7837.86
905.356	7779.1
905.67	7829.27
905.984	7781.82
906.297	7727.81
906.611	7693.46
906.924	7707.24
907.237	7695.72
907.551	7585.44
907.864	7634.7
908.177	7640.8
908.491	7538.21
908.804	7466.34
909.117	7480.58
909.43	7379.11
909.743	7381.83
910.056	7336.4
910.368	7315.61
910.681	7245.78
910.994	7316.74
911.307	7241.72
911.619	7190.19
911.932	7168.05
912.244	7144.32
912.557	7139.57
912.869	7018.22
913.181	7035.62
913.494	7026.13
913.806	7002.4
914.118	7011.44
914.43	6938.22
914.742	6957.88
915.054	6860.71
915.366	6875.62
915.678	6820.94
915.99	6778
916.302	6774.61
916.613	6747.04
916.925	6748.85
917.236	6700.26
917.548	6683.31
917.859	6646.48
918.171	6632.92
918.482	6557.21
918.794	6512.02
919.105	6597.67
919.416	6516.54
919.727	6511.79
920.038	6499.59
920.349	6462.75
920.66	6410.78
920.971	6429.08
921.282	6333.72
921.593	6321.51
921.903	6335.53
922.214	6306.6
922.525	6272.48
922.835	6226.38
923.146	6253.72
923.456	6187.73
923.767	6163.78
924.077	6156.1
924.387	6096.21
924.697	6092.37
925.008	6071.8
925.318	6020.73
925.628	6008.3
925.938	5992.26
926.248	5997.23
926.558	5883.56
926.867	5902.77
927.177	5931.24
927.487	5852.37
927.796	5851.7
928.106	5784.13
928.416	5729.44
928.725	5796.56
929.034	5743.22
929.344	5765.15
929.653	5734.41
929.962	5665.94
930.271	5671.14
930.581	5609.22
930.89	5642.44
931.199	5596.56
931.508	5535.77
931.817	5529.67
932.125	5548.88
932.434	5518.6
932.743	5495.1
933.051	5450.35
933.36	5435.89
933.669	5343.24
933.977	5349.11
934.286	5429.56
934.594	5380.3
934.902	5278.38
935.21	5293.07
935.519	5232.96
935.827	5240.87
936.135	5196.8
936.443	5191.6
936.751	5193.18
937.059	5193.63
937.367	5157.48
937.674	5144.82
937.982	5097.82
938.29	5121.55
938.597	5074.09
938.905	5004.94
939.213	4984.37
939.52	5021.21
939.827	4979.85
940.135	4944.6
940.442	4945.51
940.749	4862.34
941.056	4911.61
941.363	4891.72
941.67	4861.21
941.977	4766.53
942.284	4782.8
942.591	4753.42
942.898	4717.71
943.205	4756.36
943.511	4740.54
943.818	4700.99
944.125	4670.94
944.431	4705.96
944.738	4616.47
945.044	4626.19
945.35	4572.86
945.657	4568.34
945.963	4590.94
946.269	4536.02
946.575	4563.37
946.881	4472.3
947.187	4444.95
947.493	4459.19
947.799	4441.56
948.105	4393.2
948.41	4357.27
948.716	4355.24
949.022	4375.13
949.327	4406.08
949.633	4318.18
949.938	4348.69
950.244	4326.99
950.549	4310.95
950.854	4220.55
951.16	4268.69
951.465	4253.55
951.77	4194.34
952.075	4177.39
952.38	4160.22
952.685	4186.2
952.99	4136.26
953.294	4086.77
953.599	4089.71
953.904	4087
954.209	4058.07
954.513	4057.85
954.818	4043.61
955.122	4024.63
955.426	3979.2
955.731	3976.04
956.035	3957.96
956.339	3934.46
956.643	3959.99
956.948	3889.71
957.252	3908.7
957.556	3869.6
957.86	3857.62
958.163	3839.09
958.467	3822.82
958.771	3806.1
959.075	3822.15
959.378	3759.55
959.682	3755.03
959.985	3758.87
960.289	3710.51
960.592	3739.66
960.896	3718.65
961.199	3700.11
961.502	3671.41
961.805	3622.15
962.108	3638.87
962.411	3617.86
962.714	3609.27
963.017	3577.86
963.32	3586.67
963.623	3552.55
963.926	3591.87
964.228	3520.01
964.531	3514.13
964.833	3497.41
965.136	3463.74
965.438	3479.78
965.741	3445.66
966.043	3388.03
966.345	3419.67
966.648	3427.81
966.95	3422.16
967.252	3364.53
967.554	3345.55
967.856	3389.84
968.158	3320.69
968.46	3312.33
968.761	3303.74
969.063	3286.11
969.365	3282.5
969.666	3284.08
969.968	3214.48
970.269	3242.27
970.571	3191.43
970.872	3201.6
971.174	3194.14
971.475	3204.99
971.776	3191.65
972.077	3137.19
972.378	3155.5
972.679	3110.3
972.98	3107.81
973.281	3132.9
973.582	3103.52
973.883	3078.44
974.183	3053.13
974.484	3057.87
974.785	3022.84
975.085	3050.64
975.386	3011.77
975.686	2986.46
975.986	3008.83
976.287	2977.42
976.587	2946.69
976.887	2916.63
977.187	2929.74
977.487	2912.79
977.787	2936.74
978.087	2885.9
978.387	2878.67
978.687	2842.96
978.987	2865.33
979.286	2830.31
979.586	2852.45
979.885	2794.6
980.185	2768.84
980.484	2763.42
980.784	2755.51
981.083	2781.04
981.382	2772.46
981.682	2737.88
981.981	2721.38
982.28	2739.24
982.579	2666.02
982.878	2725.9
983.177	2682.51
983.475	2657.66
983.774	2664.66
984.073	2659.92
984.372	2615.85
984.67	2680.25
984.969	2647.49
985.267	2656.53
985.566	2595.06
985.864	2582.63
986.162	2570.43
986.461	2555.74
986.759	2528.85
987.057	2502.63
987.355	2513.71
987.653	2496.76
987.951	2492.24
988.249	2476.87
988.547	2473.71
988.844	2467.6
989.142	2461.05
989.44	2401.84
989.737	2408.85
990.035	2432.8
990.332	2440.03
990.63	2367.49
990.927	2371.79
991.224	2351
991.521	2355.97
991.819	2361.62
992.116	2342.41
992.413	2333.82
992.71	2318.91
993.006	2313.71
993.303	2292.47
993.6	2289.76
993.897	2280.26
994.193	2270.77
994.49	2243.66
994.787	2240.27
995.083	2239.14
995.379	2233.49
995.676	2230.1
995.972	2192.13
996.268	2183.54
996.565	2170.66
996.861	2137.22
997.157	2135.41
997.453	2129.31
997.749	2136.54
998.044	2134.96
998.34	2110.1
998.636	2136.99
998.932	2097.67
999.227	2064.9
999.523	2049.08
999.818	2064.45
1000.114	2042.31
1000.409	2024.45
1000.704	2030.33
1001	2026.71
1001.295	1987.62
1001.59	1991.01
1001.885	1997.56
1002.18	1944.23
1002.475	1981.06
1002.77	1933.83
1003.065	1946.04
1003.359	1925.7
1003.654	1900.84
1003.949	1918.01
1004.243	1907.17
1004.538	1868.07
1004.832	1895.42
1005.127	1885.7
1005.421	1862.42
1005.715	1840.95
1006.009	1786.04
1006.304	1834.85
1006.598	1799.37
1006.892	1807.73
1007.186	1799.15
1007.48	1767.06
1007.773	1789.66
1008.067	1789.43
1008.361	1776.1
1008.655	1745.59
1008.948	1730.67
1009.242	1737
1009.535	1704.01
1009.829	1733.16
1010.122	1667.4
1010.415	1691.35
1010.708	1690.9
1011.001	1661.3
1011.295	1644.8
1011.588	1655.87
1011.881	1608.87
1012.173	1631.47
1012.466	1603.45
1012.759	1621.3
1013.052	1600.06
1013.344	1591.47
1013.637	1603.67
1013.93	1579.04
1014.222	1562.09
1014.514	1555.09
1014.807	1527.74
1015.099	1561.41
1015.391	1544.92
1015.683	1543.79
1015.976	1502.88
1016.268	1487.74
1016.56	1474.86
1016.851	1501.53
1017.143	1477.8
1017.435	1455.65
1017.727	1463.56
1018.018	1440.74
1018.31	1425.6
1018.602	1421.76
1018.893	1417.91
1019.185	1424.02
1019.476	1411.81
1019.767	1419.95
1020.058	1399.84
1020.35	1371.59
1020.641	1381.31
1020.932	1362.55
1021.223	1354.87
1021.514	1348.09
1021.804	1337.69
1022.095	1329.1
1022.386	1313.28
1022.677	1302.89
1022.967	1323.68
1023.258	1301.31
1023.548	1268.31
1023.839	1271.25
1024.129	1256.56
1024.419	1274.19
1024.709	1257.69
1025	1253.63
1025.29	1255.43
1025.58	1228.77
1025.87	1247.52
1026.16	1195.32
1026.449	1208.88
1026.739	1204.14
1027.029	1175.44
1027.319	1181.76
1027.608	1191.93
1027.898	1156.45
1028.187	1184.25
1028.477	1152.61
1028.766	1144.93
1029.055	1159.84
1029.344	1151.71
1029.634	1113.06
1029.923	1146.96
1030.212	1104.25
1030.501	1090.69
1030.79	1094.76
1031.078	1103.35
1031.367	1110.35
1031.656	1069.22
1031.945	1076.23
1032.233	1060.64
1032.522	1040.07
1032.81	1033.29
1033.099	1034.2
1033.387	1001.65
1033.675	1040.52
1033.963	1009.79
1034.251	1014.31
1034.54	1001.43
1034.828	987.19
1035.116	1010.47
1035.403	1003.46
1035.691	984.93
1035.979	979.28
1036.267	978.83
1036.554	959.62
1036.842	950.81
1037.129	924.59
1037.417	942.45
1037.704	949.45
1037.992	920.98
1038.279	934.31
1038.566	907.19
1038.853	907.19
1039.14	907.19
