Data from hue_110_FLMS001491_00081.txt Node
Date: Tue Feb 07 17:01:55 GMT 2017
User: dcchb
Spectrometer: FLMS00149
Trigger mode: 0
Integration Time (sec): 2.000000E-2
Scans to average: 10
Electric dark correction enabled: true
Nonlinearity correction enabled: false
Boxcar width: 0
XAxis mode: Wavelengths
Number of Pixels in Spectrum: 2048
>>>>>Begin Spectral Data<<<<<
341.393	-1.96
341.776	-1.96
342.16	-1.96
342.543	-74.73
342.927	-60.27
343.31	-58.68
343.693	-74.96
344.077	-69.31
344.46	-37.44
344.843	-65.24
345.226	-45.58
345.61	-18.23
345.993	-39.25
346.376	4.82
346.759	-5.8
347.142	33.06
347.525	48.88
347.908	73.52
348.291	61.76
348.674	88.66
349.057	103.8
349.44	140.86
349.823	149.22
350.206	170.24
350.588	187.86
350.971	217.92
351.354	244.13
351.737	211.82
352.119	271.93
352.502	258.14
352.884	278.48
353.267	298.14
353.65	297.24
354.032	315.77
354.414	321.64
354.797	305.83
355.179	328.88
355.562	344.02
355.944	329.78
356.326	341.53
356.709	345.15
357.091	339.5
357.473	352.15
357.855	341.3
358.238	336.78
358.62	345.82
359.002	352.6
359.384	355.32
359.766	347.86
360.148	339.5
360.53	324.81
360.912	327.75
361.294	326.16
361.676	340.4
362.057	340.17
362.439	330.23
362.821	327.75
363.203	332.27
363.584	345.37
363.966	331.14
364.348	335.88
364.729	330.91
365.111	321.19
365.493	333.85
365.874	313.51
366.256	323
366.637	318.25
367.019	339.95
367.4	344.47
367.781	320.06
368.163	295.88
368.544	314.64
368.925	317.12
369.306	329.78
369.688	318.48
370.069	313.96
370.45	313.96
370.831	317.8
371.212	320.97
371.593	321.64
371.974	312.6
372.355	334.3
372.736	310.57
373.117	325.03
373.498	321.42
373.879	330.23
374.26	298.59
374.641	311.47
375.021	347.41
375.402	333.85
375.783	314.86
376.163	332.72
376.544	346.05
376.925	337.69
377.305	319.38
377.686	329.55
378.066	323.45
378.447	330.46
378.827	346.28
379.208	337.46
379.588	330.23
379.968	344.47
380.349	335.2
380.729	319.38
381.109	317.58
381.489	348.31
381.87	350.57
382.25	341.98
382.63	345.6
383.01	337.24
383.39	329.55
383.77	349.44
384.15	340.63
384.53	335.66
384.91	350.34
385.29	339.72
385.67	335.66
386.049	360.51
386.429	349.67
386.809	344.69
387.189	368.87
387.568	383.34
387.948	355.99
388.328	357.58
388.707	358.93
389.087	367.07
389.466	381.76
389.846	375.2
390.225	364.81
390.605	351.7
390.984	366.16
391.363	377.24
391.743	371.81
392.122	381.3
392.501	388.53
392.881	368.65
393.26	370.23
393.639	373.39
394.018	376.56
394.397	395.77
394.776	395.09
395.155	395.99
395.534	393.05
395.913	375.43
396.292	365.71
396.671	378.82
397.05	407.74
397.429	409.33
397.808	366.84
398.186	378.82
398.565	383.79
398.944	400.29
399.323	403.68
399.701	398.93
400.08	407.52
400.458	409.33
400.837	397.8
401.215	400.51
401.594	416.1
401.972	392.6
402.351	414.3
402.729	423.34
403.107	419.49
403.486	417.23
403.864	420.85
404.242	419.27
404.62	411.36
404.999	431.47
405.377	418.36
405.755	422.88
406.133	413.85
406.511	440.74
406.889	417.46
407.267	451.13
407.645	443
408.023	444.13
408.401	440.74
408.779	428.31
409.156	435.99
409.534	461.3
409.912	451.13
410.29	453.17
410.667	462.66
411.045	451.58
411.422	464.92
411.8	477.12
412.178	474.86
412.555	489.32
412.933	492.26
413.31	484.8
413.687	465.14
414.065	488.42
414.442	475.99
414.819	481.64
415.197	503.11
415.574	507.85
415.951	515.31
416.328	501.3
416.705	507.18
417.082	486.61
417.46	490
417.837	512.37
418.214	519.15
418.591	512.15
418.967	528.87
419.344	522.54
419.721	519.38
420.098	526.16
420.475	524.12
420.852	545.14
421.228	553.5
421.605	549.66
421.982	532.26
422.358	539.49
422.735	576.55
423.111	558.93
423.488	551.69
423.864	562.09
424.241	583.33
424.617	560.06
424.994	586.95
425.37	581.07
425.746	585.82
426.123	576.55
426.499	586.27
426.875	600.73
427.251	581.98
427.627	583.78
428.003	621.98
428.379	604.35
428.756	615.87
429.132	624.23
429.507	633.5
429.883	621.3
430.259	638.92
430.635	613.39
431.011	627.17
431.387	634.18
431.763	661.75
432.138	656.78
432.514	650.45
432.89	653.39
433.265	685.25
433.641	654.52
434.016	679.83
434.392	673.05
434.767	703.1
435.143	693.39
435.518	720.96
435.894	716.66
436.269	720.05
436.644	710.79
437.02	754.85
437.395	714.18
437.77	747.4
438.145	719.15
438.52	767.73
438.895	751.92
439.271	760.28
439.646	802.54
440.021	756.21
440.395	774.97
440.77	791.01
441.145	771.35
441.52	785.13
441.895	811.35
442.27	821.97
442.645	804.57
443.019	799.37
443.394	804.12
443.769	802.76
444.143	820.84
444.518	829.43
444.892	819.71
445.267	842.31
445.641	862.42
446.016	855.64
446.39	851.57
446.764	845.47
447.139	874.62
447.513	871.01
447.887	889.09
448.262	879.37
448.636	896.54
449.01	904.68
449.384	878.47
449.758	933.61
450.132	911.23
450.506	933.38
450.88	925.24
451.254	926.37
451.628	940.84
452.002	943.77
452.376	980.61
452.75	971.8
453.123	968.41
453.497	983.32
453.871	969.54
454.244	991.46
454.618	993.26
454.992	1019.03
455.365	1033.72
455.739	1052.25
456.112	1047.95
456.486	1063.77
456.859	1086.37
457.232	1094.51
457.606	1111.91
457.979	1106.03
458.352	1106.26
458.725	1158.23
459.099	1138.8
459.472	1162.3
459.845	1175.86
460.218	1163.43
460.591	1183.77
460.964	1221.96
461.337	1241.85
461.71	1225.8
462.083	1261.96
462.456	1262.41
462.829	1299.47
463.201	1313.71
463.574	1324.1
463.947	1316.87
464.32	1359.58
464.692	1351.22
465.065	1408.62
465.438	1388.51
465.81	1438
466.183	1446.59
466.555	1466.25
466.928	1475.51
467.3	1484.55
467.672	1517.77
468.045	1562.52
468.417	1555.51
468.789	1626.47
469.161	1611.78
469.534	1638.67
469.906	1670.99
470.278	1715.05
470.65	1721.83
471.022	1771.32
471.394	1805.45
471.766	1849.74
472.138	1875.95
472.51	1910.75
472.882	1937.19
473.253	1945.78
473.625	1987.81
473.997	2062.84
474.369	2085.44
474.74	2150.97
475.112	2204.31
475.484	2244.08
475.855	2288.37
476.227	2369.5
476.598	2427.13
476.97	2450.4
477.341	2516.61
477.713	2575.37
478.084	2621.24
478.455	2760.9
478.827	2796.38
479.198	2868.24
479.569	2924.29
479.94	3044.06
480.311	3087.67
480.682	3207.67
481.053	3296.93
481.424	3346.2
481.795	3432.07
482.166	3528.57
482.537	3609.92
482.908	3744.15
483.279	3810.14
483.65	3934.88
484.021	4076.8
484.391	4161.09
484.762	4199.28
485.133	4281.77
485.503	4432.72
485.874	4589.33
486.244	4698.25
486.615	4856.67
486.985	4952.71
487.356	5085.36
487.726	5233.61
488.097	5335.07
488.467	5491.23
488.837	5600.83
489.207	5700.49
489.578	5846.24
489.948	5968.5
490.318	6142.96
490.688	6213.92
491.058	6400.13
491.428	6506.57
491.798	6604.19
492.168	6873.11
492.538	6956.95
492.908	7076.95
493.278	7189.71
493.648	7334.57
494.017	7547.89
494.387	7654.33
494.757	7746.31
495.126	7947.43
495.496	8011.84
495.866	8061.78
496.235	8223.13
496.605	8347.87
496.974	8493.18
497.344	8647.3
497.713	8674.87
498.082	8841.19
498.452	8985.15
498.821	9088.87
499.19	9175.87
499.559	9303.1
499.928	9431.01
500.298	9543.1
500.667	9641.17
501.036	9643.66
501.405	9819.7
501.774	9894.73
502.143	10040.03
502.512	10115.51
502.88	10221.72
503.249	10264.66
503.618	10352.79
503.987	10479.8
504.356	10496.07
504.724	10645.89
505.093	10660.36
505.462	10752.56
505.83	10805.44
506.199	10998.2
506.567	11099.67
506.936	11017.18
507.304	11267.34
507.672	11300.79
508.041	11384.18
508.409	11465.76
508.777	11581.69
509.145	11632.53
509.514	11625.98
509.882	11751.63
510.25	11785.52
510.618	11852.64
510.986	11914.11
511.354	11964.5
511.722	12126.31
512.09	12234.78
512.458	12129.92
512.826	12284.27
513.193	12314.1
513.561	12352.51
513.929	12343.7
514.297	12477.26
514.664	12502.79
515.032	12540.98
515.4	12663.01
515.767	12667.76
516.135	12740.07
516.502	12656.01
516.869	12758.38
517.237	12882.67
517.604	12861.43
517.972	12928.09
518.339	12966.28
518.706	12956.79
519.073	13038.15
519.44	13070.01
519.808	13125.83
520.175	13061.2
520.542	13203.34
520.909	13336.44
521.276	13260.06
521.643	13331.47
522.009	13453.5
522.376	13377.35
522.743	13339.15
523.11	13528.53
523.477	13590.67
523.843	13539.6
524.21	13721.97
524.577	13701.18
524.943	13745.92
525.31	13773.95
525.676	13930.33
526.043	13839.03
526.409	13935.07
526.776	13954.96
527.142	13921.74
527.508	14037.44
527.874	14062.53
528.241	14048.51
528.607	14029.08
528.973	14059.36
529.339	14013.26
529.705	14161.73
530.071	14255.97
530.437	14168.51
530.803	14130.32
531.169	14257.77
531.535	14089.19
531.901	14079.02
532.267	14246.02
532.632	14191.56
532.998	14163.54
533.364	14232.92
533.73	14217.55
534.095	14295.29
534.461	14221.39
534.826	14236.31
535.192	14194.05
535.557	14243.99
535.923	14181.84
536.288	14126.48
536.653	14193.82
537.019	14136.2
537.384	14115.41
537.749	14085.35
538.114	13978.91
538.479	13997.67
538.845	14054.16
539.21	13915.64
539.575	13973.71
539.94	13872.02
540.305	14007.84
540.67	13929.42
541.034	13903.43
541.399	13827.96
541.764	13820.95
542.129	13849.42
542.494	13806.94
542.858	13883.77
543.223	13802.65
543.587	13818.46
543.952	13676.32
544.316	13671.35
544.681	13611.01
545.045	13587.51
545.41	13646.94
545.774	13634.06
546.138	13502.09
546.503	13530.34
546.867	13493.5
547.231	13480.39
547.595	13516.1
547.959	13470.45
548.324	13448.76
548.688	13399.04
549.052	13349.1
549.416	13298.7
549.779	13309.1
550.143	13249.67
550.507	13272.26
550.871	13281.08
551.235	13201.31
551.599	13267.74
551.962	13145.49
552.326	13210.8
552.689	13136.9
553.053	13094.64
553.417	13079.5
553.78	13156.33
554.143	12991.37
554.507	13059.16
554.87	13145.94
555.234	13133.28
555.597	12997.47
555.96	13008.99
556.323	13045.6
556.686	12941.2
557.05	13037.24
557.413	12968.77
557.776	13013.97
558.139	12974.19
558.502	13044.02
558.865	12916.34
559.228	12954.31
559.59	12992.72
559.953	12947.53
560.316	13052.38
560.679	13044.93
561.041	13059.84
561.404	13059.39
561.767	13008.09
562.129	13000.63
562.492	13028.88
562.854	13005.83
563.217	13015.32
563.579	13014.19
563.941	13122.89
564.304	13091.25
564.666	13107.3
565.028	13092.83
565.39	13144.13
565.753	13134.64
566.115	13131.25
566.477	13166.5
566.839	13161.76
567.201	13260.74
567.563	13167.41
567.925	13240.85
568.287	13226.39
568.648	13220.74
569.01	13283.11
569.372	13401.98
569.734	13200.4
570.095	13226.39
570.457	13333.28
570.819	13315.43
571.18	13368.98
571.542	13353.17
571.903	13370.57
572.265	13372.37
572.626	13402.66
572.987	13364.46
573.349	13436.55
573.71	13427.74
574.071	13463.22
574.432	13455.31
574.794	13471.81
575.155	13453.95
575.516	13385.93
575.877	13435.2
576.238	13499.38
576.599	13577.57
576.96	13537.57
577.32	13530.79
577.681	13500.28
578.042	13516.33
578.403	13548.64
578.763	13580.05
579.124	13507.74
579.485	13631.8
579.845	13480.39
580.206	13609.88
580.566	13552.93
580.927	13553.39
581.287	13517.46
581.648	13491.02
582.008	13564.23
582.368	13487.4
582.728	13561.97
583.089	13537.12
583.449	13538.02
583.809	13529.21
584.169	13561.97
584.529	13468.19
584.889	13567.4
585.249	13492.82
585.609	13418.47
585.969	13461.86
586.329	13489.21
586.688	13528.08
587.048	13433.39
587.408	13420.28
587.768	13392.49
588.127	13417.12
588.487	13424.12
588.846	13458.93
589.206	13382.09
589.565	13355.65
589.925	13484.46
590.284	13335.09
590.643	13412.6
591.003	13432.03
591.362	13404.01
591.721	13345.48
592.08	13376.44
592.44	13390.68
592.799	13278.59
593.158	13300.51
593.517	13394.07
593.876	13292.15
594.235	13274.3
594.593	13318.82
594.952	13349.32
595.311	13255.54
595.67	13329.44
596.029	13366.95
596.387	13350.91
596.746	13360.17
597.104	13260.96
597.463	13268.65
597.822	13372.15
598.18	13263.9
598.538	13247.18
598.897	13302.77
599.255	13222.1
599.613	13378.93
599.972	13273.85
600.33	13385.26
600.688	13253.96
601.046	13306.39
601.404	13343.67
601.762	13318.59
602.12	13319.04
602.478	13321.98
602.836	13387.97
603.194	13260.06
603.552	13241.08
603.91	13220.97
604.268	13261.64
604.625	13183.45
604.983	13305.26
605.341	13206.5
605.698	13332.38
606.056	13327.4
606.413	13291.25
606.771	13327.4
607.128	13327.86
607.485	13355.43
607.843	13253.06
608.2	13379.15
608.557	13424.12
608.914	13301.87
609.272	13415.31
609.629	13367.4
609.986	13421.64
610.343	13375.09
610.7	13482.43
611.057	13460.28
611.414	13418.47
611.771	13455.76
612.127	13434.97
612.484	13451.69
612.841	13497.34
613.198	13568.08
613.554	13472.48
613.911	13517.46
614.267	13514.52
614.624	13498.47
614.98	13545.48
615.337	13561.3
615.693	13604.91
616.05	13589.09
616.406	13638.13
616.762	13577.57
617.118	13513.39
617.475	13529.43
617.831	13636.77
618.187	13611.01
618.543	13617.11
618.899	13706.6
619.255	13652.14
619.611	13630.45
619.967	13761.06
620.323	13781.18
620.678	13678.36
621.034	13637
621.39	13710.44
621.746	13613.5
622.101	13785.7
622.457	13692.59
622.812	13716.77
623.168	13730.11
623.523	13725.59
623.879	13745.92
624.234	13681.52
624.589	13735.98
624.945	13727.39
625.3	13742.76
625.655	13667.96
626.01	13706.38
626.365	13748.86
626.72	13640.62
627.075	13720.84
627.43	13537.57
627.785	13648.75
628.14	13668.64
628.495	13680.61
628.85	13594.06
629.205	13605.81
629.559	13642.88
629.914	13617.34
630.269	13618.02
630.623	13600.84
630.978	13545.03
631.332	13662.08
631.687	13677.68
632.041	13596.78
632.396	13647.62
632.75	13552.71
633.104	13579.15
633.459	13500.05
633.813	13479.26
634.167	13562.43
634.521	13418.25
634.875	13526.95
635.229	13570.11
635.583	13422.99
635.937	13415.09
636.291	13388.42
636.645	13371.02
636.999	13310.91
637.352	13349.55
637.706	13333.28
638.06	13331.7
638.413	13246.28
638.767	13217.8
639.121	13324.24
639.474	13242.21
639.828	13279.04
640.181	13256.22
640.534	13216.22
640.888	13223.23
641.241	13158.82
641.594	13188.65
641.947	13221.87
642.301	13215.99
642.654	13170.57
643.007	13182.55
643.36	13088.77
643.713	13219.38
644.066	13160.4
644.419	13114.75
644.771	13090.12
645.124	12937.58
645.477	12879.05
645.83	12865.27
646.182	12821.65
646.535	12729
646.888	12809
647.24	12685.84
647.593	12733.07
647.945	12657.59
648.298	12697.36
648.65	12655.78
649.002	12662.11
649.355	12712.5
649.707	12677.7
650.059	12740.75
650.411	12886.96
650.763	12909.56
651.115	13002.44
651.467	12997.69
651.819	12970.58
652.171	13024.13
652.523	12875.21
652.875	12885.61
653.227	12835.21
653.578	13016.45
653.93	12979.84
654.282	12887.42
654.633	12883.57
654.985	12916.12
655.337	12982.33
655.688	13044.25
656.039	12993.85
656.391	12913.63
656.742	12959.28
657.094	12979.39
657.445	12962.67
657.796	12947.98
658.147	12940.3
658.498	12917.7
658.849	13018.03
659.2	13049.22
659.551	12975.55
659.902	13019.84
660.253	12952.05
660.604	13013.97
660.955	12942.56
661.306	13004.25
661.656	13024.59
662.007	13015.55
662.358	13008.54
662.708	13056
663.059	13073.17
663.409	12899.39
663.76	13026.17
664.11	13037.47
664.461	13061.87
664.811	13114.75
665.161	12992.05
665.511	13096.22
665.862	13038.15
666.212	13074.3
666.562	13036.56
666.912	13049.22
667.262	12994.53
667.612	12974.19
667.962	13014.87
668.312	13050.57
668.662	13117.47
669.011	13031.82
669.361	13039.5
669.711	13051.7
670.06	13022.78
670.41	13039.95
670.76	13010.58
671.109	13003.34
671.459	12941.2
671.808	13041.99
672.157	13011.03
672.507	12982.78
672.856	12942.33
673.205	12915.89
673.554	12958.6
673.904	12973.74
674.253	12978.71
674.602	12859.62
674.951	12700.08
675.3	12634.77
675.649	12821.88
675.998	12790.69
676.346	12824.59
676.695	12848.32
677.044	12760.64
677.393	12797.7
677.741	12855.78
678.09	12706.63
678.438	12733.75
678.787	12727.87
679.135	12767.87
679.484	12637.7
679.832	12725.61
680.181	12668.21
680.529	12665.73
680.877	12590.7
681.225	12621.43
681.573	12700.98
681.922	12590.02
682.27	12558.84
682.618	12490.82
682.966	12590.93
683.314	12504.83
683.661	12511.61
684.009	12411.95
684.357	12466.86
684.705	12301.89
685.053	12392.29
685.4	12388.22
685.748	12349.35
686.095	12353.87
686.443	12193.2
686.79	12196.59
687.138	12281.1
687.485	12225.29
687.832	12202.91
688.18	12275.45
688.527	12128.34
688.874	12075.01
689.221	12113.65
689.568	12000.89
689.915	11933.09
690.262	11998.4
690.609	11923.37
690.956	11843.6
691.303	11803.6
691.65	11867.33
691.997	11719.54
692.344	11687.45
692.69	11728.35
693.037	11690.16
693.383	11550.05
693.73	11556.83
694.077	11492.88
694.423	11462.82
694.769	11449.26
695.116	11387.79
695.462	11387.34
695.808	11341.02
696.155	11461.69
696.501	11320
696.847	11249.49
697.193	11217.85
697.539	11202.94
697.885	11117.52
698.231	11118.2
698.577	11074.13
698.923	11069.16
699.269	10980.12
699.614	10969.5
699.96	10901.48
700.306	10894.02
700.651	10877.52
700.997	10801.59
701.342	10790.52
701.688	10741.71
702.033	10715.27
702.379	10658.77
702.724	10582.62
703.069	10614.93
703.415	10493.13
703.76	10559.12
704.105	10501.49
704.45	10459.68
704.795	10396.41
705.14	10347.37
705.485	10348.27
705.83	10352.57
706.175	10278.67
706.52	10306.69
706.865	10254.04
707.209	10234.6
707.554	10187.37
707.899	10181.27
708.243	10134.27
708.588	10109.64
708.932	9970.88
709.277	10096.3
709.621	10044.55
709.966	10000.94
710.31	9958.68
710.654	9879.58
710.998	9888.85
711.342	9948.28
711.687	9854.73
712.031	9716.43
712.375	9774.28
712.719	9761.17
713.063	9755.52
713.407	9788.29
713.75	9736.31
714.094	9720.94
714.438	9704.22
714.782	9694.5
715.125	9701.06
715.469	9611.57
715.812	9622.87
716.156	9535.64
716.499	9552.14
716.843	9603.43
717.186	9538.35
717.53	9483.89
717.873	9549.42
718.216	9428.98
718.559	9426.72
718.902	9366.15
719.246	9359.37
719.589	9371.35
719.932	9347.17
720.275	9348.07
720.617	9388.98
720.96	9437.11
721.303	9417.68
721.646	9412.48
721.989	9292.48
722.331	9347.4
722.674	9294.29
723.016	9304.23
723.359	9260.17
723.701	9307.4
724.044	9271.92
724.386	9243.67
724.729	9262.2
725.071	9302.88
725.413	9251.13
725.755	9258.58
726.097	9173.39
726.439	9183.78
726.782	9164.12
727.124	9227.17
727.465	9199.83
727.807	9167.29
728.149	9169.55
728.491	9154.18
728.833	9124.35
729.175	9136.1
729.516	9127.06
729.858	9111.02
730.199	9165.71
730.541	9104.01
730.882	9070.11
731.224	9121.19
731.565	9116.89
731.906	9094.75
732.248	9072.83
732.589	9062.21
732.93	9095.2
733.271	9063.79
733.612	9083
733.953	9055.65
734.294	9107.18
734.635	9141.53
734.976	9128.19
735.317	9002.32
735.658	9058.59
735.999	9096.33
736.339	9084.58
736.68	9150.11
737.021	9138.81
737.361	9094.29
737.702	9080.28
738.042	9046.61
738.383	9121.86
738.723	9128.64
739.063	9085.71
739.404	9172.48
739.744	9075.99
740.084	9137.46
740.424	9116.67
740.764	9129.32
741.104	9205.25
741.444	9138.14
741.784	9141.98
742.124	9237.12
742.464	9190.11
742.804	9229.66
743.143	9236.66
743.483	9245.25
743.823	9241.41
744.162	9289.54
744.502	9397.79
744.841	9368.64
745.181	9439.14
745.52	9422.65
745.86	9435.75
746.199	9441.18
746.538	9536.32
746.877	9627.39
747.216	9653.83
747.556	9641.63
747.895	9669.65
748.234	9700.15
748.573	9774.28
748.911	9841.85
749.25	9892.24
749.589	9967.04
749.928	10019.24
750.267	10097.88
750.605	10176.98
750.944	10255.62
751.283	10284.55
751.621	10376.29
751.96	10455.61
752.298	10571.32
752.636	10657.42
752.975	10764.53
753.313	10764.31
753.651	10964.98
753.989	11011.53
754.327	11140.12
754.666	11192.77
755.004	11392.77
755.342	11460.79
755.679	11538.07
756.017	11697.62
756.355	11851.51
756.693	11886.76
757.031	12169.02
757.368	12192.97
757.706	12423.25
758.044	12488.56
758.381	12646.97
758.719	12789.79
759.056	12888.32
759.394	13157.46
759.731	13161.08
760.068	13297.35
760.405	13472.48
760.743	13622.76
761.08	13889.65
761.417	13966.94
761.754	14188.4
762.091	14294.38
762.428	14348.85
762.765	14456.87
763.102	14677.65
763.438	14882.62
763.775	14916.51
764.112	15114.02
764.449	15405.77
764.785	15484.64
765.122	15507.01
765.458	15689.6
765.795	15818.64
766.131	16015.47
766.467	16083.94
766.804	16205.52
767.14	16333.88
767.476	16380.66
767.812	16558.73
768.148	16713.08
768.485	16727.09
768.821	16920.3
769.157	16954.88
769.492	17125.72
769.828	17237.13
770.164	17211.82
770.5	17295.89
770.836	17490.23
771.171	17504.7
771.507	17621.08
771.842	17562.32
772.178	17698.59
772.513	17921.18
772.849	17799.83
773.184	17929.54
773.519	18047.51
773.855	18003.89
774.19	18028.98
774.525	18160.27
774.86	18265.58
775.195	18243.88
775.53	18243.66
775.865	18234.39
776.2	18158.24
776.535	18168.63
776.87	18337.22
777.205	18325.92
777.539	18285.92
777.874	18384.9
778.209	18418.12
778.543	18400.94
778.878	18418.8
779.212	18429.64
779.547	18396.42
779.881	18598
780.215	18446.82
780.55	18571.33
780.884	18468.96
781.218	18526.82
781.552	18542.41
781.886	18461.28
782.22	18409.53
782.554	18393.49
782.888	18339.25
783.222	18366.14
783.556	18312.13
783.889	18276.2
784.223	18229.42
784.557	18200.27
784.89	18360.94
785.224	18211.8
785.557	18266.71
785.891	18181.51
786.224	18205.24
786.558	18232.59
786.891	18065.58
787.224	18039.6
787.557	17984.23
787.891	18071.01
788.224	18109.2
788.557	18087.28
788.89	18080.05
789.223	18076.43
789.556	17903.55
789.888	17925.7
790.221	17854.52
790.554	17696.33
790.887	17842.31
791.219	17746.72
791.552	17664.46
791.884	17631.47
792.217	17677.57
792.549	17632.15
792.882	17508.31
793.214	17487.52
793.546	17484.13
793.879	17481.87
794.211	17245.04
794.543	17434.87
794.875	17300.63
795.207	17367.3
795.539	17253.85
795.871	17261.99
796.203	17078.49
796.535	17062.9
796.867	17001.88
797.198	17129.34
797.53	17008.89
797.862	16954.43
798.193	16960.3
798.525	16865.39
798.856	16895.22
799.188	16747.88
799.519	16732.74
799.85	16667.88
800.182	16650.71
800.513	16708.11
800.844	16464.04
801.175	16689.58
801.506	16546.3
801.837	16562.8
802.168	16471.95
802.499	16447.32
802.83	16276.93
803.161	16256.14
803.491	16310.6
803.822	16335.69
804.153	16190.15
804.483	16090.72
804.814	16088.46
805.145	16032.64
805.475	16114
805.805	16014.79
806.136	16012.76
806.466	16114.9
806.796	15948.8
807.126	15889.37
807.457	15815.7
807.787	15874.23
808.117	15775.02
808.447	15729.37
808.777	15789.94
809.107	15623.84
809.436	15591.3
809.766	15596.95
810.096	15587.68
810.426	15499.1
810.755	15593.56
811.085	15493
811.414	15374.13
811.744	15337.75
812.073	15370.06
812.403	15285.32
812.732	15236.96
813.061	15259.78
813.39	15074.48
813.719	15101.14
814.049	15299.56
814.378	15114.25
814.707	15005.33
815.036	15069.5
815.365	15025.66
815.693	14850.75
816.022	14949.96
816.351	14868.15
816.68	14770.98
817.008	14817.76
817.337	14693.47
817.665	14716.97
817.994	14727.14
818.322	14742.06
818.651	14606.47
818.979	14625.67
819.307	14736.86
819.636	14620.48
819.964	14512.23
820.292	14522.63
820.62	14592
820.948	14565.79
821.276	14552.46
821.604	14410.54
821.932	14581.83
822.259	14572.34
822.587	14536.64
822.915	14497.32
823.243	14559.46
823.57	14413.93
823.898	14520.59
824.225	14463.19
824.553	14482.18
824.88	14561.27
825.207	14500.25
825.535	14507.49
825.862	14515.17
826.189	14504.77
826.516	14566.69
826.843	14548.84
827.17	14525.34
827.497	14576.41
827.824	14494.15
828.151	14562.63
828.478	14603.53
828.805	14656.18
829.131	14538.22
829.458	14482.85
829.785	14378
830.111	14549.29
830.438	14601.95
830.764	14508.84
831.09	14548.61
831.417	14457.09
831.743	14519.46
832.069	14483.76
832.395	14438.56
832.722	14505.9
833.048	14421.39
833.374	14449.41
833.7	14396.98
834.026	14408.51
834.351	14396.3
834.677	14422.06
835.003	14419.13
835.329	14370.09
835.654	14330.99
835.98	14290.99
836.306	14380.26
836.631	14371.67
836.956	14317.66
837.282	14316.76
837.607	14245.35
837.932	14225.91
838.258	14287.38
838.583	14148.17
838.908	14093.49
839.233	14121.06
839.558	13969.87
839.883	14020.04
840.208	13946.37
840.533	13977.56
840.858	14011
841.182	13966.94
841.507	13971.45
841.832	13873.83
842.156	13919.03
842.481	13876.77
842.805	13825.02
843.13	13821.85
843.454	13783.44
843.778	13759.26
844.103	13705.02
844.427	13674.06
844.751	13684.91
845.075	13687.39
845.399	13623.22
845.723	13523.33
846.047	13672.03
846.371	13470
846.695	13410.57
847.019	13371.7
847.343	13247.41
847.666	13168.54
847.99	13163.57
848.313	13134.41
848.637	13086.96
848.96	13067.07
849.284	12984.59
849.607	12891.71
849.931	12906.85
850.254	12819.62
850.577	12745.72
850.9	12664.82
851.223	12690.58
851.546	12573.75
851.869	12566.29
852.192	12623.02
852.515	12508.44
852.838	12502.11
853.161	12400.65
853.483	12338.28
853.806	12310.03
854.129	12277.49
854.451	12225.06
854.774	12190.71
855.096	12133.76
855.419	12125.85
855.741	12103.93
856.063	12026.2
856.385	12016.25
856.708	11936.93
857.03	11923.15
857.352	11921.57
857.674	11846.09
857.996	11726.99
858.318	11712.08
858.64	11771.29
858.961	11718.63
859.283	11634.79
859.605	11621.69
859.926	11578.98
860.248	11553.21
860.57	11421.47
860.891	11532.42
861.212	11492.42
861.534	11464.4
861.855	11447.45
862.176	11442.03
862.498	11437.74
862.819	11371.52
863.14	11342.6
863.461	11349.15
863.782	11293.11
864.103	11334.46
864.424	11259.21
864.745	11289.72
865.065	11163.62
865.386	11229.83
865.707	11157.52
866.027	11236.16
866.348	11164.52
866.668	11155.48
866.989	11187.57
867.309	11076.62
867.63	11113
867.95	10994.13
868.27	11019.22
868.59	11052.89
868.91	11053.79
869.23	10951.42
869.55	11001.82
869.87	11000.01
870.19	10888.37
870.51	10971.99
870.83	10926.11
871.15	10798.43
871.469	10877.52
871.789	10822.16
872.109	10824.64
872.428	10718.88
872.748	10776.96
873.067	10722.27
873.386	10730.86
873.706	10695.61
874.025	10637.31
874.344	10691.09
874.663	10644.31
874.982	10597.76
875.301	10650.19
875.62	10546.23
875.939	10565.67
876.258	10581.04
876.577	10513.24
876.896	10600.47
877.214	10518.89
877.533	10488.38
877.852	10452.45
878.17	10456.29
878.489	10429.17
878.807	10429.63
879.125	10457.2
879.444	10430.98
879.762	10380.81
880.08	10435.73
880.398	10370.65
880.716	10360.93
881.034	10311.21
881.352	10328.39
881.67	10253.13
881.988	10288.39
882.306	10248.61
882.624	10211.78
882.941	10229.86
883.259	10206.36
883.577	10126.36
883.894	10159.35
884.212	10156.41
884.529	10166.13
884.846	10036.64
885.164	10064.21
885.481	9932.01
885.798	10000.03
886.115	9965.46
886.432	9908.51
886.75	9861.05
887.067	9957.55
887.383	9864.44
887.7	9889.08
888.017	9807.5
888.334	9886.59
888.651	9806.59
888.967	9792.13
889.284	9667.84
889.6	9661.51
889.917	9603.21
890.233	9623.55
890.55	9586.71
890.866	9598.91
891.182	9524.57
891.498	9511.68
891.815	9501.52
892.131	9539.71
892.447	9466.04
892.763	9397.34
893.079	9334.74
893.395	9385.59
893.71	9335.19
894.026	9277.34
894.342	9265.14
894.657	9259.04
894.973	9151.92
895.289	9224.23
895.604	9173.84
895.92	9087.74
896.235	9037.12
896.55	9060.62
896.865	9061.98
897.181	8993.73
897.496	8906.73
897.811	8978.59
898.126	8856.79
898.441	8821.53
898.756	8881.87
899.071	8799.16
899.386	8748.32
899.7	8692.5
900.015	8649.56
900.33	8649.79
900.644	8604.82
900.959	8610.92
901.273	8592.61
901.588	8540.64
901.902	8510.36
902.216	8444.37
902.531	8416.35
902.845	8377.25
903.159	8370.02
903.473	8359.4
903.787	8318.5
904.101	8276.92
904.415	8264.03
904.729	8182.23
905.042	8240.76
905.356	8179.97
905.67	8120.08
905.984	8104.04
906.297	8111.5
906.611	8050.03
906.924	8061.78
907.237	8006.64
907.551	7949.69
907.864	7983.36
908.177	7865.85
908.491	7866.98
908.804	7774.56
909.117	7749.02
909.43	7753.09
909.743	7754.22
910.056	7722.58
910.368	7594.45
910.681	7644.62
910.994	7647.33
911.307	7551.06
911.619	7530.95
911.932	7527.56
912.244	7508.57
912.557	7484.39
912.869	7372.31
913.181	7378.18
913.494	7365.3
913.806	7322.14
914.118	7311.52
914.43	7238.75
914.742	7287.34
915.054	7193.33
915.366	7148.81
915.678	7177.73
915.99	7167.11
916.302	7083.73
916.613	7023.61
916.925	7002.6
917.236	7013.22
917.548	6978.19
917.859	6959.21
918.171	6914.24
918.482	6939.78
918.794	6869.49
919.105	6912.88
919.416	6801.25
919.727	6864.3
920.038	6758.99
920.349	6682.15
920.66	6711.76
920.971	6732.32
921.282	6612.78
921.593	6602.38
921.903	6554.25
922.214	6581.59
922.525	6509.5
922.835	6513.8
923.146	6467.25
923.456	6455.95
923.767	6417.53
924.077	6431.09
924.387	6361.26
924.697	6343.41
925.008	6269.74
925.318	6290.07
925.628	6219.34
925.938	6244.43
926.248	6190.87
926.558	6153.81
926.867	6161.04
927.177	6193.58
927.487	6142.96
927.796	6027.03
928.106	6065.22
928.416	6009.86
928.725	6036.52
929.034	5965.11
929.344	5964.89
929.653	5988.84
929.962	5917.66
930.271	5887.6
930.581	5825
930.89	5809.18
931.199	5814.38
931.508	5785.68
931.817	5803.76
932.125	5770.54
932.434	5718.56
932.743	5709.3
933.051	5724.89
933.36	5658.68
933.669	5633.14
933.977	5622.97
934.286	5614.84
934.594	5582.52
934.902	5512.24
935.21	5501.17
935.519	5498.23
935.827	5476.76
936.135	5474.95
936.443	5394.05
936.751	5395.18
937.059	5375.75
937.367	5381.4
937.674	5316.09
937.982	5347.73
938.29	5300.72
938.597	5307.95
938.905	5223.89
939.213	5229.09
939.52	5140.27
939.827	5188.18
940.135	5160.84
940.442	5069.54
940.749	5085.36
941.056	5135.3
941.363	5068.41
941.67	5053.5
941.977	5030.67
942.284	4977.79
942.591	5018.47
942.898	4917
943.205	4951.58
943.511	4923.56
943.818	4884.69
944.125	4896.21
944.431	4857.8
944.738	4860.96
945.044	4819.15
945.35	4830.68
945.657	4717.23
945.963	4721.53
946.269	4731.7
946.575	4738.48
946.881	4646.73
947.187	4678.14
947.493	4674.98
947.799	4651.02
948.105	4627.52
948.41	4596.33
948.716	4590.46
949.022	4537.58
949.327	4524.92
949.633	4515.88
949.938	4540.52
950.244	4436.56
950.549	4472.95
950.854	4448.54
951.16	4424.59
951.465	4429.11
951.77	4401.99
952.075	4348.43
952.38	4309.11
952.685	4309.11
952.99	4289.22
953.294	4287.42
953.599	4287.64
953.904	4247.87
954.209	4223.91
954.513	4230.69
954.818	4159.06
955.122	4240.41
955.426	4174.88
955.731	4149.57
956.035	4168.55
956.339	4065.05
956.643	4099.17
956.948	4094.65
957.252	4096.23
957.556	4025.5
957.86	4006.52
958.163	3994.99
958.467	4000.87
958.771	3949.57
959.075	3941.44
959.378	3913.87
959.682	3962.45
959.985	3881.55
960.289	3859.63
960.592	3881.78
960.896	3874.55
961.199	3856.69
961.502	3812.17
961.805	3793.64
962.108	3778.28
962.411	3801.1
962.714	3704.83
963.017	3712.97
963.32	3752.06
963.623	3701.44
963.926	3685.85
964.228	3707.09
964.531	3678.62
964.833	3665.96
965.136	3641.33
965.438	3640.2
965.741	3591.61
966.043	3588.9
966.345	3583.03
966.648	3550.94
966.95	3505.52
967.252	3508.9
967.554	3496.25
967.856	3463.26
968.158	3475.69
968.46	3462.13
968.761	3475.01
969.063	3441.11
969.365	3435.69
969.666	3430.26
969.968	3395.46
970.269	3365.63
970.571	3358.17
970.872	3364.73
971.174	3316.37
971.475	3355.01
971.776	3312.75
972.077	3277.27
972.378	3271.62
972.679	3292.19
972.98	3268.91
973.281	3254.22
973.582	3201.12
973.883	3213.55
974.183	3205.41
974.484	3176.26
974.785	3151.85
975.085	3141
975.386	3164.73
975.686	3152.3
975.986	3088.58
976.287	3113.21
976.587	3083.38
976.887	3059.88
977.187	3074.57
977.487	3050.39
977.787	2997.51
978.087	2993.89
978.387	2978.07
978.687	2977.85
978.987	3015.81
979.286	2946.21
979.586	2926.77
979.885	2922.71
980.185	2874.8
980.484	2907.79
980.784	2879.09
981.083	2892.65
981.382	2864.4
981.682	2873.44
981.981	2812.88
982.28	2822.14
982.579	2853.33
982.878	2808.58
983.177	2796.61
983.475	2794.8
983.774	2735.14
984.073	2751.64
984.372	2719.1
984.67	2745.54
984.969	2734.01
985.267	2692.2
985.566	2696.27
985.864	2690.4
986.162	2662.6
986.461	2643.62
986.759	2639.55
987.057	2638.65
987.355	2642.94
987.653	2606.33
987.951	2582.15
988.249	2605.88
988.547	2575.6
988.844	2558.87
989.142	2584.64
989.44	2557.97
989.737	2568.36
990.035	2494.69
990.332	2478.42
990.63	2483.4
990.927	2474.81
991.224	2500.34
991.521	2478.2
991.819	2465.77
992.116	2463.28
992.413	2465.32
992.71	2412.44
993.006	2432.78
993.303	2393.45
993.6	2401.36
993.897	2377.18
994.193	2358.65
994.49	2363.4
994.787	2356.17
995.083	2291.99
995.379	2315.26
995.676	2305.09
995.972	2281.59
996.268	2283.85
996.565	2270.75
996.861	2270.75
997.157	2241.37
997.453	2258.54
997.749	2271.42
998.044	2191.43
998.34	2211.09
998.636	2203.4
998.932	2157.98
999.227	2166.79
999.523	2177.41
999.818	2128.83
1000.114	2108.72
1000.409	2100.81
1000.704	2113.46
1001	2084.08
1001.295	2040.47
1001.59	2122.73
1001.885	2124.99
1002.18	2065.1
1002.475	2051.99
1002.77	2029.17
1003.065	2012.67
1003.359	2028.04
1003.654	2014.48
1003.949	1982.39
1004.243	1986.23
1004.538	1960.92
1004.832	1951.21
1005.127	1938.78
1005.421	1925.9
1005.715	1915.5
1006.009	1913.92
1006.304	1936.97
1006.598	1893.13
1006.892	1853.81
1007.186	1913.69
1007.48	1860.59
1007.773	1853.36
1008.067	1872.34
1008.361	1823.07
1008.655	1810.87
1008.948	1776.07
1009.242	1807.03
1009.535	1786.24
1009.829	1757.76
1010.122	1792.34
1010.415	1745.56
1010.708	1760.25
1011.001	1738.1
1011.295	1728.84
1011.588	1719.35
1011.881	1707.82
1012.173	1699.46
1012.466	1667.37
1012.759	1672.12
1013.052	1674.83
1013.344	1670.54
1013.637	1659.46
1013.93	1651.1
1014.222	1614.04
1014.514	1615.17
1014.807	1603.64
1015.099	1614.49
1015.391	1604.1
1015.683	1591.22
1015.976	1570.88
1016.268	1555.06
1016.56	1571.78
1016.851	1537.66
1017.143	1546.92
1017.435	1537.21
1017.727	1522.74
1018.018	1518.45
1018.31	1493.36
1018.602	1465.34
1018.893	1495.62
1019.185	1464.44
1019.476	1465.57
1019.767	1459.92
1020.058	1478.45
1020.35	1442.07
1020.641	1409.3
1020.932	1421.5
1021.223	1406.59
1021.514	1400.71
1021.804	1381.05
1022.095	1397.77
1022.386	1360.71
1022.677	1381.96
1022.967	1369.53
1023.258	1362.52
1023.548	1331.56
1023.839	1313.26
1024.129	1329.3
1024.419	1311.22
1024.709	1307.61
1025	1278.68
1025.29	1253.6
1025.58	1303.54
1025.87	1291.56
1026.16	1261.51
1026.449	1257.89
1026.739	1251.56
1027.029	1233.03
1027.319	1247.04
1027.608	1219.25
1027.898	1211.79
1028.187	1190.77
1028.477	1185.35
1028.766	1186.25
1029.055	1184.67
1029.344	1185.8
1029.634	1173.83
1029.923	1179.02
1030.212	1160.49
1030.501	1137.89
1030.79	1128.18
1031.078	1144.67
1031.367	1149.87
1031.656	1121.17
1031.945	1083.43
1032.233	1102.64
1032.522	1078.69
1032.81	1090.66
1033.099	1079.59
1033.387	1048.18
1033.675	1074.84
1033.963	1065.13
1034.251	1045.01
1034.54	1061.96
1034.828	1056.31
1035.116	1039.37
1035.403	1009.08
1035.691	1033.72
1035.979	1025.81
1036.267	1024.9
1036.554	971.8
1036.842	1000.95
1037.129	987.39
1037.417	983.1
1037.704	982.87
1037.992	960.27
1038.279	934.06
1038.566	936.77
1038.853	936.77
1039.14	936.77
