Data from hue_180_FLMS001491_00021.txt Node
Date: Tue Feb 07 16:46:45 GMT 2017
User: dcchb
Spectrometer: FLMS00149
Trigger mode: 0
Integration Time (sec): 2.000000E-2
Scans to average: 10
Electric dark correction enabled: true
Nonlinearity correction enabled: false
Boxcar width: 0
XAxis mode: Wavelengths
Number of Pixels in Spectrum: 2048
>>>>>Begin Spectral Data<<<<<
341.393	11.27
341.776	11.27
342.16	11.27
342.543	-56.75
342.927	-54.26
343.31	-63.98
343.693	-48.61
344.077	-70.31
344.46	-74.83
344.843	-58.33
345.226	-53.13
345.61	-11.78
345.993	-25.11
346.376	-14.49
346.759	23.7
347.142	41.78
347.525	39.29
347.908	58.05
348.291	73.87
348.674	95.56
349.057	88.33
349.44	137.37
349.823	145.28
350.206	187.31
350.588	209.46
350.971	198.61
351.354	223.02
351.737	258.04
352.119	240.42
352.502	268.67
352.884	263.02
353.267	294.88
353.65	305.5
354.032	313.86
354.414	309.79
354.797	330.58
355.179	318.38
355.562	335.78
355.944	336.69
356.326	341.21
356.709	342.56
357.091	332.84
357.473	333.07
357.855	347.31
358.238	365.61
358.62	348.44
359.002	371.26
359.384	333.97
359.766	348.89
360.148	336.46
360.53	361.32
360.912	333.97
361.294	347.99
361.676	347.76
362.057	356.35
362.439	318.38
362.821	340.75
363.203	314.31
363.584	330.81
363.966	338.27
364.348	319.74
364.729	338.72
365.111	328.55
365.493	322.9
365.874	338.95
366.256	343.69
366.637	316.57
367.019	325.39
367.4	307.31
367.781	315.9
368.163	313.18
368.544	329
368.925	313.86
369.306	317.25
369.688	320.19
370.069	331.71
370.45	318.83
370.831	317.48
371.212	311.15
371.593	312.28
371.974	315.67
372.355	303.47
372.736	305.95
373.117	330.58
373.498	300.75
373.879	311.83
374.26	326.06
374.641	316.12
375.021	329.91
375.402	323.13
375.783	319.29
376.163	318.38
376.544	317.7
376.925	339.4
377.305	319.74
377.686	317.7
378.066	322.45
378.447	321.55
378.827	342.34
379.208	330.81
379.588	312.96
379.968	328.78
380.349	342.56
380.729	345.27
381.109	341.21
381.489	362.45
381.87	310.02
382.25	329
382.63	332.62
383.01	334.43
383.39	349.34
383.77	345.95
384.15	331.71
384.53	335.1
384.91	353.41
385.29	354.09
385.67	338.04
386.049	352.05
386.429	346.4
386.809	368.78
387.189	350.47
387.568	353.18
387.948	359.28
388.328	346.63
388.707	367.87
389.087	369.45
389.466	362.22
389.846	369.23
390.225	359.28
390.605	367.42
390.984	358.83
391.363	380.53
391.743	357.48
392.122	364.03
392.501	379.17
392.881	368.1
393.26	392.96
393.639	382.56
394.018	390.7
394.397	386.4
394.776	379.62
395.155	371.94
395.534	387.08
395.913	383.24
396.292	398.61
396.671	371.71
397.05	383.92
397.429	393.86
397.808	403.8
398.186	389.11
398.565	383.92
398.944	406.97
399.323	400.87
399.701	413.97
400.08	382.79
400.458	411.94
400.837	411.71
401.215	393.41
401.594	413.52
401.972	420.07
402.351	413.07
402.729	420.07
403.107	432.73
403.486	433.18
403.864	406.97
404.242	433.41
404.62	415.33
404.999	438.38
405.377	450.36
405.755	448.1
406.133	460.07
406.511	458.04
406.889	468.21
407.267	446.97
407.645	461.88
408.023	494.2
408.401	483.35
408.779	476.57
409.156	452.84
409.534	486.51
409.912	474.76
410.29	512.73
410.667	537.58
411.045	528.55
411.422	521.54
411.8	514.53
412.178	517.47
412.555	543.01
412.933	543.01
413.31	540.3
413.687	568.32
414.065	563.8
414.442	568.09
414.819	605.61
415.197	597.7
415.574	598.37
415.951	622.1
416.328	625.27
416.705	603.12
417.082	613.51
417.46	613.06
417.837	639.05
418.214	656.68
418.591	683.12
418.967	670.69
419.344	680.18
419.721	686.73
420.098	665.72
420.475	679.05
420.852	689.45
421.228	733.96
421.605	707.98
421.982	733.06
422.358	745.26
422.735	739.61
423.111	736
423.488	781.42
423.864	772.83
424.241	804.24
424.617	790.01
424.994	811.93
425.37	826.62
425.746	850.57
426.123	832.72
426.499	843.11
426.875	884.47
427.251	874.53
427.627	887.63
428.003	906.16
428.379	926.5
428.756	905.03
429.132	945.03
429.507	930.57
429.883	955.43
430.259	968.76
430.635	972.15
431.011	971.7
431.387	1025.26
431.763	1030.91
432.138	1016.67
432.514	1024.58
432.89	1048.08
433.265	1063.67
433.641	1078.59
434.016	1083.33
434.392	1092.37
434.767	1115.2
435.143	1174.18
435.518	1165.36
435.894	1162.65
436.269	1190.9
436.644	1222.09
437.02	1246.72
437.395	1235.65
437.77	1255.08
438.145	1285.14
438.52	1312.25
438.895	1331.01
439.271	1321.97
439.646	1372.59
440.021	1361.29
440.395	1393.61
440.77	1384.12
441.145	1456.2
441.52	1462.53
441.895	1454.62
442.27	1480.61
442.645	1458.24
443.019	1506.37
443.394	1509.54
443.769	1521.06
444.143	1527.16
444.518	1545.69
444.892	1559.48
445.267	1565.13
445.641	1587.73
446.016	1585.47
446.39	1600.38
446.764	1648.97
447.139	1640.15
447.513	1681.96
447.887	1639.48
448.262	1666.37
448.636	1691.45
449.01	1728.97
449.384	1735.52
449.758	1731.68
450.132	1754.95
450.506	1772.58
450.88	1776.87
451.254	1800.83
451.628	1802.41
452.002	1811
452.376	1854.84
452.75	1867.49
453.123	1915.4
453.497	1913.14
453.871	1942.07
454.244	1979.35
454.618	1978.22
454.992	1990.2
455.365	2015.74
455.739	2034.04
456.112	2054.16
456.486	2095.74
456.859	2100.26
457.232	2131.44
457.606	2190.65
457.979	2174.83
458.352	2226.13
458.725	2250.76
459.099	2258.44
459.472	2301.15
459.845	2340.25
460.218	2353.58
460.591	2357.65
460.964	2388.61
461.337	2429.74
461.71	2475.84
462.083	2500.7
462.456	2522.62
462.829	2540.47
463.201	2561.94
463.574	2622.95
463.947	2669.51
464.32	2707.92
464.692	2695.95
465.065	2753.12
465.438	2780.46
465.81	2843.29
466.183	2871.76
466.555	2905.43
466.928	2936.39
467.3	2952.21
467.672	3045.32
468.045	3074.24
468.417	3134.13
468.789	3084.18
469.161	3197.18
469.534	3237.17
469.906	3319.43
470.278	3325.99
470.65	3408.47
471.022	3474.68
471.394	3537.28
471.766	3578.18
472.138	3588.35
472.51	3664.06
472.882	3715.81
473.253	3768.46
473.625	3840.1
473.997	3957.38
474.369	4006.42
474.74	4052.97
475.112	4122.8
475.484	4154.44
475.855	4286.64
476.227	4352.4
476.598	4488.22
476.97	4483.92
477.341	4602.34
477.713	4640.3
478.084	4715.55
478.455	4900.18
478.827	4906.96
479.198	5052.72
479.569	5088.43
479.94	5225.37
480.311	5290.91
480.682	5414.74
481.053	5563.89
481.424	5647.51
481.795	5686.38
482.166	5832.36
482.537	5937.67
482.908	6052.69
483.279	6117.33
483.65	6240.94
484.021	6367.26
484.391	6458.56
484.762	6505.79
485.133	6618.78
485.503	6736.52
485.874	6875.95
486.244	6960.92
486.615	7134.25
486.985	7229.61
487.356	7391.42
487.726	7400.68
488.097	7579.21
488.467	7646.32
488.837	7762.48
489.207	7922.93
489.578	8062.13
489.948	8126.76
490.318	8271.84
490.688	8294.44
491.058	8434.33
491.428	8511.61
491.798	8602.68
492.168	8784.83
492.538	8795.67
492.908	8927.65
493.278	9114.08
493.648	9151.37
494.017	9225.94
494.387	9299.61
494.757	9385.04
495.126	9429.55
495.496	9464.36
495.866	9576.44
496.235	9640.17
496.605	9737.12
496.974	9795.19
497.344	9886.49
497.713	9914.29
498.082	10030.44
498.452	10102.3
498.821	10196.31
499.19	10178.91
499.559	10288.29
499.928	10426.36
500.298	10383.2
500.667	10508.85
501.036	10463.43
501.405	10558.56
501.774	10540.71
502.143	10613.48
502.512	10671.1
502.88	10742.29
503.249	10695.06
503.618	10838.33
503.987	10808.95
504.356	10875.17
504.724	10941.83
505.093	10991.77
505.462	10937.99
505.83	10982.28
506.199	11136.18
506.567	11196.29
506.936	11182.05
507.304	11211.2
507.672	11226.57
508.041	11354.7
508.409	11347.02
508.777	11455.94
509.145	11461.37
509.514	11423.85
509.882	11516.73
510.25	11446.9
510.618	11560.35
510.986	11605.54
511.354	11645.54
511.722	11676.95
512.09	11763.96
512.458	11644.19
512.826	11749.72
513.193	11760.34
513.561	11756.05
513.929	11833.11
514.297	11807.8
514.664	11854.8
515.032	11869.94
515.4	11894.8
515.767	11979.77
516.135	11960.34
516.502	11798.31
516.869	12050.05
517.237	12029.94
517.604	11951.3
517.972	12052.31
518.339	12071.52
518.706	12080.11
519.073	12009.83
519.44	12055.02
519.808	12068.81
520.175	12085.76
520.542	12157.39
520.909	12159.2
521.276	12036.72
521.643	12095.7
522.009	12216.83
522.376	12199.42
522.743	12223.15
523.11	12266.54
523.477	12288.24
523.843	12311.74
524.21	12376.14
524.577	12388.12
524.943	12331.62
525.31	12326.88
525.676	12425.63
526.043	12407.78
526.409	12422.24
526.776	12510.83
527.142	12400.55
527.508	12361.91
527.874	12410.49
528.241	12419.53
528.607	12393.09
528.973	12441.68
529.339	12375.92
529.705	12361.45
530.071	12371.4
530.437	12391.51
530.803	12445.75
531.169	12396.93
531.535	12313.55
531.901	12274.9
532.267	12287.33
532.632	12284.85
532.998	12246.43
533.364	12252.76
533.73	12310.61
534.095	12201.01
534.461	12179.54
534.826	12194.23
535.192	12185.87
535.557	12203.72
535.923	12139.31
536.288	12001.01
536.653	12035.81
537.019	11968.02
537.384	11889.15
537.749	11879.89
538.114	11818.19
538.479	11848.02
538.845	11823.62
539.21	11687.57
539.575	11687.57
539.94	11595.6
540.305	11729.61
540.67	11601.25
541.034	11518.76
541.399	11465.21
541.764	11479.9
542.129	11395.6
542.494	11413
542.858	11429.5
543.223	11316.06
543.587	11303.86
543.952	11245.1
544.316	11241.71
544.681	11186.34
545.045	11081.26
545.41	11114.93
545.774	11093.01
546.138	11048.95
546.503	10956.97
546.867	10946.35
547.231	10874.71
547.595	10902.28
547.959	10860.48
548.324	10800.14
548.688	10731.89
549.052	10687.15
549.416	10651.9
549.779	10631.78
550.143	10609.18
550.507	10574.83
550.871	10498
551.235	10400.15
551.599	10418
551.962	10432.69
552.326	10348.85
552.689	10324.22
553.053	10193.83
553.417	10223.66
553.78	10248.06
554.143	10196.54
554.507	10125.58
554.87	10090.78
555.234	10084
555.597	10053.04
555.96	9994.74
556.323	9993.38
556.686	10025.47
557.05	10007.17
557.413	9955.42
557.776	9905.93
558.139	9934.4
558.502	9890.11
558.865	9849.66
559.228	9879.71
559.59	9759.26
559.953	9759.04
560.316	9853.95
560.679	9829.09
561.041	9811.01
561.404	9788.19
561.767	9825.02
562.129	9812.6
562.492	9728.53
562.854	9688.76
563.217	9738.47
563.579	9721.52
563.941	9758.59
564.304	9744.57
564.666	9758.81
565.028	9691.24
565.39	9691.92
565.753	9738.25
566.115	9817.57
566.477	9792.03
566.839	9781.18
567.201	9725.37
567.563	9728.3
567.925	9792.48
568.287	9753.39
568.648	9746.38
569.01	9763.78
569.372	9787.51
569.734	9762.88
570.095	9760.39
570.457	9809.88
570.819	9751.81
571.18	9751.13
571.542	9719.26
571.903	9789.77
572.265	9811.92
572.626	9722.88
572.987	9741.18
573.349	9717.91
573.71	9798.81
574.071	9779.83
574.432	9782.09
574.794	9780.51
575.155	9771.92
575.516	9673.39
575.877	9769.66
576.238	9688.76
576.599	9818.47
576.96	9767.17
577.32	9743.67
577.681	9754.97
578.042	9806.04
578.403	9738.7
578.763	9773.5
579.124	9721.07
579.485	9782.99
579.845	9677.91
580.206	9735.53
580.566	9752.94
580.927	9800.17
581.287	9741.64
581.648	9716.33
582.008	9739.15
582.368	9657.12
582.728	9741.41
583.089	9737.34
583.449	9670.45
583.809	9719.49
584.169	9678.81
584.529	9663.9
584.889	9717.91
585.249	9572.83
585.609	9631.58
585.969	9612.83
586.329	9596.56
586.688	9606.05
587.048	9625.93
587.408	9517.01
587.768	9484.69
588.127	9496.67
588.487	9511.81
588.846	9554.3
589.206	9533.96
589.565	9484.92
589.925	9516.56
590.284	9465.03
590.643	9519.5
591.003	9526.95
591.362	9532.6
591.721	9424.13
592.08	9417.8
592.44	9433.62
592.799	9455.77
593.158	9372.15
593.517	9448.99
593.876	9432.72
594.235	9407.41
594.593	9379.39
594.952	9391.82
595.311	9357.92
595.67	9387.07
596.029	9440.18
596.387	9468.88
596.746	9484.02
597.104	9367.18
597.463	9451.25
597.822	9365.38
598.18	9345.94
598.538	9317.47
598.897	9369.67
599.255	9281.31
599.613	9403.57
599.972	9277.69
600.33	9332.16
600.688	9294.64
601.046	9229.11
601.404	9376.9
601.762	9366.51
602.12	9394.08
602.478	9319.05
602.836	9313.85
603.194	9345.04
603.552	9250.35
603.91	9277.92
604.268	9237.02
604.625	9314.3
604.983	9312.04
605.341	9274.76
605.698	9235.66
606.056	9254.42
606.413	9292.83
606.771	9271.82
607.128	9274.76
607.485	9230.24
607.843	9276.34
608.2	9294.42
608.557	9296.9
608.914	9288.54
609.272	9320.4
609.629	9274.76
609.986	9382.78
610.343	9270.69
610.7	9353.17
611.057	9324.7
611.414	9327.64
611.771	9379.39
612.127	9415.77
612.484	9401.08
612.841	9332.38
613.198	9309.33
613.554	9357.47
613.911	9434.53
614.267	9426.62
614.624	9373.74
614.98	9398.59
615.337	9416.9
615.693	9396.33
616.05	9424.58
616.406	9433.17
616.762	9404.02
617.118	9326.05
617.475	9395.43
617.831	9381.65
618.187	9389.56
618.543	9372.15
618.899	9442.21
619.255	9485.37
619.611	9467.29
619.967	9469.78
620.323	9521.76
620.678	9476.33
621.034	9420.06
621.39	9459.84
621.746	9415.77
622.101	9552.94
622.457	9479.5
622.812	9530.34
623.168	9518.59
623.523	9454.64
623.879	9540.29
624.234	9380.97
624.589	9429.78
624.945	9412.15
625.3	9524.47
625.655	9457.58
626.01	9435.88
626.365	9366.28
626.72	9493.06
627.075	9453.28
627.43	9484.69
627.785	9392.72
628.14	9458.93
628.495	9445.15
628.85	9396.33
629.205	9423.45
629.559	9431.59
629.914	9438.37
630.269	9395.2
630.623	9398.82
630.978	9315.43
631.332	9360.18
631.687	9372.38
632.041	9326.05
632.396	9323.12
632.75	9296.22
633.104	9278.15
633.459	9258.26
633.813	9317.47
634.167	9280.63
634.521	9262.33
634.875	9267.75
635.229	9305.04
635.583	9206.51
635.937	9188.2
636.291	9261.88
636.645	9221.88
636.999	9144.36
637.352	9179.39
637.706	9053.29
638.06	9161.99
638.413	9128.55
638.767	9121.54
639.121	9147.53
639.474	9100.07
639.828	9042.22
640.181	9080.41
640.534	9083.8
640.888	8985.05
641.241	9044.93
641.594	9038.38
641.947	9069.79
642.301	9047.87
642.654	9007.19
643.007	9026.18
643.36	9027.76
643.713	8996.35
644.066	9037.25
644.419	8998.61
644.771	8917.25
645.124	8844.71
645.477	8854.43
645.83	8838.61
646.182	8797.25
646.535	8789.35
646.888	8812.85
647.24	8734.66
647.593	8792.73
647.945	8680.65
648.298	8747.31
648.65	8711.83
649.002	8657.6
649.355	8732.17
649.707	8741.21
650.059	8725.84
650.411	8787.09
650.763	8827.54
651.115	8954.54
651.467	8896.01
651.819	8869.57
652.171	8877.7
652.523	8868.89
652.875	8895.11
653.227	8820.08
653.578	8916.35
653.93	8952.05
654.282	8909.57
654.633	8902.34
654.985	8897.14
655.337	8981.66
655.688	8971.26
656.039	8976.01
656.391	8933.07
656.742	8932.62
657.094	8879.96
657.445	8977.81
657.796	8988.66
658.147	8931.94
658.498	8969.68
658.849	8961.54
659.2	8898.72
659.551	9005.84
659.902	9006.74
660.253	8931.26
660.604	9036.8
660.955	8977.59
661.306	8966.97
661.656	8951.6
662.007	8955.67
662.358	8947.08
662.708	9020.98
663.059	8994.76
663.409	8975.78
663.76	8978.94
664.11	8997.48
664.461	8974.88
664.811	9021.43
665.161	9008.55
665.511	9004.03
665.862	8988.66
666.212	9027.08
666.562	9046.51
666.912	8959.51
667.262	9076.34
667.612	9006.74
667.962	9096.23
668.312	9036.8
668.662	9058.04
669.011	9095.33
669.361	9013.29
669.711	9003.8
670.06	8956.12
670.41	9019.17
670.76	9003.35
671.109	9047.64
671.459	9023.01
671.808	8953.41
672.157	8980.98
672.507	8909.12
672.856	8918.38
673.205	8937.36
673.554	9006.97
673.904	8867.54
674.253	8989.11
674.602	8923.35
674.951	8842.68
675.3	8761.78
675.649	8954.09
675.998	8919.74
676.346	8865.05
676.695	8900.08
677.044	8861.21
677.393	8861.21
677.741	8876.57
678.09	8798.38
678.438	8767.2
678.787	8835.22
679.135	8789.57
679.484	8715.9
679.832	8752.51
680.181	8700.31
680.529	8727.2
680.877	8717.26
681.225	8717.26
681.573	8730.82
681.922	8691.95
682.27	8681.33
682.618	8632.51
682.966	8564.27
683.314	8585.51
683.661	8613.3
684.009	8572.63
684.357	8560.88
684.705	8583.47
685.053	8505.74
685.4	8527.66
685.748	8464.38
686.095	8450.37
686.443	8452.86
686.79	8440.65
687.138	8392.75
687.485	8409.24
687.832	8418.96
688.18	8377.15
688.527	8261
688.874	8330.37
689.221	8284.5
689.568	8221.68
689.915	8249.47
690.262	8204.28
690.609	8214.67
690.956	8121.34
691.303	8113.43
691.65	8087.22
691.997	8141
692.344	8078.4
692.69	8037.73
693.037	8054.68
693.383	8043.38
693.73	7987.33
694.077	7945.3
694.423	7893.78
694.769	7865.3
695.116	7833.66
695.462	7831.18
695.808	7810.61
696.155	7782.82
696.501	7787.34
696.847	7667.57
697.193	7625.08
697.539	7656.72
697.885	7618.53
698.231	7566.55
698.577	7536.72
698.923	7551.86
699.269	7504.86
699.614	7440.45
699.96	7447.69
700.306	7423.73
700.651	7388.25
700.997	7418.76
701.342	7379.44
701.688	7343.06
702.033	7313.68
702.379	7263.51
702.724	7224.19
703.069	7251.53
703.415	7181.7
703.76	7151.2
704.105	7145.55
704.45	7163.4
704.795	7089.5
705.14	7048.83
705.485	7065.32
705.83	7016.51
706.175	6993.46
706.52	6992.1
706.865	6904.42
707.209	6931.77
707.554	6884.08
707.899	6881.82
708.243	6891.32
708.588	6860.36
708.932	6861.71
709.277	6790.75
709.621	6732.68
709.966	6747.59
710.31	6706.24
710.654	6749.85
710.998	6699.46
711.342	6691.55
711.687	6631.44
712.031	6699.23
712.375	6612
712.719	6668.72
713.063	6614.94
713.407	6618.78
713.75	6636.86
714.094	6562.51
714.438	6543.08
714.782	6554.15
715.125	6519.12
715.469	6512.79
715.812	6461.5
716.156	6466.02
716.499	6437.54
716.843	6448.84
717.186	6441.16
717.53	6445.23
717.873	6479.35
718.216	6389.86
718.559	6416.3
718.902	6375.17
719.246	6378.11
719.589	6401.84
719.932	6374.04
720.275	6344.44
720.617	6379.24
720.96	6307.6
721.303	6319.58
721.646	6336.08
721.989	6372.01
722.331	6359.13
722.674	6351.9
723.016	6299.47
723.359	6291.78
723.701	6306.02
724.044	6289.75
724.386	6306.25
724.729	6352.8
725.071	6327.49
725.413	6285.68
725.755	6230.09
726.097	6220.83
726.439	6224.67
726.782	6270.99
727.124	6222.18
727.465	6234.16
727.807	6247.72
728.149	6233.03
728.491	6261.95
728.833	6228.06
729.175	6238.23
729.516	6283.42
729.858	6262.63
730.199	6272.8
730.541	6273.03
730.882	6214.5
731.224	6240.49
731.565	6189.87
731.906	6238
732.248	6245.91
732.589	6225.57
732.93	6207.94
733.271	6230.09
733.612	6176.98
733.953	6209.07
734.294	6185.8
734.635	6262.86
734.976	6275.06
735.317	6228.73
735.658	6313.93
735.999	6267.15
736.339	6251.78
736.68	6313.25
737.021	6300.15
737.361	6257.21
737.702	6313.7
738.042	6268.28
738.383	6284.78
738.723	6296.98
739.063	6306.7
739.404	6332.46
739.744	6317.55
740.084	6318.9
740.424	6354.38
740.764	6379.01
741.104	6386.92
741.444	6376.53
741.784	6395.74
742.124	6434.6
742.464	6361.39
742.804	6476.19
743.143	6473.02
743.483	6490.87
743.823	6442.74
744.162	6533.81
744.502	6551.21
744.841	6573.36
745.181	6621.72
745.52	6667.59
745.86	6678.67
746.199	6727.93
746.538	6706.24
746.877	6806.35
747.216	6850.19
747.556	6912.33
747.895	6954.14
748.234	6967.47
748.573	7045.44
748.911	7087.24
749.25	7178.99
749.589	7179.22
749.928	7278.65
750.267	7360.23
750.605	7406.78
750.944	7491.98
751.283	7561.81
751.621	7556.61
751.96	7723.84
752.298	7752.08
752.636	7910.5
752.975	7990.95
753.313	8050.83
753.651	8202.69
753.989	8278.4
754.327	8423.93
754.666	8503.48
755.004	8698.05
755.342	8792.51
755.679	8864.15
756.017	9023.69
756.355	9201.76
756.693	9262.1
757.031	9469.1
757.368	9510.91
757.706	9777.79
758.044	9798.36
758.381	10016.43
758.719	10191.79
759.056	10362.41
759.394	10507.27
759.731	10668.62
760.068	10769.41
760.405	10887.82
760.743	11119.68
761.08	11241.94
761.417	11352.44
761.754	11664.98
762.091	11805.99
762.428	11944.29
762.765	12055.02
763.102	12341.79
763.438	12500.21
763.775	12619.07
764.112	12760.99
764.449	12970.25
764.785	13118.72
765.122	13209.57
765.458	13365.72
765.795	13467.87
766.131	13707.63
766.467	13868.99
766.804	14004.58
767.14	14171.8
767.476	14281.86
767.812	14393.72
768.148	14649.98
768.485	14732.01
768.821	14814.05
769.157	15002.29
769.492	15134.04
769.828	15282.96
770.164	15291.32
770.5	15420.36
770.836	15634.81
771.171	15702.61
771.507	15789.61
771.842	15853.57
772.178	15939.67
772.513	16110.06
772.849	16214.69
773.184	16229.38
773.519	16344.85
773.855	16426.88
774.19	16503.27
774.525	16595.69
774.86	16753.66
775.195	16695.13
775.53	16784.16
775.865	16805.41
776.2	16846.99
776.535	16907.78
776.87	16948.45
777.205	17031.16
777.539	17017.6
777.874	17142.35
778.209	17073.2
778.543	17148
778.878	17160.2
779.212	17232.96
779.547	17176.7
779.881	17310.25
780.215	17250.59
780.55	17472.51
780.884	17450.13
781.218	17439.29
781.552	17397.48
781.886	17454.43
782.22	17393.41
782.554	17419.4
782.888	17358.16
783.222	17319.97
783.556	17361.78
783.889	17422.56
784.223	17375.11
784.557	17204.72
784.89	17466.18
785.224	17320.19
785.557	17315.22
785.891	17316.35
786.224	17280.2
786.558	17321.78
786.891	17192.06
787.224	17173.76
787.557	17249.69
787.891	17171.27
788.224	17249.91
788.557	17236.35
788.89	17254.66
789.223	17247.2
789.556	17177.6
789.888	17089.92
790.221	17025.96
790.554	17028.45
790.887	17028.9
791.219	16930.83
791.552	16984.84
791.884	16967.44
792.217	16888.79
792.549	16922.24
792.882	16830.04
793.214	16849.92
793.546	16879.3
793.879	16833.65
794.211	16663.49
794.543	16850.83
794.875	16708.01
795.207	16698.74
795.539	16670.49
795.871	16618.52
796.203	16636.6
796.535	16536.03
796.867	16488.13
797.198	16442.7
797.53	16505.98
797.862	16405.87
798.193	16382.82
798.525	16236.16
798.856	16404.29
799.188	16175.37
799.519	16143.73
799.85	16143.5
800.182	16136.04
800.513	16071.41
800.844	16008.59
801.175	16099.89
801.506	16047.23
801.837	15963.39
802.168	15886.11
802.499	15880.23
802.83	15784.42
803.161	15877.07
803.491	15807.69
803.822	15757.07
804.153	15698.32
804.483	15571.54
804.814	15521.6
805.145	15576.51
805.475	15536.06
805.805	15488.83
806.136	15542.39
806.466	15551.2
806.796	15485.44
807.126	15416.97
807.457	15313.47
807.787	15330.19
808.117	15269.85
808.447	15202.28
808.777	15316.86
809.107	15199.57
809.436	15129.07
809.766	15193.92
810.096	15143.53
810.426	15016.07
810.755	15120.7
811.085	15022.18
811.414	15027.6
811.744	14919.13
812.073	14965
812.403	14953.02
812.732	14887.04
813.061	14801.16
813.39	14805.68
813.719	14687.27
814.049	14889.75
814.378	14766.36
814.707	14679.81
815.036	14662.86
815.365	14637.1
815.693	14471
816.022	14569.31
816.351	14487.95
816.68	14469.65
817.008	14472.81
817.337	14382.42
817.665	14314.17
817.994	14427.61
818.322	14367.73
818.651	14327.05
818.979	14252.25
819.307	14426.94
819.636	14315.98
819.964	14239.15
820.292	14215.87
820.62	14234.63
820.948	14259.03
821.276	14315.98
821.604	14211.58
821.932	14250.22
822.259	14276.21
822.587	14217
822.915	14133.39
823.243	14285.25
823.57	14193.5
823.898	14194.4
824.225	14153.05
824.553	14189.2
824.88	14211.12
825.207	14346.26
825.535	14172.93
825.862	14252.93
826.189	14166.83
826.516	14256.32
826.843	14234.85
827.17	14235.53
827.497	14224.23
827.824	14200.28
828.151	14203.44
828.478	14196.43
828.805	14332.7
829.131	14230.78
829.458	14230.56
829.785	14182.2
830.111	14188.3
830.438	14226.04
830.764	14202.54
831.09	14233.72
831.417	14125.02
831.743	14239.37
832.069	14226.49
832.395	14211.8
832.722	14141.52
833.048	14218.13
833.374	14179.03
833.7	14164.35
834.026	14117.57
834.351	14061.97
834.677	14155.08
835.003	14087.06
835.329	14133.39
835.654	14144.91
835.98	14015.87
836.306	14095.65
836.631	13997.12
836.956	14052.03
837.282	14022.2
837.607	14021.75
837.932	13948.98
838.258	13943.33
838.583	13842.09
838.908	13871.47
839.233	13892.94
839.558	13828.76
839.883	13752.15
840.208	13713.74
840.533	13783.79
840.858	13703.34
841.182	13829.89
841.507	13752.38
841.832	13716
842.156	13616.11
842.481	13591.48
842.805	13539.28
843.13	13523.46
843.454	13480.97
843.778	13499.73
844.103	13454.08
844.427	13424.48
844.751	13459.28
845.075	13346.97
845.399	13417.7
845.723	13237.36
846.047	13215.67
846.371	13180.42
846.695	13203.01
847.019	13098.38
847.343	13064.26
847.666	12961.21
847.99	12911.27
848.313	12957.82
848.637	12799.41
848.96	12890.93
849.284	12792.4
849.607	12736.36
849.931	12600.32
850.254	12564.61
850.577	12534.11
850.9	12449.14
851.223	12495.24
851.546	12409.14
851.869	12329.82
852.192	12396.03
852.515	12143.83
852.838	12307.44
853.161	12163.49
853.483	12099.54
853.806	12106.32
854.129	12061.35
854.451	11983.39
854.774	11977.96
855.096	11955.82
855.419	11870.62
855.741	11885.76
856.063	11797.18
856.385	11774.58
856.708	11728.7
857.03	11739.78
857.352	11705.43
857.674	11676.27
857.996	11601.25
858.318	11588.14
858.64	11495.49
858.961	11464.53
859.283	11379.33
859.605	11377.75
859.926	11409.16
860.248	11368.03
860.57	11293.69
860.891	11385.44
861.212	11339.79
861.534	11245.33
861.855	11247.59
862.176	11211.65
862.498	11196.74
862.819	11233.57
863.14	11189.28
863.461	11198.1
863.782	11126.68
864.103	11111.54
864.424	11070.87
864.745	11088.04
865.065	11001.49
865.386	10984.77
865.707	10991.77
866.027	10979.8
866.348	10945.22
866.668	10935.05
866.989	10896.63
867.309	10826.81
867.63	10915.84
867.95	10854.15
868.27	10770.08
868.59	10841.27
868.91	10736.41
869.23	10813.92
869.55	10689.18
869.87	10768.5
870.19	10789.52
870.51	10688.5
870.83	10709.07
871.15	10629.75
871.469	10690.99
871.789	10647.6
872.109	10656.19
872.428	10603.31
872.748	10612.57
873.067	10618
873.386	10634.95
873.706	10514.27
874.025	10536.19
874.344	10500.03
874.663	10545.01
874.982	10507.72
875.301	10438.34
875.62	10448.51
875.939	10384.11
876.258	10424.56
876.577	10453.71
876.896	10405.57
877.214	10304.33
877.533	10378.23
877.852	10344.33
878.17	10225.47
878.489	10307.72
878.807	10296.65
879.125	10258.91
879.444	10278.12
879.762	10227.73
880.08	10217.33
880.398	10162.87
880.716	10157.67
881.034	10175.52
881.352	10161.29
881.67	10044
881.988	10024.57
882.306	10035.64
882.624	10059.14
882.941	10008.97
883.259	10046.04
883.577	9992.7
883.894	9961.52
884.212	9969.43
884.529	9942.31
884.846	9929.88
885.164	9905.47
885.481	9887.17
885.798	9853.05
886.115	9703.22
886.432	9832.26
886.75	9734.63
887.067	9714.52
887.383	9728.53
887.7	9703.67
888.017	9722.43
888.334	9718.36
888.651	9653.73
888.967	9636.33
889.284	9548.65
889.6	9557.91
889.917	9464.36
890.233	9437.92
890.55	9425.26
890.866	9456.45
891.182	9373.51
891.498	9309.33
891.815	9341.65
892.131	9274.08
892.447	9276.11
892.763	9237.24
893.079	9226.17
893.395	9190.92
893.71	9200.63
894.026	9175.32
894.342	9086.51
894.657	9068.89
894.973	9111.82
895.289	9084.7
895.604	9008.32
895.92	8918.38
896.235	8922.45
896.55	8880.64
896.865	8865.5
897.181	8861.21
897.496	8839.74
897.811	8771.04
898.126	8720.87
898.441	8706.41
898.756	8662.34
899.071	8554.32
899.386	8651.72
899.7	8555.68
900.015	8595.45
900.33	8515.68
900.644	8453.53
900.959	8486.75
901.273	8383.03
901.588	8487.21
901.902	8368.34
902.216	8380.77
902.531	8280.88
902.845	8295.35
903.159	8288.12
903.473	8220.55
903.787	8168.8
904.101	8090.38
904.415	8155.46
904.729	8074.34
905.042	8033.43
905.356	8016.03
905.67	7994.11
905.984	7988.24
906.297	7972.64
906.611	7904.4
906.924	7899.43
907.237	7916.15
907.551	7846.09
907.864	7733.33
908.177	7768.13
908.491	7729.26
908.804	7658.98
909.117	7662.14
909.43	7617.17
909.743	7585.54
910.056	7558.64
910.368	7543.5
910.681	7529.72
910.994	7509.15
911.307	7441.58
911.619	7353.45
911.932	7405.88
912.244	7363.17
912.557	7298.08
912.869	7262.61
913.181	7270.74
913.494	7251.98
913.806	7174.25
914.118	7187.13
914.43	7144.64
914.742	7124.98
915.054	7050.86
915.366	7077.07
915.678	7028.71
915.99	6974.93
916.302	6939.45
916.613	6904.87
916.925	6896.06
917.236	6880.24
917.548	6798.21
917.859	6876.4
918.171	6765.22
918.482	6833.24
918.794	6774.26
919.105	6701.94
919.416	6704.65
919.727	6633.02
920.038	6649.06
920.349	6567.48
920.66	6509.41
920.971	6584.66
921.282	6575.84
921.593	6521.83
921.903	6437.09
922.214	6420.37
922.525	6458.56
922.835	6421.05
923.146	6359.8
923.456	6313.03
923.767	6304.21
924.077	6305.34
924.387	6299.92
924.697	6252.24
925.008	6207.04
925.318	6209.3
925.628	6155.29
925.938	6176.98
926.248	6093.14
926.558	6086.37
926.867	6061.73
927.177	6041.17
927.487	6020.83
927.796	5994.62
928.106	5972.92
928.416	5941.28
928.725	5943.54
929.034	5856.54
929.344	5864.22
929.653	5798.46
929.962	5864.68
930.271	5849.76
930.581	5738.8
930.89	5786.71
931.199	5678.47
931.508	5706.94
931.817	5692.7
932.125	5685.02
932.434	5633.95
932.743	5598.69
933.051	5610.67
933.36	5555.76
933.669	5541.07
933.977	5534.29
934.286	5440.73
934.594	5505.59
934.902	5458.81
935.21	5444.35
935.519	5426.72
935.827	5379.49
936.135	5348.31
936.443	5293.84
936.751	5282.54
937.059	5306.05
937.367	5294.3
937.674	5247.52
937.982	5231.02
938.29	5179.72
938.597	5157.8
938.905	5129.1
939.213	5148.54
939.52	5104.92
939.827	5148.99
940.135	5050.23
940.442	5053.62
940.749	4993.29
941.056	5036
941.363	4943.34
941.67	4954.42
941.977	4955.77
942.284	4934.76
942.591	4945.15
942.898	4851.14
943.205	4897.47
943.511	4835.78
943.818	4852.95
944.125	4826.06
944.431	4788.77
944.738	4786.29
945.044	4767.08
945.35	4722.79
945.657	4703.8
945.963	4682.33
946.269	4636.69
946.575	4649.34
946.881	4628.32
947.187	4635.56
947.493	4617.93
947.799	4556.91
948.105	4556.69
948.41	4514.66
948.716	4486.41
949.022	4467.2
949.327	4499.97
949.633	4386.98
949.938	4443.47
950.244	4440.53
950.549	4376.81
950.854	4337.94
951.16	4386.75
951.465	4300.2
951.77	4325.96
952.075	4282.8
952.38	4302.91
952.685	4290.25
952.99	4203.93
953.294	4234.21
953.599	4196.7
953.904	4195.79
954.209	4177.26
954.513	4170.26
954.818	4143.82
955.122	4121.67
955.426	4065.4
955.731	4131.84
956.035	4042.13
956.339	4044.61
956.643	4044.84
956.948	4041.22
957.252	4011.39
957.556	4027.66
957.86	3976.36
958.163	3963.03
958.467	3922.81
958.771	3907.21
959.075	3902.69
959.378	3885.97
959.682	3875.8
959.985	3872.86
960.289	3833.54
960.592	3828.12
960.896	3788.8
961.199	3798.97
961.502	3764.84
961.805	3782.92
962.108	3721.91
962.411	3749.7
962.714	3701.12
963.017	3692.98
963.32	3654.79
963.623	3628.35
963.926	3634.9
964.228	3584.96
964.531	3609.14
964.833	3561.46
965.136	3574.57
965.438	3543.38
965.741	3580.67
966.043	3558.07
966.345	3525.08
966.648	3479.2
966.95	3510.84
967.252	3460.45
967.554	3390.17
967.856	3441.92
968.158	3388.81
968.46	3391.52
968.761	3403.5
969.063	3365.98
969.365	3415.48
969.666	3370.28
969.968	3354.01
970.269	3328.7
970.571	3333.44
970.872	3292.31
971.174	3264.74
971.475	3255.71
971.776	3239.21
972.077	3233.56
972.378	3228.59
972.679	3219.1
972.98	3206.89
973.281	3170.74
973.582	3156.27
973.883	3180.45
974.183	3151.98
974.484	3152.21
974.785	3071.3
975.085	3104.07
975.386	3109.95
975.686	3092.55
975.986	3067.46
976.287	3048.25
976.587	3023.4
976.887	3012.77
977.187	3015.71
977.487	3013.9
977.787	2986.33
978.087	2982.04
978.387	2965.09
978.687	2948.59
978.987	2926.9
979.286	2897.3
979.586	2898.43
979.885	2876.73
980.185	2908.37
980.484	2847.13
980.784	2852.1
981.083	2826.56
981.382	2808.71
981.682	2813.01
981.981	2793.8
982.28	2793.57
982.579	2791.76
982.878	2828.6
983.177	2727.13
983.475	2737.98
983.774	2698.66
984.073	2703.18
984.372	2674.48
984.67	2708.38
984.969	2661.6
985.267	2691.2
985.566	2659.79
985.864	2634.03
986.162	2634.03
986.461	2588.38
986.759	2582.28
987.057	2629.28
987.355	2571.88
987.653	2544.09
987.951	2568.94
988.249	2512.67
988.547	2550.19
988.844	2518.55
989.142	2499.79
989.44	2505.22
989.737	2493.92
990.035	2483.52
990.332	2499.12
990.63	2459.57
990.927	2455.73
991.224	2400.59
991.521	2436.97
991.819	2390.87
992.116	2397.42
992.413	2388.61
992.71	2385.67
993.006	2394.94
993.303	2354.03
993.6	2335.05
993.897	2314.71
994.193	2364.43
994.49	2293.92
994.787	2315.39
995.083	2297.09
995.379	2268.16
995.676	2277.2
995.972	2255.05
996.268	2228.84
996.565	2230.87
996.861	2230.2
997.157	2200.14
997.453	2197.65
997.749	2237.65
998.044	2192.46
998.34	2194.49
998.636	2162.63
998.932	2146.81
999.227	2132.57
999.523	2109.52
999.818	2106.81
1000.114	2088.05
1000.409	2094.15
1000.704	2106.58
1001	2079.92
1001.295	2058.45
1001.59	2076.75
1001.885	2040.6
1002.18	2021.84
1002.475	2039.69
1002.77	2014.83
1003.065	2012.8
1003.359	1974.16
1003.654	1959.47
1003.949	1943.65
1004.243	1967.6
1004.538	1960.15
1004.832	1938
1005.127	1928.96
1005.421	1936.64
1005.715	1947.04
1006.009	1905.23
1006.304	1897.55
1006.598	1875.4
1006.892	1859.36
1007.186	1847.38
1007.48	1804.67
1007.773	1828.62
1008.067	1818.23
1008.361	1783.88
1008.655	1795.63
1008.948	1820.49
1009.242	1779.36
1009.535	1772.58
1009.829	1745.46
1010.122	1710.89
1010.415	1730.1
1010.708	1699.59
1011.001	1723.09
1011.295	1679.25
1011.588	1706.37
1011.881	1664.11
1012.173	1687.61
1012.466	1662.07
1012.759	1641.74
1013.052	1663.43
1013.344	1620.49
1013.637	1624.34
1013.93	1620.49
1014.222	1611.68
1014.514	1619.14
1014.807	1547.95
1015.099	1582.75
1015.391	1575.52
1015.683	1587.27
1015.976	1547.95
1016.268	1536.65
1016.56	1528.29
1016.851	1491.91
1017.143	1526.94
1017.435	1514.51
1017.727	1507.05
1018.018	1497.79
1018.31	1437.9
1018.602	1453.72
1018.893	1443.55
1019.185	1441.06
1019.476	1414.4
1019.767	1461.18
1020.058	1435.19
1020.35	1402.42
1020.641	1403.55
1020.932	1376.88
1021.223	1381.4
1021.514	1370.78
1021.804	1382.76
1022.095	1326.04
1022.386	1335.98
1022.677	1361.74
1022.967	1343.44
1023.258	1299.82
1023.548	1295.53
1023.839	1274.29
1024.129	1339.37
1024.419	1332.59
1024.709	1295.98
1025	1297.11
1025.29	1265.48
1025.58	1251.46
1025.87	1260.96
1026.16	1227.51
1026.449	1232.03
1026.739	1240.84
1027.029	1219.6
1027.319	1215.31
1027.608	1205.59
1027.898	1173.5
1028.187	1198.58
1028.477	1185.7
1028.766	1181.86
1029.055	1172.6
1029.344	1163.56
1029.634	1131.69
1029.923	1144.57
1030.212	1171.01
1030.501	1156.78
1030.79	1129.89
1031.078	1119.04
1031.367	1095.31
1031.656	1071.36
1031.945	1123.33
1032.233	1064.8
1032.522	1081.98
1032.81	1082.43
1033.099	1079.49
1033.387	1033.39
1033.675	1079.27
1033.963	1058.93
1034.251	1032.26
1034.54	1033.16
1034.828	1028.19
1035.116	1017.57
1035.403	1018.02
1035.691	1010.11
1035.979	1017.8
1036.267	993.39
1036.554	971.92
1036.842	1002.21
1037.129	991.81
1037.417	951.36
1037.704	977.57
1037.992	949.33
1038.279	960.62
1038.566	968.76
1038.853	968.76
1039.14	968.76
