Data from hue_28_FLMS001491_00012.txt Node
Date: Tue Feb 07 17:16:55 GMT 2017
User: dcchb
Spectrometer: FLMS00149
Trigger mode: 0
Integration Time (sec): 2.000000E-2
Scans to average: 10
Electric dark correction enabled: true
Nonlinearity correction enabled: false
Boxcar width: 0
XAxis mode: Wavelengths
Number of Pixels in Spectrum: 2048
>>>>>Begin Spectral Data<<<<<
341.393	-5.41
341.776	-5.41
342.16	-5.41
342.543	-52.19
342.927	-56.93
343.31	-53.77
343.693	-46.54
344.077	-76.14
344.46	-63.49
344.843	-48.12
345.226	-24.62
345.61	-44.96
345.993	-33.88
346.376	-5.64
346.759	16.06
347.142	17.19
347.525	41.37
347.908	56.96
348.291	59.45
348.674	89.96
349.057	116.17
349.44	126.56
349.823	154.81
350.206	164.53
350.588	212.89
350.971	218.09
351.354	223.74
351.737	224.87
352.119	248.82
352.502	261.02
352.884	281.36
353.267	307.58
353.65	307.35
354.032	299.22
354.414	319.33
354.797	319.1
355.179	325.88
355.562	345.77
355.944	335.82
356.326	319.33
356.709	349.16
357.091	338.76
357.473	340.8
357.855	349.61
358.238	349.61
358.62	342.6
359.002	357.97
359.384	335.37
359.766	363.39
360.148	357.74
360.53	346.22
360.912	332.43
361.294	353.45
361.676	339.44
362.057	331.08
362.439	340.57
362.821	326.33
363.203	336.73
363.584	319.55
363.966	337.86
364.348	311.42
364.729	317.52
365.111	318.88
365.493	344.19
365.874	340.57
366.256	310.97
366.637	318.2
367.019	328.59
367.4	325.2
367.781	323.85
368.163	330.4
368.544	313
368.925	315.94
369.306	336.5
369.688	330.17
370.069	347.12
370.45	325.88
370.831	335.15
371.212	323.62
371.593	324.75
371.974	315.26
372.355	327.01
372.736	313.23
373.117	333.79
373.498	315.03
373.879	329.27
374.26	322.27
374.641	319.78
375.021	323.4
375.402	321.14
375.783	336.5
376.163	327.46
376.544	327.69
376.925	340.34
377.305	332.43
377.686	341.47
378.066	329.5
378.447	319.1
378.827	331.08
379.208	348.48
379.588	353.45
379.968	333.34
380.349	355.71
380.729	321.59
381.109	340.12
381.489	334.02
381.87	341.93
382.25	341.93
382.63	334.69
383.01	332.89
383.39	331.3
383.77	359.1
384.15	366.56
384.53	353.9
384.91	330.17
385.29	358.2
385.67	340.34
386.049	365.43
386.429	367.91
386.809	367.24
387.189	357.97
387.568	350.29
387.948	355.26
388.328	357.52
388.707	362.49
389.087	384.41
389.466	384.18
389.846	354.36
390.225	383.73
390.605	365.65
390.984	362.72
391.363	362.04
391.743	382.15
392.122	380.57
392.501	380.34
392.881	398.2
393.26	370.17
393.639	382.15
394.018	382.83
394.397	379.67
394.776	385.77
395.155	383.96
395.534	388.03
395.913	389.16
396.292	379.89
396.671	391.87
397.05	362.04
397.429	395.71
397.808	387.8
398.186	393.22
398.565	385.31
398.944	383.73
399.323	394.35
399.701	403.62
400.08	416.5
400.458	422.83
400.837	400.23
401.215	405.65
401.594	405.43
401.972	385.09
402.351	386.9
402.729	418.08
403.107	427.57
403.486	429.16
403.864	430.06
404.242	400.23
404.62	446.1
404.999	435.93
405.377	420.79
405.755	433.45
406.133	443.84
406.511	416.73
406.889	445.2
407.267	442.04
407.645	439.55
408.023	453.56
408.401	438.65
408.779	424.41
409.156	433.68
409.534	457.86
409.912	445.43
410.29	443.62
410.667	472.54
411.045	456.95
411.422	442.04
411.8	450.4
412.178	456.73
412.555	481.13
412.933	468.48
413.31	467.8
413.687	494.69
414.065	478.19
414.442	490.62
414.819	475.93
415.197	478.19
415.574	493.56
415.951	475.71
416.328	487.01
416.705	491.53
417.082	491.53
417.46	487.68
417.837	510.51
418.214	508.25
418.591	527.91
418.967	518.64
419.344	517.29
419.721	508.7
420.098	510.28
420.475	520.9
420.852	547.57
421.228	541.92
421.605	531.3
421.982	528.36
422.358	534.92
422.735	533.56
423.111	549.38
423.488	547.34
423.864	535.82
424.241	571.52
424.617	552.09
424.994	567.91
425.37	559.1
425.746	557.51
426.123	573.56
426.499	558.64
426.875	576.72
427.251	578.53
427.627	585.76
428.003	582.82
428.379	596.38
428.756	576.27
429.132	603.84
429.507	615.14
429.883	607.46
430.259	610.85
430.635	630.73
431.011	629.6
431.387	630.73
431.763	632.54
432.138	616.5
432.514	656.27
432.89	633.44
433.265	653.56
433.641	666.44
434.016	668.02
434.392	661.92
434.767	689.71
435.143	668.7
435.518	670.73
435.894	686.1
436.269	689.94
436.644	677.28
437.02	711.41
437.395	699.88
437.77	717.06
438.145	704.18
438.52	727
438.895	731.07
439.271	725.42
439.646	734.46
440.021	754.8
440.395	736.72
440.77	733.78
441.145	718.64
441.52	742.14
441.895	736.04
442.27	740.11
442.645	752.76
443.019	764.06
443.394	762.71
443.769	735.59
444.143	769.26
444.518	776.04
444.892	761.8
445.267	804.96
445.641	782.82
446.016	786.43
446.39	799.54
446.764	816.72
447.139	820.78
447.513	783.72
447.887	792.99
448.262	819.2
448.636	824.85
449.01	864.4
449.384	842.03
449.758	816.72
450.132	847.9
450.506	836.38
450.88	812.42
451.254	850.61
451.628	850.16
452.002	862.36
452.376	888.35
452.75	882.02
453.123	881.8
453.497	887.67
453.871	882.7
454.244	881.12
454.618	915.7
454.992	918.41
455.365	929.26
455.739	934.68
456.112	957.96
456.486	950.27
456.859	952.76
457.232	1021
457.606	996.37
457.979	996.6
458.352	995.47
458.725	996.82
459.099	1010.84
459.472	1049.03
459.845	1050.61
460.218	1055.13
460.591	1065.97
460.964	1056.48
461.337	1083.38
461.71	1096.26
462.083	1135.13
462.456	1117.5
462.829	1093.32
463.201	1145.75
463.574	1147.78
463.947	1181.45
464.32	1182.58
464.692	1202.92
465.065	1159.76
465.438	1200.21
465.81	1218.97
466.183	1237.95
466.555	1255.35
466.928	1254.22
467.3	1251.28
467.672	1283.82
468.045	1304.39
468.417	1321.11
468.789	1328.11
469.161	1329.7
469.534	1333.09
469.906	1386.19
470.278	1395.68
470.65	1416.25
471.022	1455.12
471.394	1470.03
471.766	1500.99
472.138	1493.76
472.51	1529.69
472.882	1545.74
473.253	1585.06
473.625	1585.51
473.997	1631.84
474.369	1638.84
474.74	1672.29
475.112	1710.25
475.484	1733.53
475.855	1753.19
476.227	1801.1
476.598	1830.25
476.97	1828.67
477.341	1900.98
477.713	1921.09
478.084	1960.41
478.455	2040.64
478.827	2018.94
479.198	2071.15
479.569	2085.61
479.94	2152.5
480.311	2177.81
480.682	2241.31
481.053	2318.6
481.424	2342.55
481.795	2376.22
482.166	2392.04
482.537	2470.46
482.908	2470.01
483.279	2534.41
483.65	2592.26
484.021	2653.96
484.391	2700.06
484.762	2732.15
485.133	2777.79
485.503	2832.93
485.874	2902.99
486.244	2936.21
486.615	3009.65
486.985	3065.02
487.356	3068.86
487.726	3119.71
488.097	3208.74
488.467	3258.69
488.837	3356.08
489.207	3347.04
489.578	3457.78
489.948	3472.69
490.318	3515.63
490.688	3579.13
491.058	3648.51
491.428	3695.28
491.798	3767.82
492.168	3827.26
492.538	3863.19
492.908	3889.86
493.278	3961.04
493.648	3964.2
494.017	4041.94
494.387	4034.48
494.757	4102.96
495.126	4210.3
495.496	4232.45
495.866	4240.58
496.235	4331.65
496.605	4388.15
496.974	4414.36
497.344	4422.04
497.713	4539.78
498.082	4536.84
498.452	4548.14
498.821	4583.62
499.19	4616.39
499.559	4679.44
499.928	4735.03
500.298	4765.76
500.667	4848.02
501.036	4779.1
501.405	4882.6
501.774	4871.52
502.143	4935.7
502.512	4936.61
502.88	4970.73
503.249	4990.39
503.618	5082.82
503.987	5114.68
504.356	5097.06
504.724	5093.44
505.093	5134.12
505.462	5189.48
505.83	5215.02
506.199	5270.84
506.567	5322.81
506.936	5339.08
507.304	5394.22
507.672	5355.13
508.041	5401
508.409	5483.03
508.777	5497.27
509.145	5587.89
509.514	5531.85
509.882	5584.95
510.25	5577.49
510.618	5630.83
510.986	5621.34
511.354	5713.31
511.722	5707.21
512.09	5723.93
512.458	5741.78
512.826	5771.39
513.193	5838.05
513.561	5843.7
513.929	5858.84
514.297	5934.55
514.664	5888.22
515.032	5967.54
515.4	5961.89
515.767	6053.87
516.135	6036.92
516.502	6082.34
516.869	6139.74
517.237	6158.27
517.604	6127.31
517.972	6153.52
518.339	6203.24
518.706	6229.45
519.073	6200.76
519.44	6244.6
519.808	6312.16
520.175	6309.45
520.542	6359.17
520.909	6393.52
521.276	6402.78
521.643	6456.12
522.009	6479.62
522.376	6537.02
522.743	6524.81
523.11	6633.74
523.477	6676.67
523.843	6657.24
524.21	6722.78
524.577	6746.28
524.943	6814.75
525.31	6796.45
525.676	6891.36
526.043	6919.38
526.409	6912.6
526.776	6965.25
527.142	7018.36
527.508	7059.04
527.874	7115.76
528.241	7100.17
528.607	7121.86
528.973	7246.38
529.339	7200.95
529.705	7288.18
530.071	7275.98
530.437	7297
530.803	7327.73
531.169	7370.67
531.535	7398.24
531.901	7400.05
532.267	7460.61
532.632	7469.65
532.998	7529.99
533.364	7656.76
533.73	7592.58
534.095	7666.03
534.461	7680.72
534.826	7688.63
535.192	7741.28
535.557	7797.32
535.923	7908.51
536.288	7863.31
536.653	7917.09
537.019	7894.5
537.384	7941.05
537.749	7990.31
538.114	8039.35
538.479	8054.27
538.845	8056.53
539.21	8056.07
539.575	8109.63
539.94	8156.18
540.305	8161.61
540.67	8191.44
541.034	8266.69
541.399	8288.16
541.764	8291.32
542.129	8351.43
542.494	8391.21
542.858	8364.77
543.223	8394.14
543.587	8436.4
543.952	8500.36
544.316	8491.54
544.681	8500.58
545.045	8608.6
545.41	8655.61
545.774	8650.63
546.138	8725.43
546.503	8699.22
546.867	8729.95
547.231	8835.49
547.595	8827.13
547.959	8908.03
548.324	8882.72
548.688	8882.04
549.052	8937.86
549.416	8912.32
549.779	8922.72
550.143	9043.17
550.507	9096.72
550.871	9056.27
551.235	9095.14
551.599	9188.02
551.962	9150.96
552.326	9242.03
552.689	9259.43
553.053	9207.23
553.417	9263.5
553.78	9337.17
554.143	9293.1
554.507	9365.42
554.87	9381.24
555.234	9509.59
555.597	9443.38
555.96	9537.39
556.323	9521.8
556.686	9479.31
557.05	9618.29
557.413	9631.17
557.776	9614.68
558.139	9729.02
558.502	9694.22
558.865	9638.86
559.228	9769.25
559.59	9815.35
559.953	9810.6
560.316	10002.01
560.679	9913.43
561.041	10000.43
561.404	10009.02
561.767	10025.97
562.129	10090.14
562.492	10195.23
562.854	10116.13
563.217	10174.21
563.579	10180.31
563.941	10248.11
564.304	10314.32
564.666	10325.39
565.028	10308.9
565.39	10382.11
565.753	10444.26
566.115	10463.47
566.477	10477.25
566.839	10504.37
567.201	10571.94
567.563	10609
567.925	10695.78
568.287	10699.85
568.648	10769.9
569.01	10734.65
569.372	10846.06
569.734	10768.54
570.095	10835.66
570.457	10928.54
570.819	10936
571.18	10941.65
571.542	11033.85
571.903	11079.04
572.265	11151.36
572.626	11183
572.987	11294.86
573.349	11227.29
573.71	11373.73
574.071	11406.27
574.432	11474.74
574.794	11653.49
575.155	11651.23
575.516	11724.68
575.877	11752.25
576.238	11818.01
576.599	11918.34
576.96	12012.35
577.32	12036.53
577.681	12182.74
578.042	12296.87
578.403	12385.45
578.763	12421.16
579.124	12588.38
579.485	12706.57
579.845	12801.26
580.206	12865.66
580.566	13029.73
580.927	13206.22
581.287	13316.27
581.648	13404.41
582.008	13612.54
582.368	13741.35
582.728	13925.52
583.089	14028.12
583.449	14202.58
583.809	14437.37
584.169	14607.54
584.529	14685.5
584.889	15065.61
585.249	15063.8
585.609	15246.62
585.969	15632.82
586.329	15769.54
586.688	16030.1
587.048	16242.3
587.408	16434.16
587.768	16675.28
588.127	16918.67
588.487	17076.63
588.846	17444.08
589.206	17610.4
589.565	17834.57
589.925	18173.1
590.284	18443.6
590.643	18738.96
591.003	19120.64
591.362	19341.2
591.721	19605.15
592.08	19805.6
592.44	20155.64
592.799	20440.15
593.158	20510.44
593.517	20988.16
593.876	21349.96
594.235	21485.78
594.593	21895.71
594.952	22171.86
595.311	22391.06
595.67	22696.14
596.029	23127.77
596.387	23458.61
596.746	23734.53
597.104	23972.04
597.463	24228.98
597.822	24556.66
598.18	24781.06
598.538	24979.24
598.897	25516.41
599.255	25584.88
599.613	26236.84
599.972	26273
600.33	26628.92
600.688	26847.9
601.046	27221.22
601.404	27620.53
601.762	27859.17
602.12	28173.74
602.478	28511.35
602.836	28640.39
603.194	28714.29
603.552	29137.33
603.91	29320.37
604.268	29671.1
604.625	29788.38
604.983	30273.57
605.341	30258.43
605.698	30525.31
606.056	31004.85
606.413	31141.79
606.771	31479.19
607.128	31761.66
607.485	31767.09
607.843	32158.26
608.2	32427.18
608.557	32673.51
608.914	32789.21
609.272	33176.99
609.629	33385.58
609.986	33743.53
610.343	33797.09
610.7	34044.54
611.057	34125.22
611.414	34441.59
611.771	34514.13
612.127	34910.73
612.484	34948.47
612.841	35258.3
613.198	35405.86
613.554	35465.07
613.911	35903.25
614.267	35990.25
614.624	36111.38
614.98	36323.8
615.337	36485.16
615.693	36580.97
616.05	36730.57
616.406	37118.81
616.762	37071.13
617.118	37110.9
617.475	37525.13
617.831	37570.78
618.187	37729.64
618.543	37831.79
618.899	38279.01
619.255	38253.47
619.611	38280.59
619.967	38489.4
620.323	38767.58
620.678	38576.85
621.034	38613.91
621.39	38818.88
621.746	38789.05
622.101	39300.68
622.457	39182.26
622.812	39168.93
623.168	39367.11
623.523	39567.34
623.879	39619.31
624.234	39508.58
624.589	39790.83
624.945	39801.68
625.3	39898.63
625.655	40025.85
626.01	40071.28
626.365	40180.43
626.72	40093.42
627.075	40233.08
627.43	40337.03
627.785	40130.26
628.14	40429.91
628.495	40596.23
628.85	40376.58
629.205	40460.19
629.559	40676.23
629.914	40641.88
630.269	40674.65
630.623	40494.54
630.978	40590.59
631.332	40752.84
631.687	40908.54
632.041	40717.14
632.396	40843.01
632.75	40903.12
633.104	40847.3
633.459	40780.41
633.813	40774.31
634.167	40865.61
634.521	40852.05
634.875	40943.12
635.229	40875.1
635.583	40672.17
635.937	40785.16
636.291	40903.57
636.645	40921.88
636.999	40626.74
637.352	40911.48
637.706	40756
638.06	40984.93
638.413	40798.04
638.767	40768.43
639.121	40934.53
639.474	40637.59
639.828	40650.24
640.181	40638.72
640.534	40687.31
640.888	40615.9
641.241	40619.74
641.594	40683.69
641.947	40707.42
642.301	40558.27
642.654	40701.09
643.007	40707.19
643.36	40760.98
643.713	40725.5
644.066	40779.96
644.419	40497.71
644.771	40218.84
645.124	39929.13
645.477	39989.47
645.83	39700.89
646.182	39539.77
646.535	39441.01
646.888	39537.28
647.24	39382.93
647.593	39676.03
647.945	39638.97
648.298	39325.08
648.65	39216.61
649.002	39260.45
649.355	39482.37
649.707	39285.08
650.059	39560.56
650.411	39978.4
650.763	40017.72
651.115	40541.55
651.467	40205.96
651.819	40354.21
652.171	40168.68
652.523	40209.13
652.875	40138.85
653.227	39933.65
653.578	40380.42
653.93	40024.95
654.282	40010.04
654.633	39990.38
654.985	39918.06
655.337	39998.96
655.688	40113.76
656.039	40142.24
656.391	39784.5
656.742	40045.74
657.094	40159.86
657.445	40150.14
657.796	40050.49
658.147	39993.76
658.498	40015.69
658.849	40062.01
659.2	39903.82
659.551	39876.25
659.902	40050.94
660.253	39863.37
660.604	39956.25
660.955	39821.79
661.306	39990.38
661.656	39874.67
662.007	39841.23
662.358	40032.86
662.708	39927.78
663.059	39940.88
663.409	39689.37
663.76	39952.86
664.11	39923.26
664.461	39915.12
664.811	39913.99
665.161	39864.73
665.511	39840.55
665.862	39860.43
666.212	40031.28
666.562	39917.38
666.912	39799.65
667.262	39736.14
667.612	39804.39
667.962	39911.06
668.312	39758.52
668.662	40167.55
669.011	39951.51
669.361	39868.12
669.711	39890.94
670.06	39828.57
670.41	39616.83
670.76	39730.27
671.109	39807.78
671.459	39715.35
671.808	39585.87
672.157	39788.12
672.507	39365.76
672.856	39422.48
673.205	39499.54
673.554	39679.2
673.904	39493.44
674.253	39634.23
674.602	39505.64
674.951	38941.82
675.3	38882.16
675.649	39466.32
675.998	39370.05
676.346	39444.63
676.695	39641.68
677.044	39113.79
677.393	39452.54
677.741	39357.17
678.09	39441.24
678.438	39228.59
678.787	39358.53
679.135	39384.29
679.484	38988.14
679.832	39326.21
680.181	39044.64
680.529	39170.74
680.877	38947.92
681.225	39048.25
681.573	39372.09
681.922	38823.4
682.27	38836.06
682.618	38886.9
682.966	38775.04
683.314	38822.04
683.661	38646.91
684.009	38542.96
684.357	38444.65
684.705	38371.89
685.053	38449.85
685.4	38366.69
685.748	38229.74
686.095	38238.33
686.443	38170.76
686.79	38021.16
687.138	38121.5
687.485	38106.36
687.832	37913.82
688.18	37905.01
688.527	37686.25
688.874	37703.88
689.221	37689.19
689.568	37666.59
689.915	37433.83
690.262	37569.42
690.609	37376.21
690.956	37341.41
691.303	37216.66
691.65	37009.89
691.997	37047.18
692.344	36910.46
692.69	36927.86
693.037	36894.19
693.383	36713.85
693.73	36771.02
694.077	36535.78
694.423	36523.12
694.769	36454.87
695.116	36385.27
695.462	36383.92
695.808	36244.03
696.155	36257.82
696.501	36000.2
696.847	35957.71
697.193	35615.12
697.539	35893.53
697.885	35635.69
698.231	35623.71
698.577	35549.59
698.923	35489.93
699.269	35355.69
699.614	35110.05
699.96	35182.14
700.306	35167.68
700.651	35009.04
700.997	34945.99
701.342	34748.03
701.688	34760.68
702.033	34651.76
702.379	34534.02
702.724	34471.42
703.069	34659.44
703.415	34189.17
703.76	34292.9
704.105	34332.67
704.45	34191.43
704.795	34005.45
705.14	33845
705.485	33892.23
705.83	33727.49
706.175	33714.83
706.52	33717.32
706.865	33655.63
707.209	33527.04
707.554	33363.66
707.899	33523.65
708.243	33351.23
708.588	33317.33
708.932	33045.7
709.277	33090.9
709.621	33035.08
709.966	32752.83
710.31	32806.84
710.654	32731.36
710.998	32684.8
711.342	32760.28
711.687	32595.77
712.031	32446.17
712.375	32335.89
712.719	32316.45
713.063	32196.68
713.407	32379.28
713.75	32184.48
714.094	32186.29
714.438	31989.23
714.782	32078.04
715.125	31830.82
715.469	31895.22
715.812	31760.99
716.156	31782
716.499	31738.16
716.843	31582.01
717.186	31442.13
717.53	31588.79
717.873	31706.53
718.216	31549.47
718.559	31290.72
718.902	31238.51
719.246	31303.6
719.589	31145.86
719.932	31091.63
720.275	31131.4
720.617	31009.37
720.96	30979.09
721.303	30932.08
721.646	31016.6
721.989	30775.7
722.331	30867.68
722.674	30667.91
723.016	30883.27
723.359	30736.16
723.701	30699.32
724.044	30480.34
724.386	30409.61
724.729	30589.94
725.071	30427.91
725.413	30353.34
725.755	30332.1
726.097	30278.77
726.439	30143.63
726.782	30160.13
727.124	30276.96
727.465	30038.55
727.807	29987.93
728.149	30008.72
728.491	29934.14
728.833	29814.82
729.175	29740.7
729.516	29762.4
729.858	29760.81
730.199	29697.09
730.541	29762.85
730.882	29627.71
731.224	29706.58
731.565	29523.98
731.906	29532.12
732.248	29615.96
732.589	29480.37
732.93	29225.69
733.271	29361.28
733.612	29333.93
733.953	29442.4
734.294	29202.18
734.635	29157.67
734.976	29274.95
735.317	29084
735.658	29027.73
735.999	29048.29
736.339	29070.44
736.68	29136.42
737.021	28995.41
737.361	28760.16
737.702	28936.88
738.042	28889.65
738.383	28749.31
738.723	28880.61
739.063	28764.23
739.404	28709.54
739.744	28724.91
740.084	28490.79
740.424	28578.25
740.764	28567.62
741.104	28662.31
741.444	28364.69
741.784	28430
742.124	28440.4
742.464	28409.44
742.804	28399.95
743.143	28251.25
743.483	28216.45
743.823	28088.77
744.162	28081.76
744.502	28147.97
744.841	27983.23
745.181	28123.34
745.52	27936
745.86	28036.79
746.199	27941.2
746.538	27884.25
746.877	27945.04
747.216	27878.83
747.556	27779.17
747.895	27804.25
748.234	27629.12
748.573	27676.8
748.911	27682.68
749.25	27601.77
749.589	27408.11
749.928	27531.95
750.267	27561.55
750.605	27394.32
750.944	27376.47
751.283	27364.04
751.621	27465.96
751.96	27229.35
752.298	27170.15
752.636	27123.82
752.975	27032.98
753.313	27083.82
753.651	27166.76
753.989	27085.63
754.327	26988.68
754.666	26813.32
755.004	26788.69
755.342	26799.08
755.679	26729.93
756.017	26617.85
756.355	26697.62
756.693	26528.81
757.031	26554.57
757.368	26450.17
757.706	26390.73
758.044	26294.69
758.381	26349.15
758.719	26126.33
759.056	26220.12
759.394	26089.5
759.731	25999.78
760.068	25962.72
760.405	25791.65
760.743	25693.8
761.08	25717.76
761.417	25612.67
761.754	25582.84
762.091	25641.37
762.428	25524.77
762.765	25370.42
763.102	25410.65
763.438	25245.9
763.775	25249.75
764.112	25195.28
764.449	25210.2
764.785	25093.82
765.122	24940.15
765.458	24831.9
765.795	24772.92
766.131	24892.47
766.467	24705.81
766.804	24613.38
767.14	24398.47
767.476	24540.16
767.812	24382.2
768.148	24429.2
768.485	24236.21
768.821	24129.1
769.157	24081.87
769.492	24034.18
769.828	23929.55
770.164	23764.36
770.5	23661.99
770.836	23648.66
771.171	23591.26
771.507	23446.86
771.842	23431.26
772.178	23344.49
772.513	23224.94
772.849	23162.79
773.184	23036.24
773.519	23053.19
773.855	22873.99
774.19	22895.23
774.525	22800.77
774.86	22766.65
775.195	22742.69
775.53	22600.55
775.865	22475.58
776.2	22298.64
776.535	22094.12
776.87	22188.81
777.205	22108.59
777.539	21987.01
777.874	22140.22
778.209	21857.29
778.543	21798.31
778.878	21568.26
779.212	21571.42
779.547	21663.63
779.881	21610.29
780.215	21364.88
780.55	21463.86
780.884	21195.84
781.218	21361.26
781.552	21276.74
781.886	21147.71
782.22	21040.59
782.554	20857.54
782.888	20645.35
783.222	20617.78
783.556	20616.2
783.889	20570.55
784.223	20397.44
784.557	20310.67
784.89	20394.96
785.224	20260.5
785.557	20192.93
785.891	20192.7
786.224	20122.65
786.558	20083.33
786.891	19901.86
787.224	19707.97
787.557	19768.99
787.891	19718.37
788.224	19743.68
788.557	19641.08
788.89	19582.78
789.223	19640.4
789.556	19379.62
789.888	19431.59
790.221	19284.25
790.554	19113.41
790.887	19126.74
791.219	19102.56
791.552	19038.38
791.884	18907.09
792.217	18921.32
792.549	18876.35
792.882	18679.97
793.214	18671.84
793.546	18688.79
793.879	18605.4
794.211	18385.29
794.543	18474.33
794.875	18378.06
795.207	18411.73
795.539	18313.2
795.871	18331.28
796.203	18127
796.535	18062.14
796.867	17964.97
797.198	17940.56
797.53	17957.06
797.862	17906.89
798.193	17806.33
798.525	17766.78
798.856	17774.46
799.188	17522.27
799.519	17546.67
799.85	17515.26
800.182	17487.24
800.513	17426
800.844	17323.4
801.175	17393.91
801.506	17298.54
801.837	17284.31
802.168	17222.16
802.499	17149.17
802.83	17068.27
803.161	17008.15
803.491	16909.4
803.822	16923.18
804.153	16889.74
804.483	16796.63
804.814	16672.8
805.145	16597.77
805.475	16649.97
805.805	16480.03
806.136	16506.7
806.466	16501.95
806.796	16414.5
807.126	16322.97
807.457	16298.12
807.787	16358
808.117	16266.48
808.447	16232.58
808.777	16172.24
809.107	16090.66
809.436	16030.78
809.766	16036.88
810.096	16047.95
810.426	15988.07
810.755	15964.57
811.085	15965.24
811.414	15817.9
811.744	15747.62
812.073	15659.26
812.403	15747.85
812.732	15662.2
813.061	15636.44
813.39	15484.58
813.719	15532.94
814.049	15574.29
814.378	15497.69
814.707	15366.84
815.036	15409.33
815.365	15345.6
815.693	15184.7
816.022	15167.52
816.351	15167.98
816.68	15122.1
817.008	15175.89
817.337	15055.21
817.665	14949.45
817.994	14931.15
818.322	14969.56
818.651	14944.03
818.979	14867.42
819.307	14878.27
819.636	14848.89
819.964	14688.44
820.292	14770.02
820.62	14812.96
820.948	14735.45
821.276	14745.62
821.604	14701.55
821.932	14746.97
822.259	14667.65
822.587	14673.75
822.915	14759.85
823.243	14678.95
823.57	14660.87
823.898	14666.97
824.225	14578.39
824.553	14603.25
824.88	14628.33
825.207	14644.37
825.535	14633.98
825.862	14628.33
826.189	14580.42
826.516	14669.91
826.843	14759.63
827.17	14711.94
827.497	14661.1
827.824	14782.22
828.151	14693.41
828.478	14629.23
828.805	14694.09
829.131	14646.18
829.458	14601.89
829.785	14466.75
830.111	14619.52
830.438	14603.47
830.764	14532.74
831.09	14668.33
831.417	14546.75
831.743	14586.07
832.069	14530.03
832.395	14584.04
832.722	14593.98
833.048	14453.87
833.374	14613.19
833.7	14434.21
834.026	14485.73
834.351	14534.32
834.677	14441.44
835.003	14417.26
835.329	14480.09
835.654	14432.85
835.98	14309.69
836.306	14348.79
836.631	14220.88
836.956	14384.72
837.282	14265.4
837.607	14328.45
837.932	14236.02
838.258	14192.64
838.583	14186.53
838.908	14107.21
839.233	14207.55
839.558	14033.32
839.883	14041.45
840.208	14025.63
840.533	14027.89
840.858	13993.09
841.182	13975.47
841.507	14026.54
841.832	13855.92
842.156	13885.98
842.481	13849.14
842.805	13822.93
843.13	13749.26
843.454	13724.17
843.778	13722.14
844.103	13681.91
844.427	13682.59
844.751	13639.88
845.075	13676.94
845.399	13519.66
845.723	13540
846.047	13499.32
846.371	13480.79
846.695	13382.26
847.019	13210.29
847.343	13194.47
847.666	13164.41
847.99	13078.54
848.313	13131.42
848.637	13008.94
848.96	13054.81
849.284	13059.56
849.607	12887.58
849.931	12755.38
850.254	12831.99
850.577	12749.74
850.9	12619.8
851.223	12658.66
851.546	12550.64
851.869	12405.11
852.192	12597.2
852.515	12384.1
852.838	12393.36
853.161	12437.2
853.483	12388.39
853.806	12259.13
854.129	12256.19
854.451	12135.06
854.774	12207.6
855.096	12082.18
855.419	12075.4
855.741	12065.23
856.063	12014.39
856.385	11976.65
856.708	11894.62
857.03	11884.22
857.352	11850.78
857.674	11846.03
857.996	11758.8
858.318	11675.41
858.64	11696.66
858.961	11700.05
859.283	11643.55
859.605	11577.34
859.926	11625.92
860.248	11540.95
860.57	11495.98
860.891	11514.74
861.212	11422.31
861.534	11364.01
861.855	11334.86
862.176	11356.1
862.498	11379.15
862.819	11338.02
863.14	11322.2
863.461	11339.15
863.782	11263.22
864.103	11281.98
864.424	11229.78
864.745	11208.98
865.065	11118.59
865.386	11083.56
865.707	11121.76
866.027	11115.65
866.348	11019.16
866.668	11047.41
866.989	11096.67
867.309	11018.48
867.63	10990.91
867.95	11007.18
868.27	10950.91
868.59	10990.46
868.91	10892.84
869.23	10852.38
869.55	10944.13
869.87	10960.18
870.19	10876.11
870.51	10865.04
870.83	10894.87
871.15	10767.64
871.469	10787.98
871.789	10764.02
872.109	10725.83
872.428	10705.95
872.748	10738.71
873.067	10664.37
873.386	10741.65
873.706	10690.58
874.025	10660.07
874.344	10600.19
874.663	10657.81
874.982	10634.76
875.301	10639.51
875.62	10578.27
875.939	10553.86
876.258	10551.15
876.577	10505.27
876.896	10489.23
877.214	10469.12
877.533	10477.48
877.852	10433.41
878.17	10423.69
878.489	10451.04
878.807	10381.89
879.125	10383.24
879.444	10403.58
879.762	10410.14
880.08	10307.54
880.398	10392.96
880.716	10332.62
881.034	10300.53
881.352	10307.54
881.67	10204.27
881.988	10222.12
882.306	10266.86
882.624	10161.1
882.941	10039.52
883.259	10142.35
883.577	10037.94
883.894	10115.45
884.212	10026.19
884.529	10028.45
884.846	9986.42
885.164	9998.17
885.481	9945.29
885.798	9862.81
886.115	9835.01
886.432	9884.05
886.75	9837.72
887.067	9790.72
887.383	9810.15
887.7	9746.42
888.017	9708.01
888.334	9834.33
888.651	9695.13
888.967	9619.42
889.284	9675.69
889.6	9576.94
889.917	9578.52
890.233	9525.87
890.55	9541.23
890.866	9500.78
891.182	9430.73
891.498	9469.14
891.815	9382.59
892.131	9412.65
892.447	9380.56
892.763	9337.85
893.079	9322.25
893.395	9259.21
893.71	9284.06
894.026	9294.23
894.342	9173.78
894.657	9172.65
894.973	9184.86
895.289	9164.29
895.604	9082.04
895.92	9088.14
896.235	9007.69
896.55	8986.67
896.865	8975.37
897.181	8940.57
897.496	8957.07
897.811	8942.15
898.126	8850.63
898.441	8823.06
898.756	8802.27
899.071	8803.4
899.386	8783.96
899.7	8672.33
900.015	8596.85
900.33	8661.71
900.644	8575.16
900.959	8598.21
901.273	8595.49
901.588	8533.35
901.902	8436.85
902.216	8443.63
902.531	8415.39
902.845	8402.96
903.159	8312.79
903.473	8292.23
903.787	8245.9
904.101	8205.67
904.415	8272.56
904.729	8184.88
905.042	8187.82
905.356	8168.61
905.67	8162.74
905.984	8183.08
906.297	8036.64
906.611	7995.96
906.924	7988.05
907.237	7930.43
907.551	7947.83
907.864	7971.78
908.177	7872.12
908.491	7881.61
908.804	7856.08
909.117	7745.8
909.43	7772.92
909.743	7660.38
910.056	7664.22
910.368	7690.43
910.681	7637.1
910.994	7626.48
911.307	7547.61
911.619	7447.95
911.932	7542.64
912.244	7423.55
912.557	7430.78
912.869	7411.57
913.181	7393.27
913.494	7382.87
913.806	7305.36
914.118	7241.86
914.43	7220.84
914.742	7253.16
915.054	7221.97
915.366	7223.1
915.678	7222.42
915.99	7144.01
916.302	7085.25
916.613	7049.77
916.925	7057.23
917.236	7050
917.548	6964.58
917.859	6976.33
918.171	6890.23
918.482	6894.97
918.794	6825.82
919.105	6846.61
919.416	6892.49
919.727	6756.45
920.038	6760.06
920.349	6727.07
920.66	6680.52
920.971	6681.42
921.282	6670.8
921.593	6601.2
921.903	6530.46
922.214	6556.68
922.525	6502.44
922.835	6493.63
923.146	6410.24
923.456	6455.44
923.767	6417.92
924.077	6417.92
924.387	6347.19
924.697	6310.81
925.008	6297.02
925.318	6225.84
925.628	6254.76
925.938	6247.76
926.248	6139.29
926.558	6121.21
926.867	6151.49
927.177	6064.04
927.487	6075.79
927.796	6044.6
928.106	6025.39
928.416	6076.92
928.725	6036.47
929.034	5953.98
929.344	5973.87
929.653	5919.63
929.962	5934.77
930.271	5864.72
930.581	5823.82
930.89	5823.14
931.199	5772.74
931.508	5726.87
931.817	5732.97
932.125	5723.48
932.434	5693.88
932.743	5654.55
933.051	5660.66
933.36	5611.39
933.669	5538.85
933.977	5566.65
934.286	5549.02
934.594	5556.7
934.902	5506.99
935.21	5483.49
935.519	5452.53
935.827	5470.6
936.135	5434
936.443	5361.91
936.751	5391.28
937.059	5358.29
937.367	5320.55
937.674	5286.2
937.982	5310.83
938.29	5238.07
938.597	5231.29
938.905	5199.88
939.213	5163.72
939.52	5163.04
939.827	5189.03
940.135	5095.25
940.442	5074.23
940.749	5075.13
941.056	5070.16
941.363	5026.1
941.67	5061.12
941.977	5054.8
942.284	4982.26
942.591	4954.69
942.898	4925.76
943.205	4909.94
943.511	4905.42
943.818	4898.64
944.125	4797.85
944.431	4843.95
944.738	4804.41
945.044	4848.93
945.35	4789.72
945.657	4671.76
945.963	4727.35
946.269	4670.63
946.575	4679.67
946.881	4611.19
947.187	4653.68
947.493	4625.43
947.799	4597.18
948.105	4571.87
948.41	4563.51
948.716	4553.57
949.022	4478.54
949.327	4557.41
949.633	4480.57
949.938	4465.89
950.244	4420.69
950.549	4349.28
950.854	4382.27
951.16	4375.04
951.465	4345.44
951.77	4344.31
952.075	4321.26
952.38	4315.61
952.685	4296.4
952.99	4232.9
953.294	4289.84
953.599	4214.14
953.904	4242.39
954.209	4148.15
954.513	4170.3
954.818	4188.83
955.122	4102.51
955.426	4122.17
955.731	4094.6
956.035	4061.15
956.339	4055.73
956.643	4002.17
956.948	4013.24
957.252	4023.19
957.556	4024.32
957.86	3966.92
958.163	3970.76
958.467	3918.56
958.771	3936.18
959.075	3920.81
959.378	3909.97
959.682	3869.97
959.985	3848.95
960.289	3831.78
960.592	3828.61
960.896	3810.31
961.199	3810.99
961.502	3788.62
961.805	3749.97
962.108	3742.06
962.411	3748.84
962.714	3717.66
963.017	3660.93
963.32	3722.63
963.623	3641.5
963.926	3657.77
964.228	3614.83
964.531	3598.34
964.833	3585.91
965.136	3528.51
965.438	3550.66
965.741	3554.95
966.043	3573.71
966.345	3550.43
966.648	3544.78
966.95	3534.38
967.252	3459.13
967.554	3506.14
967.856	3470.21
968.158	3435.18
968.46	3414.84
968.761	3399.92
969.063	3429.08
969.365	3393.6
969.666	3422.07
969.968	3348.63
970.269	3367.38
970.571	3320.15
970.872	3314.5
971.174	3317.67
971.475	3279.48
971.776	3300.27
972.077	3245.8
972.378	3234.05
972.679	3226.14
972.98	3209.2
973.281	3189.31
973.582	3203.09
973.883	3217.56
974.183	3174.85
974.484	3146.6
974.785	3149.76
975.085	3101.85
975.386	3138.24
975.686	3094.85
975.986	3042.19
976.287	3043.1
976.587	3028.64
976.887	3048.52
977.187	3021.63
977.487	2986.38
977.787	3009.2
978.087	2971.24
978.387	2963.33
978.687	2955.42
978.987	2906.38
979.286	2931.46
979.586	2914.29
979.885	2872.25
980.185	2888.98
980.484	2852.14
980.784	2894.85
981.083	2831.58
981.382	2804.01
981.682	2826.83
981.981	2837.23
982.28	2795.19
982.579	2782.31
982.878	2786.61
983.177	2738.25
983.475	2737.12
983.774	2739.15
984.073	2718.36
984.372	2686.95
984.67	2697.12
984.969	2684.69
985.267	2687.4
985.566	2666.84
985.864	2612.15
986.162	2644.92
986.461	2641.98
986.759	2601.53
987.057	2641.07
987.355	2578.48
987.653	2612.83
987.951	2561.53
988.249	2534.41
988.547	2564.24
988.844	2539.83
989.142	2533.51
989.44	2526.05
989.737	2524.24
990.035	2511.59
990.332	2501.19
990.63	2469.1
990.927	2470.91
991.224	2451.93
991.521	2399.27
991.819	2400.85
992.116	2416.22
992.413	2392.04
992.71	2387.3
993.006	2390.91
993.303	2401.53
993.6	2365.38
993.897	2317.47
994.193	2356.56
994.49	2330.35
994.787	2305.72
995.083	2298.94
995.379	2303.68
995.676	2314.08
995.972	2270.46
996.268	2271.82
996.565	2235.21
996.861	2238.6
997.157	2227.75
997.453	2263.46
997.749	2221.42
998.044	2195.44
998.34	2196.57
998.636	2168.54
998.932	2146.4
999.227	2192.05
999.523	2133.29
999.818	2109.34
1000.114	2126.74
1000.409	2115.89
1000.704	2103.24
1001	2096
1001.295	2064.14
1001.59	2080.19
1001.885	2051.94
1002.18	2041.77
1002.475	2035.21
1002.77	2056.23
1003.065	1999.74
1003.359	2010.13
1003.654	2006.52
1003.949	1959.06
1004.243	1963.8
1004.538	1922.9
1004.832	1933.07
1005.127	1944.82
1005.421	1970.36
1005.715	1917.7
1006.009	1900.53
1006.304	1953.41
1006.598	1864.6
1006.892	1888.1
1007.186	1856.01
1007.48	1868.89
1007.773	1840.64
1008.067	1805.62
1008.361	1812.17
1008.655	1807.2
1008.948	1802.68
1009.242	1789.12
1009.535	1755
1009.829	1758.84
1010.122	1759.52
1010.415	1745.5
1010.708	1742.12
1011.001	1722.91
1011.295	1743.02
1011.588	1695.34
1011.881	1700.31
1012.173	1711.16
1012.466	1689.46
1012.759	1677.94
1013.052	1668.9
1013.344	1665.73
1013.637	1650.37
1013.93	1613.31
1014.222	1630.71
1014.514	1619.18
1014.807	1593.87
1015.099	1586.41
1015.391	1604.27
1015.683	1591.38
1015.976	1539.18
1016.268	1577.83
1016.56	1560.88
1016.851	1533.08
1017.143	1529.47
1017.435	1537.6
1017.727	1506.19
1018.018	1531.95
1018.31	1521.33
1018.602	1456.92
1018.893	1491.95
1019.185	1473.65
1019.476	1469.13
1019.767	1460.99
1020.058	1429.58
1020.35	1451.73
1020.641	1403.59
1020.932	1403.37
1021.223	1399.3
1021.514	1400.2
1021.804	1363.14
1022.095	1364.27
1022.386	1391.84
1022.677	1350.26
1022.967	1355.23
1023.258	1319.08
1023.548	1330.15
1023.839	1293.77
1024.129	1303.71
1024.419	1293.77
1024.709	1300.32
1025	1305.29
1025.29	1307.32
1025.58	1267.55
1025.87	1276.82
1026.16	1285.63
1026.449	1268.46
1026.739	1273.88
1027.029	1268.68
1027.319	1223.03
1027.608	1215.8
1027.898	1221.45
1028.187	1201.34
1028.477	1175.8
1028.766	1190.27
1029.055	1197.04
1029.344	1188.68
1029.634	1181
1029.923	1153.66
1030.212	1132.64
1030.501	1143.94
1030.79	1145.97
1031.078	1116.14
1031.367	1147.33
1031.656	1091.51
1031.945	1102.13
1032.233	1101.91
1032.522	1088.8
1032.81	1104.17
1033.099	1073.21
1033.387	1066.43
1033.675	1065.97
1033.963	1070.49
1034.251	1040.66
1034.54	1032.3
1034.828	1033.43
1035.116	1029.59
1035.403	1037.95
1035.691	1041.57
1035.979	1018.52
1036.267	1036.37
1036.554	990.27
1036.842	988.91
1037.129	1005.19
1037.417	990.04
1037.704	980.1
1037.992	978.75
1038.279	957.28
1038.566	952.53
1038.853	952.53
1039.14	952.53
