Data from hue_32_FLMS001491_00016.txt Node
Date: Tue Feb 07 17:22:58 GMT 2017
User: dcchb
Spectrometer: FLMS00149
Trigger mode: 0
Integration Time (sec): 2.000000E-2
Scans to average: 10
Electric dark correction enabled: true
Nonlinearity correction enabled: false
Boxcar width: 0
XAxis mode: Wavelengths
Number of Pixels in Spectrum: 2048
>>>>>Begin Spectral Data<<<<<
341.393	-16.75
341.776	-16.75
342.16	-16.75
342.543	-69.63
342.927	-72.34
343.31	-68.95
343.693	-76.86
344.077	-34.83
344.46	-60.59
344.843	-44.09
345.226	-43.42
345.61	-51.1
345.993	-28.73
346.376	-0.71
346.759	12.63
347.142	34.32
347.525	29.12
347.908	68.9
348.291	57.82
348.674	73.19
349.057	133.3
349.44	122.45
349.823	135.56
350.206	181.21
350.588	192.96
350.971	213.98
351.354	239.51
351.737	244.94
352.119	254.65
352.502	250.59
352.884	260.3
353.267	302.79
353.65	297.59
354.032	311.6
354.414	321.55
354.797	312.28
355.179	325.16
355.562	319.96
355.944	326.06
356.326	345.27
356.709	328.32
357.091	334.88
357.473	334.88
357.855	349.12
358.238	345.05
358.62	342.34
359.002	361.77
359.384	346.18
359.766	350.02
360.148	352.28
360.53	334.65
360.912	331.26
361.294	331.94
361.676	345.27
362.057	336.46
362.439	329
362.821	327.65
363.203	324.48
363.584	313.86
363.966	330.81
364.348	328.1
364.729	328.55
365.111	314.99
365.493	305.05
365.874	301.66
366.256	314.77
366.637	311.83
367.019	321.32
367.4	322.9
367.781	324.48
368.163	319.29
368.544	306.63
368.925	306.86
369.306	330.81
369.688	319.74
370.069	329
370.45	317.7
370.831	335.33
371.212	313.41
371.593	310.47
371.974	304.14
372.355	338.27
372.736	308.89
373.117	332.62
373.498	317.93
373.879	297.14
374.26	324.93
374.641	323.13
375.021	320.19
375.402	322.22
375.783	319.74
376.163	324.71
376.544	347.53
376.925	338.72
377.305	317.48
377.686	311.38
378.066	332.39
378.447	339.17
378.827	340.53
379.208	333.52
379.588	316.35
379.968	331.49
380.349	322.9
380.729	349.57
381.109	338.95
381.489	336.91
381.87	338.72
382.25	356.8
382.63	342.79
383.01	353.86
383.39	346.4
383.77	355.44
384.15	338.49
384.53	341.88
384.91	355.44
385.29	353.63
385.67	331.49
386.049	345.95
386.429	338.72
386.809	353.63
387.189	346.18
387.568	336.23
387.948	353.41
388.328	378.04
388.707	368.78
389.087	362
389.466	376.01
389.846	380.75
390.225	361.32
390.605	376.46
390.984	373.07
391.363	344.37
391.743	367.19
392.122	354.54
392.501	381.2
392.881	367.19
393.26	384.37
393.639	385.05
394.018	367.65
394.397	381.66
394.776	375.78
395.155	395.67
395.534	386.4
395.913	366.06
396.292	390.47
396.671	362
397.05	379.4
397.429	380.3
397.808	385.5
398.186	396.8
398.565	396.8
398.944	399.28
399.323	396.12
399.701	413.07
400.08	405.84
400.458	392.96
400.837	395.44
401.215	391.15
401.594	393.41
401.972	390.47
402.351	416.01
402.729	407.42
403.107	421.66
403.486	414.65
403.864	437.02
404.242	412.16
404.62	411.26
404.999	418.27
405.377	420.75
405.755	435.21
406.133	445.38
406.511	425.72
406.889	437.93
407.267	425.27
407.645	431.6
408.023	437.25
408.401	437.02
408.779	416.46
409.156	424.14
409.534	434.76
409.912	447.64
410.29	472.05
410.667	462.56
411.045	455.33
411.422	461.2
411.8	471.15
412.178	463.69
412.555	479.73
412.933	489.9
413.31	457.36
413.687	479.73
414.065	472.95
414.442	484.7
414.819	470.24
415.197	507.3
415.574	503.46
415.951	501.43
416.328	480.86
416.705	497.81
417.082	499.85
417.46	518.6
417.837	500.52
418.214	504.14
418.591	512.73
418.967	533.74
419.344	539.39
419.721	533.07
420.098	506.85
420.475	503.01
420.852	533.97
421.228	532.39
421.605	528.55
421.982	533.52
422.358	539.62
422.735	536
423.111	535.78
423.488	538.94
423.864	545.95
424.241	553.86
424.617	559.51
424.994	555.89
425.37	583.46
425.746	560.86
426.123	569.67
426.499	571.71
426.875	575.1
427.251	594.76
427.627	575.1
428.003	601.76
428.379	613.29
428.756	604.25
429.132	616.23
429.507	595.21
429.883	606.06
430.259	594.53
430.635	628.43
431.011	634.98
431.387	610.8
431.763	640.41
432.138	646.51
432.514	649.22
432.89	650.35
433.265	667.3
433.641	676.56
434.016	683.57
434.392	691.93
434.767	679.05
435.143	676.11
435.518	686.51
435.894	697.35
436.269	704.36
436.644	715.21
437.02	686.06
437.395	731.03
437.77	729.67
438.145	731.03
438.52	747.3
438.895	755.21
439.271	747.3
439.646	775.32
440.021	757.47
440.395	787.75
440.77	759.05
441.145	748.65
441.52	777.13
441.895	775.54
442.27	799.05
442.645	780.97
443.019	799.95
443.394	801.31
443.769	791.59
444.143	813.06
444.518	808.99
444.892	800.4
445.267	821.42
445.641	820.97
446.016	840.4
446.39	830.23
446.764	829.1
447.139	804.92
447.513	830.01
447.887	848.09
448.262	857.58
448.636	864.13
449.01	850.34
449.384	864.13
449.758	873.62
450.132	864.58
450.506	883.56
450.88	872.72
451.254	892.83
451.628	912.26
452.002	898.03
452.376	908.65
452.75	916.33
453.123	914.75
453.497	945.48
453.871	930.12
454.244	958.14
454.618	971.25
454.992	957.01
455.365	953.17
455.739	993.84
456.112	1034.75
456.486	1027.29
456.859	1023.67
457.232	1027.06
457.606	1037.23
457.979	1037.46
458.352	1062.54
458.725	1054.18
459.099	1081.75
459.472	1067.06
459.845	1094.63
460.218	1105.71
460.591	1115.2
460.964	1114.29
461.337	1150.45
461.71	1153.84
462.083	1177.34
462.456	1181.64
462.829	1176.21
463.201	1211.24
463.574	1204.69
463.947	1220.96
464.32	1259.37
464.692	1254.85
465.065	1257.57
465.438	1276.1
465.81	1313.16
466.183	1301.18
466.555	1335.53
466.928	1343.21
467.3	1333.04
467.672	1387.73
468.045	1406.94
468.417	1428.86
468.789	1425.02
469.161	1438.13
469.534	1502.08
469.906	1503.21
470.278	1524
470.65	1541.4
471.022	1571.46
471.394	1590.66
471.766	1601.96
472.138	1593.83
472.51	1665.92
472.882	1698.68
473.253	1725.35
473.625	1794.95
473.997	1789.98
474.369	1814.61
474.74	1820.94
475.112	1893.71
475.484	1909.07
475.855	1961.5
476.227	1952.24
476.598	2027.26
476.97	2060.03
477.341	2111.33
477.713	2157.88
478.084	2164.66
478.455	2244.21
478.827	2291.21
479.198	2364.43
479.569	2403.98
479.94	2450.3
480.311	2499.79
480.682	2566.23
481.053	2601.71
481.424	2688.04
481.795	2768.26
482.166	2778.88
482.537	2877.18
482.908	2944.98
483.279	2951.76
483.65	3045.54
484.021	3136.84
484.391	3232.43
484.762	3294.35
485.133	3328.47
485.503	3410.28
485.874	3503.38
486.244	3537.51
486.615	3612.31
486.985	3738.86
487.356	3825.18
487.726	3843.94
488.097	3993.77
488.467	4022.46
488.837	4124.84
489.207	4202.57
489.578	4319.41
489.948	4353.53
490.318	4483.24
490.688	4506.97
491.058	4618.38
491.428	4681.43
491.798	4760.52
492.168	4860.86
492.538	4942.44
492.908	5010.01
493.278	5139.5
493.648	5157.8
494.017	5291.13
494.387	5382.43
494.757	5383.56
495.126	5518.7
495.496	5506.27
495.866	5632.37
496.235	5652.03
496.605	5775.19
496.974	5861.06
497.344	5917.78
497.713	5952.13
498.082	6003.2
498.452	6144.67
498.821	6179.92
499.19	6298.79
499.559	6325.68
499.928	6356.19
500.298	6463.08
500.667	6509.63
501.036	6537.43
501.405	6656.97
501.774	6670.08
502.143	6775.61
502.512	6792.56
502.88	6885.67
503.249	6864.88
503.618	7026.45
503.987	7002.27
504.356	7081.14
504.724	7156.17
505.093	7162.5
505.462	7241.14
505.83	7303.73
506.199	7330.4
506.567	7431.41
506.936	7481.58
507.304	7572.43
507.672	7638.19
508.041	7594.12
508.409	7682.48
508.777	7824.62
509.145	7778.98
509.514	7902.36
509.882	7931.29
510.25	7984.62
510.618	8038.4
510.986	8016.26
511.354	8112.75
511.722	8222.13
512.09	8252.64
512.458	8307.55
512.826	8373.31
513.193	8427.77
513.561	8422.58
513.929	8432.74
514.297	8560.65
514.664	8630.93
515.032	8617.6
515.4	8662.79
515.767	8700.76
516.135	8764.26
516.502	8718.84
516.869	8874.31
517.237	8898.04
517.604	8916.8
517.972	8998.83
518.339	9051.26
518.706	9028.66
519.073	9044.93
519.44	9100.3
519.808	9267.07
520.175	9246.96
520.542	9307.98
520.909	9458.25
521.276	9366.96
521.643	9451.47
522.009	9487.18
522.376	9627.06
522.743	9573.28
523.11	9704.8
523.477	9783.9
523.843	9940.05
524.21	9839.71
524.577	9951.12
524.943	10064.57
525.31	10032.93
525.676	10117.45
526.043	10217.1
526.409	10216.88
526.776	10323.77
527.142	10398.57
527.508	10408.74
527.874	10472.01
528.241	10531.45
528.607	10585
528.973	10652.57
529.339	10675.4
529.705	10801.95
530.071	10828.84
530.437	10858.44
530.803	10990.42
531.169	10951.55
531.535	11008.27
531.901	11040.13
532.267	11113.35
532.632	11156.06
532.998	11259.34
533.364	11308.15
533.73	11270.86
534.095	11435.6
534.461	11431.76
534.826	11516.05
535.192	11591.53
535.557	11611.42
535.923	11663.62
536.288	11685.31
536.653	11729.15
537.019	11771.87
537.384	11817.51
537.749	11821.81
538.114	11891.41
538.479	11902.26
538.845	11900.45
539.21	11949.04
539.575	12042.59
539.94	12070.84
540.305	12183.38
540.67	12168.92
541.034	12257.5
541.399	12285.52
541.764	12370.49
542.129	12425.18
542.494	12390.61
542.858	12518.51
543.223	12496.14
543.587	12605.74
543.952	12566.87
544.316	12695.68
544.681	12669.92
545.045	12744.95
545.41	12900.42
545.774	12850.03
546.138	12808.67
546.503	12969.57
546.867	13051.61
547.231	13071.72
547.595	13108.33
547.959	13151.49
548.324	13209.12
548.688	13225.39
549.052	13297.93
549.416	13289.79
549.779	13297.93
550.143	13347.64
550.507	13489.33
550.871	13561.2
551.235	13432.61
551.599	13598.94
551.962	13721.42
552.326	13680.52
552.689	13854.3
553.053	13728.65
553.417	13751.25
553.78	13946.27
554.143	13823.56
554.507	13938.81
554.87	13957.8
555.234	14120.5
555.597	14085.7
555.96	14123.67
556.323	14134.52
556.686	14268.75
557.05	14219.94
557.413	14302.87
557.776	14291.57
558.139	14401.63
558.502	14455.18
558.865	14485.47
559.228	14511
559.59	14574.5
559.953	14613.82
560.316	14692.92
560.679	14749.64
561.041	14837.77
561.404	14886.36
561.767	14965
562.129	15012.68
562.492	15104.43
562.854	15099.69
563.217	15049.75
563.579	15160.48
563.941	15287.93
564.304	15341.72
564.666	15332.22
565.028	15429.4
565.39	15458.1
565.753	15486.57
566.115	15592.1
566.477	15626.45
566.839	15640.01
567.201	15739.9
567.563	15787.35
567.925	15939.21
568.287	15997.29
568.648	15905.09
569.01	16075.03
569.372	16138.98
569.734	16051.08
570.095	16314.8
570.457	16343.04
570.819	16357.28
571.18	16417.85
571.542	16523.15
571.903	16523.83
572.265	16656.48
572.626	16614
572.987	16726.09
573.349	16912.52
573.71	16901.67
574.071	17092.18
574.432	17101.89
574.794	17194.1
575.155	17294.66
575.516	17226.86
575.877	17425.73
576.238	17475.22
576.599	17649.68
576.96	17777.13
577.32	17774.42
577.681	18033.17
578.042	18119.72
578.403	18209.21
578.763	18300.51
579.124	18432.26
579.485	18641.29
579.845	18785.47
580.206	18908.18
580.566	19063.65
580.927	19198.11
581.287	19391.55
581.648	19434.94
582.008	19786.8
582.368	19853.24
582.728	20038.09
583.089	20280.79
583.449	20236.28
583.809	20613.22
584.169	20804.85
584.529	20945.86
584.889	21320.54
585.249	21427.43
585.609	21694.77
585.969	21917.81
586.329	22076
586.688	22318.93
587.048	22503.79
587.408	22754.4
587.768	23044.56
588.127	23198.68
588.487	23409.98
588.846	23845.9
589.206	23925.67
589.565	24301.25
589.925	24538.54
590.284	24719.32
590.643	24936.27
591.003	25269.14
591.362	25667.09
591.721	25886.3
592.08	26196.35
592.44	26473.17
592.799	26749.78
593.158	26926.72
593.517	27271.8
593.876	27603.77
594.235	27757.66
594.593	28114.26
594.952	28372.11
595.311	28501.6
595.67	28947.46
596.029	29228.58
596.387	29424.73
596.746	29789.24
597.104	29949.47
597.463	30100.2
597.822	30459.74
598.18	30720.29
598.538	30887.97
598.897	31330.67
599.255	31355.31
599.613	31995.74
599.972	32130.2
600.33	32484.99
600.688	32438.44
601.046	32901.48
601.404	33056.96
601.762	33418.75
602.12	33679.99
602.478	33968.12
602.836	33971.28
603.194	34058.96
603.552	34438.39
603.91	34526.3
604.268	34896.68
604.625	35013.74
604.983	35250.8
605.341	35299.38
605.698	35699.37
606.056	35846.71
606.413	36083.32
606.771	36439.01
607.128	36584.09
607.485	36676.75
607.843	36890.98
608.2	37155.6
608.557	37564.63
608.914	37541.58
609.272	37831.29
609.629	38109.93
609.986	38158.06
610.343	38198.52
610.7	38628.11
611.057	38699.07
611.414	38818.84
611.771	38965.95
612.127	39249.11
612.484	39323.46
612.841	39576.56
613.198	39560.29
613.554	39787.63
613.911	40130.44
614.267	40163.89
614.624	40251.12
614.98	40357.78
615.337	40633.71
615.693	40517.1
616.05	40692.69
616.406	41135.61
616.762	41060.59
617.118	41123.64
617.475	41246.8
617.831	41441.37
618.187	41562.27
618.543	41802.71
618.899	41899.21
619.255	42024.18
619.611	41922.94
619.967	42254.91
620.323	42396.6
620.678	42264.4
621.034	42318.41
621.39	42481.79
621.746	42378.07
622.101	42934.89
622.457	42689.47
622.812	42793.65
623.168	43120.65
623.523	43012.63
623.879	43224.37
624.234	42943.48
624.589	43273.86
624.945	43458.72
625.3	43337.82
625.655	43382.79
626.01	43518.83
626.365	43508.66
626.72	43544.36
627.075	43605.83
627.43	43644.25
627.785	43452.16
628.14	43761.31
628.495	43756.56
628.85	43712.27
629.205	43682.89
629.559	43918.82
629.914	43794.75
630.269	44020.96
630.623	43890.8
630.978	43823.23
631.332	44025.71
631.687	44070
632.041	44041.98
632.396	43969.21
632.75	44019.15
633.104	44047.18
633.459	43728.77
633.813	43934.86
634.167	43905.94
634.521	43880.85
634.875	43970.34
635.229	43758.14
635.583	43735.09
635.937	43899.61
636.291	43794.07
636.645	43837.92
636.999	43728.09
637.352	43945.26
637.706	43739.39
638.06	43959.72
638.413	43826.84
638.767	43844.02
639.121	43872.72
639.474	43712.72
639.828	43769.89
640.181	43839.5
640.534	43761.08
640.888	43620.97
641.241	43489.68
641.594	43655.32
641.947	43845.15
642.301	43550.01
642.654	43498.94
643.007	43806.96
643.36	43615.1
643.713	43726.28
644.066	43844.69
644.419	43433.41
644.771	43146.86
645.124	42913.19
645.477	42809.02
645.83	42566.08
646.182	42378.29
646.535	42365.86
646.888	42560.66
647.24	42241.57
647.593	42569.02
647.945	42279.99
648.298	42329.03
648.65	42215.36
649.002	42027.12
649.355	42256.71
649.707	42286.09
650.059	42567.89
650.411	42891.27
650.763	42896.92
651.115	43416.46
651.467	43161.1
651.819	43171.72
652.171	43049.01
652.523	42993.87
652.875	42976.69
653.227	42835.46
653.578	43087.88
653.93	43042.91
654.282	42843.59
654.633	42752.52
654.985	43018.05
655.337	43097.14
655.688	43013.3
656.039	42971.95
656.391	42649.25
656.742	42661.9
657.094	42917.04
657.445	43006.75
657.796	42823.7
658.147	42658.51
658.498	42646.08
658.849	42826.87
659.2	42849.24
659.551	42559.53
659.902	42841.56
660.253	42693.76
660.604	42851.27
660.955	42529.02
661.306	42814.89
661.656	42742.8
662.007	42712.75
662.358	42719.07
662.708	42748
663.059	42594.33
663.409	42542.81
663.76	42648.57
664.11	42622.81
664.461	42651.05
664.811	42776.25
665.161	42632.3
665.511	42580.77
665.862	42666.19
666.212	42630.04
666.562	42563.6
666.912	42581.68
667.262	42465.3
667.612	42475.24
667.962	42598.4
668.312	42482.92
668.662	42624.39
669.011	42641.34
669.361	42455.13
669.711	42397.95
670.06	42307.33
670.41	42379.87
670.76	42313.21
671.109	42529.7
671.459	42365.64
671.808	42271.18
672.157	42431.4
672.507	42292.19
672.856	42123.38
673.205	42165.19
673.554	42393.43
673.904	42331.29
674.253	42420.78
674.602	42290.61
674.951	41706.45
675.3	41599.78
675.649	42339.88
675.998	42300.1
676.346	42171.74
676.695	42346.65
677.044	42050.84
677.393	42167.22
677.741	42244.51
678.09	42092.88
678.438	42003.39
678.787	42024.4
679.135	42119.99
679.484	41740.57
679.832	41816.27
680.181	41669.84
680.529	41772.21
680.877	41660.57
681.225	41635.71
681.573	41928.13
681.922	41697.86
682.27	41367.02
682.618	41488.6
682.966	41356.17
683.314	41356.4
683.661	41335.38
684.009	41215.16
684.357	41143.52
684.705	41141.04
685.053	40997.54
685.4	41035.5
685.748	40763.42
686.095	40833.7
686.443	40751.22
686.79	40675.74
687.138	40798
687.485	40755.96
687.832	40553.26
688.18	40716.87
688.527	40468.51
688.874	40398.01
689.221	40237.78
689.568	40228.97
689.915	40157.11
690.262	40067.17
690.609	40046.15
690.956	39872.82
691.303	39918.7
691.65	39652.94
691.997	39807.96
692.344	39464.02
692.69	39398.26
693.037	39484.36
693.383	39107.64
693.73	39241.88
694.077	39092.5
694.423	39039.17
694.769	38869.23
695.116	38883.47
695.462	38843.92
695.808	38691.84
696.155	38753.53
696.501	38341.11
696.847	38456.59
697.193	38194.45
697.539	38395.12
697.885	38154
698.231	38012.53
698.577	38064.28
698.923	37806.44
699.269	37826.1
699.614	37611.19
699.96	37593.33
700.306	37507.69
700.651	37264.75
700.997	37372.1
701.342	37310.86
701.688	37215.04
702.033	37175.49
702.379	37039
702.724	36922.39
703.069	37004.42
703.415	36634.94
703.76	36666.13
704.105	36609.63
704.45	36523.76
704.795	36320.15
705.14	36230.88
705.485	36296.42
705.83	35939.82
706.175	36131.23
706.52	35974.85
706.865	35919.03
707.209	35864.34
707.554	35657.34
707.899	35819.59
708.243	35515.42
708.588	35558.36
708.932	35205.37
709.277	35299.16
709.621	35392.71
709.966	35028.2
710.31	35218.93
710.654	34800.41
710.998	34993.63
711.342	34878.38
711.687	34879.96
712.031	34730.58
712.375	34616.91
712.719	34671.38
713.063	34708.44
713.407	34697.82
713.75	34500.76
714.094	34496.24
714.438	34169.69
714.782	34344.83
715.125	34161.33
715.469	34248.79
715.812	34048.57
716.156	33791.85
716.499	33888.12
716.843	33904.62
717.186	33599.54
717.53	33868.23
717.873	33809.25
718.216	33725.64
718.559	33601.35
718.902	33297.63
719.246	33473.22
719.589	33222.83
719.932	33220.79
720.275	33276.38
720.617	33300.57
720.96	33169.04
721.303	33280.45
721.646	33130.4
721.989	32964.98
722.331	32979.67
722.674	32934.47
723.016	33007.24
723.359	32859.22
723.701	32780.58
724.044	32654.25
724.386	32423.98
724.729	32624.65
725.071	32604.09
725.413	32492.9
725.755	32550.75
726.097	32351.66
726.439	32228.5
726.782	32247.71
727.124	32264.89
727.465	32161.16
727.807	32157.32
728.149	32083.87
728.491	31882.52
728.833	32068.96
729.175	31880.72
729.516	31803.43
729.858	31808.85
730.199	31900.6
730.541	31784.45
730.882	31732.92
731.224	31796.65
731.565	31582.64
731.906	31598.46
732.248	31663.55
732.589	31533.83
732.93	31489.77
733.271	31410.22
733.612	31401.63
733.953	31351.69
734.294	31340.16
734.635	31121.64
734.976	31387.85
735.317	31165.93
735.658	31127.29
735.999	31059.49
736.339	30984.02
736.68	30989.89
737.021	30834.64
737.361	30799.61
737.702	30894.75
738.042	30941.31
738.383	30800.74
738.723	30835.55
739.063	30654.08
739.404	30757.13
739.744	30608.43
740.084	30446.85
740.424	30567.3
740.764	30539.73
741.104	30573.63
741.444	30355.33
741.784	30199.63
742.124	30397.82
742.464	30173.87
742.804	30222
743.143	30283.02
743.483	30235.11
743.823	30070.59
744.162	29993.53
744.502	30023.59
744.841	29991.27
745.181	29938.62
745.52	29844.38
745.86	29946.3
746.199	29977.71
746.538	29748.79
746.877	29857.27
747.216	29797.15
747.556	29686.87
747.895	29734.11
748.234	29654.56
748.573	29586.09
748.911	29546.99
749.25	29512.87
749.589	29346.77
749.928	29399.88
750.267	29457.28
750.605	29284.4
750.944	29222.25
751.283	29256.38
751.621	29257.51
751.96	29083.73
752.298	29097.51
752.636	29080.34
752.975	29017.51
753.313	28902.26
753.651	28909.04
753.989	28815.49
754.327	28789.5
754.666	28598.09
755.004	28654.36
755.342	28622.95
755.679	28667.24
756.017	28353.35
756.355	28531.88
756.693	28378.89
757.031	28455.72
757.368	28175.05
757.706	28025.68
758.044	28140.93
758.381	28137.31
758.719	27978.45
759.056	28009.18
759.394	27748.39
759.731	27790.43
760.068	27614.39
760.405	27560.83
760.743	27477.89
761.08	27616.19
761.417	27432.24
761.754	27307.73
762.091	27349.54
762.428	27178.47
762.765	26978.25
763.102	27117.22
763.438	27030.9
763.775	26866.61
764.112	26835.65
764.449	26888.3
764.785	26814.18
765.122	26577.8
765.458	26435.43
765.795	26494.64
766.131	26436.34
766.467	26287.19
766.804	26257.81
767.14	26051.94
767.476	26142.56
767.812	25980.08
768.148	26016.01
768.485	25890.59
768.821	25663.03
769.157	25624.16
769.492	25565.63
769.828	25485.4
770.164	25247.9
770.5	25258.74
770.836	25258.52
771.171	25113.66
771.507	25020.56
771.842	24872.09
772.178	24826.21
772.513	24838.19
772.849	24687.91
773.184	24602.49
773.519	24663.5
773.855	24430.74
774.19	24325.89
774.525	24264.19
774.86	24245.44
775.195	24180.13
775.53	24050.86
775.865	23955.95
776.2	23866.46
776.535	23689.07
776.87	23761.38
777.205	23659.69
777.539	23471.44
777.874	23634.83
778.209	23252.92
778.543	23301.73
778.878	23164.79
779.212	23194.62
779.547	23023.77
779.881	23099.48
780.215	22802.99
780.55	22934.74
780.884	22691.35
781.218	22608.42
781.552	22699.26
781.886	22460.85
782.22	22348.54
782.554	22338.37
782.888	22172.27
783.222	22021.99
783.556	21962.11
783.889	21940.19
784.223	21875.1
784.557	21753.52
784.89	21847.08
785.224	21690.93
785.557	21557.15
785.891	21432.18
786.224	21410.26
786.558	21461.33
786.891	21190.6
787.224	21099.53
787.557	21078.29
787.891	21145.86
788.224	20914.45
788.557	20989.7
788.89	20862.02
789.223	20875.58
789.556	20601.69
789.888	20622.71
790.221	20484.4
790.554	20305.43
790.887	20397.63
791.219	20333.45
791.552	20261.36
791.884	20130.97
792.217	20084.64
792.549	20012.1
792.882	19919
793.214	19800.81
793.546	19959.9
793.879	19752.45
794.211	19541.15
794.543	19730.53
794.875	19591.32
795.207	19605.11
795.539	19472
795.871	19471.78
796.203	19226.81
796.535	19128.28
796.867	19212.57
797.198	19167.38
797.53	19094.16
797.862	18991.11
798.193	19048.28
798.525	18956.54
798.856	18754.28
799.188	18745.47
799.519	18567.62
799.85	18538.69
800.182	18711.12
800.513	18567.85
800.844	18380.96
801.175	18455.53
801.506	18490.33
801.837	18296.89
802.168	18275.2
802.499	18214.18
802.83	18104.13
803.161	18084.47
803.491	18088.31
803.822	18088.54
804.153	18019.38
804.483	17750.47
804.814	17721.54
805.145	17799.5
805.475	17758.6
805.805	17722.9
806.136	17586.63
806.466	17588.44
806.796	17544.37
807.126	17498.95
807.457	17442
807.787	17354.09
808.117	17310.03
808.447	17228.9
808.777	17323.81
809.107	17173.98
809.436	17063.7
809.766	17177.15
810.096	17006.98
810.426	17029.81
810.755	16987.1
811.085	16976.25
811.414	16927.21
811.744	16787.33
812.073	16801.56
812.403	16761.56
812.732	16677.27
813.061	16746.88
813.39	16583.26
813.719	16524.28
814.049	16594.56
814.378	16455.81
814.707	16443.16
815.036	16424.17
815.365	16341.01
815.693	16191.64
816.022	16230.73
816.351	16136.72
816.68	16055.14
817.008	16141.92
817.337	15981.47
817.665	15971.3
817.994	16016.27
818.322	15943.73
818.651	15828.48
818.979	15764.3
819.307	15887.92
819.636	15769.95
819.964	15699.9
820.292	15783.74
820.62	15794.36
820.948	15744.19
821.276	15724.08
821.604	15694.25
821.932	15767.24
822.259	15658.54
822.587	15617.41
822.915	15633.91
823.243	15717.3
823.57	15576.74
823.898	15595.72
824.225	15563.4
824.553	15556.62
824.88	15622.61
825.207	15612.89
825.535	15539.45
825.862	15661.25
826.189	15581.48
826.516	15611.31
826.843	15721.59
827.17	15653.35
827.497	15576.06
827.824	15648.15
828.151	15629.62
828.478	15641.82
828.805	15648.37
829.131	15525.67
829.458	15571.31
829.785	15406.8
830.111	15544.2
830.438	15642.27
830.764	15579
831.09	15586.45
831.417	15382.17
831.743	15561.6
832.069	15512.78
832.395	15405.67
832.722	15527.47
833.048	15567.47
833.374	15502.39
833.7	15334.03
834.026	15428.72
834.351	15376.52
834.677	15360.25
835.003	15439.11
835.329	15355.95
835.654	15347.36
835.98	15256.52
836.306	15329.51
836.631	15339.46
836.956	15325.22
837.282	15221.94
837.607	15188.05
837.932	15246.8
838.258	15115.51
838.583	15092.46
838.908	15025.57
839.233	15070.08
839.558	14983.76
839.883	14953.25
840.208	14971.56
840.533	14892.01
840.858	14961.61
841.182	14988.73
841.507	14806.81
841.832	14811.11
842.156	14766.82
842.481	14802.29
842.805	14708.29
843.13	14693.6
843.454	14700.6
843.778	14623.77
844.103	14563.88
844.427	14423.32
844.751	14544.45
845.075	14517.1
845.399	14417.22
845.723	14441.63
846.047	14390.1
846.371	14230.56
846.695	14249.54
847.019	14122.76
847.343	14138.58
847.666	14031.02
847.99	14024.01
848.313	14020.62
848.637	13882.54
848.96	13933.84
849.284	13785.15
849.607	13741.76
849.931	13640.29
850.254	13630.57
850.577	13595.32
850.9	13477.81
851.223	13501.76
851.546	13400.3
851.869	13315.78
852.192	13397.59
852.515	13293.18
852.838	13151.26
853.161	13178.61
853.483	13143.81
853.806	13072.4
854.129	13080.31
854.451	13018.84
854.774	12946.07
855.096	12837.6
855.419	12883.02
855.741	12883.25
856.063	12815.45
856.385	12766.87
856.708	12756.7
857.03	12640.54
857.352	12578.85
857.674	12520.55
857.996	12515.8
858.318	12446.42
858.64	12476.48
858.961	12401.91
859.283	12358.06
859.605	12273.32
859.926	12322.59
860.248	12329.14
860.57	12257.73
860.891	12224.28
861.212	12205.75
861.534	12088.69
861.855	12081.91
862.176	12123.27
862.498	12096.83
862.819	12087.11
863.14	12009.83
863.461	11981.35
863.782	11994.46
864.103	12042.82
864.424	11955.59
864.745	11925.99
865.065	11865.65
865.386	11790.62
865.707	11801.7
866.027	11885.08
866.348	11789.49
866.668	11754.69
866.989	11814.35
867.309	11757.63
867.63	11641.25
867.95	11667.01
868.27	11707.91
868.59	11580.46
868.91	11605.32
869.23	11612.77
869.55	11573.68
869.87	11582.49
870.19	11584.53
870.51	11569.39
870.83	11531.65
871.15	11562.83
871.469	11524.87
871.789	11508.37
872.109	11481.48
872.428	11399.22
872.748	11421.82
873.067	11416.85
873.386	11315.83
873.706	11424.53
874.025	11382.27
874.344	11226.8
874.663	11344.08
874.982	11288.49
875.301	11228.83
875.62	11236.74
875.939	11213.24
876.258	11268.83
876.577	11156.97
876.896	11159.45
877.214	11169.4
877.533	11150.86
877.852	11121.94
878.17	11178.66
878.489	11064.09
878.807	11067.25
879.125	11032.22
879.444	11032.22
879.762	10992.23
880.08	11004.2
880.398	10959.68
880.716	10988.84
881.034	10867.93
881.352	10859.57
881.67	10885.79
881.988	10910.87
882.306	10862.96
882.624	10851.21
882.941	10803.76
883.259	10745
883.577	10735.96
883.894	10630.88
884.212	10637.21
884.529	10666.36
884.846	10644.89
885.164	10562.41
885.481	10545.91
885.798	10639.47
886.115	10467.72
886.432	10564.21
886.75	10429.75
887.067	10459.13
887.383	10406.03
887.7	10373.94
888.017	10352.24
888.334	10371.22
888.651	10331.68
888.967	10283.32
889.284	10270.44
889.6	10244.67
889.917	10211.45
890.233	10206.48
890.55	10084
890.866	10188.18
891.182	10095.98
891.498	10015.3
891.815	10052.36
892.131	9984.79
892.447	9990.22
892.763	9939.82
893.079	9917.9
893.395	9866.38
893.71	9868.41
894.026	9806.49
894.342	9795.65
894.657	9757.46
894.973	9682.88
895.289	9719.72
895.604	9686.04
895.92	9647.18
896.235	9577.35
896.55	9601.08
896.865	9555.65
897.181	9553.17
897.496	9510.23
897.811	9480.4
898.126	9385.94
898.441	9374.87
898.756	9337.58
899.071	9290.8
899.386	9281.99
899.7	9268.2
900.015	9243.8
900.33	9157.02
900.644	9133.52
900.959	9162.22
901.273	9118.38
901.588	9109.34
901.902	9022.11
902.216	8978.04
902.531	9026.85
902.845	8969.91
903.159	8876.35
903.473	8829.8
903.787	8807.42
904.101	8707.99
904.415	8796.35
904.729	8735.56
905.042	8724.49
905.356	8632.06
905.67	8603.36
905.984	8584.15
906.297	8586.41
906.611	8501.9
906.924	8510.71
907.237	8495.12
907.551	8502.57
907.864	8411.5
908.177	8502.35
908.491	8454.89
908.804	8340.32
909.117	8196.37
909.43	8265.97
909.743	8223.94
910.056	8175.35
910.368	8164.05
910.681	8171.06
910.994	8096.48
911.307	8084.96
911.619	7979.2
911.932	8021
912.244	7973.1
912.557	7935.58
912.869	7895.36
913.181	7918.18
913.494	7857.84
913.806	7737.62
914.118	7766.32
914.43	7695.14
914.742	7687
915.054	7665.98
915.366	7635.03
915.678	7540.56
915.99	7558.87
916.302	7508.7
916.613	7495.82
916.925	7477.29
917.236	7465.99
917.548	7389.38
917.859	7356.61
918.171	7408.82
918.482	7305.99
918.794	7297.18
919.105	7248.14
919.416	7235.94
919.727	7157.52
920.038	7195.26
920.349	7124.53
920.66	7103.29
920.971	7093.34
921.282	7141.25
921.593	7014.25
921.903	6994.82
922.214	6969.96
922.525	6928.83
922.835	6885.44
923.146	6842.73
923.456	6856.51
923.767	6817.87
924.077	6826.91
924.387	6736.07
924.697	6711.43
925.008	6686.35
925.318	6641.61
925.628	6651.1
925.938	6601.83
926.248	6583.98
926.558	6511.21
926.867	6546.47
927.177	6492.46
927.487	6419.92
927.796	6369.52
928.106	6322.74
928.416	6381.5
928.725	6383.31
929.034	6327.71
929.344	6305.57
929.653	6242.75
929.962	6203.2
930.271	6213.37
930.581	6123.2
930.89	6164.56
931.199	6103.31
931.508	6059.93
931.817	6109.87
932.125	6089.98
932.434	6047.27
932.743	5965.69
933.051	5954.17
933.36	5957.33
933.669	5911.68
933.977	5919.36
934.286	5886.6
934.594	5869.65
934.902	5808.63
935.21	5763.21
935.519	5763.44
935.827	5732.02
936.135	5760.5
936.443	5630.33
936.751	5688.41
937.059	5675.98
937.367	5583.1
937.674	5613.38
937.982	5578.13
938.29	5600.95
938.597	5532.71
938.905	5419.94
939.213	5455.42
939.52	5437.34
939.827	5485.93
940.135	5390.79
940.442	5367.51
940.749	5371.81
941.056	5343.56
941.363	5301.3
941.67	5296.33
941.977	5280.06
942.284	5177.46
942.591	5254.97
942.898	5173.85
943.205	5176.33
943.511	5160.51
943.818	5146.73
944.125	5134.75
944.431	5142.21
944.738	5117.58
945.044	5034.42
945.35	5040.29
945.657	4974.98
945.963	5012.95
946.269	4951.03
946.575	4900.86
946.881	4906.28
947.187	4914.64
947.493	4860.41
947.799	4857.25
948.105	4840.97
948.41	4782.9
948.716	4820.64
949.022	4763.91
949.327	4782.22
949.633	4741.32
949.938	4701.32
950.244	4720.53
950.549	4635.56
950.854	4630.13
951.16	4608.21
951.465	4631.71
951.77	4577.7
952.075	4586.97
952.38	4574.31
952.685	4571.6
952.99	4534.99
953.294	4506.29
953.599	4476.92
953.904	4447.31
954.209	4414.77
954.513	4403.92
954.818	4401.89
955.122	4363.25
955.426	4384.72
955.731	4361.89
956.035	4304.04
956.339	4347.43
956.643	4282.8
956.948	4245.28
957.252	4220.2
957.556	4238.5
957.86	4219.97
958.163	4223.59
958.467	4192.63
958.771	4204.38
959.075	4115.8
959.378	4105.63
959.682	4096.81
959.985	4071.28
960.289	4083.93
960.592	4042.13
960.896	4046.42
961.199	4005.29
961.502	3985.86
961.805	3987.89
962.108	3931.17
962.411	3946.53
962.714	3920.09
963.017	3893.65
963.32	3939.53
963.623	3857.27
963.926	3923.48
964.228	3845.52
964.531	3798.97
964.833	3786.09
965.136	3776.14
965.438	3788.8
965.741	3722.81
966.043	3759.87
966.345	3718.52
966.648	3690.72
966.95	3708.12
967.252	3667.9
967.554	3696.37
967.856	3653.89
968.158	3625.19
968.46	3617.05
968.761	3619.99
969.063	3614.11
969.365	3593.78
969.666	3546.77
969.968	3504.06
970.269	3485.3
970.571	3520.11
970.872	3465.42
971.174	3448.24
971.475	3447.34
971.776	3430.39
972.077	3419.99
972.378	3422.48
972.679	3417.51
972.98	3389.26
973.281	3354.69
973.582	3347.23
973.883	3355.14
974.183	3367.11
974.484	3342.48
974.785	3272.65
975.085	3320.11
975.386	3290.96
975.686	3261.81
975.986	3210.28
976.287	3231.75
976.587	3208.47
976.887	3195.14
977.187	3188.81
977.487	3157.4
977.787	3169.83
978.087	3127.35
978.387	3122.6
978.687	3156.05
978.987	3076.28
979.286	3037.18
979.586	3073.11
979.885	3053.22
980.185	3018.65
980.484	3037.18
980.784	3029.5
981.083	3025.43
981.382	2982.49
981.682	2982.27
981.981	2939.33
982.28	2963.74
982.579	2918.09
982.878	2959.67
983.177	2928.48
983.475	2873.57
983.774	2875.15
984.073	2865.21
984.372	2843.06
984.67	2846.22
984.969	2829.05
985.267	2794.93
985.566	2814.14
985.864	2763.51
986.162	2770.97
986.461	2763.06
986.759	2729.17
987.057	2737.07
987.355	2725.32
987.653	2715.15
987.951	2708.83
988.249	2692.33
988.547	2709.96
988.844	2679.68
989.142	2660.47
989.44	2673.12
989.737	2615.27
990.035	2607.81
990.332	2629.28
990.63	2616.63
990.927	2573.46
991.224	2592.67
991.521	2552.45
991.819	2584.31
992.116	2534.82
992.413	2524.43
992.71	2511.32
993.006	2487.36
993.303	2506.8
993.6	2489.62
993.897	2482.62
994.193	2442.17
994.49	2445.56
994.787	2401.49
995.083	2410.76
995.379	2385.9
995.676	2417.54
995.972	2366.01
996.268	2387.71
996.565	2347.93
996.861	2373.02
997.157	2298.89
997.453	2297.09
997.749	2330.08
998.044	2307.93
998.34	2296.18
998.636	2288.95
998.932	2267.26
999.227	2245.79
999.523	2219.8
999.818	2228.84
1000.114	2200.82
1000.409	2196.07
1000.704	2197.2
1001	2216.41
1001.295	2186.13
1001.59	2181.61
1001.885	2141.16
1002.18	2166.24
1002.475	2128.96
1002.77	2131.22
1003.065	2071.56
1003.359	2089.86
1003.654	2060.48
1003.949	2078.11
1004.243	2088.28
1004.538	2047.15
1004.832	2051.22
1005.127	2010.54
1005.421	1996.53
1005.715	1993.59
1006.009	2001.95
1006.304	2019.58
1006.598	1961.05
1006.892	1986.81
1007.186	1982.97
1007.48	1915.4
1007.773	1906.59
1008.067	1915.85
1008.361	1907.27
1008.655	1885.8
1008.948	1905.46
1009.242	1866.36
1009.535	1831.79
1009.829	1853.48
1010.122	1835.86
1010.415	1802.41
1010.708	1801.96
1011.001	1800.6
1011.295	1791.56
1011.588	1753.82
1011.881	1768.74
1012.173	1786.59
1012.466	1734.84
1012.759	1736.65
1013.052	1723.54
1013.344	1715.18
1013.637	1725.8
1013.93	1715.86
1014.222	1682.64
1014.514	1675.41
1014.807	1644.9
1015.099	1649.87
1015.391	1673.37
1015.683	1651.91
1015.976	1645.13
1016.268	1646.71
1016.56	1602.19
1016.851	1617.33
1017.143	1598.8
1017.435	1590.21
1017.727	1587.5
1018.018	1579.59
1018.31	1537.56
1018.602	1510.21
1018.893	1544.11
1019.185	1541.85
1019.476	1505.47
1019.767	1531.68
1020.058	1535.98
1020.35	1486.71
1020.641	1482.19
1020.932	1471.57
1021.223	1426.6
1021.514	1445.36
1021.804	1438.13
1022.095	1424.12
1022.386	1406.04
1022.677	1429.76
1022.967	1422.53
1023.258	1395.64
1023.548	1376.43
1023.839	1378.01
1024.129	1341.63
1024.419	1347.73
1024.709	1342.31
1025	1325.36
1025.29	1343.21
1025.58	1327.85
1025.87	1326.94
1026.16	1303.89
1026.449	1293.27
1026.739	1307.06
1027.029	1274.06
1027.319	1275.42
1027.608	1260.73
1027.898	1248.3
1028.187	1277.45
1028.477	1249.66
1028.766	1231.8
1029.055	1213.05
1029.344	1200.84
1029.634	1218.24
1029.923	1206.95
1030.212	1215.31
1030.501	1200.39
1030.79	1190.45
1031.078	1179.83
1031.367	1170.34
1031.656	1136.44
1031.945	1137.79
1032.233	1129.89
1032.522	1140.05
1032.81	1143.44
1033.099	1106.16
1033.387	1136.89
1033.675	1124.01
1033.963	1118.13
1034.251	1076.33
1034.54	1067.06
1034.828	1069.32
1035.116	1064.8
1035.403	1058.47
1035.691	1033.84
1035.979	1065.93
1036.267	1029.1
1036.554	1027.52
1036.842	1051.7
1037.129	1016.89
1037.417	990.23
1037.704	1026.39
1037.992	997.01
1038.279	996.33
1038.566	969.89
1038.853	969.89
1039.14	969.89
