Data from hue_80_FLMS001491_46.txt Node
Date: Mon Feb 06 15:23:03 GMT 2017
User: dcchb
Spectrometer: FLMS00149
Trigger mode: 0
Integration Time (sec): 2.000000E-2
Scans to average: 10
Electric dark correction enabled: true
Nonlinearity correction enabled: false
Boxcar width: 0
XAxis mode: Wavelengths
Number of Pixels in Spectrum: 2048
>>>>>Begin Spectral Data<<<<<
341.393	-6.07
341.776	-6.07
342.16	-6.07
342.543	-52.63
342.927	-61.67
343.31	-53.53
343.693	-71.16
344.077	-62.34
344.46	-64.38
344.843	-59.86
345.226	-34.1
345.61	-17.15
345.993	-44.04
346.376	-29.8
346.759	23.08
347.142	36.19
347.525	46.35
347.908	53.59
348.291	82.51
348.674	86.81
349.057	107.82
349.44	122.06
349.823	135.17
350.206	163.87
350.588	193.7
350.971	194.15
351.354	222.85
351.737	242.73
352.119	246.12
352.502	268.5
352.884	272.79
353.267	286.8
353.65	282.51
354.032	304.2
354.414	282.28
354.797	315.95
355.179	327.03
355.562	323.18
355.944	306.91
356.326	323.18
356.709	317.31
357.091	315.5
357.473	314.82
357.855	335.39
358.238	329.74
358.62	325.67
359.002	339.91
359.384	330.42
359.766	334.03
360.148	309.17
360.53	317.53
360.912	335.61
361.294	315.95
361.676	328.38
362.057	340.58
362.439	329.51
362.821	330.64
363.203	321.6
363.584	319.12
363.966	329.51
364.348	315.27
364.729	328.61
365.111	305.33
365.493	320.25
365.874	306.01
366.256	296.29
366.637	298.33
367.019	305.78
367.4	303.07
367.781	296.52
368.163	329.96
368.544	283.64
368.925	326.8
369.306	306.46
369.688	312.11
370.069	304.88
370.45	316.18
370.831	297.2
371.212	312.11
371.593	288.61
371.974	295.84
372.355	317.31
372.736	336.06
373.117	309.4
373.498	316.86
373.879	311.66
374.26	310.75
374.641	307.59
375.021	308.72
375.402	300.13
375.783	326.57
376.163	322.96
376.544	330.42
376.925	335.16
377.305	335.16
377.686	316.18
378.066	347.82
378.447	328.16
378.827	343.97
379.208	317.08
379.588	322.96
379.968	322.05
380.349	321.6
380.729	341.26
381.109	320.25
381.489	325.67
381.87	331.09
382.25	327.03
382.63	332.9
383.01	344.88
383.39	344.43
383.77	343.07
384.15	331.09
384.53	329.06
384.91	339.68
385.29	361.37
385.67	370.41
386.049	327.25
386.429	359.11
386.809	349.4
387.189	360.24
387.568	358.21
387.948	347.59
388.328	344.43
388.707	338.78
389.087	355.27
389.466	354.6
389.846	364.99
390.225	348.04
390.605	366.35
390.984	355.95
391.363	364.31
391.743	367.02
392.122	352.56
392.501	367.93
392.881	383.07
393.26	353.92
393.639	360.02
394.018	378.32
394.397	370.19
394.776	344.2
395.155	364.76
395.534	346.01
395.913	379.91
396.292	374.93
396.671	380.81
397.05	374.93
397.429	378.1
397.808	393.69
398.186	397.08
398.565	398.44
398.944	384.42
399.323	363.18
399.701	373.58
400.08	403.63
400.458	394.14
400.837	389.4
401.215	406.8
401.594	399.34
401.972	394.14
402.351	377.42
402.729	399.34
403.107	393.92
403.486	404.31
403.864	420.36
404.242	418.77
404.62	406.8
404.999	403.41
405.377	432.33
405.755	424.2
406.133	403.63
406.511	427.36
406.889	440.02
407.267	418.1
407.645	430.53
408.023	431.43
408.401	424.88
408.779	423.97
409.156	454.03
409.534	443.63
409.912	426.68
410.29	413.58
410.667	443.18
411.045	448.6
411.422	444.31
411.8	452.9
412.178	455.61
412.555	468.49
412.933	471.88
413.31	456.06
413.687	470.3
414.065	451.99
414.442	461.49
414.819	465.33
415.197	498.77
415.574	481.15
415.951	485.21
416.328	482.05
416.705	482.05
417.082	495.83
417.46	508.72
417.837	489.96
418.214	504.2
418.591	532.9
418.967	497.87
419.344	511.65
419.721	515.49
420.098	515.72
420.475	512.11
420.852	503.97
421.228	509.62
421.605	513.69
421.982	536.74
422.358	514.14
422.735	564.76
423.111	522.27
423.488	545.1
423.864	548.71
424.241	546.23
424.617	568.83
424.994	561.14
425.37	557.75
425.746	531.77
426.123	564.99
426.499	547.81
426.875	579.9
427.251	553.69
427.627	576.74
428.003	583.52
428.379	594.36
428.756	581.93
429.132	576.28
429.507	612.44
429.883	619.67
430.259	615.15
430.635	604.98
431.011	632.55
431.387	628.03
431.763	628.26
432.138	624.64
432.514	631.65
432.89	646.79
433.265	662.61
433.641	682.95
434.016	668.71
434.392	675.26
434.767	701.7
435.143	691.99
435.518	692.67
435.894	696.28
436.269	712.1
436.644	724.3
437.02	700.12
437.395	708.48
437.77	713.91
438.145	724.08
438.52	723.85
438.895	755.71
439.271	743.06
439.646	741.25
440.021	753
440.395	725.88
440.77	751.87
441.145	803.85
441.52	770.86
441.895	779.22
442.27	755.26
442.645	772.21
443.019	806.79
443.394	762.95
443.769	783.74
444.143	797.07
444.518	814.47
444.892	808.82
445.267	826.67
445.641	844.07
446.016	820.12
446.39	844.98
446.764	832.77
447.139	832.55
447.513	859.44
447.887	879.1
448.262	856.28
448.636	864.86
449.01	854.7
449.384	901.7
449.758	894.92
450.132	915.26
450.506	881.81
450.88	905.09
451.254	893.34
451.628	903.73
452.002	940.57
452.376	903.51
452.75	944.41
453.123	913
453.497	951.42
453.871	966.78
454.244	1000.91
454.618	987.12
454.992	986.89
455.365	1005.2
455.739	1010.4
456.112	1017.85
456.486	1014.24
456.859	1037.52
457.232	1060.57
457.606	1060.79
457.979	1092.43
458.352	1070.96
458.725	1100.34
459.099	1085.2
459.472	1138.98
459.845	1130.39
460.218	1140.34
460.591	1142.15
460.964	1158.64
461.337	1196.61
461.71	1178.08
462.083	1235.7
462.456	1203.61
462.829	1204.74
463.201	1247
463.574	1257.4
463.947	1276.38
464.32	1295.81
464.692	1319.99
465.065	1322.71
465.438	1331.52
465.81	1364.74
466.183	1396.6
466.555	1406.32
466.928	1439.09
467.3	1420.78
467.672	1440.89
468.045	1478.41
468.417	1525.19
468.789	1497.16
469.161	1529.93
469.534	1542.59
469.906	1628.91
470.278	1620.32
470.65	1651.06
471.022	1671.17
471.394	1727.67
471.766	1746.2
472.138	1778.51
472.51	1845.18
472.882	1885.18
473.253	1821
473.625	1936.02
473.997	1968.56
474.369	2012.63
474.74	2024.38
475.112	2061.44
475.484	2098.5
475.855	2199.74
476.227	2211.72
476.598	2310.7
476.97	2329.46
477.341	2375.78
477.713	2470.47
478.084	2533.29
478.455	2580.07
478.827	2595.44
479.198	2705.04
479.569	2733.52
479.94	2855.55
480.311	2930.57
480.682	2992.72
481.053	3108.2
481.424	3217.8
481.795	3230.45
482.166	3343.67
482.537	3395.42
482.908	3544.79
483.279	3604.91
483.65	3704.56
484.021	3856.88
484.391	3907.72
484.762	3995.86
485.133	4090.54
485.503	4201.73
485.874	4383.64
486.244	4395.62
486.615	4553.35
486.985	4659.34
487.356	4829.51
487.726	4919.22
488.097	5053
488.467	5144.98
488.837	5313.79
489.207	5404.41
489.578	5615.7
489.948	5679.65
490.318	5813.43
490.688	5940.44
491.058	6070.83
491.428	6193.54
491.798	6405.06
492.168	6555.34
492.538	6610.25
492.908	6760.98
493.278	6907.19
493.648	7014.08
494.017	7176.11
494.387	7300.4
494.757	7445.03
495.126	7599.15
495.496	7704.46
495.866	7878.24
496.235	7977.45
496.605	8142.86
496.974	8261.73
497.344	8366.36
497.713	8479.35
498.082	8669.63
498.452	8765.67
498.821	8888.38
499.19	8931.32
499.559	9109.17
499.928	9178.32
500.298	9234.81
500.667	9412.89
501.036	9470.97
501.405	9626.89
501.774	9734.01
502.143	9847.45
502.512	9933.1
502.88	10131.29
503.249	10117.5
503.618	10288.35
503.987	10393.43
504.356	10488.57
504.724	10592.07
505.093	10745.96
505.462	10773.08
505.83	10938.05
506.199	10956.58
506.567	11222.78
506.936	11199.06
507.304	11364.93
507.672	11364.02
508.041	11444.7
508.409	11636.78
508.777	11700.74
509.145	11771.02
509.514	11868.64
509.882	11946.38
510.25	12070.9
510.618	12138.47
510.986	12177.11
511.354	12363.09
511.722	12337.1
512.09	12545.01
512.458	12477.67
512.826	12692.8
513.193	12710.43
513.561	12727.38
513.929	12842.63
514.297	12991.1
514.664	13084.2
515.032	13126.91
515.4	13204.2
515.767	13328.49
516.135	13354.25
516.502	13315.38
516.869	13484.19
517.237	13592.21
517.604	13514.48
517.972	13684.19
518.339	13795.82
518.706	13767.58
519.073	13881.7
519.44	13888.02
519.808	14065.65
520.175	14088.92
520.542	14221.58
520.909	14242.59
521.276	14249.82
521.643	14400.55
522.009	14471.51
522.376	14636.71
522.743	14621.56
523.11	14696.82
523.477	14866.98
523.843	14826.31
524.21	15061.1
524.577	15058.39
524.943	15088.9
525.31	15193.3
525.676	15238.05
526.043	15337.48
526.409	15299.06
526.776	15411.37
527.142	15506.29
527.508	15566.85
527.874	15595.55
528.241	15664.25
528.607	15722.33
528.973	15839.61
529.339	15707.86
529.705	15912.15
530.071	16011.36
530.437	15981.75
530.803	15974.07
531.169	16079.61
531.535	16075.54
531.901	16102.43
532.267	16122.32
532.632	16127.97
532.998	16190.56
533.364	16213.39
533.73	16292.03
534.095	16284.12
534.461	16269.66
534.826	16421.29
535.192	16405.92
535.557	16554.62
535.923	16412.25
536.288	16460.61
536.653	16442.76
537.019	16386.72
537.384	16449.77
537.749	16525.02
538.114	16496.09
538.479	16542.64
538.845	16532.25
539.21	16510.55
539.575	16496.32
539.94	16577.45
540.305	16626.03
540.67	16592.36
541.034	16523.21
541.399	16545.13
541.764	16632.13
542.129	16607.73
542.494	16561.4
542.858	16583.77
543.223	16609.76
543.587	16647.73
543.952	16587.39
544.316	16648.4
544.681	16489.99
545.045	16604.79
545.41	16616.31
545.774	16531.34
546.138	16669.19
546.503	16563.21
546.867	16570.21
547.231	16685.01
547.595	16624.68
547.959	16627.61
548.324	16627.84
548.688	16603.43
549.052	16637.1
549.416	16582.42
549.779	16585.58
550.143	16606.82
550.507	16653.83
550.871	16715.29
551.235	16597.56
551.599	16598.69
551.962	16694.96
552.326	16714.17
552.689	16756.88
553.053	16634.17
553.417	16668.29
553.78	16889.53
554.143	16682.98
554.507	16717.78
554.87	16746.48
555.234	16843.65
555.597	16755.07
555.96	16672.36
556.323	16675.75
556.686	16750.1
557.05	16765.01
557.413	16813.6
557.776	16755.75
558.139	16904.22
558.502	16857.66
558.865	16943.09
559.228	16995.74
559.59	17040.26
559.953	16983.31
560.316	17067.83
560.679	17085.91
561.041	17115.96
561.404	17180.59
561.767	17265.56
562.129	17217.43
562.492	17280.03
562.854	17266.01
563.217	17232.57
563.579	17266.01
563.941	17411.32
564.304	17333.81
564.666	17450.64
565.028	17465.11
565.39	17455.16
565.753	17567.02
566.115	17535.61
566.477	17543.07
566.839	17632.11
567.201	17702.16
567.563	17697.42
567.925	17805.89
568.287	17780.35
568.648	17791.88
569.01	17929.5
569.372	17931.76
569.734	17915.94
570.095	17984.19
570.457	18095.6
570.819	18054.92
571.18	18029.38
571.542	18054.47
571.903	18109.38
572.265	18199.55
572.626	18149.16
572.987	18263.28
573.349	18198.42
573.71	18351.18
574.071	18245.2
574.432	18325.87
574.794	18421.01
575.155	18401.35
575.516	18272.99
575.877	18396.38
576.238	18456.27
576.599	18571.52
576.96	18463.27
577.32	18336.5
577.681	18464.63
578.042	18445.87
578.403	18514.8
578.763	18525.64
579.124	18618.97
579.485	18668.69
579.845	18630.95
580.206	18652.65
580.566	18621.91
580.927	18582.59
581.287	18643.61
581.648	18647.45
582.008	18651.52
582.368	18695.81
582.728	18694.68
583.089	18615.13
583.449	18563.83
583.809	18675.24
584.169	18694.23
584.529	18535.59
584.889	18647.9
585.249	18654.23
585.609	18541.91
585.969	18633.21
586.329	18532.42
586.688	18632.53
587.048	18564.74
587.408	18542.37
587.768	18547.11
588.127	18507.11
588.487	18549.15
588.846	18626.66
589.206	18530.39
589.565	18505.3
589.925	18586.21
590.284	18521.12
590.643	18556.38
591.003	18538.75
591.362	18554.34
591.721	18478.41
592.08	18540.78
592.44	18562.7
592.799	18521.58
593.158	18572.65
593.517	18572.42
593.876	18531.97
594.235	18507.11
594.593	18542.82
594.952	18562.7
595.311	18469.83
595.67	18410.62
596.029	18563.16
596.387	18597.73
596.746	18609.93
597.104	18474.12
597.463	18496.49
597.822	18533.33
598.18	18450.62
598.538	18376.27
598.897	18510.5
599.255	18419.88
599.613	18710.04
599.972	18596.6
600.33	18623.27
600.688	18457.4
601.046	18616.49
601.404	18632.76
601.762	18592.76
602.12	18710.27
602.478	18689.71
602.836	18694
603.194	18520.22
603.552	18537.39
603.91	18624.85
604.268	18656.49
604.625	18614.91
604.983	18715.69
605.341	18583.27
605.698	18687.9
606.056	18683.15
606.413	18728.8
606.771	18724.06
607.128	18746.88
607.485	18628.69
607.843	18686.54
608.2	18754.56
608.557	18778.07
608.914	18731.51
609.272	18783.49
609.629	18809.48
609.986	18902.58
610.343	18709.82
610.7	18977.83
611.057	18941.45
611.414	18912.3
611.771	18945.74
612.127	19051.28
612.484	18933.32
612.841	18996.36
613.198	18911.4
613.554	19032.75
613.911	19118.4
614.267	19066.87
614.624	19117.94
614.98	19134.21
615.337	19202.24
615.693	19167.21
616.05	19107.55
616.406	19236.13
616.762	19213.99
617.118	19184.38
617.475	19104.61
617.831	19389.35
618.187	19336.69
618.543	19268.67
618.899	19429.35
619.255	19246.3
619.611	19416.24
619.967	19409.46
620.323	19358.16
620.678	19357.03
621.034	19302.12
621.39	19349.8
621.746	19356.58
622.101	19531.94
622.457	19291.72
622.812	19413.53
623.168	19455.79
623.523	19437.48
623.879	19475.45
624.234	19397.71
624.589	19408.33
624.945	19444.71
625.3	19486.75
625.655	19427.54
626.01	19506.63
626.365	19509.35
626.72	19462.12
627.075	19471.83
627.43	19425.51
627.785	19326.3
628.14	19416.92
628.495	19462.79
628.85	19444.49
629.205	19372.17
629.559	19522.45
629.914	19306.64
630.269	19355.9
630.623	19337.6
630.978	19310.25
631.332	19471.61
631.687	19349.35
632.041	19313.42
632.396	19446.3
632.75	19192.97
633.104	19205.17
633.459	19186.87
633.813	19158.62
634.167	19198.85
634.521	19159.75
634.875	19275.68
635.229	19222.12
635.583	19074.33
635.937	19055.35
636.291	18999.75
636.645	18977.61
636.999	18994.56
637.352	19079.98
637.706	18931.28
638.06	19038.4
638.413	18979.64
638.767	18974.22
639.121	19001.79
639.474	18851.28
639.828	18891.06
640.181	18894.22
640.534	18898.29
640.888	18827.56
641.241	18739.65
641.594	18776.26
641.947	18831.85
642.301	18718.41
642.654	18797.95
643.007	18799.08
643.36	18770.38
643.713	18743.49
644.066	18805.64
644.419	18716.6
644.771	18561.35
645.124	18416.72
645.477	18407.68
645.83	18192.32
646.182	18243.39
646.535	18128.14
646.888	18178.76
647.24	18101.02
647.593	18140.34
647.945	18105.54
648.298	18041.36
648.65	18097.63
649.002	17956.84
649.355	18067.58
649.707	18076.84
650.059	18216.72
650.411	18455.81
650.763	18395.48
651.115	18536.72
651.467	18515.25
651.819	18508.92
652.171	18500.11
652.523	18371.75
652.875	18351.18
653.227	18318.19
653.578	18458.75
653.93	18437.06
654.282	18396.83
654.633	18419.66
654.985	18341.01
655.337	18352.31
655.688	18331.07
656.039	18477.96
656.391	18400
656.742	18322.48
657.094	18439.09
657.445	18422.37
657.796	18470.28
658.147	18424.18
658.498	18435.02
658.849	18469.83
659.2	18529.71
659.551	18344.18
659.902	18488.36
660.253	18495.81
660.604	18459.43
660.955	18404.52
661.306	18420.79
661.656	18477.06
662.007	18460.79
662.358	18430.73
662.708	18451.07
663.059	18469.6
663.409	18365.42
663.76	18576.04
664.11	18556.38
664.461	18545.76
664.811	18546.21
665.161	18597.51
665.511	18435.48
665.862	18412.88
666.212	18530.39
666.562	18406.55
666.912	18548.69
667.262	18495.59
667.612	18545.3
667.962	18475.25
668.312	18446.77
668.662	18544.17
669.011	18447.23
669.361	18499.65
669.711	18459.66
670.06	18380.34
670.41	18383.27
670.76	18417.62
671.109	18452.42
671.459	18304.63
671.808	18341.92
672.157	18395.7
672.507	18266.44
672.856	18325.65
673.205	18329.72
673.554	18348.7
673.904	18333.11
674.253	18352.77
674.602	18320
674.951	17995.71
675.3	17875.04
675.649	18233.22
675.998	18234.8
676.346	18255.37
676.695	18276.84
677.044	18135.82
677.393	18236.16
677.741	18156.61
678.09	18235.48
678.438	18128.14
678.787	18148.25
679.135	18104.18
679.484	17903.29
679.832	18083.17
680.181	17962.49
680.529	17996.62
680.877	17956.39
681.225	17956.39
681.573	18040.23
681.922	17875.49
682.27	17845.89
682.618	17788.49
682.966	17765.66
683.314	17818.99
683.661	17669.85
684.009	17615.84
684.357	17652.45
684.705	17461.49
685.053	17587.36
685.4	17520.25
685.748	17486.12
686.095	17506.69
686.443	17354.15
686.79	17445.9
687.138	17372.68
687.485	17283.42
687.832	17259.24
688.18	17228.5
688.527	17113.25
688.874	17180.59
689.221	17143.53
689.568	17080.48
689.915	16951.9
690.262	17033.48
690.609	16931.79
690.956	16866.03
691.303	16899.92
691.65	16817.21
691.997	16781.06
692.344	16630.33
692.69	16713.49
693.037	16615.18
693.383	16461.52
693.73	16435.3
694.077	16424.46
694.423	16379.03
694.769	16306.49
695.116	16312.82
695.462	16290.45
695.808	16235.31
696.155	16184.91
696.501	16106.5
696.847	16033.73
697.193	15927.75
697.539	15954.64
697.885	15864.02
698.231	15814.08
698.577	15823.12
698.923	15749.22
699.269	15655.21
699.614	15558.26
699.96	15555.78
700.306	15562.56
700.651	15507.19
700.997	15472.16
701.342	15427.42
701.688	15313.75
702.033	15305.84
702.379	15216.13
702.724	15180.87
703.069	15180.42
703.415	15066.3
703.76	15043.93
704.105	15061.55
704.45	14937.26
704.795	14856.36
705.14	14842.8
705.485	14822.24
705.83	14831.73
706.175	14846.87
706.52	14720.32
706.865	14656.82
707.209	14608.23
707.554	14535.47
707.899	14604.62
708.243	14481.68
708.588	14377.73
708.932	14313.55
709.277	14334.79
709.621	14339.76
709.966	14185.87
710.31	14277.39
710.654	14189.94
710.998	14184.51
711.342	14179.77
711.687	14074.91
712.031	14007.34
712.375	13941.13
712.719	14031.07
713.063	13934.58
713.407	14064.74
713.75	13936.61
714.094	13875.37
714.438	13860.68
714.782	13843.96
715.125	13850.74
715.469	13839.66
715.812	13658.65
716.156	13633.79
716.499	13707.01
716.843	13763.06
717.186	13622.49
717.53	13669.73
717.873	13643.29
718.216	13632.21
718.559	13544.3
718.902	13473.8
719.246	13481.26
719.589	13427.25
719.932	13433.12
720.275	13431.77
720.617	13450.3
720.96	13384.08
721.303	13361.71
721.646	13382.95
721.989	13329.85
722.331	13304.76
722.674	13292.33
723.016	13251.21
723.359	13307.93
723.701	13287.59
724.044	13185.22
724.386	13137.54
724.729	13253.24
725.071	13173.92
725.413	13269.96
725.755	13139.12
726.097	13168.5
726.439	13081.04
726.782	13073.36
727.124	13086.46
727.465	13039.01
727.807	13123.75
728.149	13010.08
728.491	12966.47
728.833	13066.13
729.175	12991.1
729.516	13013.25
729.858	12995.17
730.199	13044.66
730.541	12914.72
730.882	12987.48
731.224	13036.97
731.565	12809.41
731.906	12957.65
732.248	12977.09
732.589	12897.99
732.93	12855.06
733.271	12918.56
733.612	12912.91
733.953	12869.07
734.294	12801.05
734.635	12892.34
734.976	12901.61
735.317	12870.2
735.658	12897.09
735.999	12819.58
736.339	12873.81
736.68	12947.71
737.021	12866.58
737.361	12785
737.702	12904.1
738.042	12829.3
738.383	12818
738.723	12943.19
739.063	12855.51
739.404	12886.24
739.744	12877.43
740.084	12842.4
740.424	12950.42
740.764	12915.39
741.104	12998.33
741.444	12892.12
741.784	12865.45
742.124	13040.14
742.464	12982.51
742.804	12989.74
743.143	12958.33
743.483	13021.61
743.823	12967.6
744.162	12984.32
744.502	13062.51
744.841	13081.27
745.181	13140.02
745.52	13157.2
745.86	13113.13
746.199	13143.64
746.538	13119.91
746.877	13242.39
747.216	13319.9
747.556	13288.94
747.895	13335.95
748.234	13295.72
748.573	13411.43
748.911	13482.39
749.25	13532.78
749.589	13515.15
749.928	13573.68
750.267	13621.14
750.605	13629.27
750.944	13774.58
751.283	13728.25
751.621	13951.75
751.96	13888.02
752.298	13951.3
752.636	14107.23
752.975	14125.31
753.313	14229.26
753.651	14336.6
753.989	14419.54
754.327	14449.14
754.666	14483.49
755.004	14683.26
755.342	14826.08
755.679	14895.91
756.017	14887.55
756.355	15082.8
756.693	15158.05
757.031	15252.96
757.368	15204.83
757.706	15436.91
758.044	15474.42
758.381	15593.74
758.719	15659.05
759.056	15791.25
759.394	15894.53
759.731	16019.95
760.068	16072.15
760.405	16140.85
760.743	16204.57
761.08	16379.26
761.417	16401.18
761.754	16508.97
762.091	16635.3
762.428	16735.86
762.765	16755.97
763.102	16940.15
763.438	16914.16
763.775	17019.02
764.112	17083.65
764.449	17342.85
764.785	17217.43
765.122	17301.95
765.458	17410.42
765.795	17466.24
766.131	17512.34
766.467	17554.59
766.804	17623.52
767.14	17740.13
767.476	17815.61
767.812	17733.57
768.148	17945.77
768.485	17906
768.821	17926.56
769.157	17971.53
769.492	18038.42
769.828	18037.07
770.164	18018.54
770.5	18039.78
770.836	18142.83
771.171	18125.43
771.507	18119.78
771.842	18179.89
772.178	18193.67
772.513	18208.59
772.849	18198.87
773.184	18213.79
773.519	18323.16
773.855	18322.94
774.19	18183.28
774.525	18219.89
774.86	18326.78
775.195	18341.69
775.53	18303.5
775.865	18234.35
776.2	18113.22
776.535	18074.36
776.87	18189.61
777.205	18223.73
777.539	18108.7
777.874	18109.16
778.209	18016.5
778.543	18034.36
778.878	17964.53
779.212	17954.13
779.547	17884.08
779.881	18052.43
780.215	17876.85
780.55	18018.09
780.884	17824.64
781.218	17891.99
781.552	17894.25
781.886	17772.67
782.22	17799.33
782.554	17706.68
782.888	17571.77
783.222	17491.09
783.556	17491.09
783.889	17427.14
784.223	17316.41
784.557	17410.64
784.89	17390.53
785.224	17283.42
785.557	17274.15
785.891	17247.94
786.224	17217.88
786.558	17214.26
786.891	17153.48
787.224	16997.1
787.557	17065.57
787.891	16970.43
788.224	17011.33
788.557	16917.55
788.89	16859.92
789.223	16874.39
789.556	16724.79
789.888	16760.04
790.221	16693.37
790.554	16696.31
790.887	16628.07
791.219	16541.74
791.552	16529.76
791.884	16516.43
792.217	16445.47
792.549	16503.78
792.882	16337.45
793.214	16258.58
793.546	16240.73
793.879	16118.93
794.211	16139.04
794.543	16211.13
794.875	16170.22
795.207	16087.51
795.539	16012.26
795.871	16003.22
796.203	15917.8
796.535	15810.46
796.867	15845.04
797.198	15818.6
797.53	15760.07
797.862	15612.5
798.193	15704.25
798.525	15559.39
798.856	15590.58
799.188	15368.89
799.519	15441.2
799.85	15294.99
800.182	15363.92
800.513	15274.2
800.844	15153.75
801.175	15255.22
801.506	15231.27
801.837	15200.53
802.168	15169.8
802.499	15165.05
802.83	15040.76
803.161	15040.99
803.491	14939.75
803.822	14945.62
804.153	14884.83
804.483	14851.16
804.814	14658.17
805.145	14734.1
805.475	14721.68
805.805	14726.19
806.136	14653.2
806.466	14635.35
806.796	14584.5
807.126	14444.17
807.457	14468.57
807.787	14469.7
808.117	14405.53
808.447	14409.59
808.777	14398.97
809.107	14323.27
809.436	14245.3
809.766	14248.69
810.096	14179.54
810.426	14089.38
810.755	14175.47
811.085	14139.32
811.414	14066.1
811.744	14012.99
812.073	14005.76
812.403	13991.07
812.732	13903.84
813.061	13924.63
813.39	13791.08
813.719	13712.44
814.049	13835.14
814.378	13806.67
814.707	13673.57
815.036	13628.37
815.365	13643.96
815.693	13538.66
816.022	13636.28
816.351	13533.01
816.68	13441.03
817.008	13541.82
817.337	13338.21
817.665	13333.24
817.994	13394.25
818.322	13350.41
818.651	13357.42
818.979	13221.38
819.307	13313.58
819.636	13251.43
819.964	13191.55
820.292	13215.95
820.62	13228.16
820.948	13237.19
821.276	13321.49
821.604	13138.21
821.932	13250.08
822.259	13170.3
822.587	13106.35
822.915	13149.51
823.243	13235.84
823.57	13111.1
823.898	13164.65
824.225	13034.49
824.553	13057.54
824.88	13097.09
825.207	13142.28
825.535	13137.54
825.862	13117.88
826.189	13020.25
826.516	13117.88
826.843	13210.53
827.17	13168.27
827.497	13215.73
827.824	13091.21
828.151	13184.99
828.478	13110.19
828.805	13155.61
829.131	13124.65
829.458	13001.27
829.785	13016.18
830.111	13021.61
830.438	13155.16
830.764	13084.88
831.09	13121.49
831.417	13015.73
831.743	13061.83
832.069	13091.21
832.395	13000.36
832.722	13049.85
833.048	12990.65
833.374	13049.85
833.7	12962.4
834.026	12998.78
834.351	13048.72
834.677	12973.7
835.003	13024.54
835.329	12994.26
835.654	12981.83
835.98	12945.68
836.306	12919.46
836.631	12871.33
836.956	12935.73
837.282	12913.36
837.607	12805.57
837.932	12859.13
838.258	12855.06
838.583	12834.04
838.908	12688.28
839.233	12793.14
839.558	12707.26
839.883	12646.93
840.208	12625.68
840.533	12632.92
840.858	12627.49
841.182	12649.41
841.507	12594.5
841.832	12501.17
842.156	12592.47
842.481	12520.83
842.805	12488.06
843.13	12505.46
843.454	12426.82
843.778	12415.97
844.103	12338.91
844.427	12373.04
844.751	12340.95
845.075	12302.08
845.399	12280.61
845.723	12162.65
846.047	12157.22
846.371	12068.64
846.695	12188.18
847.019	11972.14
847.343	11969.43
847.666	11894.4
847.99	11831.36
848.313	11875.42
848.637	11745.48
848.96	11732.15
849.284	11684.92
849.607	11592.27
849.931	11533.96
850.254	11571.7
850.577	11458.94
850.9	11399.95
851.223	11351.59
851.546	11303.46
851.869	11194.08
852.192	11266.62
852.515	11161.32
852.838	11137.81
853.161	11206.06
853.483	11118.15
853.806	11033.41
854.129	11018.04
854.451	10974.65
854.774	10926.07
855.096	10935.33
855.419	10879.06
855.741	10840.42
856.063	10750.03
856.385	10773.53
856.708	10699.63
857.03	10698.5
857.352	10683.14
857.674	10695.57
857.996	10582.8
858.318	10545.97
858.64	10585.29
858.961	10484.27
859.283	10540.09
859.605	10460.32
859.926	10457.61
860.248	10484.95
860.57	10403.37
860.891	10384.61
861.212	10334.45
861.534	10324.28
861.855	10270.04
862.176	10297.84
862.498	10244.28
862.819	10315.69
863.14	10227.33
863.461	10143.49
863.782	10150.72
864.103	10176.26
864.424	10122.02
864.745	10133.77
865.065	10066.88
865.386	10046.77
865.707	10042.48
866.027	10136.94
866.348	9964.74
866.668	10000.22
866.989	9979.65
867.309	9915.93
867.63	9864.85
867.95	9956.38
868.27	9825.98
868.59	9853.55
868.91	9931.07
869.23	9836.38
869.55	9860.33
869.87	9784.86
870.19	9733.78
870.51	9778.98
870.83	9761.81
871.15	9707.12
871.469	9740.34
871.789	9809.04
872.109	9722.03
872.428	9581.7
872.748	9672.77
873.067	9638.42
873.386	9691.07
873.706	9625.54
874.025	9585.54
874.344	9596.84
874.663	9568.14
874.982	9565.88
875.301	9569.72
875.62	9556.16
875.939	9538.08
876.258	9496.05
876.577	9424.64
876.896	9440.68
877.214	9457.18
877.533	9422.38
877.852	9468.93
878.17	9458.54
878.489	9424.87
878.807	9431.64
879.125	9331.53
879.444	9438.2
879.762	9343.96
880.08	9340.57
880.398	9346.45
880.716	9357.52
881.034	9285.89
881.352	9278.43
881.67	9187.36
881.988	9226.9
882.306	9231.65
882.624	9131.09
882.941	9121.6
883.259	9119.56
883.577	9129.96
883.894	9059.23
884.212	9035.04
884.529	9047.25
884.846	9002.28
885.164	9010.19
885.481	8981.49
885.798	9001.83
886.115	8915.27
886.432	8944.43
886.75	8903.52
887.067	8883.64
887.383	8821.72
887.7	8869.17
888.017	8761.15
888.334	8817.42
888.651	8807.03
888.967	8695.39
889.284	8666.92
889.6	8705.34
889.917	8581.27
890.233	8633.25
890.55	8615.85
890.866	8582.63
891.182	8551.89
891.498	8517.09
891.815	8546.47
892.131	8448.39
892.447	8479.81
892.763	8354.84
893.079	8444.33
893.395	8380.6
893.71	8343.31
894.026	8343.99
894.342	8309.41
894.657	8250.88
894.973	8243.2
895.289	8256.99
895.604	8226.25
895.92	8161.62
896.235	8124.33
896.55	8147.84
896.865	8083.88
897.181	8137.22
897.496	8098.12
897.811	8006.82
898.126	7995.52
898.441	7956.88
898.756	7900.16
899.071	7886.15
899.386	7929.31
899.7	7839.14
900.015	7859.03
900.33	7786.04
900.644	7726.83
900.959	7797.11
901.273	7720.05
901.588	7651.8
901.902	7621.75
902.216	7584.24
902.531	7595.31
902.845	7597.57
903.159	7502.2
903.473	7490.9
903.787	7468.98
904.101	7414.97
904.415	7455.43
904.729	7360.29
905.042	7339.95
905.356	7308.76
905.67	7296.79
905.984	7316.67
906.297	7296.33
906.611	7252.49
906.924	7193.29
907.237	7185.6
907.551	7167.75
907.864	7153.51
908.177	7133.17
908.491	7083.46
908.804	7073.06
909.117	7025.38
909.43	7002.56
909.743	6970.69
910.056	6934.08
910.368	6877.81
910.681	6822
910.994	6878.72
911.307	6840.07
911.619	6812.05
911.932	6783.8
912.244	6763.69
912.557	6719.85
912.869	6653.86
913.181	6636.24
913.494	6613.41
913.806	6640.98
914.118	6563.25
914.43	6537.26
914.742	6524.83
915.054	6513.53
915.366	6474.89
915.678	6468.78
915.99	6449.12
916.302	6320.99
916.613	6364.15
916.925	6323.25
917.236	6331.84
917.548	6272.63
917.859	6272.41
918.171	6262.91
918.482	6208
918.794	6200.32
919.105	6145.18
919.416	6127.55
919.727	6121.9
920.038	6082.35
920.349	6016.59
920.66	6059.08
920.971	6031.96
921.282	6013.43
921.593	5950.38
921.903	5900.21
922.214	5903.83
922.525	5864.96
922.835	5866.09
923.146	5806.43
923.456	5862.47
923.767	5777.05
924.077	5785.86
924.387	5700.67
924.697	5694.34
925.008	5756.26
925.318	5690.95
925.628	5678.52
925.938	5607.56
926.248	5597.85
926.558	5594.01
926.867	5561.24
927.177	5524.4
927.487	5510.17
927.796	5448.92
928.106	5466.78
928.416	5454.35
928.725	5414.58
929.034	5406.89
929.344	5468.59
929.653	5400.11
929.962	5321.92
930.271	5298.42
930.581	5300.45
930.89	5283.05
931.199	5256.61
931.508	5215.94
931.817	5259.1
932.125	5215.26
932.434	5164.86
932.743	5124.64
933.051	5106.11
933.36	5092.55
933.669	5090.52
933.977	5036.28
934.286	5065.66
934.594	5077.86
934.902	4998.77
935.21	5029.05
935.519	4938.88
935.827	4919.22
936.135	4907.92
936.443	4875.15
936.751	4879.22
937.059	4817.08
937.367	4834.25
937.674	4807.81
937.982	4811.2
938.29	4728.27
938.597	4769.39
938.905	4700.47
939.213	4622.51
939.52	4687.36
939.827	4685.1
940.135	4669.96
940.442	4617.76
940.749	4583.86
941.056	4625.9
941.363	4575.05
941.67	4557.87
941.977	4523.98
942.284	4522.4
942.591	4500.93
942.898	4422.28
943.205	4425.9
943.511	4425.67
943.818	4405.56
944.125	4375.05
944.431	4419.57
944.738	4350.42
945.044	4343.87
945.35	4301.16
945.657	4282.63
945.963	4261.84
946.269	4281.5
946.575	4230.65
946.881	4232.01
947.187	4222.06
947.493	4260.48
947.799	4188.84
948.105	4164.44
948.41	4126.47
948.716	4126.93
949.022	4114.72
949.327	4100.03
949.633	4082.86
949.938	4049.19
950.244	4051.9
950.549	3991.56
950.854	3986.82
951.16	3995.4
951.465	3969.87
951.77	4013.71
952.075	3925.12
952.38	3935.52
952.685	3935.29
952.99	3901.85
953.294	3883.09
953.599	3824.33
953.904	3843.09
954.209	3796.76
954.513	3849.42
954.818	3819.14
955.122	3764.9
955.426	3716.31
955.731	3728.97
956.035	3713.83
956.339	3696.65
956.643	3726.26
956.948	3630.22
957.252	3652.14
957.556	3652.14
957.86	3645.81
958.163	3626.83
958.467	3585.47
958.771	3599.03
959.075	3566.26
959.378	3552.93
959.682	3553.83
959.985	3502.99
960.289	3533.95
960.592	3530.1
960.896	3500.28
961.199	3439.49
961.502	3438.36
961.805	3389.32
962.108	3424.57
962.411	3424.12
962.714	3372.37
963.017	3344.57
963.32	3366.04
963.623	3335.76
963.926	3339.6
964.228	3334.4
964.531	3350
964.833	3306.38
965.136	3288.53
965.438	3272.26
965.741	3250.34
966.043	3200.62
966.345	3200.17
966.648	3212.83
966.95	3246.72
967.252	3183.22
967.554	3201.53
967.856	3149.1
968.158	3135.54
968.46	3106.84
968.761	3126.05
969.063	3132.6
969.365	3096.9
969.666	3074.07
969.968	3056.22
970.269	3038.37
970.571	3055.99
970.872	3000.85
971.174	3040.85
971.475	2988.42
971.776	2957.69
972.077	2971.02
972.378	2957.01
972.679	2948.2
972.98	2921.53
973.281	2938.93
973.582	2863
973.883	2913.85
974.183	2853.96
974.484	2872.5
974.785	2866.39
975.085	2855.09
975.386	2865.72
975.686	2858.26
975.986	2780.29
976.287	2763.57
976.587	2792.5
976.887	2739.39
977.187	2752.72
977.487	2752.5
977.787	2730.35
978.087	2723.57
978.387	2706.4
978.687	2692.84
978.987	2694.19
979.286	2651.03
979.586	2690.58
979.885	2658.72
980.185	2640.41
980.484	2601.77
980.784	2612.61
981.083	2598.15
981.382	2581.88
981.682	2554.99
981.981	2579.17
982.28	2576.91
982.579	2529.68
982.878	2516.35
983.177	2520.64
983.475	2507.08
983.774	2510.47
984.073	2507.98
984.372	2483.8
984.67	2448.78
984.969	2472.51
985.267	2478.83
985.566	2448.55
985.864	2443.35
986.162	2450.36
986.461	2441.55
986.759	2385.05
987.057	2339.85
987.355	2354.09
987.653	2354.32
987.951	2356.35
988.249	2370.14
988.547	2357.25
988.844	2318.84
989.142	2332.85
989.44	2308.89
989.737	2288.33
990.035	2300.76
990.332	2258.27
990.63	2258.73
990.927	2243.13
991.224	2247.2
991.521	2219.63
991.819	2236.13
992.116	2208.78
992.413	2197.94
992.71	2177.37
993.006	2167.65
993.303	2184.15
993.6	2146.41
993.897	2149.58
994.193	2175.11
994.49	2136.47
994.787	2140.08
995.083	2133.31
995.379	2125.85
995.676	2116.13
995.972	2083.36
996.268	2063.7
996.565	2059.41
996.861	2047.66
997.157	2052.4
997.453	2031.61
997.749	2065.51
998.044	1997.26
998.34	2000.43
998.636	1984.38
998.932	1983.93
999.227	1985.29
999.523	1958.17
999.818	1944.84
1000.114	1952.97
1000.409	1906.64
1000.704	1910.71
1001	1911.62
1001.295	1889.47
1001.59	1894.67
1001.885	1878.4
1002.18	1863.71
1002.475	1818.74
1002.77	1865.74
1003.065	1816.93
1003.359	1831.17
1003.654	1828.91
1003.949	1825.52
1004.243	1788.91
1004.538	1782.35
1004.832	1805.4
1005.127	1824.16
1005.421	1752.75
1005.715	1774.9
1006.009	1783.71
1006.304	1721.11
1006.598	1728.8
1006.892	1752.07
1007.186	1689.02
1007.48	1695.8
1007.773	1705.07
1008.067	1695.35
1008.361	1632.08
1008.655	1618.74
1008.948	1684.28
1009.242	1673.43
1009.535	1659.19
1009.829	1608.12
1010.122	1623.49
1010.415	1621.45
1010.708	1569.25
1011.001	1607.44
1011.295	1581.91
1011.588	1563.15
1011.881	1532.19
1012.173	1543.49
1012.466	1534.9
1012.759	1525.19
1013.052	1501.23
1013.344	1526.54
1013.637	1499.88
1013.93	1516.15
1014.222	1500.78
1014.514	1470.5
1014.807	1493.1
1015.099	1461.46
1015.391	1457.62
1015.683	1466.66
1015.976	1442.7
1016.268	1423.27
1016.56	1411.52
1016.851	1430.05
1017.143	1419.43
1017.435	1370.39
1017.727	1400.67
1018.018	1377.17
1018.31	1392.53
1018.602	1358.86
1018.893	1386.21
1019.185	1345.53
1019.476	1351.41
1019.767	1350.95
1020.058	1338.07
1020.35	1307.79
1020.641	1296.04
1020.932	1286.55
1021.223	1274.8
1021.514	1309.15
1021.804	1262.82
1022.095	1262.37
1022.386	1256.04
1022.677	1254.46
1022.967	1236.38
1023.258	1225.08
1023.548	1230.73
1023.839	1208.36
1024.129	1216.49
1024.419	1217.62
1024.709	1189.83
1025	1187.79
1025.29	1187.12
1025.58	1150.51
1025.87	1176.49
1026.16	1145.08
1026.449	1149.83
1026.739	1145.76
1027.029	1154.35
1027.319	1121.58
1027.608	1116.16
1027.898	1120.68
1028.187	1117.29
1028.477	1098.76
1028.766	1103.28
1029.055	1080.68
1029.344	1098.3
1029.634	1069.83
1029.923	1085.2
1030.212	1070.06
1030.501	1056.95
1030.79	1024.41
1031.078	1035.71
1031.367	1019.21
1031.656	1040.45
1031.945	1023.96
1032.233	1008.14
1032.522	1014.92
1032.81	998.42
1033.099	1009.49
1033.387	983.51
1033.675	970.4
1033.963	995.26
1034.251	998.42
1034.54	976.73
1034.828	983.51
1035.116	950.06
1035.403	960.68
1035.691	938.08
1035.979	950.29
1036.267	946.67
1036.554	956.39
1036.842	907.12
1037.129	929.27
1037.417	905.09
1037.704	940.57
1037.992	899.44
1038.279	896.5
1038.566	903.96
1038.853	903.96
1039.14	903.96
