Data from hue_80_FLMS001491_63.txt Node
Date: Mon Feb 06 15:23:22 GMT 2017
User: dcchb
Spectrometer: FLMS00149
Trigger mode: 0
Integration Time (sec): 2.000000E-2
Scans to average: 10
Electric dark correction enabled: true
Nonlinearity correction enabled: false
Boxcar width: 0
XAxis mode: Wavelengths
Number of Pixels in Spectrum: 2048
>>>>>Begin Spectral Data<<<<<
341.393	-26.47
341.776	-26.47
342.16	-26.47
342.543	-70.31
342.927	-62.63
343.31	-84.77
343.693	-63.98
344.077	-61.04
344.46	-43.42
344.843	-47.03
345.226	-52.23
345.61	-47.48
345.993	-28.95
346.376	-8.39
346.759	11.5
347.142	32.51
347.525	22.12
347.908	62.79
348.291	97.82
348.674	105.05
349.057	105.51
349.44	102.79
349.823	155
350.206	147.31
350.588	163.81
350.971	194.32
351.354	235.45
351.737	218.05
352.119	239.06
352.502	265.05
352.884	281.77
353.267	284.94
353.65	305.27
354.032	276.12
354.414	291.94
354.797	327.19
355.179	332.39
355.562	313.64
355.944	340.08
356.326	319.74
356.709	307.53
357.091	338.72
357.473	346.86
357.855	327.19
358.238	348.66
358.62	336.91
359.002	338.49
359.384	317.7
359.766	343.01
360.148	340.75
360.53	324.93
360.912	338.27
361.294	323.58
361.676	348.21
362.057	338.49
362.439	344.14
362.821	352.73
363.203	337.82
363.584	315.67
363.966	322.22
364.348	331.49
364.729	315.44
365.111	312.05
365.493	308.66
365.874	319.96
366.256	296.69
366.637	314.54
367.019	316.35
367.4	321.77
367.781	309.79
368.163	322.45
368.544	310.92
368.925	306.86
369.306	307.08
369.688	303.69
370.069	314.31
370.45	311.6
370.831	308.89
371.212	291.49
371.593	297.14
371.974	301.88
372.355	297.59
372.736	307.31
373.117	310.7
373.498	305.73
373.879	296.24
374.26	303.24
374.641	296.91
375.021	299.62
375.402	319.06
375.783	326.06
376.163	319.29
376.544	321.09
376.925	295.56
377.305	322
377.686	319.51
378.066	314.99
378.447	325.16
378.827	314.09
379.208	319.74
379.588	303.47
379.968	322.68
380.349	350.92
380.729	320.64
381.109	324.71
381.489	329.23
381.87	320.87
382.25	324.71
382.63	337.36
383.01	330.13
383.39	322.45
383.77	333.07
384.15	324.26
384.53	303.01
384.91	327.42
385.29	331.49
385.67	345.27
386.049	324.26
386.429	351.6
386.809	340.3
387.189	350.7
387.568	353.63
387.948	343.47
388.328	347.08
388.707	347.08
389.087	348.44
389.466	332.39
389.846	347.53
390.225	354.54
390.605	346.63
390.984	378.72
391.363	334.65
391.743	351.6
392.122	358.61
392.501	377.81
392.881	375.56
393.26	345.5
393.639	384.14
394.018	375.78
394.397	357.02
394.776	376.69
395.155	353.86
395.534	373.07
395.913	368.55
396.292	366.06
396.671	354.31
397.05	377.14
397.429	358.38
397.808	395.67
398.186	368.78
398.565	373.07
398.944	383.01
399.323	367.87
399.701	367.87
400.08	390.02
400.458	391.6
400.837	401.54
401.215	396.35
401.594	389.11
401.972	391.83
402.351	385.72
402.729	392.96
403.107	397.48
403.486	391.15
403.864	379.85
404.242	394.99
404.62	394.99
404.999	387.08
405.377	406.29
405.755	422.56
406.133	407.42
406.511	411.94
406.889	415.1
407.267	403.12
407.645	431.15
408.023	421.43
408.401	405.61
408.779	406.51
409.156	421.43
409.534	431.15
409.912	430.02
410.29	448.1
410.667	434.54
411.045	418.27
411.422	437.7
411.8	442.45
412.178	439.73
412.555	462.11
412.933	460.75
413.31	465.5
413.687	458.72
414.065	439.73
414.442	446.06
414.819	450.81
415.197	464.37
415.574	469.34
415.951	487.87
416.328	470.47
416.705	474.31
417.082	466.17
417.46	487.19
417.837	489.22
418.214	495.78
418.591	503.91
418.967	486.96
419.344	504.37
419.721	500.3
420.098	479.73
420.475	489.22
420.852	475.89
421.228	507.76
421.605	498.04
421.982	496.91
422.358	525.38
422.735	527.42
423.111	518.15
423.488	502.78
423.864	520.86
424.241	521.99
424.617	539.39
424.994	543.23
425.37	524.7
425.746	514.76
426.123	534.65
426.499	541.2
426.875	546.4
427.251	545.04
427.627	559.05
428.003	563.12
428.379	580.75
428.756	557.47
429.132	569
429.507	569
429.883	592.27
430.259	596.34
430.635	564.02
431.011	596.57
431.387	605.61
431.763	618.26
432.138	602.67
432.514	591.37
432.89	612.39
433.265	605.83
433.641	620.97
434.016	613.51
434.392	646.73
434.767	655.1
435.143	632.72
435.518	658.03
435.894	656
436.269	667.52
436.644	671.14
437.02	661.88
437.395	657.13
437.77	680.63
438.145	683.8
438.52	698.48
438.895	704.13
439.271	696.68
439.646	710.24
440.021	702.78
440.395	726.51
440.77	726.05
441.145	738.03
441.52	718.6
441.895	735.09
442.27	735.55
442.645	734.19
443.019	756.79
443.394	726.51
443.769	746.62
444.143	749.33
444.518	765.15
444.892	755.21
445.267	770.12
445.641	756.56
446.016	753.85
446.39	772.15
446.764	767.64
447.139	776.9
447.513	765.38
447.887	779.61
448.262	784.58
448.636	810.8
449.01	806.73
449.384	808.09
449.758	814.64
450.132	822.55
450.506	830.01
450.88	822.32
451.254	827.97
451.628	820.74
452.002	848.09
452.376	858.03
452.75	854.41
453.123	875.88
453.497	882.66
453.871	874.53
454.244	901.64
454.618	891.02
454.992	906.84
455.365	897.12
455.739	930.12
456.112	948.87
456.486	950.91
456.859	984.58
457.232	940.96
457.606	963.56
457.979	967.86
458.352	1004.24
458.725	1007.18
459.099	1036.78
459.472	1002.43
459.845	1075.42
460.218	1052.6
460.591	1045.59
460.964	1085.82
461.337	1077.23
461.71	1100.28
462.083	1109.32
462.456	1101.86
462.829	1105.25
463.201	1150.9
463.574	1171.01
463.947	1179.83
464.32	1193.16
464.692	1191.8
465.065	1210.11
465.438	1229.54
465.81	1247.85
466.183	1274.97
466.555	1277.68
466.928	1274.74
467.3	1297.34
467.672	1320.16
468.045	1372.14
468.417	1399.71
468.789	1385.02
469.161	1417.34
469.534	1456.43
469.906	1499.14
470.278	1478.8
470.65	1545.92
471.022	1555.19
471.394	1589.08
471.766	1619.82
472.138	1655.97
472.51	1669.76
472.882	1720.6
473.253	1729.64
473.625	1782.3
473.997	1824.56
474.369	1834.27
474.74	1874.95
475.112	1908.4
475.484	1959.47
475.855	2015.29
476.227	2070.2
476.598	2136.19
476.97	2161.04
477.341	2220.93
477.713	2289.86
478.084	2322.4
478.455	2387.25
478.827	2467.25
479.198	2539.57
479.569	2606.46
479.94	2673.12
480.311	2727.58
480.682	2823.17
481.053	2917.86
481.424	2961.7
481.795	3086.9
482.166	3153.34
482.537	3248.02
482.908	3355.82
483.279	3447.79
483.65	3503.61
484.021	3624.51
484.391	3737.73
484.762	3847.1
485.133	3905.18
485.503	4030.83
485.874	4097.04
486.244	4249.35
486.615	4362.34
486.985	4476.46
487.356	4631.94
487.726	4730.69
488.097	4848.43
488.467	4929.11
488.837	5139.95
489.207	5280.51
489.578	5392.37
489.948	5540.84
490.318	5651.8
490.688	5729.76
491.058	5891.34
491.428	6049.76
491.798	6198
492.168	6375.17
492.538	6435.73
492.908	6583.75
493.278	6769.06
493.648	6888.6
494.017	7027.58
494.387	7163.4
494.757	7279.55
495.126	7451.75
495.496	7514.58
495.866	7660.79
496.235	7789.6
496.605	7963.38
496.974	8075.47
497.344	8209.02
497.713	8317.49
498.082	8482.01
498.452	8608.78
498.821	8762
499.19	8803.58
499.559	8957.7
499.928	9111.6
500.298	9218.94
500.667	9356.11
501.036	9377.58
501.405	9627.06
501.774	9660.28
502.143	9826.61
502.512	9867.96
502.88	10082.87
503.249	10113.38
503.618	10197.22
503.987	10339.36
504.356	10407.16
504.724	10569.64
505.093	10589.3
505.462	10757.2
505.83	10834.26
506.199	10973.47
506.567	11098.66
506.936	11124.43
507.304	11350.41
507.672	11366.9
508.041	11410.97
508.409	11558.54
508.777	11734.13
509.145	11800.57
509.514	11869.49
509.882	11911.52
510.25	11978.19
510.618	12173.66
510.986	12198.07
511.354	12259.31
511.722	12418.4
512.09	12546.76
512.458	12506.76
512.826	12625.18
513.193	12731.39
513.561	12776.81
513.929	12917.82
514.297	13050.48
514.664	13063.36
515.032	13149.46
515.4	13260.64
515.767	13289.79
516.135	13397.13
516.502	13276.68
516.869	13575.43
517.237	13600.97
517.604	13494.76
517.972	13711.02
518.339	13785.37
518.706	13811.59
519.073	13858.14
519.44	13919.61
519.808	14033.28
520.175	14061.75
520.542	14166.15
520.909	14226.72
521.276	14302.65
521.643	14390.33
522.009	14454.51
522.376	14551
522.743	14519.36
523.11	14651.11
523.477	14843.88
523.843	14845.68
524.21	14957.77
524.577	15062.4
524.943	15096.52
525.31	15113.25
525.676	15242.28
526.043	15275.5
526.409	15369.51
526.776	15404.31
527.142	15373.35
527.508	15521.82
527.874	15649.96
528.241	15670.29
528.607	15658.54
528.973	15731.99
529.339	15677.3
529.705	15846.33
530.071	15853.11
530.437	15933.34
530.803	15998.87
531.169	15991.42
531.535	15981.92
531.901	15981.02
532.267	16009.72
532.632	16168.81
532.998	16093.56
533.364	16169.04
533.73	16133.78
534.095	16286.1
534.461	16285.19
534.826	16291.29
535.192	16281.8
535.557	16362.48
535.923	16265.53
536.288	16374.23
536.653	16417.85
537.019	16264.63
537.384	16380.33
537.749	16402.03
538.114	16285.65
538.479	16401.57
538.845	16460.33
539.21	16390.05
539.575	16328.81
539.94	16416.49
540.305	16371.74
540.67	16369.03
541.034	16408.58
541.399	16437.28
541.764	16428.24
542.129	16434.34
542.494	16433.89
542.858	16408.35
543.223	16307.57
543.587	16433.89
543.952	16409.03
544.316	16354.12
544.681	16296.72
545.045	16396.38
545.41	16400.22
545.774	16323.16
546.138	16371.74
546.503	16313.22
546.867	16359.77
547.231	16439.77
547.595	16404.51
547.959	16516.6
548.324	16443.16
548.688	16340.33
549.052	16445.87
549.416	16399.09
549.779	16325.42
550.143	16244.52
550.507	16435.02
550.871	16417.62
551.235	16334.23
551.599	16379.65
551.962	16377.17
552.326	16400.9
552.689	16402.93
553.053	16357.96
553.417	16319.09
553.78	16555.24
554.143	16324.29
554.507	16461.23
554.87	16353.44
555.234	16561.12
555.597	16281.13
555.96	16404.96
556.323	16509.59
556.686	16379.65
557.05	16519.99
557.413	16504.17
557.776	16434.34
558.139	16536.26
558.502	16550.27
558.865	16499.88
559.228	16600.89
559.59	16660.1
559.953	16593.21
560.316	16688.12
560.679	16694.9
561.041	16788
561.404	16892.63
561.767	16854.22
562.129	16755.01
562.492	16880.21
562.854	16889.25
563.217	16786.42
563.579	16901.45
563.941	17032.74
564.304	16997.94
564.666	16994.33
565.028	16926.31
565.39	17056.7
565.753	17129.92
566.115	17082.46
566.477	17076.13
566.839	17112.29
567.201	17251.04
567.563	17190.93
567.925	17265.73
568.287	17286.75
568.648	17261.89
569.01	17370.36
569.372	17368.78
569.734	17405.84
570.095	17347.76
570.457	17500.3
570.819	17483.13
571.18	17568.55
571.542	17618.49
571.903	17610.13
572.265	17715.21
572.626	17669.34
572.987	17658.94
573.349	17705.72
573.71	17757.24
574.071	17843.8
574.432	17860.75
574.794	17966.96
575.155	17933.96
575.516	17812.38
575.877	17801.76
576.238	17894.64
576.599	17908.65
576.96	17917.01
577.32	17859.16
577.681	17885.83
578.042	18011.25
578.403	17891.03
578.763	17915.88
579.124	17998.37
579.485	18019.61
579.845	18051.02
580.206	18002.44
580.566	17999.27
580.927	18089.44
581.287	18150.45
581.648	17926.05
582.008	18132.83
582.368	17997.24
582.728	18008.99
583.089	18032.27
583.449	18040.63
583.809	18011.93
584.169	17963.34
584.529	18041.08
584.889	18108.87
585.249	17967.18
585.609	17982.1
585.969	18041.31
586.329	18023.68
586.688	18058.93
587.048	17984.36
587.408	17916.11
587.768	17972.38
588.127	17908.65
588.487	17917.24
588.846	17995.43
589.206	17983
589.565	17869.33
589.925	18100.29
590.284	17935.32
590.643	18014.64
591.003	17930.12
591.362	17990.46
591.721	17993.4
592.08	18016.45
592.44	18077.24
592.799	18012.83
593.158	18009.67
593.517	17897.13
593.876	17941.87
594.235	17955.21
594.593	17938.94
594.952	18021.19
595.311	17914.08
595.67	17987.52
596.029	17945.94
596.387	18014.64
596.746	17967.86
597.104	17928.31
597.463	17931.25
597.822	17960.63
598.18	17888.09
598.538	17902.1
598.897	18020.51
599.255	17804.7
599.613	18104.81
599.972	17902.33
600.33	17939.84
600.688	17924.02
601.046	17998.14
601.404	17972.15
601.762	17984.58
602.12	17950.91
602.478	17961.76
602.836	17993.4
603.194	17883.8
603.552	17937.81
603.91	17954.98
604.268	18034.98
604.625	17958.6
604.983	18071.81
605.341	17921.53
605.698	18002.21
606.056	18080.4
606.413	18030.46
606.771	18111.81
607.128	18068.42
607.485	18119.5
607.843	18065.26
608.2	18157.69
608.557	18174.41
608.914	18087.18
609.272	18144.35
609.629	18128.76
609.986	18192.71
610.343	18150.91
610.7	18305.25
611.057	18264.12
611.414	18243.56
611.771	18377.34
612.127	18282.65
612.484	18334.86
612.841	18320.17
613.198	18267.97
613.554	18411.92
613.911	18410.34
614.267	18425.7
614.624	18399.26
614.98	18379.83
615.337	18502.08
615.693	18499.37
616.05	18473.38
616.406	18542.54
616.762	18503.21
617.118	18535.76
617.475	18512.48
617.831	18579.6
618.187	18510.45
618.543	18639.71
618.899	18668.41
619.255	18583.89
619.611	18608.07
619.967	18722.64
620.323	18731.23
620.678	18672.7
621.034	18554.74
621.39	18610.33
621.746	18422.76
622.101	18801.29
622.457	18624.57
622.812	18735.98
623.168	18749.76
623.523	18698.46
623.879	18814.84
624.234	18624.79
624.589	18732.36
624.945	18787.73
625.3	18853.94
625.655	18720.84
626.01	18798.57
626.365	18831.79
626.72	18745.02
627.075	18798.35
627.43	18803.55
627.785	18632.7
628.14	18643.1
628.495	18726.71
628.85	18644.68
629.205	18656.43
629.559	18712.25
629.914	18702.08
630.269	18620.73
630.623	18611.01
630.978	18624.57
631.332	18693.04
631.687	18707.05
632.041	18684.45
632.396	18617.79
632.75	18526.94
633.104	18614.62
633.459	18521.29
633.813	18541.41
634.167	18525.59
634.521	18559.71
634.875	18445.36
635.229	18484.23
635.583	18388.41
635.937	18417.34
636.291	18390.45
636.645	18397.45
636.999	18302.54
637.352	18385.48
637.706	18324.01
638.06	18300.06
638.413	18288.76
638.767	18232.94
639.121	18283.78
639.474	18197.69
639.828	18160.17
640.181	18176.89
640.534	18268.19
640.888	18221.64
641.241	18034.53
641.594	18150.91
641.947	18212.37
642.301	18121.08
642.654	18044.92
643.007	18062.55
643.36	18164.01
643.713	18133.28
644.066	18098.7
644.419	18024.36
644.771	17967.41
645.124	17769.9
645.477	17678.83
645.83	17647.64
646.182	17593.18
646.535	17427.54
646.888	17500.08
647.24	17460.98
647.593	17508.66
647.945	17490.81
648.298	17440.87
648.65	17547.08
649.002	17359.97
649.355	17492.17
649.707	17469.12
650.059	17529.23
650.411	17730.8
650.763	17757.02
651.115	17861.2
651.467	17865.94
651.819	17926.73
652.171	17791.14
652.523	17847.64
652.875	17770.58
653.227	17772.84
653.578	17906.17
653.93	17794.31
654.282	17742.78
654.633	17758.37
654.985	17779.62
655.337	17765.61
655.688	17821.65
656.039	17875.43
656.391	17679.96
656.742	17700.07
657.094	17743.91
657.445	17841.54
657.796	17809.45
658.147	17735.1
658.498	17811.03
658.849	17860.07
659.2	17883.8
659.551	17810.35
659.902	17822.33
660.253	17829.79
660.604	17946.39
660.955	17665.27
661.306	17834.31
661.656	17729
662.007	17800.41
662.358	17749.11
662.708	17719.51
663.059	17855.1
663.409	17723.8
663.76	17855.77
664.11	17845.15
664.461	17915.43
664.811	17829.11
665.161	17825.72
665.511	17696.68
665.862	17813.06
666.212	17842.89
666.562	17875.66
666.912	17764.48
667.262	17823.01
667.612	17821.65
667.962	17828.88
668.312	17858.03
668.662	17885.83
669.011	17834.98
669.361	17830.01
669.711	17843.12
670.06	17781.88
670.41	17718.83
670.76	17788.43
671.109	17750.92
671.459	17861.87
671.808	17788.43
672.157	17864.36
672.507	17673.18
672.856	17717.92
673.205	17755.89
673.554	17810.8
673.904	17708.88
674.253	17750.47
674.602	17721.31
674.951	17415.11
675.3	17413.53
675.649	17676.57
675.998	17678.83
676.346	17660.07
676.695	17727.19
677.044	17564.26
677.393	17620.53
677.741	17541.88
678.09	17581.88
678.438	17465.73
678.787	17486.29
679.135	17583.46
679.484	17383.92
679.832	17436.8
680.181	17345.73
680.529	17396.58
680.877	17436.35
681.225	17208.78
681.573	17383.47
681.922	17224.83
682.27	17204.94
682.618	17178.28
682.966	17098.05
683.314	17216.69
683.661	17205.62
684.009	17015.34
684.357	17053.53
684.705	16957.04
685.053	17030.71
685.4	17031.39
685.748	16933.76
686.095	16927.21
686.443	16793.2
686.79	16769.93
687.138	16775.12
687.485	16847.66
687.832	16785.07
688.18	16701
688.527	16627.33
688.874	16593.43
689.221	16567.22
689.568	16525.19
689.915	16475.7
690.262	16514.34
690.609	16363.16
690.956	16321.8
691.303	16281.8
691.65	16309.15
691.997	16230.96
692.344	16043.39
692.69	16033.45
693.037	16090.4
693.383	15911.64
693.73	15978.31
694.077	15966.56
694.423	15796.84
694.769	15729.5
695.116	15800.91
695.462	15688.37
695.808	15636.62
696.155	15680.69
696.501	15556.17
696.847	15561.14
697.193	15416.06
697.539	15525.21
697.885	15331.55
698.231	15257.2
698.577	15244.09
698.923	15188.5
699.269	15119.35
699.614	15097.88
699.96	15043.42
700.306	15087.48
700.651	14943.31
700.997	14872.58
701.342	14820.82
701.688	14798.68
702.033	14735.86
702.379	14757.78
702.724	14713.94
703.069	14661.28
703.415	14521.85
703.76	14466.94
704.105	14450.44
704.45	14449.31
704.795	14425.58
705.14	14272.82
705.485	14272.14
705.83	14233.5
706.175	14210.22
706.52	14100.62
706.865	14160.05
707.209	14092.48
707.554	14025.37
707.899	13978.59
708.243	14133.84
708.588	14015.42
708.932	13759.61
709.277	13775.88
709.621	13765.71
709.966	13828.08
710.31	13781.98
710.654	13634.42
710.998	13584.7
711.342	13682.1
711.687	13595.77
712.031	13556.45
712.375	13473.74
712.719	13489.33
713.063	13415.21
713.407	13504.7
713.75	13461.99
714.094	13385.61
714.438	13401.88
714.782	13353.52
715.125	13303.35
715.469	13243.69
715.812	13212.05
716.156	13141.77
716.499	13115.33
716.843	13209.12
717.186	13046.18
717.53	13166.41
717.873	13114.88
718.216	13095.9
718.559	13045.28
718.902	12952.4
719.246	13015.9
719.589	13005.51
719.932	12980.87
720.275	12958.05
720.617	12931.84
720.96	12902.46
721.303	12914.66
721.646	12967.99
721.989	12800.77
722.331	12851.16
722.674	12895
723.016	12796.92
723.359	12811.84
723.701	12801.67
724.044	12668.11
724.386	12574.78
724.729	12720.77
725.071	12702.01
725.413	12676.02
725.755	12632.86
726.097	12670.37
726.439	12572.97
726.782	12607.55
727.124	12647.32
727.465	12580.43
727.807	12592.63
728.149	12575.01
728.491	12514.22
728.833	12577.72
729.175	12546.08
729.516	12562.35
729.858	12618.17
730.199	12575.69
730.541	12517.38
730.882	12499.98
731.224	12551.28
731.565	12434.45
731.906	12541.34
732.248	12491.39
732.589	12466.54
732.93	12454.79
733.271	12463.6
733.612	12401.91
733.953	12530.72
734.294	12471.96
734.635	12468.34
734.976	12515.12
735.317	12393.77
735.658	12487.78
735.999	12430.15
736.339	12461.11
736.68	12469.7
737.021	12465.41
737.361	12433.77
737.702	12529.13
738.042	12484.39
738.383	12495.69
738.723	12544.73
739.063	12558.51
739.404	12533.2
739.744	12483.94
740.084	12497.27
740.424	12561.22
740.764	12500.66
741.104	12565.52
741.444	12509.93
741.784	12522.35
742.124	12529.81
742.464	12547.66
742.804	12465.63
743.143	12555.57
743.483	12630.6
743.823	12544.27
744.162	12582.69
744.502	12665.4
744.841	12586.53
745.181	12697.72
745.52	12713.31
745.86	12751.27
746.199	12722.12
746.538	12808.22
746.877	12878.28
747.216	12912.4
747.556	12946.3
747.895	12940.2
748.234	13002.12
748.573	13068.55
748.911	13127.99
749.25	13125.5
749.589	13072.62
749.928	13303.8
750.267	13351.71
750.605	13420.18
750.944	13454.31
751.283	13479.84
751.621	13562.1
751.96	13665.6
752.298	13684.36
752.636	13839.38
752.975	13877.57
753.313	14014.74
753.651	14104.91
753.989	14126.15
754.327	14231.01
754.666	14227.85
755.004	14419.25
755.342	14522.98
755.679	14701.28
756.017	14650.66
756.355	14854.95
756.693	14943.76
757.031	14999.8
757.368	15143.08
757.706	15263.53
758.044	15372.22
758.381	15535.38
758.719	15513.46
759.056	15703.06
759.394	15803.17
759.731	15837.97
760.068	16004.3
760.405	16073.22
760.743	16015.37
761.08	16235.7
761.417	16336.27
761.754	16474.34
762.091	16630.04
762.428	16561.57
762.765	16701.45
763.102	16863.94
763.438	16902.58
763.775	16990.94
764.112	17119.75
764.449	17248.11
764.785	17318.16
765.122	17298.73
765.458	17345.96
765.795	17488.78
766.131	17527.65
766.467	17562.9
766.804	17650.36
767.14	17658.26
767.476	17754.76
767.812	17872.72
768.148	18001.98
768.485	18000.85
768.821	17997.24
769.157	18081.98
769.492	18095.54
769.828	18156.56
770.164	18018.71
770.5	18173.28
770.836	18176.44
771.171	18208.98
771.507	18310.9
771.842	18204.92
772.178	18208.76
772.513	18353.39
772.849	18331.47
773.184	18253.73
773.519	18322.88
773.855	18349.77
774.19	18363.56
774.525	18268.42
774.86	18299.83
775.195	18437.45
775.53	18360.39
775.865	18214.41
776.2	18204.01
776.535	18177.12
776.87	18336.44
777.205	18146.16
777.539	18178.02
777.874	18242.2
778.209	18175.77
778.543	18102.55
778.878	18110
779.212	18085.37
779.547	18095.54
779.881	18126.05
780.215	18001.76
780.55	18015.09
780.884	17995.66
781.218	17990.23
781.552	18038.37
781.886	17962.66
782.22	17813.06
782.554	17766.06
782.888	17747.08
783.222	17727.42
783.556	17626.85
783.889	17633.18
784.223	17524.48
784.557	17555.22
784.89	17554.76
785.224	17460.08
785.557	17370.59
785.891	17409.23
786.224	17271.16
786.558	17314.32
786.891	17143.25
787.224	17178.05
787.557	17138.05
787.891	17036.81
788.224	17049.69
788.557	17179.41
788.89	17094.89
789.223	16992.52
789.556	16916.14
789.888	16915.01
790.221	16747.1
790.554	16643.83
790.887	16754.33
791.219	16647.67
791.552	16590.72
791.884	16670.95
792.217	16532.64
792.549	16515.92
792.882	16410.61
793.214	16360.67
793.546	16434.79
793.879	16372.65
794.211	16243.84
794.543	16292.42
794.875	16165.87
795.207	16224.4
795.539	16100.79
795.871	16101.47
796.203	15936.95
796.535	15907.12
796.867	15905.32
797.198	15839.1
797.53	15812.89
797.862	15793.23
798.193	15834.36
798.525	15737.41
798.856	15750.29
799.188	15547.36
799.519	15533.8
799.85	15487.7
800.182	15529.05
800.513	15478.21
800.844	15382.84
801.175	15418.78
801.506	15409.96
801.837	15305.33
802.168	15303.75
802.499	15136.75
802.83	15139.01
803.161	15137.43
803.491	15038.22
803.822	15085.45
804.153	14953.25
804.483	14878.45
804.814	14821.5
805.145	14842.52
805.475	14790.32
805.805	14711.45
806.136	14708.74
806.466	14762.97
806.796	14698.57
807.126	14598.01
807.457	14494.28
807.787	14477.33
808.117	14531.57
808.447	14452.93
808.777	14453.38
809.107	14404.34
809.436	14392.59
809.766	14419.25
810.096	14318.69
810.426	14214.74
810.755	14270.33
811.085	14224
811.414	14240.28
811.744	14119.6
812.073	14061.97
812.403	14145.59
812.732	13961.19
813.061	13978.14
813.39	13977.91
813.719	13981.75
814.049	13961.86
814.378	13902.88
814.707	13858.82
815.036	13792.38
815.365	13674.64
815.693	13642.32
816.022	13704.02
816.351	13659.05
816.68	13565.49
817.008	13633.29
817.337	13500.86
817.665	13495.89
817.994	13532.5
818.322	13475.55
818.651	13371.15
818.979	13287.08
819.307	13393.29
819.636	13361.2
819.964	13257.7
820.292	13282.56
820.62	13281.88
820.948	13268.1
821.276	13272.39
821.604	13288.21
821.932	13257.93
822.259	13252.5
822.587	13245.73
822.915	13144.94
823.243	13291.6
823.57	13302.9
823.898	13243.92
824.225	13144.26
824.553	13225.84
824.88	13158.04
825.207	13216.8
825.535	13166.18
825.862	13249.34
826.189	13141.32
826.516	13181.09
826.843	13212.28
827.17	13216.35
827.497	13277.81
827.824	13210.25
828.151	13276.91
828.478	13211.15
828.805	13243.01
829.131	13206.63
829.458	13232.62
829.785	13133.64
830.111	13151.26
830.438	13232.84
830.764	13177.7
831.09	13282.33
831.417	13122.79
831.743	13245.95
832.069	13110.59
832.395	13095.45
832.722	13066.75
833.048	13144.03
833.374	13155.33
833.7	13156.69
834.026	13080.76
834.351	13150.36
834.677	13143.58
835.003	13123.47
835.329	13091.6
835.654	13008.67
835.98	13023.58
836.306	12981.55
836.631	13019.97
836.956	12970.48
837.282	12975.22
837.607	12982.91
837.932	12890.71
838.258	12910.37
838.583	12869.46
838.908	12853.42
839.233	12854.77
839.558	12815.23
839.883	12709.47
840.208	12755.34
840.533	12764.16
840.858	12746.3
841.182	12750.82
841.507	12641.9
841.832	12564.61
842.156	12598.28
842.481	12557.83
842.805	12607.32
843.13	12457.95
843.454	12565.29
843.778	12417.27
844.103	12459.53
844.427	12415.46
844.751	12388.8
845.075	12422.47
845.399	12308.57
845.723	12241.46
846.047	12290.04
846.371	12172.31
846.695	12145.64
847.019	12125.98
847.343	12081.01
847.666	11956.72
847.99	12015.7
848.313	11933.67
848.637	11800.57
848.96	11870.39
849.284	11804.18
849.607	11668.37
849.931	11728.7
850.254	11590.85
850.577	11475.15
850.9	11443.96
851.223	11397.86
851.546	11443.06
851.869	11300.47
852.192	11391.31
852.515	11298.88
852.838	11240.35
853.161	11250.75
853.483	11168.72
853.806	11092.56
854.129	11075.84
854.451	11068.16
854.774	10976.86
855.096	11017.08
855.419	10968.72
855.741	10907.03
856.063	10897.54
856.385	10857.31
856.708	10815.28
857.03	10788.61
857.352	10767.15
857.674	10744.32
857.996	10678.11
858.318	10677.66
858.64	10650.54
858.961	10612.35
859.283	10483.54
859.605	10557.89
859.926	10484.67
860.248	10480.15
860.57	10454.39
860.891	10394.27
861.212	10383.88
861.534	10374.16
861.855	10356.76
862.176	10356.31
862.498	10386.59
862.819	10285.13
863.14	10215.97
863.461	10278.8
863.782	10250.55
864.103	10204.9
864.424	10165.35
864.745	10180.95
865.065	10169.87
865.386	10108.18
865.707	10097.56
866.027	10089.42
866.348	10046.04
866.668	10054.4
866.989	9997.22
867.309	9994.51
867.63	10018.24
867.95	9981.63
868.27	9884.46
868.59	9875.19
868.91	9901.63
869.23	9843.78
869.55	9828.64
869.87	9927.17
870.19	9842.65
870.51	9887.4
870.83	9947.96
871.15	9787.51
871.469	9799.49
871.789	9832.48
872.109	9827.28
872.428	9801.52
872.748	9834.52
873.067	9693.73
873.386	9799.71
873.706	9729.66
874.025	9649.89
874.344	9620.51
874.663	9700.51
874.982	9638.36
875.301	9650.57
875.62	9555.65
875.939	9534.64
876.258	9589.32
876.577	9503
876.896	9514.52
877.214	9472.49
877.533	9514.3
877.852	9499.38
878.17	9479.95
878.489	9516.33
878.807	9501.87
879.125	9386.39
879.444	9403.79
879.762	9383.45
880.08	9358.14
880.398	9338.03
880.716	9362.44
881.034	9291.48
881.352	9325.15
881.67	9301.65
881.988	9259.62
882.306	9265.04
882.624	9217.13
882.941	9202.67
883.259	9190.92
883.577	9162.44
883.894	9134.42
884.212	9139.39
884.529	9117.02
884.846	9084.25
885.164	9079.73
885.481	9005.61
885.798	9064.37
886.115	9014.42
886.432	8939.4
886.75	8916.8
887.067	8936.91
887.383	8907.53
887.7	8907.99
888.017	8818.95
888.334	8847.87
888.651	8907.53
888.967	8776.92
889.284	8766.75
889.6	8731.49
889.917	8687.2
890.233	8651.5
890.55	8650.59
890.866	8617.15
891.182	8679.97
891.498	8573.08
891.815	8548
892.131	8523.14
892.447	8512.06
892.763	8540.31
893.079	8460.54
893.395	8491.73
893.71	8400.88
894.026	8404.95
894.342	8361.56
894.657	8366.98
894.973	8350.94
895.289	8275.01
895.604	8318.4
895.92	8256.48
896.235	8237.72
896.55	8266.65
896.865	8258.96
897.181	8153.43
897.496	8148.91
897.811	8044.05
898.126	8115.92
898.441	8068.23
898.756	7988.01
899.071	7948.24
899.386	7996.15
899.7	7898.52
900.015	7918.18
900.33	7782.37
900.644	7804.29
900.959	7828.47
901.273	7789.6
901.588	7691.07
901.902	7717.06
902.216	7713.44
902.531	7671.41
902.845	7606.55
903.159	7572.43
903.473	7578.3
903.787	7535.37
904.101	7440
904.415	7517.74
904.729	7420.57
905.042	7410.4
905.356	7326.11
905.67	7324.98
905.984	7311.42
906.297	7341.02
906.611	7276.16
906.924	7273.68
907.237	7272.1
907.551	7229.84
907.864	7117.75
908.177	7156.39
908.491	7105.1
908.804	7108.71
909.117	7054.02
909.43	7031.43
909.743	6988.94
910.056	6996.4
910.368	6932.22
910.681	6886.34
910.994	6924.08
911.307	6879.79
911.619	6836.4
911.932	6884.99
912.244	6755.95
912.557	6804.09
912.869	6741.04
913.181	6717.99
913.494	6683.64
913.806	6582.17
914.118	6602.96
914.43	6614.71
914.742	6589.18
915.054	6489.29
915.366	6505.56
915.678	6495.17
915.99	6431.67
916.302	6421.95
916.613	6405.68
916.925	6416.75
917.236	6384.21
917.548	6327.94
917.859	6285.46
918.171	6270.09
918.482	6260.37
918.794	6210.66
919.105	6254.27
919.416	6207.49
919.727	6140.15
920.038	6163.88
920.349	6131.11
920.66	6084.56
920.971	6039.81
921.282	6037.55
921.593	5985.13
921.903	5920.04
922.214	5955.75
922.525	5937.44
922.835	5848.63
923.146	5835.3
923.456	5869.2
923.767	5846.6
924.077	5799.82
924.387	5790.1
924.697	5771.8
925.008	5767.28
925.318	5706.71
925.628	5680.95
925.938	5705.58
926.248	5618.36
926.558	5605.7
926.867	5633.27
927.177	5600.73
927.487	5551.46
927.796	5454.52
928.106	5488.64
928.416	5470.56
928.725	5462.43
929.034	5464.69
929.344	5413.39
929.653	5413.61
929.962	5336.1
930.271	5358.93
930.581	5292.26
930.89	5276.44
931.199	5245.94
931.508	5259.72
931.817	5218.82
932.125	5235.31
932.434	5221.08
932.743	5157.12
933.051	5146.28
933.36	5139.95
933.669	5060.18
933.977	5066.05
934.286	5049.78
934.594	5045.04
934.902	4951.71
935.21	4986.51
935.519	4997.13
935.827	4962.55
936.135	4911.71
936.443	4853.63
936.751	4870.13
937.059	4882.33
937.367	4828.09
937.674	4824.25
937.982	4831.03
938.29	4792.16
938.597	4785.61
938.905	4734.99
939.213	4713.29
939.52	4705.61
939.827	4709
940.135	4706.06
940.442	4644.6
940.749	4680.75
941.056	4655.44
941.363	4594.43
941.67	4560.3
941.977	4573.86
942.284	4509.68
942.591	4507.42
942.898	4477.37
943.205	4476.01
943.511	4439.4
943.818	4438.73
944.125	4397.82
944.431	4381.55
944.738	4390.14
945.044	4335
945.35	4400.53
945.657	4320.54
945.963	4324.6
946.269	4250.26
946.575	4273.08
946.881	4244.38
947.187	4268.79
947.493	4228.34
947.799	4176.59
948.105	4144.04
948.41	4159.64
948.716	4139.3
949.022	4124.38
949.327	4059.53
949.633	4075.57
949.938	4091.39
950.244	4068.79
950.549	4031.28
950.854	3993.99
951.16	4035.12
951.465	3970.26
951.77	3969.58
952.075	3943.37
952.38	3959.64
952.685	3926.2
952.99	3877.16
953.294	3902.69
953.599	3882.58
953.904	3840.32
954.209	3830.83
954.513	3806.88
954.818	3800.55
955.122	3771.17
955.426	3721.23
955.731	3773.21
956.035	3736.6
956.339	3720.55
956.643	3690.72
956.948	3714
957.252	3677.62
957.556	3642.59
957.86	3615.92
958.163	3622.48
958.467	3617.05
958.771	3582.25
959.075	3589.26
959.378	3553.78
959.682	3587.45
959.985	3522.59
960.289	3512.87
960.592	3517.39
960.896	3490.5
961.199	3480.78
961.502	3482.37
961.805	3435.81
962.108	3455.93
962.411	3395.36
962.714	3373.22
963.017	3368.7
963.32	3385.42
963.623	3353.56
963.926	3351.3
964.228	3334.35
964.531	3316.04
964.833	3307
965.136	3281.92
965.438	3253.9
965.741	3203.73
966.043	3265.42
966.345	3262.94
966.648	3238.08
966.95	3190.62
967.252	3240.11
967.554	3161.02
967.856	3155.59
968.158	3132.77
968.46	3170.06
968.761	3126.67
969.063	3102.49
969.365	3061.36
969.666	3069.27
969.968	3044.41
970.269	3040.12
970.571	3061.36
970.872	3017.29
971.174	3035.82
971.475	2986.11
971.776	2997.41
972.077	2977.29
972.378	2972.77
972.679	2949.72
972.98	2947.69
973.281	2917.86
973.582	2882.83
973.883	2925.77
974.183	2892.78
974.484	2886
974.785	2857.98
975.085	2864.98
975.386	2823.85
975.686	2841.48
975.986	2825.43
976.287	2816.17
976.587	2788.82
976.887	2785.44
977.187	2754.48
977.487	2775.94
977.787	2703.86
978.087	2740.01
978.387	2723.97
978.687	2695.27
978.987	2679
979.286	2658.66
979.586	2627.93
979.885	2642.84
980.185	2636.74
980.484	2635.61
980.784	2616.17
981.083	2629.51
981.382	2608.26
981.682	2616.17
981.981	2603.07
982.28	2557.42
982.579	2548.83
982.878	2547.7
983.177	2531.66
983.475	2553.35
983.774	2510.41
984.073	2457.53
984.372	2472.45
984.67	2501.6
984.969	2492.56
985.267	2463.64
985.566	2420.25
985.864	2400.13
986.162	2418.44
986.461	2435.16
986.759	2417.31
987.057	2397.2
987.355	2374.15
987.653	2376.86
987.951	2376.63
988.249	2352.9
988.547	2357.65
988.844	2335.96
989.142	2333.47
989.44	2310.19
989.737	2286.92
990.035	2305.45
990.332	2275.39
990.63	2297.31
990.927	2258.44
991.224	2265.45
991.521	2237.88
991.819	2238.33
992.116	2234.04
992.413	2222.06
992.71	2203.76
993.006	2177.54
993.303	2175.28
993.6	2179.35
993.897	2188.39
994.193	2168.28
994.49	2127.6
994.787	2144.1
995.083	2086.92
995.379	2108.39
995.676	2078.56
995.972	2069.07
996.268	2086.47
996.565	2063.19
996.861	2082.63
997.157	2033.82
997.453	2036.53
997.749	2051.9
998.044	2019.58
998.34	1992.91
998.636	1990.65
998.932	1963.31
999.227	1997.89
999.523	1972.8
999.818	1946.36
1000.114	1950.2
1000.409	1944.78
1000.704	1889.87
1001	1913.82
1001.295	1928.96
1001.59	1901.39
1001.885	1874.05
1002.18	1858.45
1002.475	1866.36
1002.77	1850.54
1003.065	1851.67
1003.359	1844.44
1003.654	1846.48
1003.949	1833.6
1004.243	1796.99
1004.538	1749.76
1004.832	1781.39
1005.127	1782.3
1005.421	1761.96
1005.715	1772.13
1006.009	1776.42
1006.304	1750.21
1006.598	1714.05
1006.892	1735.97
1007.186	1702.98
1007.48	1700.04
1007.773	1703.88
1008.067	1692.81
1008.361	1681.28
1008.655	1660.04
1008.948	1678.8
1009.242	1641.96
1009.535	1657.33
1009.829	1634.05
1010.122	1609.87
1010.415	1615.75
1010.708	1622.08
1011.001	1610.32
1011.295	1579.82
1011.588	1592.47
1011.881	1584.56
1012.173	1551.8
1012.466	1555.64
1012.759	1547.05
1013.052	1545.02
1013.344	1525.58
1013.637	1528.75
1013.93	1516.32
1014.222	1488.75
1014.514	1463.66
1014.807	1475.41
1015.099	1484.23
1015.391	1473.38
1015.683	1438.13
1015.976	1440.84
1016.268	1415.08
1016.56	1403.32
1016.851	1436.32
1017.143	1404.45
1017.435	1397.45
1017.727	1404.91
1018.018	1377.34
1018.31	1403.78
1018.602	1383.89
1018.893	1361.52
1019.185	1331.01
1019.476	1356.32
1019.767	1326.72
1020.058	1334.85
1020.35	1286.04
1020.641	1287.85
1020.932	1301.18
1021.223	1286.94
1021.514	1290.79
1021.804	1256.66
1022.095	1236.32
1022.386	1281.75
1022.677	1276.77
1022.967	1254.63
1023.258	1253.72
1023.548	1211.92
1023.839	1229.77
1024.129	1201.97
1024.419	1219.83
1024.709	1198.58
1025	1190.67
1025.29	1195.42
1025.58	1162.88
1025.87	1167.4
1026.16	1174.18
1026.449	1140.51
1026.739	1157.68
1027.029	1142.99
1027.319	1126.5
1027.608	1133.05
1027.898	1097.12
1028.187	1102.54
1028.477	1115.42
1028.766	1098.7
1029.055	1101.64
1029.344	1066.84
1029.634	1080.17
1029.923	1079.94
1030.212	1066.16
1030.501	1070.45
1030.79	1046.95
1031.078	1053.5
1031.367	1024.13
1031.656	1046.72
1031.945	1027.74
1032.233	1015.76
1032.522	1000.17
1032.81	1013.96
1033.099	1010.34
1033.387	1006.5
1033.675	1047.63
1033.963	968.76
1034.251	940.29
1034.54	980.74
1034.828	961.75
1035.116	957.91
1035.403	968.53
1035.691	972.83
1035.979	935.99
1036.267	940.51
1036.554	923.11
1036.842	943
1037.129	931.02
1037.417	906.16
1037.704	912.72
1037.992	897.8
1038.279	902.09
1038.566	873.4
1038.853	873.4
1039.14	873.4
