Data from hue_28_FLMS001491_00013.txt Node
Date: Tue Feb 07 17:16:55 GMT 2017
User: dcchb
Spectrometer: FLMS00149
Trigger mode: 0
Integration Time (sec): 2.000000E-2
Scans to average: 10
Electric dark correction enabled: true
Nonlinearity correction enabled: false
Boxcar width: 0
XAxis mode: Wavelengths
Number of Pixels in Spectrum: 2048
>>>>>Begin Spectral Data<<<<<
341.393	-30.42
341.776	-30.42
342.16	-30.42
342.543	-73.13
342.927	-73.36
343.31	-69.29
343.693	-59.12
344.077	-68.84
344.46	-78.78
344.843	-59.35
345.226	-41.5
345.61	-33.81
345.993	12.74
346.376	-5.11
346.759	-2.63
347.142	26.52
347.525	34.66
347.908	59.07
348.291	83.47
348.674	91.38
349.057	110.59
349.44	123.47
349.823	147.2
350.206	146.07
350.588	201.21
350.971	226.52
351.354	236.91
351.737	228.33
352.119	243.92
352.502	256.12
352.884	263.35
353.267	283.02
353.65	287.08
354.032	312.84
354.414	321.43
354.797	316.91
355.179	330.25
355.562	320.08
355.944	316.23
356.326	329.12
356.709	328.44
357.091	330.47
357.473	357.36
357.855	342.22
358.238	330.02
358.62	323.69
359.002	354.65
359.384	347.65
359.766	330.25
360.148	344.26
360.53	323.69
360.912	348.55
361.294	326.86
361.676	328.66
362.057	320.08
362.439	318.72
362.821	325.73
363.203	318.95
363.584	312.39
363.966	319.85
364.348	330.92
364.729	295.67
365.111	315.1
365.493	316.91
365.874	323.24
366.256	321.88
366.637	306.29
367.019	310.59
367.4	315.56
367.781	318.49
368.163	305.61
368.544	303.58
368.925	303.58
369.306	322.79
369.688	312.84
370.069	309
370.45	332.96
370.831	311.71
371.212	323.24
371.593	329.57
371.974	329.79
372.355	321.21
372.736	311.94
373.117	346.06
373.498	318.72
373.879	304.03
374.26	322.56
374.641	298.61
375.021	308.78
375.402	329.34
375.783	313.97
376.163	314.88
376.544	326.18
376.925	309.68
377.305	332.96
377.686	318.04
378.066	308.78
378.447	329.34
378.827	313.3
379.208	333.18
379.588	335.44
379.968	316.91
380.349	309
380.729	329.57
381.109	332.05
381.489	350.13
381.87	328.21
382.25	330.47
382.63	319.85
383.01	338.15
383.39	307.42
383.77	342.45
384.15	348.32
384.53	333.64
384.91	345.16
385.29	340.87
385.67	344.26
386.049	352.39
386.429	343.35
386.809	339.28
387.189	343.13
387.568	357.36
387.948	353.07
388.328	330.7
388.707	346.29
389.087	356.46
389.466	362.56
389.846	384.03
390.225	352.39
390.605	357.14
390.984	340.64
391.363	363.24
391.743	370.02
392.122	360.08
392.501	346.74
392.881	372.28
393.26	380.87
393.639	355.78
394.018	379.74
394.397	372.73
394.776	378.38
395.155	370.47
395.534	393.29
395.913	369.11
396.292	388.78
396.671	390.58
397.05	394.65
397.429	395.55
397.808	377.02
398.186	374.31
398.565	369.11
398.944	358.27
399.323	370.02
399.701	375.89
400.08	377.02
400.458	379.06
400.837	414.54
401.215	367.31
401.594	389.91
401.972	398.04
402.351	412.28
402.729	401.2
403.107	396.68
403.486	381.54
403.864	383.8
404.242	420.86
404.62	419.51
404.999	411.6
405.377	422.22
405.755	401.2
406.133	408.44
406.511	435.1
406.889	426.29
407.267	408.66
407.645	423.12
408.023	424.25
408.401	423.58
408.779	443.69
409.156	417.7
409.534	453.86
409.912	446.4
410.29	451.15
410.667	453.41
411.045	445.5
411.422	458.15
411.8	442.78
412.178	470.13
412.555	451.15
412.933	457.25
413.31	444.82
413.687	467.19
414.065	475.1
414.442	462.22
414.819	475.55
415.197	469.68
415.574	482.78
415.951	476
416.328	468.77
416.705	487.08
417.082	495.44
417.46	491.82
417.837	463.58
418.214	483.46
418.591	483.91
418.967	496.57
419.344	501.09
419.721	499.51
420.098	501.77
420.475	506.29
420.852	517.59
421.228	521.43
421.605	511.03
421.982	514.87
422.358	527.08
422.735	520.75
423.111	533.4
423.488	522.78
423.864	528.43
424.241	534.08
424.617	522.78
424.994	547.41
425.37	525.95
425.746	548.54
426.123	559.84
426.499	556.45
426.875	545.16
427.251	558.04
427.627	562.56
428.003	572.73
428.379	579.5
428.756	571.37
429.132	561.65
429.507	599.84
429.883	593.52
430.259	579.28
430.635	600.75
431.011	595.78
431.387	592.84
431.763	598.49
432.138	640.29
432.514	625.15
432.89	633.51
433.265	622.67
433.641	630.8
434.016	636.68
434.392	643.23
434.767	660.86
435.143	659.5
435.518	678.71
435.894	696.56
436.269	676.9
436.644	687.07
437.02	657.24
437.395	698.37
437.77	686.39
438.145	684.59
438.52	700.86
438.895	694.98
439.271	701.76
439.646	710.8
440.021	729.33
440.395	716
440.77	696.56
441.145	716
441.52	754.19
441.895	720.07
442.27	742.44
442.645	739.95
443.019	761.19
443.394	755.77
443.769	718.26
444.143	748.31
444.518	782.89
444.892	763.91
445.267	758.26
445.641	762.1
446.016	780.18
446.39	792.38
446.764	797.35
447.139	793.06
447.513	798.48
447.887	795.77
448.262	806.62
448.636	783.79
449.01	819.05
449.384	810.46
449.758	826.28
450.132	839.61
450.506	823.57
450.88	827.63
451.254	823.79
451.628	857.46
452.002	866.28
452.376	879.16
452.75	857.69
453.123	878.93
453.497	887.07
453.871	885.26
454.244	909.67
454.618	908.99
454.992	910.57
455.365	902.21
455.739	929.33
456.112	932.04
456.486	944.01
456.859	943.34
457.232	960.96
457.606	982.66
457.979	986.95
458.352	1023.33
458.725	1025.37
459.099	1000.51
459.472	1024.46
459.845	1050.23
460.218	1039.61
460.591	1044.58
460.964	1044.13
461.337	1079.6
461.71	1090.23
462.083	1118.47
462.456	1104.01
462.829	1106.95
463.201	1101.3
463.574	1134.07
463.947	1134.29
464.32	1171.13
464.692	1180.17
465.065	1159.6
465.438	1190.79
465.81	1210.45
466.183	1205.48
466.555	1229.2
466.928	1257.45
467.3	1254.97
467.672	1285.02
468.045	1292.93
468.417	1332.03
468.789	1321.63
469.161	1336.55
469.534	1356.43
469.906	1378.35
470.278	1396.21
470.65	1400.05
471.022	1459.26
471.394	1474.62
471.766	1450.89
472.138	1486.6
472.51	1534.96
472.882	1531.57
473.253	1552.36
473.625	1576.54
473.997	1617.9
474.369	1617.67
474.74	1663.54
475.112	1700.15
475.484	1731.56
475.855	1758.68
476.227	1781.73
476.598	1815.63
476.97	1847.49
477.341	1877.55
477.713	1920.26
478.084	1939.92
478.455	1969.98
478.827	2019.92
479.198	2079.8
479.569	2092.69
479.94	2165.9
480.311	2173.13
480.682	2224.21
481.053	2281.61
481.424	2313.7
481.795	2350.53
482.166	2432.79
482.537	2408.16
482.908	2493.13
483.279	2509.17
483.65	2581.03
484.021	2670.75
484.391	2700.13
484.762	2688.6
485.133	2747.58
485.503	2839.11
485.874	2900.8
486.244	2912.55
486.615	3012.43
486.985	3027.35
487.356	3097.86
487.726	3112.32
488.097	3184.86
488.467	3242.94
488.837	3318.19
489.207	3360.67
489.578	3397.28
489.948	3474.34
490.318	3534.46
490.688	3560.44
491.058	3636.15
491.428	3652.64
491.798	3732.87
492.168	3788.69
492.538	3800.21
492.908	3889.02
493.278	3973.54
493.648	3989.58
494.017	4063.25
494.387	4078.4
494.757	4112.97
495.126	4212.18
495.496	4222.57
495.866	4255.57
496.235	4319.07
496.605	4374.88
496.974	4434.77
497.344	4444.94
497.713	4470.48
498.082	4491.27
498.452	4573.98
498.821	4613.07
499.19	4594.09
499.559	4679.74
499.928	4721.32
500.298	4754.76
500.667	4773.74
501.036	4793.63
501.405	4802.44
501.774	4844.93
502.143	4906.17
502.512	4971.03
502.88	4980.97
503.249	4989.78
503.618	5037.47
503.987	5042.66
504.356	5058.03
504.724	5104.36
505.093	5145.26
505.462	5182.77
505.83	5190
506.199	5236.78
506.567	5310.68
506.936	5336.89
507.304	5373.05
507.672	5409.89
508.041	5407.4
508.409	5400.17
508.777	5494.86
509.145	5524.69
509.514	5510.9
509.882	5531.24
510.25	5591.58
510.618	5587.96
510.986	5615.53
511.354	5709.99
511.722	5712.25
512.09	5778.92
512.458	5728.07
512.826	5811.23
513.193	5851.46
513.561	5828.41
513.929	5860.27
514.297	5905.47
514.664	5902.08
515.032	5946.82
515.4	5991.34
515.767	6003.09
516.135	6094.61
516.502	6039.02
516.869	6098.68
517.237	6144.1
517.604	6092.81
517.972	6139.13
518.339	6194.95
518.706	6206.93
519.073	6196.53
519.44	6232.92
519.808	6327.38
520.175	6276.08
520.542	6313.82
520.909	6360.37
521.276	6361.05
521.643	6460.25
522.009	6467.26
522.376	6567.14
522.743	6518.11
523.11	6613.7
523.477	6653.24
523.843	6677.42
524.21	6743.64
524.577	6740.7
524.943	6813.46
525.31	6781.83
525.676	6888.27
526.043	6932.33
526.409	6947.25
526.776	6964.42
527.142	6962.39
527.508	6996.28
527.874	7053.46
528.241	7096.17
528.607	7079.45
528.973	7165.32
529.339	7211.42
529.705	7276.96
530.071	7327.8
530.437	7347.01
530.803	7345.65
531.169	7415.71
531.535	7396.05
531.901	7424.07
532.267	7459.32
532.632	7482.37
532.998	7485.31
533.364	7610.28
533.73	7623.84
534.095	7685.08
534.461	7732.54
534.826	7720.11
535.192	7764.4
535.557	7806.43
535.923	7832.42
536.288	7818.86
536.653	7823.83
537.019	7907.22
537.384	7902.93
537.749	8008.69
538.114	7961.91
538.479	7991.51
538.845	8013.21
539.21	8010.72
539.575	8064.05
539.94	8151.73
540.305	8189.7
540.67	8197.61
541.034	8218.63
541.399	8274.44
541.764	8341.33
542.129	8336.81
542.494	8351.5
542.858	8398.28
543.223	8461.78
543.587	8478.96
543.952	8467.66
544.316	8506.98
544.681	8506.53
545.045	8575.23
545.41	8622.46
545.774	8701.1
546.138	8645.51
546.503	8695.68
546.867	8725.96
547.231	8799.63
547.595	8763.7
547.959	8845.5
548.324	8866.07
548.688	8818.84
549.052	8824.94
549.416	8867.2
549.779	8961.43
550.143	9015.89
550.507	9043.46
550.871	9119.62
551.235	9067.42
551.599	9159.84
551.962	9132.95
552.326	9174.31
552.689	9266.06
553.053	9189.22
553.417	9297.92
553.78	9401.87
554.143	9297.92
554.507	9289.11
554.87	9358.71
555.234	9436.45
555.597	9435.77
555.96	9389.22
556.323	9467.18
556.686	9520.96
557.05	9657.23
557.413	9523
557.776	9623.79
558.139	9659.49
558.502	9698.13
558.865	9739.72
559.228	9768.19
559.59	9777.91
559.953	9793.73
560.316	9965.47
560.679	9932.7
561.041	9948.3
561.404	9997.11
561.767	10072.59
562.129	10115.07
562.492	10106.49
562.854	10110.1
563.217	10074.4
563.579	10175.64
563.941	10239.82
564.304	10219.25
564.666	10305.35
565.028	10335.86
565.39	10314.39
565.753	10376.31
566.115	10407.72
566.477	10446.82
566.839	10543.54
567.201	10553.48
567.563	10525.01
567.925	10640.26
568.287	10579.24
568.648	10680.93
569.01	10693.81
569.372	10852.91
569.734	10834.6
570.095	10929.74
570.457	10950.08
570.819	10932
571.18	10950.53
571.542	11023.75
571.903	11035.05
572.265	11174.48
572.626	11196.4
572.987	11165.89
573.349	11291.99
573.71	11379.45
574.071	11358.66
574.432	11519.1
574.794	11616.28
575.155	11590.74
575.516	11615.37
575.877	11704.41
576.238	11765.88
576.599	11913.67
576.96	11992.99
577.32	12056.26
577.681	12132.87
578.042	12243.6
578.403	12329.93
578.763	12458.06
579.124	12521.11
579.485	12711.39
579.845	12782.8
580.206	12914.55
580.566	13000.65
580.927	13142.79
581.287	13306.63
581.648	13457.13
582.008	13611.93
582.368	13663.91
582.728	13913.62
583.089	13993.39
583.449	14212.37
583.809	14418.01
584.169	14608.97
584.529	14675.63
584.889	15027.03
585.249	15183.87
585.609	15202.62
585.969	15577.98
586.329	15721.25
586.688	16044.41
587.048	16201.92
587.408	16374.12
587.768	16717.39
588.127	16897.27
588.487	17105.4
588.846	17477.59
589.206	17638.94
589.565	17889.11
589.925	18290.9
590.284	18397.34
590.643	18665.13
591.003	19023.09
591.362	19366.81
591.721	19572.23
592.08	19770.19
592.44	20174.24
592.799	20378.31
593.158	20595.48
593.517	21037.5
593.876	21283.37
594.235	21555.45
594.593	21804.71
594.952	22212.38
595.311	22382.32
595.67	22806.04
596.029	23104.11
596.387	23432.46
596.746	23764.21
597.104	23893.92
597.463	24209.39
597.822	24581.59
598.18	24744.97
598.538	25169.37
598.897	25449.13
599.255	25598.28
599.613	26305.16
599.972	26314.65
600.33	26582.89
600.688	26961.64
601.046	27242.53
601.404	27585.12
601.762	27849.3
602.12	28188.5
602.478	28482.5
602.836	28687.24
603.194	28871.64
603.552	29102.14
603.91	29304.4
604.268	29765.63
604.625	29832.29
604.983	30115.9
605.341	30324.49
605.698	30729.22
606.056	31077.01
606.413	31012.38
606.771	31469.99
607.128	31641.06
607.485	31771.68
607.843	32119.69
608.2	32527.14
608.557	32696.17
608.914	32721.26
609.272	33172.55
609.629	33416.38
609.986	33733.21
610.343	33707.22
610.7	34233.53
611.057	34195.8
611.414	34311.27
611.771	34572.28
612.127	34795.78
612.484	35062.21
612.841	35258.82
613.198	35253.85
613.554	35416.55
613.911	35869.88
614.267	35960.04
614.624	36140.38
614.98	36261.05
615.337	36559.35
615.693	36660.36
616.05	36723.64
616.406	37160.24
616.762	37250.4
617.118	37200.24
617.475	37285.88
617.831	37621.02
618.187	37810.84
618.543	37880.44
618.899	38145.52
619.255	38221
619.611	38390.49
619.967	38539.18
620.323	38684.27
620.678	38609.01
621.034	38635
621.39	38852.17
621.746	38829.12
622.101	39306.17
622.457	39034.54
622.812	39295.32
623.168	39375.55
623.523	39440.86
623.879	39566.95
624.234	39472.95
624.589	39783.45
624.945	39731.02
625.3	39891.69
625.655	39992.03
626.01	40091.01
626.365	40088.97
626.72	40271.12
627.075	40229.54
627.43	40352.02
627.785	40251
628.14	40439.02
628.495	40496.2
628.85	40444.45
629.205	40328.52
629.559	40827.26
629.914	40544.78
630.269	40591.11
630.623	40582.07
630.978	40612.8
631.332	40787.49
631.687	40857.09
632.041	40756.08
632.396	40989.06
632.75	40724.66
633.104	41028.16
633.459	40774.15
633.813	40833.36
634.167	40823.87
634.521	40795.85
634.875	40922.85
635.229	40891.89
635.583	40710.88
635.937	40843.76
636.291	40872.46
636.645	40774.83
636.999	40692.8
637.352	41004.2
637.706	40712.01
638.06	40793.81
638.413	40695.96
638.767	40754.27
639.121	40820.71
639.474	40491.22
639.828	40755.4
640.181	40694.38
640.534	40736.41
640.888	40713.36
641.241	40658
641.594	40640.37
641.947	40875.17
642.301	40754.04
642.654	40718.79
643.007	40552.69
643.36	40719.69
643.713	40644.67
644.066	40567.83
644.419	40482.64
644.771	40305.24
645.124	40066.83
645.477	39818.47
645.83	39627.52
646.182	39590.23
646.535	39557.46
646.888	39580.96
647.24	39372.83
647.593	39638.36
647.945	39515.88
648.298	39352.27
648.65	39284.25
649.002	39214.87
649.355	39421.87
649.707	39420.29
650.059	39567.41
650.411	40010.78
650.763	39839.49
651.115	40443.54
651.467	40282.64
651.819	40186.15
652.171	40140.95
652.523	40106.37
652.875	40137.33
653.227	40071.8
653.578	40236.31
653.93	40176.66
654.282	40069.09
654.633	39874.06
654.985	39955.87
655.337	40095.98
655.688	40110.89
656.039	40083.1
656.391	39898.24
656.742	39943.22
657.094	40005.59
657.445	40156.99
657.796	40158.35
658.147	39917
658.498	40024.34
658.849	39982.31
659.2	39867.06
659.551	40018.69
659.902	40030.67
660.253	39855.08
660.604	40019.15
660.955	39865.48
661.306	40057.79
661.656	39918.36
662.007	39915.19
662.358	39991.35
662.708	39815.08
663.059	39844.91
663.409	39602.43
663.76	39954.29
664.11	39971.92
664.461	39953.16
664.811	39929.43
665.161	39787.97
665.511	39717.23
665.862	39747.06
666.212	39885.59
666.562	39802.43
666.912	39861.64
667.262	39685.37
667.612	39858.25
667.962	39825.93
668.312	39757.46
668.662	39995.42
669.011	39857.12
669.361	39849.21
669.711	39763.33
670.06	39754.29
670.41	39811.92
670.76	39846.27
671.109	39687.63
671.459	39733.5
671.808	39550.46
672.157	39673.84
672.507	39445.15
672.856	39456.9
673.205	39526.05
673.554	39525.83
673.904	39399.5
674.253	39697.12
674.602	39658.7
674.951	39009
675.3	38819.85
675.649	39411.25
675.998	39343.68
676.346	39495.54
676.695	39582.55
677.044	39266.17
677.393	39533.06
677.741	39503.23
678.09	39281.31
678.438	39303.91
678.787	39224.82
679.135	39402.44
679.484	39137.59
679.832	39170.58
680.181	39040.19
680.529	39106.18
680.877	38958.83
681.225	38964.03
681.573	39228.66
681.922	39004.71
682.27	38871.61
682.618	38899.17
682.966	38710.25
683.314	38825.28
683.661	38795.9
684.009	38559.3
684.357	38448.11
684.705	38359.75
685.053	38448.57
685.4	38481.78
685.748	38258.06
686.095	38393.43
686.443	38104.62
686.79	38109.59
687.138	38140.78
687.485	38120.89
687.832	37976.49
688.18	37899.2
688.527	37675.48
688.874	37630.28
689.221	37696.49
689.568	37676.38
689.915	37521.81
690.262	37484.52
690.609	37432.32
690.956	37284.98
691.303	37323.4
691.65	37192.1
691.997	37134.48
692.344	36853.13
692.69	36971.99
693.037	36960.02
693.383	36654.26
693.73	36855.39
694.077	36482.74
694.423	36609.29
694.769	36538.56
695.116	36387.15
695.462	36375.17
695.808	36130.21
696.155	36212.47
696.501	35835.75
696.847	35966.14
697.193	35821.29
697.539	35885.47
697.885	35557.79
698.231	35562.77
698.577	35539.26
698.923	35361.87
699.269	35413.39
699.614	35304.69
699.96	35084.36
700.306	35094.98
700.651	34887.53
700.997	34981.54
701.342	34826.51
701.688	34746.52
702.033	34567.31
702.379	34718.95
702.724	34548.78
703.069	34474.88
703.415	34242.8
703.76	34267.66
704.105	34232.4
704.45	34230.37
704.795	33967.1
705.14	33876.48
705.485	34020.89
705.83	33782.02
706.175	33694.34
706.52	33712.19
706.865	33535.93
707.209	33476.04
707.554	33552.42
707.899	33438.3
708.243	33461.13
708.588	33195.14
708.932	33048.03
709.277	33031.76
709.621	33003.51
709.966	32754.7
710.31	32820.46
710.654	32621.15
710.998	32767.58
711.342	32627.25
711.687	32554.26
712.031	32465.22
712.375	32259.35
712.719	32324.66
713.063	32315.17
713.407	32404.2
713.75	32102.52
714.094	32059.13
714.438	32047.6
714.782	31870.21
715.125	31905.69
715.469	32033.37
715.812	31786.14
716.156	31671.12
716.499	31663.43
716.843	31651
717.186	31521.74
717.53	31582.76
717.873	31538.24
718.216	31519.93
718.559	31360.16
718.902	31168.08
719.246	31301.18
719.589	31188.19
719.932	31076.1
720.275	31020.51
720.617	30992.04
720.96	30946.16
721.303	31028.42
721.646	31004.92
721.989	30735.32
722.331	30865.49
722.674	30811.93
723.016	30744.14
723.359	30768.32
723.701	30743.01
724.044	30467.08
724.386	30307.31
724.729	30546.17
725.071	30505.05
725.413	30443.13
725.755	30362
726.097	30225.28
726.439	30152.74
726.782	30157.71
727.124	30180.53
727.465	30049.01
727.807	29965.17
728.149	29952.97
728.491	30017.83
728.833	29951.84
729.175	29958.62
729.516	29818.96
729.858	29828.9
730.199	29756.36
730.541	29574.45
730.882	29706.2
731.224	29824.84
731.565	29592.3
731.906	29589.14
732.248	29649.02
732.589	29287.22
732.93	29302.82
733.271	29324.51
733.612	29475.69
733.953	29397.28
734.294	29247.45
734.635	29181.01
734.976	29240.45
735.317	29125.87
735.658	29018.53
735.999	29098.75
736.339	28975.14
736.68	29035.25
737.021	28906.67
737.361	28807.24
737.702	28933.11
738.042	28803.62
738.383	28775.37
738.723	28811.08
739.063	28717.07
739.404	28842.49
739.744	28680.69
740.084	28536.06
740.424	28614.47
740.764	28508.49
741.104	28531.99
741.444	28311.88
741.784	28405.21
742.124	28513.46
742.464	28357.08
742.804	28296.52
743.143	28200.02
743.483	28197.76
743.823	28073.92
744.162	28150.08
744.502	28107.14
744.841	27889.97
745.181	28197.99
745.52	27878.45
745.86	27941.04
746.199	27951.21
746.538	27905.79
746.877	27890.42
747.216	27852.01
747.556	27685.68
747.895	27772.91
748.234	27719.36
748.573	27673.71
748.911	27598
749.25	27534.73
749.589	27396.2
749.928	27511
750.267	27554.61
750.605	27546.93
750.944	27456.09
751.283	27332.7
751.621	27364.34
751.96	27148.75
752.298	27193.72
752.636	27250.67
752.975	27034.63
753.313	27008.87
753.651	27182.42
753.989	27000.96
754.327	26885.48
754.666	26890.68
755.004	26770.68
755.342	26935.2
755.679	26841.86
756.017	26574.75
756.355	26668.08
756.693	26480.29
757.031	26585.83
757.368	26418.37
757.706	26391.93
758.044	26225.84
758.381	26368.2
758.719	26180.87
759.056	26182.22
759.394	26150.58
759.731	25936.13
760.068	26071.72
760.405	25812.74
760.743	25730.26
761.08	25801.21
761.417	25611.16
761.754	25571.62
762.091	25513.54
762.428	25579.07
762.765	25370.04
763.102	25461.79
763.438	25311.96
763.775	25135.47
764.112	25178.41
764.449	25271.74
764.785	25054.79
765.122	24836.49
765.458	24853.67
765.795	24810.96
766.131	24884.18
766.467	24689.15
766.804	24606.44
767.14	24554.47
767.476	24495.71
767.812	24274.25
768.148	24328.94
768.485	24215.04
768.821	24097.76
769.157	24090.07
769.492	24120.58
769.828	24003.3
770.164	23814.37
770.5	23716.98
770.836	23673.81
771.171	23456.87
771.507	23488.96
771.842	23313.14
772.178	23350.43
772.513	23247.84
772.849	23132.36
773.184	22946.83
773.519	23023.21
773.855	22793.84
774.19	22767.4
774.525	22807.62
774.86	22759.49
775.195	22690.34
775.53	22500.96
775.865	22445.37
776.2	22314.53
776.535	22206.96
776.87	22155.66
777.205	22026.4
777.539	21950.02
777.874	22123.57
778.209	21879.96
778.543	21745.28
778.878	21651.04
779.212	21712.73
779.547	21461.22
779.881	21557.03
780.215	21376.92
780.55	21425.74
780.884	21302.35
781.218	21298.73
781.552	21174.9
781.886	21096.71
782.22	20973.77
782.554	20893.09
782.888	20738.07
783.222	20605.87
783.556	20614.23
783.889	20594.8
784.223	20407.46
784.557	20388.25
784.89	20423.05
785.224	20274.58
785.557	20162.04
785.891	20181.93
786.224	20120.23
786.558	20070.29
786.891	19848.15
787.224	19705.1
787.557	19769.73
787.891	19749.17
788.224	19689.96
788.557	19654.03
788.89	19665.33
789.223	19631.88
789.556	19378.33
789.888	19427.82
790.221	19352.8
790.554	19109.86
790.887	19117.55
791.219	19092.69
791.552	19028.96
791.884	18932.69
792.217	18932.69
792.549	18822.87
792.882	18671.23
793.214	18642.76
793.546	18709.2
793.879	18530.44
794.211	18387.4
794.543	18520.73
794.875	18439.15
795.207	18441.86
795.539	18339.49
795.871	18230.79
796.203	18117.12
796.535	18029.89
796.867	18008.42
797.198	17915.55
797.53	17927.3
797.862	17772.5
798.193	17840.97
798.525	17727.53
798.856	17769.79
799.188	17649.11
799.519	17481.43
799.85	17416.8
800.182	17476.24
800.513	17492.96
800.844	17304.49
801.175	17263.36
801.506	17292.06
801.837	17075.12
802.168	17217.03
802.499	17088
802.83	17005.51
803.161	16963.93
803.491	16973.65
803.822	16943.59
804.153	16902.92
804.483	16634.9
804.814	16654.34
805.145	16650.72
805.475	16676.48
805.805	16542.7
806.136	16478.52
806.466	16455.25
806.796	16404.63
807.126	16287.34
807.457	16284.85
807.787	16336.38
808.117	16207.57
808.447	16120.56
808.777	16242.37
809.107	16094.12
809.436	16075.59
809.766	16034.47
810.096	16036.05
810.426	15970.06
810.755	15962.38
811.085	15929.84
811.414	15829.05
811.744	15763.74
812.073	15731.87
812.403	15698.88
812.732	15610.75
813.061	15649.62
813.39	15510.86
813.719	15538.66
814.049	15576.17
814.378	15457.53
814.707	15496.4
815.036	15404.65
815.365	15335.73
815.693	15145.45
816.022	15195.84
816.351	15146.58
816.68	15149.52
817.008	15122.17
817.337	15017.99
817.665	14923.08
817.994	14933.03
818.322	14964.44
818.651	14895.74
818.979	14914.95
819.307	14924.21
819.636	14856.87
819.964	14670.43
820.292	14817.55
820.62	14791.33
820.948	14713.37
821.276	14725.57
821.604	14745.69
821.932	14700.72
822.259	14703.43
822.587	14615.29
822.915	14666.37
823.243	14628.17
823.57	14646.48
823.898	14620.94
824.225	14550.44
824.553	14528.97
824.88	14578.46
825.207	14655.97
825.535	14573.26
825.862	14635.18
826.189	14588.85
826.516	14690.09
826.843	14681.51
827.17	14678.34
827.497	14634.95
827.824	14593.37
828.151	14636.31
828.478	14632.02
828.805	14604.22
829.131	14658.91
829.458	14536.88
829.785	14566.48
830.111	14535.07
830.438	14686.25
830.764	14621.4
831.09	14567.39
831.417	14457.78
831.743	14598.8
832.069	14509.31
832.395	14471.12
832.722	14616.88
833.048	14446.71
833.374	14430.89
833.7	14462.53
834.026	14464.34
834.351	14460.95
834.677	14447.39
835.003	14421.63
835.329	14427.5
835.654	14362.19
835.98	14331.23
836.306	14286.49
836.631	14277.22
836.956	14304.79
837.282	14294.62
837.607	14266.83
837.932	14218.02
838.258	14100.96
838.583	14157
838.908	14097.57
839.233	14106.38
839.558	14034.52
839.883	13963.33
840.208	14000.62
840.533	13987.74
840.858	14026.38
841.182	13983.22
841.507	14021.41
841.832	13835.65
842.156	13842.43
842.481	13913.62
842.805	13772.38
843.13	13728.76
843.454	13820.96
843.778	13734.19
844.103	13688.31
844.427	13743.68
844.751	13677.69
845.075	13681.31
845.399	13607.41
845.723	13431.82
846.047	13462.33
846.371	13321.54
846.695	13375.33
847.019	13316.12
847.343	13178.27
847.666	13136.46
847.99	13037.93
848.313	13075.45
848.637	13045.62
848.96	13046.3
849.284	12874.77
849.607	12867.54
849.931	12856.92
850.254	12764.04
850.577	12753.42
850.9	12636.14
851.223	12568.79
851.546	12477.27
851.869	12441.11
852.192	12539.87
852.515	12422.36
852.838	12358.86
853.161	12401.11
853.483	12258.29
853.806	12221.46
854.129	12256.03
854.451	12171.74
854.774	12152.99
855.096	12079.77
855.419	12055.81
855.741	12069.6
856.063	12002.48
856.385	11943.95
856.708	11865.76
857.03	11869.83
857.352	11815.14
857.674	11835.25
857.996	11702.38
858.318	11707.12
858.64	11700.79
858.961	11606.56
859.283	11592.32
859.605	11536.5
859.926	11616.28
860.248	11513.23
860.57	11463.06
860.891	11536.73
861.212	11422.84
861.534	11382.84
861.855	11372.89
862.176	11341.03
862.498	11320.01
862.819	11393.23
863.14	11309.84
863.461	11268.04
863.782	11252.9
864.103	11311.43
864.424	11173.35
864.745	11167.25
865.065	11221.03
865.386	11081.6
865.707	11141.03
866.027	11129.96
866.348	11107.82
866.668	11108.04
866.989	11023.07
867.309	10993.02
867.63	10992.34
867.95	11004.32
868.27	10993.02
868.59	10978.78
868.91	10949.85
869.23	10937.88
869.55	10855.62
869.87	10903.53
870.19	10803.19
870.51	10857.88
870.83	10835.05
871.15	10718.45
871.469	10778.56
871.789	10778.56
872.109	10744.89
872.428	10739.92
872.748	10724.1
873.067	10728.84
873.386	10755.28
873.706	10638.22
874.025	10614.95
874.344	10573.14
874.663	10642.29
874.982	10607.72
875.301	10581.73
875.62	10534.27
875.939	10406.14
876.258	10555.51
876.577	10479.36
876.896	10491.11
877.214	10475.52
877.533	10491.79
877.852	10431
878.17	10475.74
878.489	10431.9
878.807	10392.35
879.125	10360.04
879.444	10348.29
879.762	10329.76
880.08	10321.17
880.398	10340.83
880.716	10278.46
881.034	10231
881.352	10298.8
881.67	10211.12
881.988	10261.74
882.306	10207.05
882.624	10191.23
882.941	10035.75
883.259	10105.81
883.577	10050.89
883.894	10021.29
884.212	10007.28
884.529	10021.52
884.846	10033.49
885.164	9975.87
885.481	9928.41
885.798	9885.93
886.115	9902.88
886.432	9914.63
886.75	9781.97
887.067	9786.72
887.383	9811.8
887.7	9818.58
888.017	9756.21
888.334	9793.95
888.651	9715.76
888.967	9665.14
889.284	9648.42
889.6	9594.18
889.917	9563.45
890.233	9547.63
890.55	9568.19
890.866	9526.39
891.182	9522.77
891.498	9417.01
891.815	9457.69
892.131	9383.79
892.447	9365.49
892.763	9336.34
893.079	9242.33
893.395	9175.89
893.71	9268.77
894.026	9271.93
894.342	9245.49
894.657	9186.06
894.973	9181.31
895.289	9183.57
895.604	9104.03
895.92	9009.11
896.235	8952.84
896.55	8977.25
896.865	8937.48
897.181	8918.49
897.496	8994.65
897.811	8856.12
898.126	8864.26
898.441	8798.05
898.756	8797.82
899.071	8746.52
899.386	8818.16
899.7	8594.21
900.015	8667.2
900.33	8558.96
900.644	8641.67
900.959	8540.43
901.273	8557.83
901.588	8540.2
901.902	8453.2
902.216	8420.43
902.531	8407.1
902.845	8395.57
903.159	8367.77
903.473	8318.96
903.787	8319.41
904.101	8230.15
904.415	8241.68
904.729	8211.17
905.042	8144.73
905.356	8161.9
905.67	8098.63
905.984	8137.72
906.297	8073.09
906.611	7989.48
906.924	7959.2
907.237	8004.39
907.551	7940.44
907.864	7946.99
908.177	7948.8
908.491	7901.8
908.804	7786.77
909.117	7766.89
909.43	7726.44
909.743	7695.25
910.056	7714.68
910.368	7632.2
910.681	7597.17
910.994	7617.06
911.307	7562.6
911.619	7490.96
911.932	7485.76
912.244	7405.99
912.557	7471.75
912.869	7410.96
913.181	7377.52
913.494	7387.01
913.806	7305.88
914.118	7292.32
914.43	7203.06
914.742	7276.05
915.054	7149.95
915.366	7151.54
915.678	7143.85
915.99	7108.15
916.302	7036.06
916.613	7037.64
916.925	7027.24
917.236	7060.69
917.548	6980.01
917.859	6949.73
918.171	6897.3
918.482	6881.03
918.794	6833.8
919.105	6850.07
919.416	6765.56
919.727	6735.73
920.038	6763.07
920.349	6682.85
920.66	6710.42
920.971	6620.93
921.282	6663.19
921.593	6610.31
921.903	6496.41
922.214	6531.66
922.525	6582.06
922.835	6448.28
923.146	6455.06
923.456	6449.86
923.767	6405.11
924.077	6432.46
924.387	6372.35
924.697	6352.01
925.008	6212.8
925.318	6274.95
925.628	6246.25
925.938	6150.88
926.248	6187.94
926.558	6157.89
926.867	6099.81
927.177	6099.13
927.487	6061.17
927.796	6028.85
928.106	6006.25
928.416	5993.15
928.725	6003.99
929.034	5912.02
929.344	5913.15
929.653	5899.59
929.962	5845.81
930.271	5834.51
930.581	5859.37
930.89	5747.05
931.199	5765.81
931.508	5772.14
931.817	5691.46
932.125	5688.07
932.434	5712.25
932.743	5705.47
933.051	5629.77
933.36	5627.06
933.669	5625.02
933.977	5521.3
934.286	5555.42
934.594	5502.99
934.902	5462.99
935.21	5444.91
935.519	5397.23
935.827	5399.26
936.135	5406.27
936.443	5328.53
936.751	5351.81
937.059	5335.31
937.367	5259.38
937.674	5280.85
937.982	5260.74
938.29	5225.48
938.597	5235.88
938.905	5175.77
939.213	5154.75
939.52	5157.69
939.827	5112.04
940.135	5103.68
940.442	5096.67
940.749	5030.69
941.056	5052.16
941.363	5020.29
941.67	5022.1
941.977	4957.69
942.284	4949.79
942.591	4947.98
942.898	4896.68
943.205	4882.89
943.511	4854.87
943.818	4886.96
944.125	4859.39
944.431	4779.85
944.738	4765.38
945.044	4783.01
945.35	4757.02
945.657	4702.11
945.963	4695.1
946.269	4688.55
946.575	4653.3
946.881	4596.35
947.187	4626.18
947.493	4584.6
947.799	4576.01
948.105	4563.81
948.41	4583.24
948.716	4524.49
949.022	4511.83
949.327	4453.98
949.633	4424.6
949.938	4467.99
950.244	4458.05
950.549	4402.23
950.854	4393.87
951.16	4386.64
951.465	4323.81
951.77	4333.3
952.075	4332.17
952.38	4354.55
952.685	4304.15
952.99	4240.43
953.294	4238.84
953.599	4225.96
953.904	4200.88
954.209	4204.04
954.513	4163.37
954.818	4107.32
955.122	4149.81
955.426	4110.49
955.731	4044.05
956.035	4097.83
956.339	4069.36
956.643	4031.84
956.948	4008.34
957.252	3999.08
957.556	3966.76
957.86	4002.47
958.163	3952.98
958.467	3929.25
958.771	3912.75
959.075	3924.73
959.378	3872.98
959.682	3921.11
959.985	3843.83
960.289	3781.45
960.592	3837.27
960.896	3816.71
961.199	3795.24
961.502	3755.24
961.805	3748.01
962.108	3730.83
962.411	3749.82
962.714	3683.38
963.017	3651.29
963.32	3710.5
963.623	3652.64
963.926	3616.71
964.228	3608.8
964.531	3613.78
964.833	3640.44
965.136	3587.56
965.438	3588.24
965.741	3544.85
966.043	3510.5
966.345	3524.96
966.648	3507.11
966.95	3476.15
967.252	3480.22
967.554	3475.93
967.856	3439.09
968.158	3430.05
968.46	3409.49
968.761	3395.7
969.063	3382.37
969.365	3377.4
969.666	3365.19
969.968	3323.61
970.269	3352.54
970.571	3331.97
970.872	3299.21
971.174	3267.57
971.475	3298.53
971.776	3252.2
972.077	3265.99
972.378	3235.25
972.679	3249.26
972.98	3188.02
973.281	3215.82
973.582	3155.03
973.883	3149.15
974.183	3170.85
974.484	3127.91
974.785	3102.15
975.085	3106.22
975.386	3089.95
975.686	3075.71
975.986	3074.58
976.287	3045.43
976.587	3053.34
976.887	3015.82
977.187	2984.87
977.487	2961.14
977.787	2968.37
978.087	2969.27
978.387	2944.87
978.687	2907.58
978.987	2869.84
979.286	2875.49
979.586	2876.85
979.885	2884.75
980.185	2863.74
980.484	2879.33
980.784	2817.64
981.083	2839.56
981.382	2847.69
981.682	2811.08
981.981	2788.94
982.28	2772.89
982.579	2774.02
982.878	2768.83
983.177	2747.13
983.475	2768.15
983.774	2714.82
984.073	2705.32
984.372	2680.92
984.67	2700.58
984.969	2646.57
985.267	2655.38
985.566	2651.99
985.864	2651.77
986.162	2642.5
986.461	2594.59
986.759	2612.22
987.057	2574.93
987.355	2559.11
987.653	2592.56
987.951	2594.59
988.249	2565.89
988.547	2559.34
988.844	2542.84
989.142	2481.6
989.44	2504.88
989.737	2471.66
990.035	2449.96
990.332	2477.76
990.63	2445.67
990.927	2430.53
991.224	2440.7
991.521	2442.73
991.819	2404.09
992.116	2420.81
992.413	2393.69
992.71	2367.48
993.006	2358.21
993.303	2370.64
993.6	2321.83
993.897	2356.18
994.193	2300.59
994.49	2326.8
994.787	2301.72
995.083	2307.82
995.379	2255.84
995.676	2264.43
995.972	2262.17
996.268	2249.07
996.565	2266.47
996.861	2245.68
997.157	2224.21
997.453	2219.91
997.749	2172.91
998.044	2190.31
998.34	2174.04
998.636	2170.2
998.932	2146.02
999.227	2115.51
999.523	2149.63
999.818	2125.45
1000.114	2114.61
1000.409	2079.58
1000.704	2086.58
1001	2082.06
1001.295	2047.49
1001.59	2020.14
1001.885	2040.48
1002.18	2054.72
1002.475	2028.28
1002.77	1998.9
1003.065	1992.8
1003.359	1966.13
1003.654	1999.35
1003.949	1950.99
1004.243	1942.41
1004.538	1926.59
1004.832	1927.27
1005.127	1932.46
1005.421	1912.12
1005.715	1889.3
1006.009	1952.12
1006.304	1868.51
1006.598	1887.72
1006.892	1880.49
1007.186	1856.99
1007.48	1831.68
1007.773	1826.25
1008.067	1797.78
1008.361	1795.07
1008.655	1809.53
1008.948	1796.87
1009.242	1766.14
1009.535	1774.28
1009.829	1755.97
1010.122	1754.84
1010.415	1752.36
1010.708	1744.67
1011.001	1740.83
1011.295	1717.1
1011.588	1692.47
1011.881	1717.33
1012.173	1659.93
1012.466	1665.13
1012.759	1675.52
1013.052	1670.1
1013.344	1645.69
1013.637	1631.23
1013.93	1629.19
1014.222	1623.32
1014.514	1596.65
1014.807	1593.94
1015.099	1591.23
1015.391	1570.44
1015.683	1561.85
1015.976	1553.72
1016.268	1537.67
1016.56	1535.19
1016.851	1552.13
1017.143	1532.93
1017.435	1506.71
1017.727	1546.48
1018.018	1496.99
1018.31	1473.27
1018.602	1477.11
1018.893	1460.39
1019.185	1454.51
1019.476	1386.26
1019.767	1436.21
1020.058	1407.73
1020.35	1431.46
1020.641	1396.66
1020.932	1387.62
1021.223	1396.43
1021.514	1382.42
1021.804	1388.3
1022.095	1361.18
1022.386	1350.33
1022.677	1401.63
1022.967	1341.74
1023.258	1313.04
1023.548	1307.62
1023.839	1327.73
1024.129	1329.32
1024.419	1305.81
1024.709	1322.31
1025	1273.72
1025.29	1297.9
1025.58	1272.37
1025.87	1255.87
1026.16	1240.73
1026.449	1255.64
1026.739	1246.83
1027.029	1232.59
1027.319	1212.26
1027.608	1209.54
1027.898	1213.61
1028.187	1203.22
1028.477	1184.01
1028.766	1198.47
1029.055	1174.29
1029.344	1155.99
1029.634	1160.28
1029.923	1151.47
1030.212	1140.62
1030.501	1136.55
1030.79	1137.46
1031.078	1124.35
1031.367	1088.64
1031.656	1097.91
1031.945	1134.52
1032.233	1105.59
1032.522	1072.6
1032.81	1088.19
1033.099	1061.07
1033.387	1075.08
1033.675	1066.5
1033.963	1042.77
1034.251	1033.5
1034.54	1031.7
1034.828	1048.64
1035.116	1022.88
1035.403	1014.97
1035.691	1011.36
1035.979	1005.71
1036.267	1005.26
1036.554	985.6
1036.842	970
1037.129	986.05
1037.417	962.55
1037.704	968.87
1037.992	980.4
1038.279	950.57
1038.566	946.05
1038.853	946.05
1039.14	946.05
