Data from hue_150_FLMS001491_00013.txt Node
Date: Tue Feb 07 16:53:41 GMT 2017
User: dcchb
Spectrometer: FLMS00149
Trigger mode: 0
Integration Time (sec): 2.000000E-2
Scans to average: 10
Electric dark correction enabled: true
Nonlinearity correction enabled: false
Boxcar width: 0
XAxis mode: Wavelengths
Number of Pixels in Spectrum: 2048
>>>>>Begin Spectral Data<<<<<
341.393	-2.92
341.776	-2.92
342.16	-2.92
342.543	-52.87
342.927	-46.99
343.31	-62.81
343.693	-63.26
344.077	-61
344.46	-60.1
344.843	-58.06
345.226	-49.7
345.61	-40.66
345.993	-15.8
346.376	-11.29
346.759	9.28
347.142	33.23
347.525	33.46
347.908	67.81
348.291	68.26
348.674	109.62
349.057	101.03
349.44	136.51
349.823	144.64
350.206	166.56
350.588	185.09
350.971	201.14
351.354	217.41
351.737	217.41
352.119	266
352.502	251.98
352.884	281.81
353.267	267.58
353.65	295.83
354.032	290.4
354.414	310.06
354.797	309.38
355.179	333.11
355.562	297.41
355.944	305.77
356.326	332.21
356.709	353
357.091	338.54
357.473	359.78
357.855	337.41
358.238	349.38
358.62	338.76
359.002	344.86
359.384	336.05
359.766	336.28
360.148	333.11
360.53	362.94
360.912	338.99
361.294	335.37
361.676	333.11
362.057	347.8
362.439	329.72
362.821	320.68
363.203	333.79
363.584	311.42
363.966	322.49
364.348	314.81
364.729	341.02
365.111	345.99
365.493	315.49
365.874	319.33
366.256	326.79
366.637	320.23
367.019	289.72
367.4	316.39
367.781	324.07
368.163	302.83
368.544	317.07
368.925	324.53
369.306	321.14
369.688	308.48
370.069	316.62
370.45	301.48
370.831	308.71
371.212	305.99
371.593	317.97
371.974	314.13
372.355	311.19
372.736	320.23
373.117	306.9
373.498	316.16
373.879	320.46
374.26	315.26
374.641	307.35
375.021	319.55
375.402	334.47
375.783	336.5
376.163	337.18
376.544	341.47
376.925	325.88
377.305	332.89
377.686	344.86
378.066	319.33
378.447	320.46
378.827	349.38
379.208	325.88
379.588	325.88
379.968	357.52
380.349	348.25
380.729	353
381.109	334.24
381.489	326.11
381.87	330.17
382.25	355.26
382.63	363.85
383.01	351.19
383.39	351.42
383.77	339.44
384.15	358.87
384.53	360.91
384.91	353.9
385.29	359.78
385.67	349.84
386.049	355.26
386.429	343.51
386.809	371.98
387.189	375.82
387.568	385.54
387.948	353.68
388.328	359.1
388.707	378.76
389.087	363.62
389.466	389.61
389.846	370.85
390.225	390.96
390.605	375.6
390.984	365.2
391.363	376.05
391.743	375.6
392.122	385.31
392.501	386.67
392.881	385.31
393.26	385.31
393.639	419.66
394.018	395.94
394.397	389.38
394.776	384.41
395.155	397.07
395.534	395.48
395.913	399.33
396.292	407.69
396.671	409.27
397.05	411.08
397.429	405.65
397.808	402.72
398.186	379.21
398.565	409.49
398.944	440.91
399.323	392.77
399.701	397.52
400.08	441.36
400.458	419.89
400.837	427.12
401.215	402.26
401.594	407.46
401.972	416.95
402.351	424.86
402.729	394.81
403.107	428.7
403.486	429.38
403.864	421.25
404.242	433.68
404.62	456.95
404.999	451.08
405.377	448.59
405.755	441.13
406.133	447.46
406.511	449.72
406.889	460.57
407.267	469.15
407.645	454.47
408.023	468.25
408.401	460.79
408.779	493.79
409.156	461.92
409.534	462.83
409.912	513.9
410.29	503.5
410.667	486.1
411.045	480.68
411.422	517.29
411.8	506.44
412.178	503.5
412.555	508.25
412.933	533.56
413.31	525.42
413.687	514.12
414.065	513.67
414.442	524.97
414.819	554.58
415.197	552.09
415.574	531.3
415.951	525.2
416.328	550.73
416.705	551.41
417.082	534.46
417.46	566.1
417.837	572.2
418.214	558.64
418.591	569.72
418.967	540.56
419.344	555.93
419.721	572.65
420.098	579.21
420.475	567.23
420.852	593.22
421.228	616.72
421.605	607.91
421.982	608.13
422.358	596.83
422.735	592.77
423.111	599.32
423.488	616.27
423.864	608.13
424.241	614.91
424.617	614.46
424.994	629.6
425.37	628.25
425.746	642.03
426.123	658.75
426.499	654.91
426.875	650.62
427.251	665.53
427.627	675.93
428.003	666.66
428.379	673.44
428.756	673.67
429.132	690.17
429.507	719.77
429.883	717.51
430.259	714.35
430.635	696.27
431.011	722.71
431.387	715.02
431.763	723.38
432.138	744.18
432.514	749.82
432.89	735.14
433.265	765.64
433.641	756.15
434.016	779.43
434.392	775.13
434.767	787.56
435.143	793.44
435.518	811.97
435.894	802.25
436.269	815.36
436.644	816.26
437.02	817.39
437.395	843.16
437.77	847
438.145	866.21
438.52	889.03
438.895	853.55
439.271	872.31
439.646	912.98
440.021	905.08
440.395	902.14
440.77	910.5
441.145	905.53
441.52	936.03
441.895	915.92
442.27	941.23
442.645	949.37
443.019	959.54
443.394	949.37
443.769	957.73
444.143	966.77
444.518	962.7
444.892	972.64
445.267	984.4
445.641	971.29
446.016	982.36
446.39	998.63
446.764	1001.57
447.139	1041.79
447.513	1047.67
447.887	1028.91
448.262	1040.21
448.636	1040.66
449.01	1036.37
449.384	1059.65
449.758	1054.22
450.132	1073.21
450.506	1088.57
450.88	1086.99
451.254	1108.23
451.628	1102.13
452.002	1138.06
452.376	1123.37
452.75	1140.78
453.123	1172.64
453.497	1153.2
453.871	1158.18
454.244	1186.42
454.618	1195.91
454.992	1225.52
455.365	1205.41
455.739	1250.15
456.112	1260.09
456.486	1260.55
456.859	1263.71
457.232	1286.31
457.606	1319.08
457.979	1307.78
458.352	1328.34
458.725	1353.88
459.099	1378.96
459.472	1390.71
459.845	1414.89
460.218	1444.72
460.591	1452.18
460.964	1473.87
461.337	1493.31
461.71	1527.88
462.083	1544.38
462.456	1529.01
462.829	1559.3
463.201	1575.79
463.574	1592.06
463.947	1648.56
464.32	1642.91
464.692	1652.63
465.065	1674.32
465.438	1704.15
465.81	1704.83
466.183	1774.88
466.555	1776.46
466.928	1798.61
467.3	1813.75
467.672	1852.85
468.045	1878.16
468.417	1901.89
468.789	1924.26
469.161	1967.42
469.534	1991.83
469.906	2050.13
470.278	2072.5
470.65	2094.65
471.022	2135.1
471.394	2220.07
471.766	2231.37
472.138	2270.69
472.51	2328.54
472.882	2370.8
473.253	2439.5
473.625	2440.63
473.997	2491.7
474.369	2517.01
474.74	2561.98
475.112	2633.17
475.484	2682.66
475.855	2745.03
476.227	2798.81
476.598	2917.23
476.97	2924.91
477.341	3026.38
477.713	3124.68
478.084	3152.47
478.455	3258.23
478.827	3328.29
479.198	3460.04
479.569	3467.49
479.94	3637.88
480.311	3731.22
480.682	3797.65
481.053	3932.11
481.424	3989.06
481.795	4059.34
482.166	4179.79
482.537	4262.5
482.908	4422.5
483.279	4472.89
483.65	4616.84
484.021	4783.39
484.391	4861.81
484.762	4964.63
485.133	5064.97
485.503	5154.68
485.874	5342.92
486.244	5471.51
486.615	5611.84
486.985	5734.55
487.356	5862.01
487.726	5977.03
488.097	6137.93
488.467	6240.08
488.837	6398.04
489.207	6548.77
489.578	6650.69
489.948	6818.59
490.318	6973.62
490.688	7055.87
491.058	7267.62
491.428	7428.97
491.798	7541.28
492.168	7777.44
492.538	7856.53
492.908	8041.38
493.278	8203.41
493.648	8259.91
494.017	8414.48
494.387	8557.98
494.757	8646.57
495.126	8792.1
495.496	8862.83
495.866	9036.84
496.235	9238.64
496.605	9289.71
496.974	9484.06
497.344	9620.78
497.713	9603.38
498.082	9747.1
498.452	9976.93
498.821	10015.57
499.19	10123.59
499.559	10184.61
499.928	10365.17
500.298	10485.39
500.667	10631.37
501.036	10620.75
501.405	10836.79
501.774	10875.21
502.143	10994.08
502.512	11086.28
502.88	11188.87
503.249	11275.2
503.618	11285.14
503.987	11411.69
504.356	11564.68
504.724	11531.01
505.093	11597
505.462	11717.22
505.83	11792.47
506.199	11903.2
506.567	11997.21
506.936	12062.3
507.304	12135.97
507.672	12282.63
508.041	12257.77
508.409	12408.73
508.777	12460.25
509.145	12571.89
509.514	12582.73
509.882	12584.09
510.25	12661.6
510.618	12776.4
510.986	12740.24
511.354	12944.08
511.722	12974.81
512.09	13090.07
512.458	13077.18
512.826	13195.83
513.193	13261.81
513.561	13222.72
513.929	13368.25
514.297	13424.29
514.664	13515.59
515.032	13516.27
515.4	13548.81
515.767	13708.13
516.135	13713.1
516.502	13581.13
516.869	13746.77
517.237	13811.85
517.604	13692.99
517.972	13852.53
518.339	13935.92
518.706	13932.3
519.073	13931.4
519.44	14005.3
519.808	14130.49
520.175	14045.97
520.542	14195.35
520.909	14226.31
521.276	14202.8
521.643	14314.89
522.009	14303.37
522.376	14360.77
522.743	14358.73
523.11	14499.07
523.477	14597.14
523.843	14658.84
524.21	14692.51
524.577	14672.62
524.943	14761.21
525.31	14809.12
525.676	14843.92
526.043	14929.57
526.409	14898.15
526.776	15043.23
527.142	14824.48
527.508	14964.14
527.874	14999.39
528.241	15033.74
528.607	15019.28
528.973	15166.85
529.339	15083.23
529.705	15135.44
530.071	15167.07
530.437	15137.7
530.803	15251.82
531.169	15283.45
531.535	15156.9
531.901	15255.43
532.267	15161.42
532.632	15161.88
532.998	15230.8
533.364	15338.59
533.73	15265.83
534.095	15246.62
534.461	15222.44
534.826	15218.37
535.192	15258.82
535.557	15212.04
535.923	15229.67
536.288	15141.99
536.653	15221.53
537.019	15038.26
537.384	15038.71
537.749	15069.67
538.114	15082.56
538.479	15028.32
538.845	15069.9
539.21	15026.06
539.575	15091.14
539.94	14939.06
540.305	14957.59
540.67	14911.94
541.034	14994.87
541.399	14892.05
541.764	14900.64
542.129	14859.06
542.494	14840.08
542.858	14820.19
543.223	14789
543.587	14727.08
543.952	14728.44
544.316	14699.29
544.681	14651.15
545.045	14703.81
545.41	14663.58
545.774	14689.12
546.138	14582
546.503	14540.42
546.867	14510.37
547.231	14565.28
547.595	14516.02
547.959	14459.75
548.324	14554.66
548.688	14337.72
549.052	14465.62
549.416	14385.4
549.779	14393.53
550.143	14286.19
550.507	14322.58
550.871	14334.33
551.235	14291.84
551.599	14333.42
551.962	14220.43
552.326	14268.57
552.689	14204.16
553.053	14128
553.417	14136.82
553.78	14285.97
554.143	14226.53
554.507	14159.64
554.87	14169.13
555.234	14258.4
555.597	14046.88
555.96	14111.06
556.323	14171.39
556.686	14045.29
557.05	14094.33
557.413	14111.73
557.776	14062.47
558.139	14118.74
558.502	14056.37
558.865	14069.02
559.228	14087.78
559.59	14050.04
559.953	14088.46
560.316	14217.95
560.679	14103.82
561.041	14099.98
561.404	14148.79
561.767	14177.95
562.129	14171.62
562.492	14193.09
562.854	14214.78
563.217	14184.05
563.579	14202.58
563.941	14248.68
564.304	14284.84
564.666	14285.74
565.028	14271.5
565.39	14285.06
565.753	14370.03
566.115	14418.84
566.477	14420.43
566.839	14445.28
567.201	14373.87
567.563	14390.82
567.925	14509.69
568.287	14427.88
568.648	14473.08
569.01	14560.08
569.372	14617.71
569.734	14453.19
570.095	14632.85
570.457	14577.48
570.819	14645.05
571.18	14640.99
571.542	14755.56
571.903	14640.76
572.265	14652.96
572.626	14635.79
572.987	14751.72
573.349	14689.35
573.71	14716.01
574.071	14714.88
574.432	14788.33
574.794	14768.89
575.155	14774.77
575.516	14773.41
575.877	14730.02
576.238	14836.69
576.599	14800.3
576.96	14792.39
577.32	14765.5
577.681	14910.58
578.042	14865.84
578.403	14787.2
578.763	14909
579.124	14877.59
579.485	14956.23
579.845	14903.58
580.206	14859.28
580.566	14833.75
580.927	14902.22
581.287	14951.49
581.648	14851.15
582.008	14951.03
582.368	14993.74
582.728	14877.14
583.089	14871.49
583.449	14916.91
583.809	14886.18
584.169	14955.78
584.529	14806.86
584.889	14911.94
585.249	14875.56
585.609	14732.06
585.969	14842.56
586.329	14870.36
586.688	14773.86
587.048	14836.01
587.408	14765.5
587.768	14840.53
588.127	14781.09
588.487	14757.37
588.846	14845.5
589.206	14723.02
589.565	14726.41
589.925	14690.93
590.284	14728.21
590.643	14689.8
591.003	14751.49
591.362	14782.22
591.721	14750.59
592.08	14645.5
592.44	14656.35
592.799	14730.25
593.158	14689.35
593.517	14694.32
593.876	14611.61
594.235	14598.05
594.593	14562.34
594.952	14687.09
595.311	14583.81
595.67	14621.55
596.029	14705.16
596.387	14686.41
596.746	14718.95
597.104	14604.83
597.463	14627.88
597.822	14639.4
598.18	14615.22
598.538	14622.23
598.897	14685.96
599.255	14537.48
599.613	14764.82
599.972	14676.69
600.33	14714.2
600.688	14771.38
601.046	14662.45
601.404	14724.82
601.762	14682.11
602.12	14807.53
602.478	14753.3
602.836	14782.68
603.194	14679.85
603.552	14647.09
603.91	14597.82
604.268	14679.18
604.625	14582.68
604.983	14569.35
605.341	14612.06
605.698	14700.87
606.056	14713.53
606.413	14635.11
606.771	14692.74
607.128	14709.01
607.485	14638.27
607.843	14692.96
608.2	14801.21
608.557	14754.88
608.914	14717.37
609.272	14877.82
609.629	14821.77
609.986	14852.73
610.343	14773.19
610.7	14871.94
611.057	14813.64
611.414	14801.21
611.771	14897.02
612.127	14804.14
612.484	14896.8
612.841	14942.67
613.198	14887.76
613.554	14841.66
613.911	14933.18
614.267	14984.7
614.624	14924.59
614.98	14927.31
615.337	15087.75
615.693	14987.64
616.05	14884.37
616.406	15047.53
616.762	14872.17
617.118	14953.29
617.475	15021.77
617.831	14989.45
618.187	15020.18
618.543	15126.62
618.899	15141.76
619.255	15110.8
619.611	15054.08
619.967	15091.82
620.323	15142.21
620.678	15138.83
621.034	15108.09
621.39	15042.1
621.746	15061.09
622.101	15182.44
622.457	15097.02
622.812	15066.06
623.168	15184.47
623.523	15193.29
623.879	15143.34
624.234	14956.68
624.589	15134.08
624.945	15168.88
625.3	15172.72
625.655	15153.97
626.01	15051.14
626.365	15104.93
626.72	15017.7
627.075	15087.53
627.43	15177.02
627.785	15032.84
628.14	15087.53
628.495	15079.39
628.85	15140.18
629.205	15036.45
629.559	15150.12
629.914	15036
630.269	15067.19
630.623	15029
630.978	15011.14
631.332	15050.24
631.687	14997.81
632.041	14949.9
632.396	14940.41
632.75	14944.25
633.104	14924.14
633.459	14917.36
633.813	14778.83
634.167	14747.87
634.521	14840.75
634.875	14809.12
635.229	14779.74
635.583	14760.3
635.937	14753.3
636.291	14794.43
636.645	14821.77
636.999	14675.11
637.352	14714.2
637.706	14595.79
638.06	14655.67
638.413	14690.48
638.767	14596.01
639.121	14614.32
639.474	14525.51
639.828	14572.29
640.181	14627.65
640.534	14551.04
640.888	14527.32
641.241	14471.72
641.594	14496.13
641.947	14565.28
642.301	14408.22
642.654	14567.99
643.007	14571.38
643.36	14473.08
643.713	14412.74
644.066	14499.52
644.419	14430.14
644.771	14335.23
645.124	14232.41
645.477	14123.26
645.83	14095.69
646.182	14072.86
646.535	13940.89
646.888	14043.49
647.24	13921.23
647.593	13993.77
647.945	13901.12
648.298	13876.71
648.65	13923.26
649.002	13853.89
649.355	13895.69
649.707	13880.55
650.059	14024.05
650.411	14207.32
650.763	14204.84
651.115	14346.3
651.467	14249.13
651.819	14276.93
652.171	14294.55
652.523	14223.82
652.875	14184.27
653.227	14172.97
653.578	14294.1
653.93	14234.44
654.282	14173.65
654.633	14187.66
654.985	14221.11
655.337	14187.89
655.688	14201.9
656.039	14229.7
656.391	14065.86
656.742	14100.43
657.094	14083.94
657.445	14218.4
657.796	14167.33
658.147	14141.56
658.498	14227.89
658.849	14184.27
659.2	14174.1
659.551	14201.67
659.902	14271.28
660.253	14186.08
660.604	14209.13
660.955	14172.07
661.306	14250.94
661.656	14206.87
662.007	14190.83
662.358	14262.69
662.708	14197.15
663.059	14207.55
663.409	14156.48
663.76	14176.14
664.11	14305.85
664.461	14249.58
664.811	14270.83
665.161	14192.64
665.511	14192.41
665.862	14160.09
666.212	14192.41
666.562	14191.73
666.912	14207.78
667.262	14220.88
667.612	14148.79
667.962	14242.8
668.312	14166.42
668.662	14179.08
669.011	14151.05
669.361	14196.93
669.711	14143.37
670.06	14177.04
670.41	14168.68
670.76	14179.75
671.109	14177.49
671.459	14183.6
671.808	14217.04
672.157	14155.35
672.507	14051.62
672.856	14176.36
673.205	14116.71
673.554	14168.91
673.904	14005.07
674.253	14075.58
674.602	14084.62
674.951	13809.59
675.3	13883.26
675.649	14038.52
675.998	13971.17
676.346	13998.06
676.695	13998.52
677.044	13982.92
677.393	13890.5
677.741	13962.58
678.09	13814.79
678.438	13890.72
678.787	13928.01
679.135	13899.99
679.484	13757.84
679.832	13840.33
680.181	13781.57
680.529	13787
680.877	13719.88
681.225	13708.13
681.573	13796.94
681.922	13734.12
682.27	13677.85
682.618	13654.8
682.966	13566.21
683.314	13627.45
683.661	13562.14
684.009	13497.74
684.357	13498.42
684.705	13480.11
685.053	13557.85
685.4	13479.89
685.748	13397.85
686.095	13384.07
686.443	13264.3
686.79	13398.53
687.138	13350.4
687.485	13415.03
687.832	13225.2
688.18	13270.17
688.527	13184.3
688.874	13130.06
689.221	13117.64
689.568	13140.91
689.915	13029.5
690.262	13041.48
690.609	12935.72
690.956	12962.84
691.303	12939.11
691.65	12845.33
691.997	12960.13
692.344	12759.9
692.69	12796.74
693.037	12757.87
693.383	12694.6
693.73	12616.63
694.077	12591.1
694.423	12549.74
694.769	12413.7
695.116	12468.84
695.462	12494.15
695.808	12375.28
696.155	12412.8
696.501	12372.12
696.847	12273.14
697.193	12267.04
697.539	12230.2
697.885	12185.91
698.231	12093.03
698.577	12158.34
698.923	12032.24
699.269	12058.23
699.614	12044.67
699.96	11933.71
700.306	11877.22
700.651	11841.51
700.997	11811.23
701.342	11785.01
701.688	11656.43
702.033	11708.63
702.379	11648.75
702.724	11629.09
703.069	11661.85
703.415	11439.94
703.76	11516.77
704.105	11563.33
704.45	11454.4
704.795	11390
705.14	11338.7
705.485	11339.15
705.83	11288.98
706.175	11323.78
706.52	11251.47
706.865	11194.07
707.209	11096.67
707.554	11076.56
707.899	11071.36
708.243	11061.42
708.588	11035.43
708.932	10946.84
709.277	10948.88
709.621	10906.62
709.966	10826.85
710.31	10892.38
710.654	10772.16
710.998	10806.74
711.342	10779.39
711.687	10721.77
712.031	10683.35
712.375	10687.19
712.719	10780.52
713.063	10673.86
713.407	10697.13
713.75	10628.21
714.094	10715.89
714.438	10552.73
714.782	10586.85
715.125	10452.39
715.469	10584.59
715.812	10498.95
716.156	10458.27
716.499	10469.34
716.843	10449.68
717.186	10404.49
717.53	10441.77
717.873	10427.99
718.216	10353.64
718.559	10345.05
718.902	10260.31
719.246	10311.16
719.589	10244.04
719.932	10184.38
720.275	10209.24
720.617	10193.42
720.96	10178.05
721.303	10195.23
721.646	10162.23
721.989	10035.91
722.331	10180.54
722.674	10181.67
723.016	10144.38
723.359	10092.86
723.701	10130.14
724.044	9990.94
724.386	10063.7
724.729	10103.93
725.071	10072.74
725.413	10035.68
725.755	10035
726.097	10035.23
726.439	9954.33
726.782	10013.99
727.124	10081.56
727.465	9981.9
727.807	10011.95
728.149	9918.62
728.491	9895.57
728.833	9981.9
729.175	9950.26
729.516	9862.81
729.858	9936.48
730.199	9905.97
730.541	9892.41
730.882	9852.64
731.224	9914.1
731.565	9873.65
731.906	9866.42
732.248	9867.1
732.589	9795.24
732.93	9816.48
733.271	9883.14
733.612	9862.58
733.953	9825.07
734.294	9806.76
734.635	9824.84
734.976	9835.91
735.317	9818.06
735.658	9763.37
735.999	9825.52
736.339	9761.57
736.68	9805.63
737.021	9846.08
737.361	9763.37
737.702	9930.83
738.042	9847.44
738.383	9889.02
738.723	9881.11
739.063	9867.33
739.404	9857.38
739.744	9857.61
740.084	9894.9
740.424	9936.93
740.764	9862.35
741.104	9925.85
741.444	9896.03
741.784	9868.46
742.124	9988.45
742.464	10009.02
742.804	9967.44
743.143	10046.08
743.483	9971.5
743.823	9977.83
744.162	10014.67
744.502	10102.35
744.841	10144.61
745.181	10131.5
745.52	10137.37
745.86	10218.28
746.199	10148.22
746.538	10246.75
746.877	10266.18
747.216	10341.21
747.556	10373.75
747.895	10388.22
748.234	10434.09
748.573	10464.37
748.911	10427.76
749.25	10607.19
749.589	10627.53
749.928	10692.39
750.267	10788.66
750.605	10862.1
750.944	10862.33
751.283	10899.39
751.621	11042.89
751.96	11148.2
752.298	11197.23
752.636	11266.16
752.975	11292.82
753.313	11421.41
753.651	11448.53
753.989	11598.58
754.327	11772.59
754.666	11825.01
755.004	11976.42
755.342	12060.04
755.679	12213.93
756.017	12349.97
756.355	12476.52
756.693	12565.33
757.031	12646.69
757.368	12877.42
757.706	12934.36
758.044	13105.88
758.381	13259.55
758.719	13373.9
759.056	13632.88
759.394	13694.57
759.731	13834
760.068	14032.87
760.405	14167.1
760.743	14277.38
761.08	14408.67
761.417	14512.63
761.754	14811.15
762.091	14928.66
762.428	14995.55
762.765	15074.19
763.102	15344.7
763.438	15468.08
763.775	15634.86
764.112	15875.75
764.449	16024
764.785	16071.68
765.122	16110.78
765.458	16335.18
765.795	16551.9
766.131	16729.07
766.467	16816.07
766.804	17029.62
767.14	16992.34
767.476	17228.26
767.812	17322.5
768.148	17561.36
768.485	17567.91
768.821	17697.63
769.157	17810.39
769.492	17933.55
769.828	18080.89
770.164	18118.63
770.5	18199.31
770.836	18444.27
771.171	18291.06
771.507	18522.24
771.842	18527.21
772.178	18634.55
772.513	18744.61
772.849	18778.28
773.184	18842.46
773.519	19096.69
773.855	19067.31
774.19	19175.78
774.525	19203.58
774.86	19283.35
775.195	19315.89
775.53	19346.17
775.865	19383.46
776.2	19271.15
776.535	19228.66
776.87	19384.59
777.205	19446.96
777.539	19470.91
777.874	19463.23
778.209	19441.54
778.543	19536.68
778.878	19580.06
779.212	19533.96
779.547	19504.36
779.881	19598.37
780.215	19635.66
780.55	19753.85
780.884	19532.38
781.218	19698.93
781.552	19721.53
781.886	19665.03
782.22	19752.94
782.554	19618.26
782.888	19499.16
783.222	19594.08
783.556	19423.91
783.889	19443.8
784.223	19450.35
784.557	19443.34
784.89	19493.51
785.224	19369.22
785.557	19349.34
785.891	19462.55
786.224	19358.15
786.558	19504.59
786.891	19331.03
787.224	19261.88
787.557	19256.68
787.891	19285.61
788.224	19329.45
788.557	19326.74
788.89	19326.51
789.223	19324.25
789.556	19198.61
789.888	19158.83
790.221	19084.03
790.554	19101.88
790.887	19029.34
791.219	19008.78
791.552	18969.68
791.884	18941.21
792.217	18877.03
792.549	18759.29
792.882	18773.98
793.214	18750.71
793.546	18762.46
793.879	18676.13
794.211	18516.36
794.543	18609.92
794.875	18535.57
795.207	18576.25
795.539	18530.6
795.871	18516.36
796.203	18466.42
796.535	18373.77
796.867	18357.05
797.198	18289.48
797.53	18260.32
797.862	18262.36
798.193	18179.88
798.525	18110.72
798.856	18192.08
799.188	17967.23
799.519	17943.5
799.85	17887.45
800.182	17883.16
800.513	17945.3
800.844	17747.12
801.175	17896.04
801.506	17759.1
801.837	17757.29
802.168	17685.65
802.499	17666.44
802.83	17559.78
803.161	17623.51
803.491	17615.6
803.822	17583.51
804.153	17382.61
804.483	17287.24
804.814	17309.62
805.145	17207.7
805.475	17241.14
805.805	17109.85
806.136	17180.58
806.466	17215.38
806.796	17097.19
807.126	16977.87
807.457	17004.99
807.787	17010.87
808.117	16854.71
808.447	16895.39
808.777	16887.93
809.107	16814.04
809.436	16810.87
809.766	16708.05
810.096	16681.84
810.426	16699.24
810.755	16616.07
811.085	16598
811.414	16626.7
811.744	16431.67
812.073	16512.8
812.403	16509.18
812.732	16402.52
813.061	16461.28
813.39	16301.28
813.719	16278.23
814.049	16422.41
814.378	16292.02
814.707	16221.51
815.036	16242.98
815.365	16092.25
815.693	16091.34
816.022	16021.06
816.351	15980.38
816.68	15862.87
817.008	15939.71
817.337	15817
817.665	15714.63
817.994	15852.7
818.322	15872.14
818.651	15736.55
818.979	15726.38
819.307	15739.26
819.636	15732.26
819.964	15692.71
820.292	15664.01
820.62	15689.77
820.948	15639.15
821.276	15679.38
821.604	15655.65
821.932	15631.24
822.259	15716.44
822.587	15685.25
822.915	15683.9
823.243	15680.73
823.57	15578.81
823.898	15685.48
824.225	15620.17
824.553	15590.56
824.88	15665.82
825.207	15688.64
825.535	15703.78
825.862	15731.13
826.189	15603.67
826.516	15638.7
826.843	15742.88
827.17	15703.1
827.497	15734.74
827.824	15734.52
828.151	15617.68
828.478	15626.5
828.805	15785.81
829.131	15703.1
829.458	15680.73
829.785	15484.35
830.111	15659.72
830.438	15705.59
830.764	15670.11
831.09	15680.51
831.417	15602.99
831.743	15692.48
832.069	15704.91
832.395	15576.55
832.722	15635.76
833.048	15582.88
833.374	15579.04
833.7	15570.9
834.026	15520.74
834.351	15537.91
834.677	15554.41
835.003	15563.9
835.329	15475.54
835.654	15500.62
835.98	15432.83
836.306	15400.06
836.631	15333.17
836.956	15464.69
837.282	15453.85
837.607	15455.65
837.932	15305.6
838.258	15295.66
838.583	15286.62
838.908	15247.97
839.233	15285.26
839.558	15243
839.883	15241.2
840.208	15076.91
840.533	15085.27
840.858	15160.29
841.182	15177.92
841.507	15048.88
841.832	15031.03
842.156	14993.52
842.481	14987.87
842.805	14938.15
843.13	14934.99
843.454	14895.22
843.778	14838.49
844.103	14787.87
844.427	14706.29
844.751	14760.98
845.075	14736.12
845.399	14653.41
845.723	14552.17
846.047	14605.73
846.371	14459.97
846.695	14440.76
847.019	14362.35
847.343	14322.12
847.666	14247.1
847.99	14135.46
848.313	14165.97
848.637	14149.7
848.96	14103.37
849.284	14076.25
849.607	13987.67
849.931	13902.02
850.254	13829.71
850.577	13804.62
850.9	13736.15
851.223	13661.58
851.546	13619.77
851.869	13535.03
852.192	13578.87
852.515	13458.42
852.838	13356.27
853.161	13354.24
853.483	13272.21
853.806	13273.34
854.129	13259.33
854.451	13190.85
854.774	13137.3
855.096	13068.37
855.419	13096.62
855.741	13031.54
856.063	12943.18
856.385	12922.61
856.708	12881.03
857.03	12855.72
857.352	12835.83
857.674	12797.64
857.996	12752.9
858.318	12638.55
858.64	12684.65
858.961	12582.96
859.283	12594.26
859.605	12492.12
859.926	12564.2
860.248	12511.55
860.57	12471.78
860.891	12418.22
861.212	12381.84
861.534	12283.76
861.855	12319.92
862.176	12347.71
862.498	12227.49
862.819	12256.64
863.14	12337.99
863.461	12223.2
863.782	12190.2
864.103	12123.54
864.424	12154.04
864.745	12142.07
865.065	12029.98
865.386	12081.05
865.707	11976.42
866.027	12060.04
866.348	12026.14
866.668	11966.03
866.989	11877.22
867.309	11909.53
867.63	11944.78
867.95	11939.81
868.27	11925.8
868.59	11895.07
868.91	11855.52
869.23	11794.05
869.55	11758.8
869.87	11806.48
870.19	11811.23
870.51	11756.99
870.83	11712.47
871.15	11676.09
871.469	11712.93
871.789	11698.24
872.109	11715.64
872.428	11654.4
872.748	11567.62
873.067	11560.39
873.386	11551.35
873.706	11539.82
874.025	11471.35
874.344	11500.05
874.663	11493.27
874.982	11444.23
875.301	11477.9
875.62	11459.37
875.939	11408.08
876.258	11391.8
876.577	11376.44
876.896	11347.51
877.214	11391.58
877.533	11354.52
877.852	11321.52
878.17	11260.06
878.489	11267.51
878.807	11334.86
879.125	11263.9
879.444	11213.28
879.762	11175.09
880.08	11183
880.398	11097.35
880.716	11203.79
881.034	11106.39
881.352	11115.65
881.67	11099.61
881.988	11111.36
882.306	11057.58
882.624	10990.23
882.941	11067.52
883.259	10929.44
883.577	10928.09
883.894	10888.99
884.212	10883.8
884.529	10893.29
884.846	10763.12
885.164	10779.62
885.481	10770.35
885.798	10751.82
886.115	10737.81
886.432	10751.14
886.75	10640.19
887.067	10713.18
887.383	10624.37
887.7	10660.07
888.017	10542.11
888.334	10604.03
888.651	10502.34
888.967	10468.67
889.284	10391.61
889.6	10452.39
889.917	10366.07
890.233	10415.11
890.55	10261.89
890.866	10332.62
891.182	10286.98
891.498	10264.83
891.815	10174.21
892.131	10185.06
892.447	10150.03
892.763	10075.91
893.079	10104.61
893.395	10070.71
893.71	10033.87
894.026	9991.16
894.342	9959.53
894.657	9909.13
894.973	9973.99
895.289	9931.73
895.604	9805.63
895.92	9803.6
896.235	9760.44
896.55	9752.98
896.865	9728.35
897.181	9646.54
897.496	9666.2
897.811	9620.33
898.126	9567.22
898.441	9547.79
898.756	9488.13
899.071	9479.09
899.386	9404.74
899.7	9386.43
900.015	9381.24
900.33	9247.23
900.644	9287.23
900.959	9276.83
901.273	9216.27
901.588	9155.71
901.902	9163.39
902.216	9112.99
902.531	9079.32
902.845	9103.28
903.159	9034.13
903.473	8982.38
903.787	8908.71
904.101	8891.31
904.415	8870.06
904.729	8872.32
905.042	8844.08
905.356	8815.83
905.67	8746.9
905.984	8712.78
906.297	8684.98
906.611	8616.06
906.924	8644.76
907.237	8567.92
907.551	8515.5
907.864	8531.09
908.177	8515.95
908.491	8484.99
908.804	8435.27
909.117	8397.53
909.43	8318.67
909.743	8334.03
910.056	8326.57
910.368	8173.81
910.681	8241.61
910.994	8169.52
911.307	8133.59
911.619	8109.63
911.932	8139.46
912.244	8038.45
912.557	7999.8
912.869	8007.94
913.181	7966.81
913.494	7969.97
913.806	7854.27
914.118	7795.29
914.43	7828.96
914.742	7784.22
915.054	7711.22
915.366	7776.53
915.678	7656.08
915.99	7706.25
916.302	7600.94
916.613	7517.78
916.925	7559.82
917.236	7531.12
917.548	7471
917.859	7496.31
918.171	7509.2
918.482	7389.88
918.794	7414.51
919.105	7384.23
919.416	7287.28
919.727	7284.12
920.038	7311.91
920.349	7226.72
920.66	7171.13
920.971	7212.93
921.282	7234.4
921.593	7130
921.903	7090.22
922.214	7037.34
922.525	6995.54
922.835	6937.01
923.146	6913.28
923.456	6985.37
923.767	6861.08
924.077	6937.68
924.387	6826.95
924.697	6763.23
925.008	6826.95
925.318	6784.02
925.628	6805.94
925.938	6788.99
926.248	6644.13
926.558	6677.8
926.867	6606.62
927.177	6598.03
927.487	6529.33
927.796	6494.98
928.106	6523.91
928.416	6492.27
928.725	6440.97
929.034	6431.71
929.344	6418.83
929.653	6391.48
929.962	6333.86
930.271	6303.13
930.581	6250.02
930.89	6243.69
931.199	6244.82
931.508	6268.78
931.817	6218.38
932.125	6190.36
932.434	6201.88
932.743	6085.5
933.051	6051.83
933.36	6054.54
933.669	6019.29
933.977	5982.46
934.286	5993.08
934.594	5947.2
934.902	5916.47
935.21	5881.67
935.519	5934.32
935.827	5870.82
936.135	5894.1
936.443	5877.37
936.751	5842.57
937.059	5804.83
937.367	5742.46
937.674	5730.48
937.982	5764.16
938.29	5646.87
938.597	5708.11
938.905	5570.49
939.213	5627.21
939.52	5535.46
939.827	5559.64
940.135	5525.52
940.442	5513.09
940.749	5522.58
941.056	5461.79
941.363	5414.56
941.67	5402.58
941.977	5350.83
942.284	5363.49
942.591	5361.91
942.898	5304.73
943.205	5326.65
943.511	5245.98
943.818	5236.49
944.125	5250.05
944.431	5243.49
944.738	5216.37
945.044	5179.99
945.35	5103.61
945.657	5122.14
945.963	5145.19
946.269	5081.69
946.575	5061.8
946.881	5010.73
947.187	5025.42
947.493	5006.66
947.799	4998.53
948.105	4977.74
948.41	4901.58
948.716	4904.29
949.022	4890.96
949.327	4863.84
949.633	4885.54
949.938	4832.88
950.244	4846.44
950.549	4746.33
950.854	4758.31
951.16	4737.06
951.465	4727.57
951.77	4703.39
952.075	4655.71
952.38	4669.72
952.685	4621.14
952.99	4633.56
953.294	4594.24
953.599	4618.2
953.904	4553.57
954.209	4537.52
954.513	4530.29
954.818	4504.75
955.122	4495.26
955.426	4438.77
955.731	4446.22
956.035	4439.22
956.339	4454.59
956.643	4407.58
956.948	4377.75
957.252	4364.87
957.556	4318.32
957.86	4330.07
958.163	4328.04
958.467	4323.97
958.771	4294.36
959.075	4240.58
959.378	4236.06
959.682	4168.27
959.985	4166.01
960.289	4175.72
960.592	4159.68
960.896	4144.99
961.199	4152.22
961.502	4099.57
961.805	4097.08
962.108	4044.65
962.411	4034.26
962.714	4043.98
963.017	4001.04
963.32	3981.83
963.623	4005.11
963.926	3933.02
964.228	3924.88
964.531	3904.54
964.833	3921.72
965.136	3879.23
965.438	3885.79
965.741	3844.43
966.043	3840.37
966.345	3817.99
966.648	3785.45
966.95	3827.26
967.252	3743.87
967.554	3770.31
967.856	3756.07
968.158	3716.3
968.46	3736.64
968.761	3676.53
969.063	3712.01
969.365	3693.02
969.666	3675.4
969.968	3598.34
970.269	3598.79
970.571	3603.08
970.872	3594.27
971.174	3527.15
971.475	3566.25
971.776	3548.62
972.077	3490.54
972.378	3526.02
972.679	3514.72
972.98	3505.68
973.281	3458.91
973.582	3464.56
973.883	3393.15
974.183	3402.41
974.484	3394.73
974.785	3411.22
975.085	3398.34
975.386	3341.62
975.686	3315.63
975.986	3308.4
976.287	3301.17
976.587	3293.49
976.887	3277.67
977.187	3239.93
977.487	3239.48
977.787	3225.24
978.087	3207.16
978.387	3188.4
978.687	3173.49
978.987	3171.23
979.286	3148.18
979.586	3160.16
979.885	3159.25
980.185	3097.11
980.484	3073.61
980.784	3084
981.083	3086.03
981.382	3070.89
981.682	3066.83
981.981	3047.62
982.28	3020.95
982.579	3016.21
982.878	3020.95
983.177	2949.32
983.475	2970.11
983.774	2960.39
984.073	2954.51
984.372	2922.65
984.67	2928.75
984.969	2910.9
985.267	2901.18
985.566	2859.6
985.864	2858.92
986.162	2836.1
986.461	2877.68
986.759	2845.82
987.057	2768.75
987.355	2801.75
987.653	2827.51
987.951	2750.9
988.249	2764.46
988.547	2726.5
988.844	2707.29
989.142	2753.16
989.44	2712.94
989.737	2714.52
990.035	2660.96
990.332	2647.85
990.63	2671.13
990.927	2674.07
991.224	2597.23
991.521	2634.07
991.819	2625.03
992.116	2596.78
992.413	2525.37
992.71	2568.76
993.006	2567.4
993.303	2552.04
993.6	2576.9
993.897	2517.24
994.193	2485.82
994.49	2467.29
994.787	2496.22
995.083	2481.76
995.379	2441.08
995.676	2462.1
995.972	2459.84
996.268	2447.63
996.565	2401.98
996.861	2420.97
997.157	2383.91
997.453	2386.17
997.749	2370.8
998.044	2348.65
998.34	2317.69
998.636	2325.15
998.932	2290.12
999.227	2316.34
999.523	2291.71
999.818	2304.36
1000.114	2298.48
1000.409	2270.01
1000.704	2229.11
1001	2230.92
1001.295	2220.52
1001.59	2223.01
1001.885	2216.23
1002.18	2196.11
1002.475	2189.34
1002.77	2172.61
1003.065	2152.95
1003.359	2127.19
1003.654	2137.13
1003.949	2119.96
1004.243	2117.7
1004.538	2078.83
1004.832	2090.35
1005.127	2092.39
1005.421	2037.02
1005.715	2053.07
1006.009	2044.93
1006.304	2019.85
1006.598	2003.13
1006.892	2039.51
1007.186	1988.21
1007.48	1991.83
1007.773	1968.78
1008.067	1914.99
1008.361	1938.49
1008.655	1913.86
1008.948	1920.87
1009.242	1926.29
1009.535	1924.03
1009.829	1866.63
1010.122	1880.64
1010.415	1865.95
1010.708	1878.61
1011.001	1817.59
1011.295	1812.4
1011.588	1829.34
1011.881	1813.3
1012.173	1821.44
1012.466	1780.98
1012.759	1753.41
1013.052	1759.06
1013.344	1767.43
1013.637	1765.17
1013.93	1771.04
1014.222	1736.92
1014.514	1688.78
1014.807	1684.72
1015.099	1682.23
1015.391	1695.56
1015.683	1682.46
1015.976	1683.13
1016.268	1621.44
1016.56	1657.6
1016.851	1646.98
1017.143	1629.8
1017.435	1623.47
1017.727	1607.2
1018.018	1610.59
1018.31	1585.51
1018.602	1594.32
1018.893	1602.46
1019.185	1560.65
1019.476	1558.17
1019.767	1531.5
1020.058	1541.44
1020.35	1507.77
1020.641	1518.62
1020.932	1508.45
1021.223	1479.98
1021.514	1467.77
1021.804	1466.87
1022.095	1502.12
1022.386	1463.25
1022.677	1415.34
1022.967	1446.98
1023.258	1404.5
1023.548	1421.45
1023.839	1416.47
1024.129	1405.4
1024.419	1368.57
1024.709	1365.63
1025	1365.4
1025.29	1366.08
1025.58	1355.23
1025.87	1345.29
1026.16	1368.34
1026.449	1326.53
1026.739	1295.35
1027.029	1320.21
1027.319	1318.62
1027.608	1299.41
1027.898	1282.24
1028.187	1276.14
1028.477	1282.01
1028.766	1266.65
1029.055	1233.65
1029.344	1244.5
1029.634	1244.95
1029.923	1221.22
1030.212	1226.2
1030.501	1227.78
1030.79	1217.38
1031.078	1171.51
1031.367	1204.05
1031.656	1176.03
1031.945	1180.32
1032.233	1166.99
1032.522	1144.16
1032.81	1142.58
1033.099	1136.26
1033.387	1140.78
1033.675	1113.21
1033.963	1103.04
1034.251	1167.22
1034.54	1128.35
1034.828	1084.28
1035.116	1083.83
1035.403	1091.74
1035.691	1068.23
1035.979	1065.97
1036.267	1078.4
1036.554	1041.79
1036.842	1032.98
1037.129	1038.63
1037.417	1021.23
1037.704	1021.46
1037.992	1020.55
1038.279	1020.55
1038.566	1021.23
1038.853	1021.23
1039.14	1021.23
