Data from hue_290_FLMS001491_00016.txt Node
Date: Tue Feb 07 15:52:23 GMT 2017
User: dcchb
Spectrometer: FLMS00149
Trigger mode: 0
Integration Time (sec): 2.000000E-2
Scans to average: 10
Electric dark correction enabled: true
Nonlinearity correction enabled: false
Boxcar width: 0
XAxis mode: Wavelengths
Number of Pixels in Spectrum: 2048
>>>>>Begin Spectral Data<<<<<
341.393	-19.08
341.776	-19.08
342.16	-19.08
342.543	-60.44
342.927	-84.62
343.31	-62.47
343.693	-77.16
344.077	-69.7
344.46	-66.09
344.843	-38.52
345.226	-39.65
345.61	-39.65
345.993	1.48
346.376	5.55
346.759	10.52
347.142	25.89
347.525	38.54
347.908	55.72
348.291	53.01
348.674	86.9
349.057	115.6
349.44	110.86
349.823	160.8
350.206	138.65
350.588	190.86
350.971	202.83
351.354	210.07
351.737	244.41
352.119	259.56
352.502	253.23
352.884	269.5
353.267	262.49
353.65	288.26
354.032	291.42
354.414	297.29
354.797	316.05
355.179	300.68
355.562	330.51
355.944	336.39
356.326	335.03
356.709	321.02
357.091	330.51
357.473	333.45
357.855	347.24
358.238	343.85
358.62	320.57
359.002	332.77
359.384	339.1
359.766	325.99
360.148	348.82
360.53	331.64
360.912	320.8
361.294	315.83
361.676	333
362.057	327.12
362.439	306.79
362.821	312.89
363.203	328.03
363.584	307.69
363.966	326.67
364.348	303.85
364.729	302.94
365.111	332.32
365.493	332.32
365.874	315.37
366.256	303.4
366.637	322.6
367.019	318.54
367.4	316.5
367.781	318.54
368.163	329.16
368.544	314.47
368.925	313.11
369.306	318.08
369.688	305.66
370.069	300.23
370.45	297.97
370.831	317.86
371.212	294.58
371.593	322.38
371.974	298.42
372.355	304.07
372.736	312.21
373.117	333.45
373.498	314.92
373.879	288.48
374.26	325.77
374.641	305.66
375.021	300.46
375.402	318.31
375.783	322.38
376.163	298.42
376.544	326.22
376.925	311.76
377.305	315.6
377.686	311.31
378.066	315.37
378.447	338.42
378.827	321.7
379.208	319.67
379.588	317.63
379.968	317.41
380.349	320.57
380.729	321.93
381.109	325.77
381.489	319.89
381.87	354.47
382.25	334.36
382.63	343.17
383.01	347.46
383.39	334.36
383.77	340.68
384.15	357.18
384.53	323.06
384.91	342.94
385.29	361.93
385.67	354.02
386.049	354.02
386.429	327.8
386.809	347.01
387.189	348.59
387.568	355.15
387.948	358.08
388.328	350.63
388.707	345.43
389.087	369.61
389.466	348.82
389.846	361.93
390.225	371.19
390.605	358.54
390.984	355.15
391.363	365.09
391.743	355.82
392.122	351.53
392.501	375.48
392.881	359.44
393.26	377.52
393.639	388.14
394.018	361.02
394.397	386.33
394.776	381.36
395.155	384.52
395.534	390.17
395.913	395.82
396.292	377.74
396.671	386.33
397.05	394.47
397.429	380.91
397.808	380.23
398.186	392.21
398.565	394.92
398.944	399.44
399.323	400.12
399.701	419.33
400.08	398.76
400.458	408.7
400.837	393.34
401.215	430.4
401.594	409.38
401.972	419.55
402.351	404.41
402.729	409.83
403.107	413.68
403.486	435.37
403.864	419.78
404.242	442.15
404.62	435.37
404.999	428.82
405.377	439.44
405.755	427.23
406.133	431.98
406.511	448.93
406.889	457.06
407.267	460
407.645	470.4
408.023	481.47
408.401	481.7
408.779	452.09
409.156	480.34
409.534	475.14
409.912	489.83
410.29	498.19
410.667	503.84
411.045	518.53
411.422	517.63
411.8	493
412.178	507.23
412.555	524.86
412.933	539.32
413.31	529.83
413.687	562.82
414.065	544.75
414.442	556.04
414.819	603.5
415.197	580
415.574	578.64
415.951	605.08
416.328	598.08
416.705	605.76
417.082	623.61
417.46	612.31
417.837	624.52
418.214	658.41
418.591	679.21
418.967	636.27
419.344	673.78
419.721	684.85
420.098	657.28
420.475	677.62
420.852	690.28
421.228	696.83
421.605	695.7
421.982	716.04
422.358	737.28
422.735	711.52
423.111	717.85
423.488	751.29
423.864	735.48
424.241	766.43
424.617	763.04
424.994	798.75
425.37	772.08
425.746	769.15
426.123	787.23
426.499	792.87
426.875	830.39
427.251	832.65
427.627	855.25
428.003	841.46
428.379	863.16
428.756	861.35
429.132	893.21
429.507	913.32
429.883	894.11
430.259	929.37
430.635	921.01
431.011	918.97
431.387	939.31
431.763	965.53
432.138	965.98
432.514	987.45
432.89	958.29
433.265	998.97
433.641	1005.52
434.016	1017.73
434.392	1042.13
434.767	1048.24
435.143	1042.59
435.518	1073.32
435.894	1091.62
436.269	1085.97
436.644	1092.75
437.02	1122.58
437.395	1117.16
437.77	1157.16
438.145	1154.22
438.52	1171.17
438.895	1168.46
439.271	1143.15
439.646	1212.75
440.021	1204.39
440.395	1216.82
440.77	1213.43
441.145	1231.73
441.52	1225.41
441.895	1243.94
442.27	1260.88
442.645	1243.26
443.019	1274.44
443.394	1295.01
443.769	1280.55
444.143	1275.12
444.518	1301.34
444.892	1278.74
445.267	1309.7
445.641	1295.01
446.016	1344.5
446.39	1324.84
446.764	1343.14
447.139	1332.07
447.513	1333.65
447.887	1333.88
448.262	1352.18
448.636	1327.55
449.01	1366.64
449.384	1377.94
449.758	1376.81
450.132	1411.84
450.506	1398.73
450.88	1412.29
451.254	1388.34
451.628	1430.37
452.002	1433.08
452.376	1415.01
452.75	1442.35
453.123	1439.64
453.497	1479.64
453.871	1479.41
454.244	1489.13
454.618	1493.65
454.992	1518.05
455.365	1527.09
455.739	1543.36
456.112	1551.5
456.486	1560.09
456.859	1575
457.232	1600.76
457.606	1545.85
457.979	1605.96
458.352	1622.68
458.725	1641.21
459.099	1615.23
459.472	1629.01
459.845	1662.91
460.218	1691.83
460.591	1706.75
460.964	1697.03
461.337	1697.94
461.71	1730.7
462.083	1747.43
462.456	1766.18
462.829	1749.23
463.201	1793.3
463.574	1783.58
463.947	1803.02
464.32	1841.89
464.692	1847.76
465.065	1850.02
465.438	1855.9
465.81	1881.43
466.183	1906.74
466.555	1913.98
466.928	1949
467.3	1913.07
467.672	1989.23
468.045	1995.55
468.417	1994.88
468.789	2015.89
469.161	2039.62
469.534	2043.69
469.906	2060.64
470.278	2089.79
470.65	2091.37
471.022	2150.58
471.394	2123.69
471.766	2163.46
472.138	2189.9
472.51	2242.1
472.882	2238.26
473.253	2293.4
473.625	2299.28
473.997	2296.79
474.369	2302.67
474.74	2361.87
475.112	2362.32
475.484	2421.31
475.855	2427.41
476.227	2448.88
476.598	2508.99
476.97	2507.18
477.341	2551.25
477.713	2585.37
478.084	2546.95
478.455	2626.5
478.827	2670.57
479.198	2705.14
479.569	2715.54
479.94	2739.72
480.311	2766.61
480.682	2786.04
481.053	2868.98
481.424	2879.6
481.795	2873.5
482.166	2920.5
482.537	2953.04
482.908	3030.33
483.279	3009.77
483.65	3073.72
484.021	3091.57
484.391	3142.87
484.762	3134.51
485.133	3151.91
485.503	3201.17
485.874	3253.83
486.244	3239.82
486.615	3303.77
486.985	3329.98
487.356	3332.92
487.726	3344.67
488.097	3385.8
488.467	3473.93
488.837	3499.24
489.207	3543.08
489.578	3564.78
489.948	3553.25
490.318	3627.6
490.688	3626.92
491.058	3693.14
491.428	3674.83
491.798	3745.57
492.168	3795.96
492.538	3790.54
492.908	3795.96
493.278	3894.04
493.648	3894.71
494.017	3901.49
494.387	3950.08
494.757	3948.05
495.126	3974.49
495.496	3986.91
495.866	4022.39
496.235	4026.01
496.605	4065.1
496.974	4056.07
497.344	4117.08
497.713	4074.14
498.082	4140.81
498.452	4185.78
498.821	4156.18
499.19	4167.48
499.559	4204.54
499.928	4227.13
500.298	4236.17
500.667	4303.74
501.036	4222.16
501.405	4273.46
501.774	4314.82
502.143	4282.27
502.512	4317.75
502.88	4376.96
503.249	4361.37
503.618	4370.86
503.987	4353.68
504.356	4428.94
504.724	4438.88
505.093	4416.06
505.462	4426.9
505.83	4450.63
506.199	4474.36
506.567	4552.78
506.936	4520.01
507.304	4529.27
507.672	4583.28
508.041	4588.03
508.409	4561.36
508.777	4632.1
509.145	4657.63
509.514	4650.63
509.882	4637.97
510.25	4654.92
510.618	4643.62
510.986	4717.97
511.354	4714.13
511.722	4728.36
512.09	4768.14
512.458	4756.84
512.826	4784.86
513.193	4818.98
513.561	4788.48
513.929	4810.4
514.297	4870.51
514.664	4867.57
515.032	4917.74
515.4	4854.01
515.767	4911.41
516.135	4914.12
516.502	4893.56
516.869	4950.96
517.237	4895.37
517.604	4920.9
517.972	4966.32
518.339	4963.61
518.706	5006.32
519.073	4979.43
519.44	5006.55
519.808	5026.21
520.175	4986.66
520.542	5076.38
520.909	5091.07
521.276	5079.99
521.643	5105.53
522.009	5115.7
522.376	5166.09
522.743	5162.03
523.11	5202.02
523.477	5266.2
523.843	5264.62
524.21	5266.43
524.577	5284.28
524.943	5315.02
525.31	5314.11
525.676	5385.07
526.043	5381.23
526.409	5405.63
526.776	5442.24
527.142	5447.67
527.508	5444.5
527.874	5549.81
528.241	5506.42
528.607	5538.29
528.973	5598.85
529.339	5577.61
529.705	5581.68
530.071	5621
530.437	5632.75
530.803	5689.47
531.169	5638.85
531.535	5686.08
531.901	5703.48
532.267	5716.36
532.632	5733.31
532.998	5764.72
533.364	5757.94
533.73	5804.27
534.095	5828.45
534.461	5851.05
534.826	5844.72
535.192	5895.57
535.557	5912.74
535.923	5882.91
536.288	5941.21
536.653	5911.61
537.019	5911.16
537.384	5923.81
537.749	5966.52
538.114	6008.1
538.479	6013.53
538.845	6016.47
539.21	6056.24
539.575	6007.2
539.94	6099.85
540.305	6105.05
540.67	6101.89
541.034	6124.03
541.399	6161.77
541.764	6148.67
542.129	6164.03
542.494	6234.54
542.858	6237.03
543.223	6176.46
543.587	6284.93
543.952	6248.32
544.316	6227.76
544.681	6308.89
545.045	6331.03
545.41	6345.05
545.774	6323.35
546.138	6385.72
546.503	6323.8
546.867	6347.76
547.231	6434.99
547.595	6374.65
547.959	6435.44
548.324	6441.99
548.688	6444.03
549.052	6525.83
549.416	6451.26
549.779	6524.93
550.143	6446.74
550.507	6510.69
550.871	6539.39
551.235	6544.81
551.599	6556.56
551.962	6579.84
552.326	6627.07
552.689	6606.96
553.053	6575.32
553.417	6627.07
553.78	6665.26
554.143	6586.62
554.507	6632.72
554.87	6679.27
555.234	6714.07
555.597	6696.22
555.96	6695.54
556.323	6759.5
556.686	6716.56
557.05	6728.54
557.413	6780.74
557.776	6795.43
558.139	6817.12
558.502	6885.14
558.865	6892.6
559.228	6867.74
559.59	6903.22
559.953	6912.71
560.316	6931.02
560.679	6933.5
561.041	7039.04
561.404	7023.67
561.767	7002.88
562.129	7015.08
562.492	7115.19
562.854	7100.96
563.217	7050.34
563.579	7133.27
563.941	7091.01
564.304	7145.93
564.666	7218.47
565.028	7202.2
565.39	7219.82
565.753	7219.6
566.115	7321.52
566.477	7261.41
566.839	7274.06
567.201	7365.81
567.563	7388.86
567.925	7369.65
568.287	7420.95
568.648	7387.05
569.01	7441.51
569.372	7509.53
569.734	7427.95
570.095	7549.31
570.457	7648.06
570.819	7616.65
571.18	7657.78
571.542	7686.7
571.903	7656.42
572.265	7691
572.626	7732.13
572.987	7815.97
573.349	7785.91
573.71	7853.25
574.071	7845.34
574.432	7952.46
574.794	7988.39
575.155	7955.17
575.516	7981.84
575.877	7997.88
576.238	8094.83
576.599	8176.18
576.96	8243.07
577.32	8231.78
577.681	8316.52
578.042	8310.19
578.403	8352.22
578.763	8416.85
579.124	8436.06
579.485	8586.79
579.845	8678.32
580.206	8635.15
580.566	8771.2
580.927	8782.72
581.287	8897.07
581.648	8907.92
582.008	9098.19
582.368	9094.35
582.728	9205.31
583.089	9281.69
583.449	9352.2
583.809	9452.53
584.169	9481.01
584.529	9606.65
584.889	9794.9
585.249	9807.33
585.609	9903.37
585.969	9976.59
586.329	10066.08
586.688	10293.64
587.048	10390.14
587.408	10521.88
587.768	10610.7
588.127	10747.19
588.487	10762.78
588.846	11011.36
589.206	10982.66
589.565	11144.01
589.925	11384.23
590.284	11470.33
590.643	11642.31
591.003	11762.98
591.362	11897.44
591.721	12017.89
592.08	12109.19
592.44	12315.28
592.799	12498.1
593.158	12518.22
593.517	12621.94
593.876	12829.62
594.235	12946.91
594.593	13134.47
594.952	13225.99
595.311	13324.75
595.67	13571.52
596.029	13718.64
596.387	13823.49
596.746	14018.06
597.104	14084.28
597.463	14143.26
597.822	14284.95
598.18	14362.69
598.538	14583.92
598.897	14785.73
599.255	14740.53
599.613	15065.04
599.972	15109.33
600.33	15162.44
600.688	15267.3
601.046	15460.51
601.404	15631.13
601.762	15696.21
602.12	15767.17
602.478	15902.53
602.836	16006.49
603.194	16113.6
603.552	16216.2
603.91	16229.3
604.268	16355.18
604.625	16468.39
604.983	16632.91
605.341	16703.19
605.698	16758.78
606.056	16947.03
606.413	16922.62
606.771	17091.66
607.128	17120.58
607.485	17213.46
607.843	17291.88
608.2	17511.31
608.557	17517.18
608.914	17552.21
609.272	17696.84
609.629	17844.63
609.986	17987.22
610.343	17819.55
610.7	18061.8
611.057	18076.26
611.414	18251.4
611.771	18239.2
612.127	18426.54
612.484	18403.71
612.841	18586.31
613.198	18471.96
613.554	18496.59
613.911	18672.18
614.267	18712.18
614.624	18857.26
614.98	18890.48
615.337	19026.29
615.693	19054.54
616.05	18949.46
616.406	19269.68
616.762	19120.98
617.118	19163.69
617.475	19223.8
617.831	19425.38
618.187	19326.85
618.543	19488.65
618.899	19525.94
619.255	19536.56
619.611	19560.52
619.967	19648.42
620.323	19789.89
620.678	19708.99
621.034	19683.9
621.39	19697.01
621.746	19772.26
622.101	20035.53
622.457	19923.67
622.812	19875.31
623.168	20048.87
623.523	20045.02
623.879	20021.07
624.234	19954.63
624.589	19957.12
624.945	20080.96
625.3	20156.21
625.655	20155.3
626.01	20176.32
626.365	20180.39
626.72	20311.68
627.075	20211.57
627.43	20284.34
627.785	20109.88
628.14	20234.85
628.495	20159.37
628.85	20213.61
629.205	20204.12
629.559	20378.35
629.914	20195.3
630.269	20405.24
630.623	20266.71
630.978	20279.59
631.332	20328.86
631.687	20403.88
632.041	20199.14
632.396	20411.57
632.75	20268.29
633.104	20390.55
633.459	20218.13
633.813	20268.52
634.167	20237.11
634.521	20159.6
634.875	20218.8
635.229	20252.25
635.583	20192.82
635.937	20216.32
636.291	20130.45
636.645	20181.52
636.999	20090.45
637.352	20259.26
637.706	20160.27
638.06	20222.87
638.413	20101.29
638.767	20143.55
639.121	20114.85
639.474	20026.95
639.828	19925.03
640.181	20039.37
640.534	20101.29
640.888	20030.11
641.241	19958.92
641.594	19964.57
641.947	19992.6
642.301	20022.43
642.654	20075.53
643.007	20154.85
643.36	20011.58
643.713	20136.77
644.066	20000.28
644.419	19975.2
644.771	19794.63
645.124	19644.36
645.477	19647.97
645.83	19494.3
646.182	19467.41
646.535	19413.4
646.888	19370.47
647.24	19365.72
647.593	19487.3
647.945	19468.09
648.298	19408.66
648.65	19316
649.002	19330.69
649.355	19358.04
649.707	19389
650.059	19446.17
650.411	19707.86
650.763	19775.43
651.115	19803.9
651.467	19776.56
651.819	19796.67
652.171	19764.81
652.523	19730.68
652.875	19771.58
653.227	19627.63
653.578	19895.88
653.93	19802.77
654.282	19730.23
654.633	19672.83
654.985	19698.14
655.337	19866.5
655.688	19674.64
656.039	19837.35
656.391	19760.96
656.742	19782.21
657.094	19860.4
657.445	19823.56
657.796	19727.29
658.147	19769.1
658.498	19654.3
658.849	19857.46
659.2	19788.08
659.551	19807.97
659.902	19843.45
660.253	19802.32
660.604	19858.36
660.955	19798.25
661.306	19889.55
661.656	19791.7
662.007	19831.92
662.358	19864.24
662.708	19922.54
663.059	19878.7
663.409	19822.88
663.76	19913.73
664.11	19906.72
664.461	19929.55
664.811	19836.89
665.161	19837.57
665.511	19878.7
665.862	19876.67
666.212	19895.42
666.562	19993.27
666.912	19914.63
667.262	19865.37
667.612	19887.51
667.962	19931.13
668.312	19880.96
668.662	20002.77
669.011	19936.78
669.361	19943.78
669.711	19898.13
670.06	19842.32
670.41	19775.2
670.76	19665.37
671.109	19903.11
671.459	19735.43
671.808	19854.52
672.157	19793.5
672.507	19665.15
672.856	19663.34
673.205	19777.01
673.554	19770
673.904	19769.55
674.253	19812.26
674.602	19670.57
674.951	19438.94
675.3	19361.88
675.649	19667.18
675.998	19696.11
676.346	19704.92
676.695	19656.33
677.044	19581.53
677.393	19533.85
677.741	19623.57
678.09	19454.08
678.438	19466.28
678.787	19534.75
679.135	19489.33
679.484	19445.72
679.832	19544.25
680.181	19265.38
680.529	19431.03
680.877	19344.03
681.225	19264.25
681.573	19383.12
681.922	19302.67
682.27	19149.45
682.618	19304.25
682.966	19051.6
683.314	19195.78
683.661	19096.57
684.009	19052.28
684.357	18999.85
684.705	18911.49
685.053	19003.7
685.4	18959.4
685.748	18831.72
686.095	18826.98
686.443	18789.01
686.79	18777.49
687.138	18771.38
687.485	18740.43
687.832	18777.26
688.18	18629.47
688.527	18527.55
688.874	18579.75
689.221	18511.73
689.568	18414.78
689.915	18412.3
690.262	18376.37
690.609	18360.1
690.956	18246.65
691.303	18216.37
691.65	18138.18
691.997	18203.26
692.344	18012.08
692.69	18057.28
693.037	18072.65
693.383	17840.79
693.73	17981.12
694.077	17782.26
694.423	17816.16
694.769	17723.5
695.116	17653.22
695.462	17754.46
695.808	17700
696.155	17599.21
696.501	17516.05
696.847	17619.32
697.193	17352.67
697.539	17401.93
697.885	17335.49
698.231	17205.55
698.577	17242.39
698.923	17140.92
699.269	17156.29
699.614	16999.91
699.96	16906.35
700.306	16869.74
700.651	16805.56
700.997	16758.1
701.342	16747.03
701.688	16677.43
702.033	16555.85
702.379	16635.62
702.724	16456.87
703.069	16507.04
703.415	16272.69
703.76	16376.42
704.105	16352.47
704.45	16242.64
704.795	16120.61
705.14	16081.29
705.485	16098.23
705.83	16040.16
706.175	16021.4
706.52	15960.61
706.865	15853.27
707.209	15876.55
707.554	15827.96
707.899	15833.84
708.243	15753.84
708.588	15752.03
708.932	15709.32
709.277	15729.21
709.621	15630.68
709.966	15506.39
710.31	15562.2
710.654	15309.56
710.998	15446.95
711.342	15429.78
711.687	15345.71
712.031	15322.89
712.375	15305.49
712.719	15305.04
713.063	15209.9
713.407	15247.18
713.75	15091.93
714.094	15153.4
714.438	15113.18
714.782	15026.85
715.125	15031.82
715.469	14933.97
715.812	14954.08
716.156	14801.55
716.499	14915.22
716.843	14860.53
717.186	14836.57
717.53	14812.39
717.873	14840.64
718.216	14754.32
718.559	14765.61
718.902	14639.29
719.246	14744.6
719.589	14634.09
719.932	14634.32
720.275	14588.22
720.617	14660.08
720.96	14544.38
721.303	14539.18
721.646	14582.79
721.989	14478.16
722.331	14499.18
722.674	14498.73
723.016	14517.03
723.359	14505.51
723.701	14519.29
724.044	14386.87
724.386	14311.62
724.729	14390.48
725.071	14349.81
725.413	14355.91
725.755	14418.28
726.097	14318.62
726.439	14318.17
726.782	14221.9
727.124	14331.5
727.465	14261.9
727.807	14316.59
728.149	14230.49
728.491	14251.96
728.833	14257.61
729.175	14159.75
729.516	14119.76
729.858	14200.66
730.199	14129.47
730.541	14213.54
730.882	14156.14
731.224	14122.47
731.565	14120.43
731.906	14057.61
732.248	14173.77
732.589	14022.81
732.93	14021
733.271	14053.77
733.612	14077.05
733.953	14061.45
734.294	14045.63
734.635	14114.78
734.976	14043.83
735.317	14033.88
735.658	14008.12
735.999	14056.71
736.339	13982.81
736.68	14112.98
737.021	14020.32
737.361	14005.63
737.702	14084.73
738.042	14093.54
738.383	14057.84
738.723	14011.28
739.063	14073.43
739.404	14103.26
739.744	13994.11
740.084	13936.94
740.424	14038.18
740.764	14059.64
741.104	14147.55
741.444	14036.59
741.784	14072.98
742.124	14025.75
742.464	14152.07
742.804	14102.81
743.143	14068.91
743.483	14178.96
743.823	14119.08
744.162	14148
744.502	14222.35
744.841	14197.95
745.181	14214.22
745.52	14267.77
745.86	14249.02
746.199	14280.2
746.538	14372.4
746.877	14376.02
747.216	14508.67
747.556	14436.81
747.895	14485.17
748.234	14476.13
748.573	14583.7
748.911	14644.04
749.25	14693.75
749.589	14677.93
749.928	14795.9
750.267	14914.99
750.605	14912.96
750.944	15019.62
751.283	15013.52
751.621	15199.28
751.96	15145.94
752.298	15163.34
752.636	15318.82
752.975	15415.99
753.313	15364.24
753.651	15599.72
753.989	15567.85
754.327	15681.52
754.666	15731.92
755.004	15890.56
755.342	16073.6
755.679	16072.02
756.017	16156.54
756.355	16256.65
756.693	16340.26
757.031	16520.14
757.368	16571.44
757.706	16686.47
758.044	16695.73
758.381	16820.93
758.719	16907.71
759.056	17022.73
759.394	17108.6
759.731	17139.34
760.068	17313.34
760.405	17328.71
760.743	17381.59
761.08	17655.93
761.417	17611.87
761.754	17745.2
762.091	17855.25
762.428	17794.01
762.765	17901.8
763.102	18131.4
763.438	18032.87
763.775	18099.99
764.112	18262.92
764.449	18422.02
764.785	18426.54
765.122	18437.61
765.458	18451.39
765.795	18550.15
766.131	18672.86
766.467	18705.85
766.804	18729.8
767.14	18739.75
767.476	18854.77
767.812	18768
768.148	18927.54
768.485	18880.99
768.821	18865.85
769.157	18984.71
769.492	18957.82
769.828	19157.59
770.164	18960.76
770.5	19050.02
770.836	19052.06
771.171	19085.05
771.507	19049.12
771.842	18976.35
772.178	19069.68
772.513	18970.25
772.849	19117.82
773.184	19116.69
773.519	19117.59
773.855	19010.7
774.19	19088.21
774.525	18993.53
774.86	19027.65
775.195	18896.13
775.53	19037.59
775.865	19046.86
776.2	18839.18
776.535	18891.16
776.87	18845.28
777.205	18873.08
777.539	18754.89
777.874	18820.88
778.209	18694.55
778.543	18625.17
778.878	18657.26
779.212	18604.61
779.547	18583.59
779.881	18596.47
780.215	18457.04
780.55	18600.77
780.884	18525.29
781.218	18385.18
781.552	18405.52
781.886	18402.13
782.22	18279.65
782.554	18195.81
782.888	18110.61
783.222	18108.35
783.556	18101.35
783.889	18095.47
784.223	17945.87
784.557	18020.44
784.89	17992.2
785.224	17849.6
785.557	17822.48
785.891	17832.88
786.224	17747.01
786.558	17741.13
786.891	17664.75
787.224	17595.82
787.557	17537.97
787.891	17598.31
788.224	17555.6
788.557	17514.69
788.89	17426.56
789.223	17482.38
789.556	17298.43
789.888	17271.99
790.221	17200.58
790.554	17077.64
790.887	17121.94
791.219	17073.8
791.552	16957.2
791.884	17006.23
792.217	16949.51
792.549	16894.15
792.882	16761.27
793.214	16663.87
793.546	16813.7
793.879	16653.25
794.211	16454.38
794.543	16488.96
794.875	16560.82
795.207	16549.3
795.539	16406.93
795.871	16468.62
796.203	16328.74
796.535	16185.46
796.867	16202.86
797.198	16078.35
797.53	16141.85
797.862	16065.92
798.193	16127.16
798.525	15921.74
798.856	16050.1
799.188	15887.17
799.519	15840.61
799.85	15722.88
800.182	15747.06
800.513	15785.93
800.844	15568.53
801.175	15677.91
801.506	15638.81
801.837	15520.4
802.168	15570.57
802.499	15506.61
802.83	15434.52
803.161	15344.81
803.491	15339.38
803.822	15320.4
804.153	15310.01
804.483	15104.81
804.814	15105.04
805.145	15043.8
805.475	15074.98
805.805	15040.64
806.136	15028.88
806.466	14994.08
806.796	14979.85
807.126	14871.6
807.457	14780.76
807.787	14828.66
808.117	14747.99
808.447	14717.93
808.777	14715.45
809.107	14742.11
809.436	14564.94
809.766	14590.7
810.096	14611.72
810.426	14574.89
810.755	14509.12
811.085	14402.69
811.414	14540.76
811.744	14382.12
812.073	14357.94
812.403	14319.75
812.732	14229.36
813.061	14286.53
813.39	14217.61
813.719	14102.36
814.049	14249.02
814.378	14110.49
814.707	14098.29
815.036	14111.62
815.365	13998.63
815.693	13955.47
816.022	13864.85
816.351	13989.36
816.68	13770.84
817.008	13871.4
817.337	13699.43
817.665	13686.09
817.994	13730.61
818.322	13714.79
818.651	13647.45
818.979	13615.14
819.307	13663.04
819.636	13658.98
819.964	13505.31
820.292	13630.05
820.62	13534.23
820.948	13527
821.276	13480.45
821.604	13428.93
821.932	13519.32
822.259	13494.91
822.587	13487.91
822.915	13431.64
823.243	13428.93
823.57	13409.27
823.898	13421.92
824.225	13407.46
824.553	13408.81
824.88	13441.36
825.207	13477.96
825.535	13418.08
825.862	13402.03
826.189	13343.28
826.516	13429.6
826.843	13430.06
827.17	13514.35
827.497	13450.62
827.824	13429.83
828.151	13584.4
828.478	13430.28
828.805	13556.83
829.131	13514.8
829.458	13388.25
829.785	13402.03
830.111	13365.2
830.438	13414.92
830.764	13521.13
831.09	13523.61
831.417	13343.28
831.743	13409.04
832.069	13460.11
832.395	13307.8
832.722	13371.75
833.048	13301.47
833.374	13312.32
833.7	13359.55
834.026	13376.95
834.351	13410.62
834.677	13313.9
835.003	13275.94
835.329	13293.34
835.654	13236.84
835.98	13219.67
836.306	13224.64
836.631	13182.61
836.956	13212.66
837.282	13233.68
837.607	13136.96
837.932	13131.31
838.258	13099.22
838.583	13116.84
838.908	13010.41
839.233	13002.5
839.558	13051.76
839.883	12978.09
840.208	12932.22
840.533	12943.97
840.858	12928.15
841.182	12942.61
841.507	12904.42
841.832	12817.87
842.156	12807.25
842.481	12813.58
842.805	12765.67
843.13	12771.99
843.454	12703.07
843.778	12640.25
844.103	12632.34
844.427	12639.34
844.751	12592.34
845.075	12533.58
845.399	12534.26
845.723	12406.81
846.047	12478.22
846.371	12353.7
846.695	12329.29
847.019	12271.67
847.343	12248.17
847.666	12221.05
847.99	12156.87
848.313	12080.71
848.637	12043.88
848.96	12002.52
849.284	11905.12
849.607	11904.45
849.931	11900.15
850.254	11775.64
850.577	11752.81
850.9	11641.63
851.223	11632.36
851.546	11585.36
851.869	11518.92
852.192	11504.68
852.515	11440.5
852.838	11462.2
853.161	11405.25
853.483	11373.16
853.806	11275.54
854.129	11296.1
854.451	11213.62
854.774	11191.92
855.096	11148.76
855.419	11135.88
855.741	11122.55
856.063	10985.37
856.385	10975.88
856.708	10967.75
857.03	10940.63
857.352	10989.89
857.674	10959.16
857.996	10909.67
858.318	10841.42
858.64	10747.19
858.961	10768.43
859.283	10785.15
859.605	10743.57
859.926	10736.34
860.248	10648.89
860.57	10624.03
860.891	10635.78
861.212	10551.04
861.534	10545.39
861.855	10502
862.176	10540.41
862.498	10467.65
862.819	10529.34
863.14	10462.45
863.461	10448.67
863.782	10352.62
864.103	10439.17
864.424	10430.14
864.745	10398.5
865.065	10354.88
865.386	10270.82
865.707	10266.52
866.027	10301.55
866.348	10238.73
866.668	10264.72
866.989	10250.25
867.309	10132.06
867.63	10213.42
867.95	10141.56
868.27	10026.76
868.59	10215
868.91	10190.59
869.23	10099.52
869.55	9978.62
869.87	10091.39
870.19	10015.91
870.51	10088
870.83	10059.07
871.15	9968.9
871.469	9952.86
871.789	9977.04
872.109	9994.67
872.428	9915.12
872.748	9907.21
873.067	9889.13
873.386	9863.37
873.706	9853.43
874.025	9826.08
874.344	9859.75
874.663	9837.38
874.982	9831.06
875.301	9830.38
875.62	9789.02
875.939	9796.71
876.258	9763.94
876.577	9682.58
876.896	9769.59
877.214	9688.91
877.533	9724.62
877.852	9672.87
878.17	9695.69
878.489	9695.69
878.807	9641.68
879.125	9636.48
879.444	9561.68
879.762	9537.73
880.08	9538.63
880.398	9531.4
880.716	9435.81
881.034	9464.51
881.352	9490.05
881.67	9456.83
881.988	9454.79
882.306	9465.19
882.624	9386.1
882.941	9388.35
883.259	9344.51
883.577	9341.12
883.894	9255.48
884.212	9304.29
884.529	9236.95
884.846	9180
885.164	9218.42
885.481	9122.15
885.798	9142.94
886.115	9125.76
886.432	9097.97
886.75	9105.42
887.067	9096.61
887.383	9009.16
887.7	9056.39
888.017	9063.84
888.334	9014.81
888.651	8975.94
888.967	8994.92
889.284	8919.67
889.6	8876.96
889.917	8875.37
890.233	8842.38
890.55	8765.77
890.866	8805.77
891.182	8787.24
891.498	8740.91
891.815	8730.75
892.131	8678.32
892.447	8680.58
892.763	8674.7
893.079	8671.54
893.395	8591.31
893.71	8531.88
894.026	8523.97
894.342	8500.02
894.657	8406.91
894.973	8476.97
895.289	8433.58
895.604	8406.23
895.92	8364.88
896.235	8282.62
896.55	8378.66
896.865	8368.49
897.181	8282.85
897.496	8279.23
897.811	8257.09
898.126	8166.69
898.441	8155.84
898.756	8130.53
899.071	8061.38
899.386	8119.46
899.7	8022.06
900.015	8075.85
900.33	7957.21
900.644	7896.42
900.959	7867.72
901.273	7882.41
901.588	7880.37
901.902	7807.38
902.216	7792.01
902.531	7755.18
902.845	7757.21
903.159	7750.88
903.473	7679.93
903.787	7671.34
904.101	7580.72
904.415	7660.49
904.729	7565.8
905.042	7520.38
905.356	7530.78
905.67	7487.84
905.984	7434.96
906.297	7507.05
906.611	7391.12
906.924	7389.31
907.237	7380.27
907.551	7335.53
907.864	7293.72
908.177	7257.56
908.491	7330.78
908.804	7173.5
909.117	7083.33
909.43	7197.23
909.743	7110.9
910.056	7119.04
910.368	7060.96
910.681	7019.15
910.994	6982.32
911.307	6976.67
911.619	6945.26
911.932	6948.87
912.244	6894.41
912.557	6924.01
912.869	6827.52
913.181	6791.13
913.494	6804.92
913.806	6703.23
914.118	6740.06
914.43	6664.81
914.742	6675.43
915.054	6655.09
915.366	6637.47
915.678	6556.34
915.99	6552.95
916.302	6529.45
916.613	6511.82
916.925	6460.97
917.236	6431.37
917.548	6406.29
917.859	6385.27
918.171	6376.68
918.482	6325.61
918.794	6303.69
919.105	6223.24
919.416	6241.77
919.727	6229.79
920.038	6189.12
920.349	6185.5
920.66	6161.77
920.971	6169
921.282	6101.66
921.593	6066.63
921.903	6050.59
922.214	6040.42
922.525	5988.9
922.835	6039.74
923.146	5941.21
923.456	5910.25
923.767	5945.51
924.077	5925.85
924.387	5875.9
924.697	5836.58
925.008	5860.76
925.318	5797.26
925.628	5804.04
925.938	5770.6
926.248	5707.77
926.558	5643.14
926.867	5715.46
927.177	5652.63
927.487	5639.53
927.796	5614.22
928.106	5598.4
928.416	5569.47
928.725	5614.44
929.034	5514.33
929.344	5499.64
929.653	5467.1
929.962	5431.17
930.271	5400.66
930.581	5378.74
930.89	5365.41
931.199	5308.91
931.508	5348.24
931.817	5340.55
932.125	5299.42
932.434	5258.29
932.743	5244.96
933.051	5221.68
933.36	5174.68
933.669	5110.05
933.977	5152.53
934.286	5123.16
934.594	5114.12
934.902	5045.87
935.21	5064.4
935.519	5045.19
935.827	5022.82
936.135	4999.09
936.443	4925.2
936.751	4947.79
937.059	4945.99
937.367	4862.6
937.674	4897.4
937.982	4877.29
938.29	4846.78
938.597	4811.3
938.905	4795.93
939.213	4762.94
939.52	4781.7
939.827	4726.33
940.135	4714.58
940.442	4694.92
940.749	4685.2
941.056	4698.76
941.363	4649.04
941.67	4606.11
941.977	4633.68
942.284	4542.15
942.591	4562.72
942.898	4524.08
943.205	4545.77
943.511	4522.04
943.818	4512.78
944.125	4454.93
944.431	4424.64
944.738	4451.08
945.044	4392.33
945.35	4370.86
945.657	4365.21
945.963	4373.12
946.269	4327.92
946.575	4329.05
946.881	4298.32
947.187	4289.73
947.493	4250.41
947.799	4218.77
948.105	4226.23
948.41	4183.07
948.716	4192.11
949.022	4131.77
949.327	4153.24
949.633	4168.83
949.938	4153.69
950.244	4129.28
950.549	4064.65
950.854	4069.17
951.16	4044.99
951.465	4017.87
951.77	3988.5
952.075	3984.66
952.38	3976.97
952.685	3977.65
952.99	3949.4
953.294	3940.36
953.599	3875.51
953.904	3873.25
954.209	3915.05
954.513	3857.2
954.818	3847.03
955.122	3842.74
955.426	3829.63
955.731	3850.87
956.035	3772.23
956.339	3785.11
956.643	3762.51
956.948	3703.98
957.252	3662.18
957.556	3723.87
957.86	3645.91
958.163	3677.09
958.467	3636.42
958.771	3661.27
959.075	3624.66
959.378	3614.5
959.682	3619.47
959.985	3593.25
960.289	3544.89
960.592	3513.93
960.896	3539.47
961.199	3518
961.502	3518.23
961.805	3469.87
962.108	3496.53
962.411	3475.52
962.714	3406.59
963.017	3438.91
963.32	3427.16
963.623	3399.36
963.926	3395.29
964.228	3336.31
964.531	3331.34
964.833	3328.4
965.136	3325.92
965.438	3294.5
965.741	3323.88
966.043	3263.54
966.345	3241.85
966.648	3285.69
966.95	3232.58
967.252	3195.75
967.554	3207.27
967.856	3227.84
968.158	3160.95
968.46	3155.3
968.761	3151.46
969.063	3106.71
969.365	3114.62
969.666	3099.48
969.968	3111.91
970.269	3062.19
970.571	3099.03
970.872	3070.78
971.174	3076.43
971.475	3048.18
971.776	3026.04
972.077	2996.43
972.378	2998.92
972.679	2993.49
972.98	2987.39
973.281	2971.12
973.582	2933.16
973.883	2879.15
974.183	2906.04
974.484	2882.54
974.785	2871.01
975.085	2911.69
975.386	2870.11
975.686	2847.51
975.986	2874.18
976.287	2854.29
976.587	2798.02
976.887	2790.11
977.187	2802.31
977.487	2777
977.787	2774.07
978.087	2751.02
978.387	2708.76
978.687	2689.77
978.987	2707.85
979.286	2710.11
979.586	2686.61
979.885	2648.42
980.185	2686.84
980.484	2679.15
980.784	2663.11
981.083	2607.52
981.382	2607.52
981.682	2605.93
981.981	2572.04
982.28	2583.11
982.579	2557.35
982.878	2587.18
983.177	2544.47
983.475	2556.9
983.774	2540.17
984.073	2517.35
984.372	2500.63
984.67	2497.91
984.969	2490.46
985.267	2515.54
985.566	2456.79
985.864	2435.77
986.162	2476.45
986.461	2440.51
986.759	2432.83
987.057	2412.95
987.355	2371.82
987.653	2407.07
987.951	2379.5
988.249	2378.14
988.547	2383.57
988.844	2338.6
989.142	2361.42
989.44	2300.86
989.737	2330.69
990.035	2286.17
990.332	2303.34
990.63	2280.75
990.927	2272.38
991.224	2265.6
991.521	2256.11
991.819	2284.36
992.116	2231.93
992.413	2241.42
992.71	2209.11
993.006	2166.85
993.303	2201.88
993.6	2206.4
993.897	2168.21
994.193	2164.14
994.49	2146.51
994.787	2134.76
995.083	2151.48
995.379	2119.17
995.676	2101.31
995.972	2092.73
996.268	2101.54
996.565	2044.59
996.861	2066.74
997.157	2072.61
997.453	2049.56
997.749	2003.92
998.044	1998.04
998.34	2007.98
998.636	1977.25
998.932	1989
999.227	1998.94
999.523	1983.35
999.818	1985.39
1000.114	1946.74
1000.409	1929.12
1000.704	1940.19
1001	1951.04
1001.295	1915.56
1001.59	1931.38
1001.885	1923.47
1002.18	1869.46
1002.475	1859.51
1002.77	1869.91
1003.065	1846.63
1003.359	1855.22
1003.654	1845.05
1003.949	1800.76
1004.243	1804.37
1004.538	1786.75
1004.832	1807.54
1005.127	1798.5
1005.421	1773.64
1005.715	1769.57
1006.009	1756.24
1006.304	1764.15
1006.598	1738.16
1006.892	1713.53
1007.186	1707.2
1007.48	1708.33
1007.773	1690.48
1008.067	1680.76
1008.361	1682.79
1008.655	1668.78
1008.948	1663.81
1009.242	1653.64
1009.535	1655.45
1009.829	1627.43
1010.122	1628.56
1010.415	1620.2
1010.708	1600.76
1011.001	1588.33
1011.295	1563.93
1011.588	1578.84
1011.881	1539.52
1012.173	1569.35
1012.466	1579.97
1012.759	1544.95
1013.052	1550.14
1013.344	1547.43
1013.637	1538.62
1013.93	1502.46
1014.222	1511.05
1014.514	1480.99
1014.807	1499.07
1015.099	1488.9
1015.391	1485.06
1015.683	1491.39
1015.976	1459.75
1016.268	1452.07
1016.56	1418.62
1016.851	1415.23
1017.143	1416.14
1017.435	1417.49
1017.727	1395.12
1018.018	1389.7
1018.31	1392.18
1018.602	1381.33
1018.893	1330.04
1019.185	1357.38
1019.476	1337.27
1019.767	1362.8
1020.058	1320.32
1020.35	1318.28
1020.641	1344.05
1020.932	1289.81
1021.223	1277.61
1021.514	1286.87
1021.804	1288.23
1022.095	1263.37
1022.386	1264.95
1022.677	1242.58
1022.967	1250.72
1023.258	1255.01
1023.548	1227.44
1023.839	1228.34
1024.129	1240.09
1024.419	1209.81
1024.709	1196.48
1025	1176.37
1025.29	1206.42
1025.58	1147.67
1025.87	1172.75
1026.16	1165.07
1026.449	1162.58
1026.739	1163.03
1027.029	1151.96
1027.319	1128.01
1027.608	1129.59
1027.898	1120.78
1028.187	1111.74
1028.477	1104.05
1028.766	1089.14
1029.055	1080.32
1029.344	1087.56
1029.634	1074
1029.923	1056.14
1030.212	1066.09
1030.501	1060.44
1030.79	1030.16
1031.078	1015.92
1031.367	1046.43
1031.656	1034.45
1031.945	1015.24
1032.233	1025.18
1032.522	1010.5
1032.81	1019.31
1033.099	995.58
1033.387	1015.69
1033.675	992.87
1033.963	975.92
1034.251	984.06
1034.54	959.2
1034.828	961.23
1035.116	949.25
1035.403	949.03
1035.691	949.48
1035.979	956.71
1036.267	921.01
1036.554	948.12
1036.842	898.18
1037.129	921.46
1037.417	914.45
1037.704	918.52
1037.992	905.19
1038.279	897.05
1038.566	893.21
1038.853	893.21
1039.14	893.21
