Data from hue_30_FLMS001491_79.txt Node
Date: Mon Feb 06 15:05:56 GMT 2017
User: dcchb
Spectrometer: FLMS00149
Trigger mode: 0
Integration Time (sec): 2.000000E-2
Scans to average: 10
Electric dark correction enabled: true
Nonlinearity correction enabled: false
Boxcar width: 0
XAxis mode: Wavelengths
Number of Pixels in Spectrum: 2048
>>>>>Begin Spectral Data<<<<<
341.393	-22.29
341.776	-22.29
342.16	-22.29
342.543	-50.76
342.927	-50.76
343.31	-58.44
343.693	-60.25
344.077	-68.39
344.46	-61.83
344.843	-48.5
345.226	-38.56
345.61	-25.68
345.993	-15.96
346.376	-8.5
346.759	9.12
347.142	7.32
347.525	36.69
347.908	49.57
348.291	81.66
348.674	85.51
349.057	116.24
349.44	107.43
349.823	142.23
350.206	162.57
350.588	207.31
350.971	211.83
351.354	230.36
351.737	228.55
352.119	257.93
352.502	267.42
352.884	274.88
353.267	292.28
353.65	301.77
354.032	294.99
354.414	321.21
354.797	316.46
355.179	304.94
355.562	328.66
355.944	348.78
356.326	329.12
356.709	326.86
357.091	328.44
357.473	357.14
357.855	327.99
358.238	357.59
358.62	335.44
359.002	327.08
359.384	335.67
359.766	323.47
360.148	342.45
360.53	337.93
360.912	342
361.294	355.33
361.676	331.6
362.057	350.58
362.439	321.43
362.821	327.53
363.203	322.34
363.584	332.51
363.966	342.22
364.348	324.14
364.729	342.22
365.111	320.3
365.493	336.57
365.874	305.84
366.256	331.83
366.637	322.79
367.019	304.94
367.4	322.56
367.781	316.91
368.163	319.62
368.544	315.78
368.925	297.25
369.306	319.85
369.688	314.65
370.069	329.34
370.45	307.65
370.831	303.58
371.212	300.42
371.593	306.07
371.974	324.14
372.355	301.55
372.736	317.59
373.117	311.49
373.498	324.14
373.879	312.84
374.26	305.16
374.641	324.6
375.021	317.36
375.402	319.4
375.783	328.66
376.163	342.9
376.544	336.8
376.925	332.05
377.305	343.13
377.686	314.2
378.066	323.24
378.447	327.99
378.827	329.34
379.208	333.64
379.588	322.56
379.968	343.13
380.349	353.52
380.729	343.58
381.109	330.47
381.489	337.48
381.87	356.01
382.25	345.84
382.63	335.22
383.01	338.38
383.39	361.88
383.77	341.77
384.15	338.38
384.53	337.7
384.91	362.11
385.29	366.18
385.67	358.49
386.049	346.52
386.429	365.27
386.809	364.37
387.189	349.91
387.568	359.17
387.948	348.78
388.328	353.52
388.707	389.91
389.087	377.02
389.466	368.66
389.846	360.75
390.225	365.72
390.605	349.23
390.984	365.95
391.363	366.4
391.743	362.11
392.122	379.28
392.501	383.58
392.881	366.18
393.26	360.53
393.639	377.48
394.018	371.83
394.397	382.45
394.776	371.83
395.155	382.22
395.534	374.31
395.913	384.26
396.292	387.87
396.671	367.31
397.05	384.48
397.429	391.94
397.808	375.22
398.186	400.53
398.565	393.52
398.944	387.65
399.323	390.58
399.701	396.01
400.08	392.39
400.458	391.49
400.837	393.07
401.215	418.38
401.594	430.36
401.972	409.57
402.351	401.43
402.729	411.83
403.107	405.95
403.486	419.28
403.864	400.3
404.242	421.77
404.62	414.54
404.999	442.56
405.377	421.32
405.755	433.75
406.133	443.01
406.511	421.77
406.889	419.51
407.267	431.26
407.645	441.88
408.023	448.43
408.401	443.01
408.779	451.37
409.156	442.11
409.534	451.6
409.912	445.95
410.29	453.41
410.667	466.97
411.045	449.11
411.422	475.33
411.8	469.22
412.178	468.32
412.555	470.35
412.933	469.68
413.31	472.39
413.687	469.45
414.065	479.17
414.442	473.97
414.819	506.96
415.197	500.86
415.574	500.18
415.951	507.64
416.328	520.07
416.705	503.8
417.082	508.77
417.46	495.66
417.837	519.62
418.214	522.78
418.591	512.39
418.967	534.53
419.344	527.3
419.721	527.53
420.098	520.52
420.475	512.16
420.852	543.12
421.228	571.6
421.605	519.62
421.982	538.6
422.358	542.67
422.735	558.26
423.111	560.75
423.488	553.97
423.864	554.42
424.241	542.9
424.617	561.43
424.994	560.75
425.37	589
425.746	568.88
426.123	590.13
426.499	572.5
426.875	576.11
427.251	591.48
427.627	610.46
428.003	607.98
428.379	605.94
428.756	610.24
429.132	589.45
429.507	627.19
429.883	610.69
430.259	642.1
430.635	619.05
431.011	643.68
431.387	645.72
431.763	653.4
432.138	647.3
432.514	653.17
432.89	672.16
433.265	670.58
433.641	676
434.016	667.64
434.392	692.72
434.767	705.6
435.143	681.87
435.518	706.73
435.894	708.54
436.269	726.39
436.644	711.7
437.02	719.16
437.395	717.58
437.77	704.47
438.145	726.62
438.52	750.8
438.895	761.42
439.271	751.03
439.646	746.96
440.021	747.41
440.395	740.18
440.77	795.54
441.145	770.23
441.52	798.71
441.895	791.48
442.27	804.36
442.645	763.23
443.019	801.87
443.394	777.92
443.769	812.49
444.143	785.6
444.518	820.4
444.892	820.18
445.267	833.51
445.641	810.46
446.016	811.14
446.39	841.64
446.764	818.14
447.139	837.35
447.513	859.95
447.887	844.81
448.262	878.03
448.636	894.75
449.01	885.03
449.384	885.49
449.758	851.14
450.132	888.87
450.506	905.82
450.88	893.17
451.254	909.67
451.628	909.44
452.002	927.74
452.376	914.19
452.75	920.51
453.123	933.62
453.497	933.17
453.871	963
454.244	970.23
454.618	960.74
454.992	983.79
455.365	987.86
455.739	1013.39
456.112	986.5
456.486	1038.93
456.859	1031.24
457.232	1049.77
457.606	1038.25
457.979	1039.15
458.352	1069.44
458.725	1055.65
459.099	1082.77
459.472	1090.9
459.845	1108.08
460.218	1142.2
460.591	1122.54
460.964	1135.87
461.337	1159.15
461.71	1168.19
462.083	1180.39
462.456	1195.76
462.829	1192.6
463.201	1190.79
463.574	1242.31
463.947	1234.85
464.32	1282.99
464.692	1268.53
465.065	1276.89
465.438	1290.22
465.81	1291.8
466.183	1340.16
466.555	1364.57
466.928	1360.05
467.3	1395.75
467.672	1398.92
468.045	1419.03
468.417	1419.71
468.789	1444.34
469.161	1448.63
469.534	1463.1
469.906	1502.64
470.278	1513.27
470.65	1515.3
471.022	1603.43
471.394	1613.83
471.766	1639.59
472.138	1634.39
472.51	1657.67
472.882	1689.31
473.253	1744.9
473.625	1734.95
473.997	1732.02
474.369	1774.28
474.74	1797.55
475.112	1851.56
475.484	1880.04
475.855	1940.6
476.227	1916.42
476.598	1987.6
476.97	2013.59
477.341	2083.65
477.713	2125
478.084	2088.84
478.455	2172.46
478.827	2226.47
479.198	2299.91
479.569	2306.46
479.94	2354.15
480.311	2398.67
480.682	2484.77
481.053	2527.25
481.424	2583.52
481.795	2607.7
482.166	2661.71
482.537	2687.7
482.908	2790.52
483.279	2847.92
483.65	2881.59
484.021	2959.55
484.391	2965.88
484.762	3065.99
485.133	3123.62
485.503	3141.02
485.874	3211.53
486.244	3282.26
486.615	3299.88
486.985	3402.48
487.356	3472.76
487.726	3527.22
488.097	3605.41
488.467	3659.65
488.837	3726.99
489.207	3792.3
489.578	3880.89
489.948	3883.6
490.318	3966.99
490.688	4034.33
491.058	4126.98
491.428	4189.58
491.798	4260.99
492.168	4310.71
492.538	4350.48
492.908	4434.09
493.278	4509.12
493.648	4538.27
494.017	4613.97
494.387	4612.62
494.757	4719.06
495.126	4767.42
495.496	4820.3
495.866	4877.47
496.235	4963.8
496.605	5012.83
496.974	4997.24
497.344	5111.81
497.713	5169.67
498.082	5208.08
498.452	5282.66
498.821	5313.39
499.19	5339.15
499.559	5385.25
499.928	5446.72
500.298	5514.97
500.667	5466.38
501.036	5573.95
501.405	5603.33
501.774	5648.75
502.143	5746.6
502.512	5748.41
502.88	5804
503.249	5812.81
503.618	5886.48
503.987	5907.73
504.356	5971.91
504.724	5983.43
505.093	6019.59
505.462	6057.33
505.83	6111.79
506.199	6122.86
506.567	6268.17
506.936	6255.97
507.304	6329.64
507.672	6373.48
508.041	6389.3
508.409	6437.2
508.777	6450.99
509.145	6476.3
509.514	6515.62
509.882	6584.32
510.25	6604.88
510.618	6603.98
510.986	6634.94
511.354	6668.38
511.722	6781.83
512.09	6876.29
512.458	6821.37
512.826	6876.74
513.193	6955.38
513.561	6919.9
513.929	6962.39
514.297	7023.63
514.664	7116.28
515.032	7042.84
515.4	7139.33
515.767	7147.69
516.135	7187.92
516.502	7135.04
516.869	7290.74
517.237	7275.83
517.604	7312.89
517.972	7328.93
518.339	7382.49
518.706	7407.8
519.073	7479.44
519.44	7450.28
519.808	7536.16
520.175	7481.24
520.542	7591.75
520.909	7662.03
521.276	7585.2
521.643	7705.42
522.009	7710.62
522.376	7787.22
522.743	7817.28
523.11	7905.64
523.477	7926.88
523.843	7986.77
524.21	7981.57
524.577	8063.15
524.943	8028.8
525.31	8168.91
525.676	8195.58
526.043	8265.18
526.409	8352.18
526.776	8372.07
527.142	8457.49
527.508	8413.2
527.874	8480.54
528.241	8506.3
528.607	8574.55
528.973	8591.05
529.339	8639.18
529.705	8706.3
530.071	8823.36
530.437	8781.55
530.803	8850.47
531.169	8918.27
531.535	8923.47
531.901	8942.9
532.267	8919.4
532.632	9035.78
532.998	9023.8
533.364	9090.92
533.73	9162.56
534.095	9184.7
534.461	9274.87
534.826	9267.64
535.192	9287.98
535.557	9390.8
535.923	9400.29
536.288	9428.76
536.653	9482.1
537.019	9499.04
537.384	9568.87
537.749	9629.66
538.114	9615.88
538.479	9625.82
538.845	9732.48
539.21	9665.59
539.575	9679.6
539.94	9738.59
540.305	9815.42
540.67	9818.13
541.034	9888.41
541.399	9900.84
541.764	9991.23
542.129	9971.57
542.494	10018.13
542.858	10101.51
543.223	10110.1
543.587	10194.17
543.952	10122.76
544.316	10233.04
544.681	10276.2
545.045	10336.54
545.41	10297.89
545.774	10422.41
546.138	10477.55
546.503	10476.42
546.867	10438.68
547.231	10575.85
547.595	10629.64
547.959	10577.43
548.324	10622.18
548.688	10614.04
549.052	10782.63
549.416	10753.93
549.779	10798.22
550.143	10799.12
550.507	10882.06
550.871	10949.18
551.235	10956.63
551.599	10977.88
551.962	10979.46
552.326	11077.08
552.689	11094.93
553.053	11053.58
553.417	11128.83
553.78	11282.95
554.143	11186.91
554.507	11240.69
554.87	11242.5
555.234	11388.71
555.597	11248.83
555.96	11391.65
556.323	11373.35
556.686	11442.95
557.05	11553.91
557.413	11614.69
557.776	11609.72
558.139	11644.07
558.502	11730.85
558.865	11755.93
559.228	11738.53
559.59	11815.59
559.953	11797.51
560.316	11908.02
560.679	11994.57
561.041	11996.83
561.404	12029.6
561.767	12038.86
562.129	12046.55
562.492	12288.58
562.854	12241.57
563.217	12153.44
563.579	12250.84
563.941	12270.27
564.304	12379.19
564.666	12383.94
565.028	12417.16
565.39	12386.43
565.753	12559.53
566.115	12550.26
566.477	12645.85
566.839	12664.16
567.201	12758.39
567.563	12733.31
567.925	12865.06
568.287	12829.8
568.648	12914.32
569.01	12962.23
569.372	13021.89
569.734	13000.65
570.095	13130.36
570.457	13121.77
570.819	13269.79
571.18	13218.72
571.542	13271.15
571.903	13354.76
572.265	13491.26
572.626	13576.22
572.987	13499.62
573.349	13591.82
573.71	13704.58
574.071	13811.25
574.432	13801.53
574.794	13976.21
575.155	13929.66
575.516	14005.59
575.877	14135.31
576.238	14206.04
576.599	14317
576.96	14409.88
577.32	14485.81
577.681	14624.56
578.042	14672.92
578.403	14750.66
578.763	14900.03
579.124	15033.36
579.485	15140.93
579.845	15334.6
580.206	15335.05
580.566	15459.79
580.927	15700.91
581.287	15823.4
581.648	15951.98
582.008	16177.29
582.368	16373.21
582.728	16501.57
583.089	16646.65
583.449	16801.9
583.809	17076.47
584.169	17315.79
584.529	17369.8
584.889	17832.84
585.249	17925.26
585.609	18132.94
585.969	18344.69
586.329	18514.17
586.688	18814.05
587.048	19032.35
587.408	19242.97
587.768	19501.94
588.127	19809.73
588.487	19956.17
588.846	20286.56
589.206	20388.25
589.565	20711.63
589.925	21107.1
590.284	21181.9
590.643	21554.09
591.003	21877.02
591.362	22197.47
591.721	22294.41
592.08	22620.05
592.44	22982.08
592.799	23230.66
593.158	23588.62
593.517	23780.7
593.876	24227.7
594.235	24335.04
594.593	24631.98
594.952	25010.5
595.311	25158.75
595.67	25543.59
596.029	25879.86
596.387	26167.76
596.746	26512.61
597.104	26625.15
597.463	26951.69
597.822	27398.69
598.18	27442.3
598.538	27727.94
598.897	28202.28
599.255	28251.32
599.613	28782.83
599.972	28971.75
600.33	29357.73
600.688	29433.44
601.046	29847.66
601.404	30189.35
601.762	30362.9
602.12	30729.67
602.478	31125.14
602.836	31234.29
603.194	31306.38
603.552	31764.9
603.91	31714.05
604.268	32101.39
604.625	32292.79
604.983	32578.44
605.341	32517.65
605.698	33078.09
606.056	33246.44
606.413	33546.32
606.771	33747.22
607.128	34106.08
607.485	34091.62
607.843	34306.98
608.2	34700.87
608.557	34995.32
608.914	35081.87
609.272	35452.03
609.629	35506.5
609.986	35850.44
610.343	35770.44
610.7	36214.05
611.057	36336.53
611.414	36557.32
611.771	36650.87
612.127	36796.18
612.484	37125.66
612.841	37272.78
613.198	37238.65
613.554	37496.5
613.911	37851.07
614.267	37874.12
614.624	37852.2
614.98	38160.21
615.337	38372.41
615.693	38436.59
616.05	38657.83
616.406	39005.16
616.762	38848.78
617.118	38936.69
617.475	39076.35
617.831	39342.33
618.187	39483.79
618.543	39601.76
618.899	40016.66
619.255	39853.27
619.611	40032.03
619.967	40237.9
620.323	40307.73
620.678	40312.02
621.034	40263.66
621.39	40513.82
621.746	40441.06
622.101	40934.38
622.457	40684.44
622.812	40911.78
623.168	40996.52
623.523	41090.3
623.879	41223.18
624.234	40960.59
624.589	41240.81
624.945	41262.05
625.3	41553.34
625.655	41457.3
626.01	41423.63
626.365	41620.69
626.72	41654.81
627.075	41697.07
627.43	41802.15
627.785	41633.34
628.14	41883.73
628.495	41819.55
628.85	41874.46
629.205	41669.72
629.559	42038.75
629.914	41808.93
630.269	42006.66
630.623	41997.17
630.978	41874.24
631.332	42010.51
631.687	42018.19
632.041	41991.75
632.396	41993.78
632.75	42009.15
633.104	42177.51
633.459	41907.01
633.813	41976.38
634.167	42177.28
634.521	42081.01
634.875	42143.84
635.229	42097.51
635.583	42024.29
635.937	41909.72
636.291	41869.72
636.645	41844.86
636.999	41962.82
637.352	41945.42
637.706	41954.46
638.06	42008.92
638.413	41941.81
638.767	41761.25
639.121	41730.06
639.474	41698.42
639.828	41860
640.181	41873.11
640.534	41768.7
640.888	41763.28
641.241	41586.56
641.594	41702.04
641.947	41882.37
642.301	41738.42
642.654	41763.96
643.007	41649.16
643.36	41619.78
643.713	41576.62
644.066	41748.82
644.419	41424.76
644.771	41321.03
645.124	41117.65
645.477	40918.33
645.83	40732.8
646.182	40501.39
646.535	40456.87
646.888	40495.97
647.24	40444.22
647.593	40485.35
647.945	40541.39
648.298	40370.1
648.65	40225.69
649.002	40297.56
649.355	40409.42
649.707	40204.23
650.059	40471.56
650.411	40877.43
650.763	40858.9
651.115	41234.71
651.467	41189.51
651.819	41193.13
652.171	41091.89
652.523	41170.08
652.875	41043.53
653.227	40916.07
653.578	41076.07
653.93	40958.1
654.282	40813.25
654.633	40795.17
654.985	40794.04
655.337	40997.65
655.688	41044.88
656.039	41031.1
656.391	40589.75
656.742	40635.85
657.094	40748.17
657.445	40866.81
657.796	40710.65
658.147	40486.25
658.498	40676.53
658.849	40732.57
659.2	40705.46
659.551	40534.61
659.902	40774.38
660.253	40625.23
660.604	40839.46
660.955	40594.5
661.306	40671.33
661.656	40684.44
662.007	40679.24
662.358	40598.34
662.708	40732.35
663.059	40660.03
663.409	40413.03
663.76	40767.83
664.11	40658.9
664.461	40694.38
664.811	40637.89
665.161	40514.05
665.511	40585.23
665.862	40485.35
666.212	40554.72
666.562	40754.72
666.912	40464.33
667.262	40541.17
667.612	40486.7
667.962	40596.98
668.312	40398.12
668.662	40702.97
669.011	40508.17
669.361	40417.78
669.711	40410.32
670.06	40211.46
670.41	40336.43
670.76	40285.58
671.109	40463.43
671.459	40346.59
671.808	40198.35
672.157	40397.21
672.507	40205.58
672.856	40100.73
673.205	40115.19
673.554	40413.03
673.904	40169.2
674.253	40262.75
674.602	40202.42
674.951	39652.6
675.3	39387.75
675.649	40066.83
675.998	40233.15
676.346	40097.11
676.695	40301.4
677.044	39986.83
677.393	40120.16
677.741	39985.02
678.09	39997.9
678.438	39887.17
678.787	39965.59
679.135	39888.75
679.484	39669.78
679.832	39851.24
680.181	39611.92
680.529	39727.18
680.877	39540.06
681.225	39467.3
681.573	39790.68
681.922	39469.33
682.27	39303.23
682.618	39350.24
682.966	39257.13
683.314	39318.15
683.661	39194.08
684.009	39188.66
684.357	39007.19
684.705	39005.84
685.053	39032.5
685.4	38894.66
685.748	38818.95
686.095	38777.82
686.443	38605.4
686.79	38598.84
687.138	38552.07
687.485	38674.55
687.832	38399.08
688.18	38592.29
688.527	38247.21
688.874	38267.78
689.221	38138.74
689.568	38112.53
689.915	38140.32
690.262	38089.03
690.609	37788.47
690.956	37730.84
691.303	37842.71
691.65	37532.66
691.997	37698.75
692.344	37411.08
692.69	37400.68
693.037	37412.21
693.383	37045.44
693.73	37225.32
694.077	36999.11
694.423	36954.37
694.769	36920.7
695.116	36779.46
695.462	36830.08
695.808	36719.8
696.155	36691.1
696.501	36372.01
696.847	36433.48
697.193	36112.81
697.539	36215.86
697.885	35998.46
698.231	35909.42
698.577	35871.46
698.923	35918.46
699.269	35612.03
699.614	35609.32
699.96	35514.41
700.306	35508.08
700.651	35322.32
700.997	35231.02
701.342	35162.32
701.688	35154.64
702.033	35010.24
702.379	35043.46
702.724	35010.46
703.069	34994.64
703.415	34370.25
703.76	34565.96
704.105	34559.63
704.45	34607.08
704.795	34335.45
705.14	34316.47
705.485	34240.09
705.83	34058.17
706.175	34069.02
706.52	34119.64
706.865	33937.95
707.209	33945.63
707.554	33695.7
707.899	33846.65
708.243	33650.95
708.588	33607.11
708.932	33230.62
709.277	33216.61
709.621	33446.89
709.966	33173.22
710.31	33339.55
710.654	32852.55
710.998	32920.8
711.342	32983.62
711.687	32961.93
712.031	32797.64
712.375	32618.21
712.719	32662.05
713.063	32558.1
713.407	32662.73
713.75	32545.67
714.094	32501.83
714.438	32375.5
714.782	32339.35
715.125	32241.72
715.469	32248.5
715.812	32036.98
716.156	31942.07
716.499	31934.84
716.843	31944.33
717.186	31833.37
717.53	31864.78
717.873	31911.79
718.216	31826.37
718.559	31565.81
718.902	31431.12
719.246	31468.41
719.589	31472.25
719.932	31378.69
720.275	31337.57
720.617	31187.29
720.96	31201.98
721.303	31172.15
721.646	31239.49
721.989	31064.13
722.331	31029.78
722.674	30968.31
723.016	31010.12
723.359	30846.05
723.701	30846.05
724.044	30655.78
724.386	30521.54
724.729	30747.3
725.071	30584.37
725.413	30733.06
725.755	30515.44
726.097	30575.55
726.439	30340.98
726.782	30336.24
727.124	30451.49
727.465	30345.28
727.807	30242.45
728.149	30209.01
728.491	30186.18
728.833	30152.74
729.175	30047.66
729.516	29867.55
729.858	29895.12
730.199	29978.28
730.541	29914.33
730.882	29776.02
731.224	29818.51
731.565	29668.68
731.906	29759.53
732.248	29652.64
732.589	29385.3
732.93	29391.18
733.271	29468.01
733.612	29503.04
733.953	29487.22
734.294	29389.14
734.635	29300.56
734.976	29388.69
735.317	29328.13
735.658	29196.15
735.999	29134.91
736.339	29091.3
736.68	29234.34
737.021	29134.91
737.361	28994.35
737.702	29035.71
738.042	28986.44
738.383	28898.31
738.723	28928.14
739.063	28832.77
739.404	28852.21
739.744	28703.28
740.084	28692.44
740.424	28748.93
740.764	28539.9
741.104	28757.29
741.444	28539
741.784	28412.9
742.124	28386.46
742.464	28412.22
742.804	28401.37
743.143	28309.17
743.483	28451.77
743.823	28256.74
744.162	28252.45
744.502	28302.84
744.841	28048.61
745.181	28177.42
745.52	28095.17
745.86	28048.16
746.199	28126.12
746.538	28032.12
746.877	27987.82
747.216	27930.2
747.556	27903.53
747.895	27819.47
748.234	27743.99
748.573	27657.21
748.911	27658.11
749.25	27628.96
749.589	27556.42
749.928	27569.53
750.267	27547.38
750.605	27501.51
750.944	27354.39
751.283	27284.11
751.621	27308.29
751.96	27302.87
752.298	27342.19
752.636	27332.93
752.975	27050.67
753.313	27095.64
753.651	27196.21
753.989	26911.02
754.327	26958.02
754.666	26788.53
755.004	26798.48
755.342	26932.26
755.679	26686.16
756.017	26678.93
756.355	26799.61
756.693	26512.38
757.031	26683.9
757.368	26456.56
757.706	26536.79
758.044	26436.9
758.381	26480.07
758.719	26196.01
759.056	26289.56
759.394	26112.62
759.731	26067.65
760.068	25914.88
760.405	26036.24
760.743	25846.18
761.08	25871.49
761.417	25743.81
761.754	25661.33
762.091	25608.68
762.428	25562.58
762.765	25326.65
763.102	25548.79
763.438	25382.92
763.775	25126.66
764.112	25176.82
764.449	25170.72
764.785	25112.42
765.122	24900.9
765.458	24823.39
765.795	24784.74
766.131	24681.24
766.467	24570.51
766.804	24527.58
767.14	24358.09
767.476	24437.18
767.812	24253.23
768.148	24487.8
768.485	24172.78
768.821	23995.16
769.157	24158.32
769.492	24116.06
769.828	24018.66
770.164	23689.86
770.5	23658.67
770.836	23710.2
771.171	23603.08
771.507	23494.38
771.842	23344.1
772.178	23355.85
772.513	23282.18
772.849	23179.14
773.184	23129.19
773.519	23043.32
773.855	22949.09
774.19	22886.49
774.525	22800.62
774.86	22772.14
775.195	22632.03
775.53	22648.3
775.865	22513.17
776.2	22344.58
776.535	22163.34
776.87	22183.46
777.205	22143.46
777.539	22067.75
777.874	22039.96
778.209	21919.96
778.543	21823.47
778.878	21693.07
779.212	21667.99
779.547	21564.49
779.881	21582.34
780.215	21415.34
780.55	21470.71
780.884	21289.47
781.218	21183.03
781.552	21293.76
781.886	21159.08
782.22	21005.63
782.554	21012.64
782.888	20783.04
783.222	20676.83
783.556	20578.3
783.889	20624.4
784.223	20503.05
784.557	20302.6
784.89	20427.12
785.224	20344.86
785.557	20163.62
785.891	20116.17
786.224	20067.35
786.558	20019.45
786.891	19851.99
787.224	19792.78
787.557	19732.67
787.891	19764.99
788.224	19701.94
788.557	19607.93
788.89	19588.72
789.223	19548.5
789.556	19459.91
789.888	19302.85
790.221	19267.15
790.554	19129.98
790.887	19067.83
791.219	19033.93
791.552	19059.92
791.884	18877.1
792.217	18871.45
792.549	18808.86
792.882	18733.15
793.214	18609.54
793.546	18669.2
793.879	18441.41
794.211	18369.77
794.543	18443.44
794.875	18388.75
795.207	18468.3
795.539	18311.24
795.871	18320.28
796.203	18085.26
796.535	18051.59
796.867	18043.9
797.198	17940.86
797.53	17957.58
797.862	17730.92
798.193	17863.34
798.525	17711.03
798.856	17769.79
799.188	17560.53
799.519	17566.18
799.85	17407.54
800.182	17439.63
800.513	17480.76
800.844	17311.49
801.175	17410.25
801.506	17341.1
801.837	17210.03
802.168	17171.61
802.499	17133.42
802.83	16988.56
803.161	16900.88
803.491	16924.39
803.822	16881.9
804.153	16863.37
804.483	16751.73
804.814	16549.03
805.145	16527.11
805.475	16649.14
805.805	16486.43
806.136	16518.75
806.466	16465.41
806.796	16457.51
807.126	16430.39
807.457	16280.79
807.787	16308.13
808.117	16208.92
808.447	16083.96
808.777	16211.41
809.107	16118.53
809.436	16085.76
809.766	16078.76
810.096	15966.9
810.426	15906.79
810.755	15927.8
811.085	15833.11
811.414	15945.65
811.744	15796.05
812.073	15732.55
812.403	15639.67
812.732	15514.93
813.061	15470.86
813.39	15479.45
813.719	15375.5
814.049	15572.33
814.378	15504.76
814.707	15261.15
815.036	15413.46
815.365	15297.54
815.693	15136.41
816.022	15182.28
816.351	15126.69
816.68	15053.02
817.008	15068.62
817.337	14886.02
817.665	14836.08
817.994	14886.25
818.322	14930.99
818.651	14865.46
818.979	14774.39
819.307	14769.87
819.636	14803.54
819.964	14797.66
820.292	14785.01
820.62	14693.94
820.948	14686.7
821.276	14706.59
821.604	14706.82
821.932	14710.43
822.259	14727.83
822.587	14638.8
822.915	14582.53
823.243	14667.27
823.57	14647.16
823.898	14614.84
824.225	14571.9
824.553	14538.01
824.88	14616.88
825.207	14599.02
825.535	14620.72
825.862	14587.5
826.189	14536.2
826.516	14624.33
826.843	14738
827.17	14548.85
827.497	14624.78
827.824	14612.58
828.151	14613.03
828.478	14567.84
828.805	14591.79
829.131	14494.17
829.458	14566.26
829.785	14508.63
830.111	14531
830.438	14615.52
830.764	14596.31
831.09	14533.04
831.417	14438.35
831.743	14550.66
832.069	14505.01
832.395	14460.04
832.722	14529.19
833.048	14465.02
833.374	14427.5
833.7	14388.18
834.026	14373.72
834.351	14433.38
834.677	14360.61
835.003	14400.16
835.329	14357
835.654	14323.55
835.98	14308.18
836.306	14291.01
836.631	14298.47
836.956	14205.13
837.282	14300.27
837.607	14212.37
837.932	14276.55
838.258	14248.3
838.583	14145.02
838.908	14094.86
839.233	14112.93
839.558	14089.88
839.883	14038.13
840.208	14024.12
840.533	13996.33
840.858	14015.76
841.182	13954.29
841.507	13941.64
841.832	13884.24
842.156	13839.72
842.481	13807.86
842.805	13813.73
843.13	13779.16
843.454	13761.76
843.778	13698.71
844.103	13695.77
844.427	13644.02
844.751	13652.61
845.075	13634.3
845.399	13581.42
845.723	13472.95
846.047	13490.58
846.371	13407.19
846.695	13378.04
847.019	13283.8
847.343	13227.31
847.666	13155.67
847.99	13211.94
848.313	13153.19
848.637	13006.97
848.96	12953.64
849.284	12968.78
849.607	12816.24
849.931	12906.64
850.254	12724.04
850.577	12569.02
850.9	12620.32
851.223	12513.65
851.546	12527.66
851.869	12386.43
852.192	12488.12
852.515	12384.39
852.838	12228.01
853.161	12334.9
853.483	12248.35
853.806	12228.24
854.129	12255.13
854.451	12127.9
854.774	12019.43
855.096	12065.08
855.419	11999.54
855.741	11964.29
856.063	11905.76
856.385	11822.37
856.708	11839.1
857.03	11790.74
857.352	11796.84
857.674	11724.3
857.996	11724.07
858.318	11638.2
858.64	11706.44
858.961	11615.6
859.283	11588.93
859.605	11533.11
859.926	11608.82
860.248	11470.74
860.57	11423.74
860.891	11447.47
861.212	11436.62
861.534	11273.46
861.855	11300.35
862.176	11362.95
862.498	11307.13
862.819	11312.1
863.14	11269.84
863.461	11256.96
863.782	11154.37
864.103	11149.17
864.424	11229.17
864.745	11179.23
865.065	11150.07
865.386	11081.15
865.707	11105.78
866.027	11041.38
866.348	11130.87
866.668	11009.96
866.989	11043.18
867.309	10956.63
867.63	10941.04
867.95	10950.98
868.27	10905.11
868.59	10918.67
868.91	10921.83
869.23	10887.71
869.55	10838.22
869.87	10937.42
870.19	10842.06
870.51	10789.63
870.83	10812.23
871.15	10711.44
871.469	10807.48
871.789	10757.54
872.109	10760.71
872.428	10668.28
872.748	10677.32
873.067	10688.62
873.386	10672.12
873.706	10722.74
874.025	10568.62
874.344	10520.03
874.663	10662.4
874.982	10510.32
875.301	10583.08
875.62	10569.3
875.939	10479.36
876.258	10497.44
876.577	10480.49
876.896	10431.9
877.214	10411.34
877.533	10410.66
877.852	10338.12
878.17	10409.98
878.489	10309.42
878.807	10365.69
879.125	10318.23
879.444	10280.72
879.762	10247.95
880.08	10308.06
880.398	10238.01
880.716	10252.47
881.034	10216.31
881.352	10237.1
881.67	10166.15
881.988	10192.13
882.306	10134.96
882.624	10082.31
882.941	10041.85
883.259	10001.63
883.577	9914.4
883.894	10037.56
884.212	10049.54
884.529	9967.28
884.846	9967.73
885.164	9961.63
885.481	9919.15
885.798	9913.27
886.115	9826.95
886.432	9770.22
886.75	9812.71
887.067	9765.7
887.383	9729.55
887.7	9767.29
888.017	9646.61
888.334	9720.28
888.651	9662.43
888.967	9602.09
889.284	9604.13
889.6	9617.46
889.917	9438.48
890.233	9517.35
890.55	9475.99
890.866	9494.98
891.182	9413.4
891.498	9418.37
891.815	9458.37
892.131	9381.98
892.447	9288.43
892.763	9258.6
893.079	9267.41
893.395	9271.71
893.71	9266.28
894.026	9167.3
894.342	9228.99
894.657	9095.89
894.973	9099.51
895.289	9081.43
895.604	9042.78
895.92	9057.02
896.235	8951.94
896.55	8919.62
896.865	8942
897.181	8912.17
897.496	8945.16
897.811	8838.5
898.126	8813.64
898.441	8755.56
898.756	8793.75
899.071	8813.41
899.386	8704.49
899.7	8697.48
900.015	8589.24
900.33	8542.46
900.644	8511.27
900.959	8544.94
901.273	8511.5
901.588	8449.35
901.902	8453.42
902.216	8398.51
902.531	8368.68
902.845	8310.6
903.159	8310.37
903.473	8243.48
903.787	8218.63
904.101	8231.96
904.415	8224.5
904.729	8222.02
905.042	8134.33
905.356	8118.29
905.67	8146.54
905.984	8102.92
906.297	8021.34
906.611	8070.61
906.924	8023.6
907.237	7956.94
907.551	7965.75
907.864	7925.07
908.177	7899.09
908.491	7851.86
908.804	7762.59
909.117	7738.86
909.43	7667.68
909.743	7638.98
910.056	7657.51
910.368	7678.3
910.681	7576.83
910.994	7575.93
911.307	7538.64
911.619	7447.12
911.932	7540.9
912.244	7450.96
912.557	7437.4
912.869	7370.74
913.181	7302.94
913.494	7384.07
913.806	7254.58
914.118	7217.97
914.43	7216.39
914.742	7143.63
915.054	7161.25
915.366	7173.46
915.678	7066.11
915.99	7084.64
916.302	6994.7
916.613	6996.51
916.925	6972.78
917.236	7018.66
917.548	6933.69
917.859	6909.73
918.171	6893.69
918.482	6821.37
918.794	6807.59
919.105	6832.22
919.416	6735.27
919.727	6713.13
920.038	6698.67
920.349	6641.49
920.66	6626.13
920.971	6669.51
921.282	6553.81
921.593	6557.2
921.903	6504.32
922.214	6502.74
922.525	6474.94
922.835	6460.03
923.146	6395.85
923.456	6350.43
923.767	6344.78
924.077	6401.5
924.387	6321.5
924.697	6293.25
925.008	6236.3
925.318	6262.52
925.628	6258.68
925.938	6159.7
926.248	6179.81
926.558	6134.84
926.867	6116.53
927.177	6097.55
927.487	6037.44
927.796	5984.56
928.106	6061.17
928.416	5966.93
928.725	6011.23
929.034	5929.19
929.344	5968.06
929.653	5887.16
929.962	5847.16
930.271	5822.76
930.581	5796.32
930.89	5760.84
931.199	5728.52
931.508	5724
931.817	5707.96
932.125	5724.23
932.434	5685.36
932.743	5616.21
933.051	5624.57
933.36	5562.65
933.669	5546.15
933.977	5526.95
934.286	5540.73
934.594	5469.55
934.902	5448.53
935.21	5439.72
935.519	5392.26
935.827	5447.85
936.135	5405.14
936.443	5331.47
936.751	5307.97
937.059	5306.61
937.367	5220.51
937.674	5293.28
937.982	5241.98
938.29	5193.39
938.597	5201.98
938.905	5132.61
939.213	5138.48
939.52	5105.71
939.827	5108.65
940.135	5058.03
940.442	5109.33
940.749	5037.92
941.056	5040.4
941.363	5007.41
941.67	4959.5
941.977	4968.99
942.284	4912.27
942.591	4923.8
942.898	4916.57
943.205	4892.16
943.511	4812.61
943.818	4853.52
944.125	4779.17
944.431	4784.14
944.738	4762.22
945.044	4731.49
945.35	4774.42
945.657	4660.08
945.963	4689.23
946.269	4669.11
946.575	4614.43
946.881	4651.49
947.187	4634.31
947.493	4592.96
947.799	4549.8
948.105	4544.6
948.41	4516.58
948.716	4533.07
949.022	4476.8
949.327	4460.31
949.633	4442.23
949.938	4478.61
950.244	4409.69
950.549	4418.05
950.854	4373.98
951.16	4336.92
951.465	4348.22
951.77	4329.46
952.075	4270.25
952.38	4314.77
952.685	4267.09
952.99	4180.54
953.294	4232.06
953.599	4207.43
953.904	4191.84
954.209	4176.7
954.513	4142.57
954.818	4135.12
955.122	4103.71
955.426	4066.19
955.731	4105.06
956.035	4052.41
956.339	4038.62
956.643	4022.8
956.948	4008.34
957.252	3974.22
957.556	3991.84
957.86	3938.74
958.163	3904.16
958.467	3929.02
958.771	3903.71
959.075	3907.55
959.378	3890.38
959.682	3844.5
959.985	3850.15
960.289	3821.23
960.592	3793.66
960.896	3778.97
961.199	3745.07
961.502	3777.61
961.805	3773.54
962.108	3708.69
962.411	3696.26
962.714	3668.24
963.017	3645.86
963.32	3677.05
963.623	3661.91
963.926	3664.62
964.228	3584.62
964.531	3586.21
964.833	3559.54
965.136	3547.34
965.438	3535.36
965.741	3522.7
966.043	3525.87
966.345	3484.06
966.648	3480.9
966.95	3501.69
967.252	3438.19
967.554	3446.32
967.856	3395.7
968.158	3402.93
968.46	3371.07
968.761	3347.34
969.063	3388.7
969.365	3379.2
969.666	3344.4
969.968	3312.54
970.269	3275.25
970.571	3286.78
970.872	3277.29
971.174	3284.97
971.475	3309.38
971.776	3250.62
972.077	3222.6
972.378	3201.81
972.679	3187.35
972.98	3172.43
973.281	3172.88
973.582	3147.57
973.883	3163.39
974.183	3107.8
974.484	3125.43
974.785	3089.04
975.085	3071.64
975.386	3082.72
975.686	3050.4
975.986	3047.46
976.287	3052.66
976.587	3052.66
976.887	2990.97
977.187	2990.29
977.487	2978.76
977.787	3000.68
978.087	2917.3
978.387	2978.76
978.687	2938.54
978.987	2939.89
979.286	2895.6
979.586	2884.3
979.885	2848.6
980.185	2856.73
980.484	2848.15
980.784	2832.78
981.083	2800.24
981.382	2807.69
981.682	2794.81
981.981	2816.73
982.28	2751.2
982.579	2747.13
982.878	2721.37
983.177	2756.4
983.475	2744.65
983.774	2696.29
984.073	2729.5
984.372	2690.18
984.67	2686.12
984.969	2652.9
985.267	2682.5
985.566	2629.85
985.864	2657.87
986.162	2622.16
986.461	2594.14
986.759	2595.95
987.057	2590.53
987.355	2526.35
987.653	2535.39
987.951	2517.98
988.249	2554.37
988.547	2518.89
988.844	2501.49
989.142	2508.49
989.44	2484.77
989.737	2494.48
990.035	2491.32
990.332	2470.53
990.63	2432.56
990.927	2442.05
991.224	2394.6
991.521	2435.73
991.819	2429.17
992.116	2404.54
992.413	2378.1
992.71	2340.81
993.006	2355.96
993.303	2334.71
993.6	2376.75
993.897	2340.14
994.193	2317.99
994.49	2313.7
994.787	2322.06
995.083	2284.77
995.379	2268.05
995.676	2249.97
995.972	2255.39
996.268	2239.12
996.565	2257.43
996.861	2197.09
997.157	2213.13
997.453	2176.52
997.749	2196.86
998.044	2186.47
998.34	2133.81
998.636	2153.93
998.932	2153.7
999.227	2123.42
999.523	2110.76
999.818	2113.25
1000.114	2111.22
1000.409	2101.95
1000.704	2096.07
1001	2059.69
1001.295	2027.38
1001.59	2047.49
1001.885	2021.05
1002.18	1973.37
1002.475	2012.91
1002.77	1980.82
1003.065	1994.61
1003.359	1985.34
1003.654	1978.79
1003.949	1964.55
1004.243	1934.05
1004.538	1926.14
1004.832	1915.51
1005.127	1922.07
1005.421	1901.96
1005.715	1899.92
1006.009	1897.44
1006.304	1868.06
1006.598	1868.74
1006.892	1851.79
1007.186	1856.53
1007.48	1855.63
1007.773	1781.51
1008.067	1850.88
1008.361	1818.79
1008.655	1785.35
1008.948	1761.85
1009.242	1754.84
1009.535	1741.28
1009.829	1750.32
1010.122	1754.61
1010.415	1733.82
1010.708	1718.91
1011.001	1696.31
1011.295	1684.11
1011.588	1676.88
1011.881	1691.79
1012.173	1702.64
1012.466	1634.39
1012.759	1666.71
1013.052	1656.31
1013.344	1611.12
1013.637	1636.2
1013.93	1598.91
1014.222	1603.21
1014.514	1585.58
1014.807	1602.3
1015.099	1583.32
1015.391	1570.89
1015.683	1574.73
1015.976	1562.53
1016.268	1551.23
1016.56	1537.67
1016.851	1534.96
1017.143	1505.58
1017.435	1491.34
1017.727	1499.03
1018.018	1477.79
1018.31	1496.77
1018.602	1475.53
1018.893	1446.15
1019.185	1481.18
1019.476	1453.61
1019.767	1450.44
1020.058	1411.57
1020.35	1405.02
1020.641	1412.93
1020.932	1418.13
1021.223	1397.56
1021.514	1351.24
1021.804	1347.85
1022.095	1344.46
1022.386	1360.27
1022.677	1334.74
1022.967	1348.98
1023.258	1343.55
1023.548	1326.38
1023.839	1331.12
1024.129	1316.66
1024.419	1275.53
1024.709	1268.53
1025	1285.25
1025.29	1282.54
1025.58	1276.89
1025.87	1272.37
1026.16	1244.35
1026.449	1250.9
1026.739	1255.19
1027.029	1210.67
1027.319	1201.86
1027.608	1189.21
1027.898	1209.09
1028.187	1194.63
1028.477	1172.48
1028.766	1170.45
1029.055	1145.14
1029.344	1158.25
1029.634	1140.62
1029.923	1125.48
1030.212	1111.92
1030.501	1144.46
1030.79	1133.61
1031.078	1092.94
1031.367	1124.57
1031.656	1099.72
1031.945	1111.02
1032.233	1096.55
1032.522	1091.58
1032.81	1068.08
1033.099	1052.49
1033.387	1063.11
1033.675	1067.18
1033.963	1038.02
1034.251	1051.81
1034.54	1022.66
1034.828	1032.6
1035.116	1014.3
1035.403	999.83
1035.691	1022.43
1035.979	994.63
1036.267	982.21
1036.554	992.15
1036.842	992.15
1037.129	980.17
1037.417	974.3
1037.704	986.5
1037.992	952.15
1038.279	958.03
1038.566	946.73
1038.853	946.73
1039.14	946.73
