Data from hue_38_FLMS001491_00097.txt Node
Date: Tue Feb 07 17:32:14 GMT 2017
User: dcchb
Spectrometer: FLMS00149
Trigger mode: 0
Integration Time (sec): 2.000000E-2
Scans to average: 10
Electric dark correction enabled: true
Nonlinearity correction enabled: false
Boxcar width: 0
XAxis mode: Wavelengths
Number of Pixels in Spectrum: 2048
>>>>>Begin Spectral Data<<<<<
341.393	-1.17
341.776	-1.17
342.16	-1.17
342.543	-54.05
342.927	-59.25
343.31	-79.14
343.693	-78.91
344.077	-59.48
344.46	-63.54
344.843	-57.44
345.226	-43.88
345.61	-35.07
345.993	-13.83
346.376	-8.63
346.759	14.42
347.142	32.95
347.525	30.47
347.908	73.4
348.291	79.5
348.674	98.71
349.057	110.46
349.44	138.26
349.823	148.88
350.206	157.24
350.588	186.62
350.971	193.85
351.354	238.6
351.737	234.53
352.119	257.13
352.502	270.01
352.884	265.49
353.267	269.56
353.65	282.66
354.032	292.83
354.414	297.58
354.797	302.32
355.179	310.68
355.562	312.49
355.944	319.27
356.326	320.63
356.709	335.77
357.091	324.02
357.473	326.28
357.855	344.36
358.238	350.23
358.62	333.73
359.002	321.76
359.384	319.72
359.766	340.74
360.148	348.42
360.53	327.18
360.912	340.51
361.294	322.89
361.676	326.05
362.057	341.64
362.439	332.38
362.821	321.31
363.203	301.64
363.584	320.63
363.966	327.63
364.348	325.6
364.729	316.33
365.111	319.27
365.493	336.9
365.874	317.92
366.256	304.13
366.637	319.05
367.019	308.88
367.4	302.32
367.781	306.16
368.163	311.59
368.544	307.75
368.925	312.94
369.306	337.35
369.688	337.35
370.069	311.59
370.45	310.68
370.831	338.03
371.212	311.59
371.593	321.53
371.974	312.27
372.355	305.03
372.736	317.24
373.117	337.8
373.498	324.24
373.879	323.56
374.26	315.2
374.641	314.75
375.021	336.9
375.402	336.67
375.783	326.73
376.163	326.5
376.544	325.37
376.925	325.82
377.305	339.38
377.686	320.85
378.066	327.86
378.447	330.34
378.827	309.55
379.208	337.35
379.588	348.88
379.968	325.37
380.349	336.67
380.729	335.54
381.109	328.76
381.489	345.49
381.87	343.68
382.25	351.59
382.63	341.64
383.01	337.58
383.39	359.04
383.77	354.07
384.15	340.06
384.53	350.68
384.91	336.22
385.29	358.37
385.67	344.58
386.049	346.16
386.429	340.51
386.809	346.16
387.189	348.88
387.568	367.41
387.948	366.5
388.328	345.26
388.707	353.62
389.087	368.08
389.466	389.33
389.846	370.8
390.225	372.38
390.605	368.54
390.984	376.67
391.363	361.3
391.743	383
392.122	364.92
392.501	370.34
392.881	365.82
393.26	360.85
393.639	367.18
394.018	373.51
394.397	389.1
394.776	389.78
395.155	372.15
395.534	387.29
395.913	379.38
396.292	395.43
396.671	408.53
397.05	398.82
397.429	383.45
397.808	412.83
398.186	406.27
398.565	402.88
398.944	401.3
399.323	401.75
399.701	419.61
400.08	423.45
400.458	417.12
400.837	393.62
401.215	402.21
401.594	406.73
401.972	400.85
402.351	407.18
402.729	387.97
403.107	419.38
403.486	447.4
403.864	428.42
404.242	447.4
404.62	439.95
404.999	420.74
405.377	429.32
405.755	418.7
406.133	420.51
406.511	439.95
406.889	445.14
407.267	433.62
407.645	444.24
408.023	449.66
408.401	430.68
408.779	460.06
409.156	450.79
409.534	451.92
409.912	454.63
410.29	469.1
410.667	456.44
411.045	471.13
411.422	474.07
411.8	467.74
412.178	466.16
412.555	460.51
412.933	486.95
413.31	483.56
413.687	490.79
414.065	485.37
414.442	499.15
414.819	475.2
415.197	534.86
415.574	494.86
415.951	508.19
416.328	517.91
416.705	499.15
417.082	520.62
417.46	501.41
417.837	526.5
418.214	525.59
418.591	527.63
418.967	522.88
419.344	554.29
419.721	552.26
420.098	526.5
420.475	564.91
420.852	545.48
421.228	553.84
421.605	552.94
421.982	546.38
422.358	545.71
422.735	568.76
423.111	560.62
423.488	570.11
423.864	570.56
424.241	578.93
424.617	591.35
424.994	578.25
425.37	570.11
425.746	593.16
426.123	592.71
426.499	598.81
426.875	607.4
427.251	623.67
427.627	602.65
428.003	621.64
428.379	625.48
428.756	613.95
429.132	627.29
429.507	636.1
429.883	655.08
430.259	652.6
430.635	641.3
431.011	665.25
431.387	670
431.763	689.21
432.138	666.15
432.514	681.3
432.89	709.54
433.265	696.44
433.641	699.83
434.016	713.61
434.392	737.57
434.767	717
435.143	722.88
435.518	734.63
435.894	745.02
436.269	752.71
436.644	762.42
437.02	762.88
437.395	779.82
437.77	778.47
438.145	770.56
438.52	819.82
438.895	774.4
439.271	767.62
439.646	808.3
440.021	822.08
440.395	808.07
440.77	786.38
441.145	819.82
441.52	838.35
441.895	823.89
442.27	828.86
442.645	858.69
443.019	822.53
443.394	834.06
443.769	858.01
444.143	860.95
444.518	865.02
444.892	837.22
445.267	873.38
445.641	903.89
446.016	889.2
446.39	899.82
446.764	903.66
447.139	900.27
447.513	887.84
447.887	898.69
448.262	905.02
448.636	899.14
449.01	917.67
449.384	924.68
449.758	947.28
450.132	948.18
450.506	953.6
450.88	949.99
451.254	956.32
451.628	963.32
452.002	982.3
452.376	991.57
452.75	998.12
453.123	999.71
453.497	1027.95
453.871	1033.15
454.244	1038.57
454.618	1015.75
454.992	1045.13
455.365	1055.07
455.739	1071.79
456.112	1082.87
456.486	1116.54
456.859	1104.56
457.232	1106.82
457.606	1107.5
457.979	1119.7
458.352	1135.07
458.725	1172.36
459.099	1185.92
459.472	1208.51
459.845	1209.19
460.218	1207.38
460.591	1230.66
460.964	1227.5
461.337	1229.08
461.71	1299.13
462.083	1283.77
462.456	1302.52
462.829	1298
463.201	1324.89
463.574	1354.27
463.947	1382.52
464.32	1366.93
464.692	1386.59
465.065	1436.08
465.438	1421.39
465.81	1415.06
466.183	1467.26
466.555	1498.45
466.928	1520.14
467.3	1503.87
467.672	1540.03
468.045	1577.54
468.417	1583.42
468.789	1601.27
469.161	1618.67
469.534	1657.77
469.906	1705.45
470.278	1710.87
470.65	1733.02
471.022	1738.44
471.394	1793.36
471.766	1802.62
472.138	1847.59
472.51	1877.87
472.882	1927.82
473.253	1910.64
473.625	1986.12
473.997	2070.41
474.369	2053.24
474.74	2101.82
475.112	2113.57
475.484	2174.82
475.855	2212.33
476.227	2247.13
476.598	2323.51
476.97	2364.87
477.341	2434.24
477.713	2491.87
478.084	2536.61
478.455	2544.98
478.827	2628.82
479.198	2698.64
479.569	2771.18
479.94	2826.55
480.311	2879.66
480.682	2976.6
481.053	3066.54
481.424	3121.01
481.795	3174.34
482.166	3242.58
482.537	3330.72
482.908	3393.77
483.279	3512.41
483.65	3584.04
484.021	3663.82
484.391	3762.34
484.762	3798.28
485.133	3861.33
485.503	3943.36
485.874	4106.74
486.244	4163.01
486.615	4294.53
486.985	4349.22
487.356	4479.61
487.726	4583.57
488.097	4664.92
488.467	4726.39
488.837	4868.3
489.207	4977.91
489.578	5075.98
489.948	5162.53
490.318	5285.47
490.688	5355.3
491.058	5510.1
491.428	5602.52
491.798	5665.12
492.168	5844.1
492.538	5867.83
492.908	6009.74
493.278	6135.84
493.648	6156.41
494.017	6324.99
494.387	6454.7
494.757	6513.68
495.126	6572.21
495.496	6679.33
495.866	6788.25
496.235	6932.88
496.605	6982.82
496.974	7056.5
497.344	7128.58
497.713	7220.33
498.082	7357.96
498.452	7459.42
498.821	7512.53
499.19	7617.84
499.559	7652.86
499.928	7789.81
500.298	7886.76
500.667	8037.71
501.036	8030.71
501.405	8193.87
501.774	8149.57
502.143	8247.65
502.512	8339.85
502.88	8510.24
503.249	8494.65
503.618	8623.46
503.987	8684.25
504.356	8761.31
504.724	8841.99
505.093	8907.07
505.462	8925.37
505.83	9047.63
506.199	9181.19
506.567	9278.81
506.936	9247.85
507.304	9418.02
507.672	9451.46
508.041	9554.73
508.409	9643.55
508.777	9699.36
509.145	9760.15
509.514	9792.92
509.882	9870.21
510.25	9929.19
510.618	10063.87
510.986	10010.09
511.354	10141.39
511.722	10229.52
512.09	10338.22
512.458	10380.7
512.826	10486.69
513.193	10496.86
513.561	10502.28
513.929	10738.66
514.297	10762.39
514.664	10867.02
515.032	10852.55
515.4	11041.02
515.767	10995.83
516.135	11103.85
516.502	11071.3
516.869	11253.22
517.237	11259.55
517.604	11223.84
517.972	11415.25
518.339	11429.26
518.706	11482.82
519.073	11504.97
519.44	11617.51
519.808	11837.16
520.175	11769.14
520.542	11973.2
520.909	11957.61
521.276	11979.3
521.643	12033.09
522.009	12171.61
522.376	12260.2
522.743	12336.36
523.11	12410.48
523.477	12546.29
523.843	12614.77
524.21	12785.61
524.577	12847.08
524.943	12825.61
525.31	12960.75
525.676	13005.94
526.043	13186.28
526.409	13149.22
526.776	13277.35
527.142	13323.68
527.508	13348.99
527.874	13515.53
528.241	13550.11
528.607	13602.76
528.973	13823.55
529.339	13791.23
529.705	13954.62
530.071	14018.8
530.437	14065.35
530.803	14155.07
531.169	14223.09
531.535	14235.97
531.901	14247.72
532.267	14432.57
532.632	14442.29
532.998	14472.12
533.364	14602.74
533.73	14631.21
534.095	14724.54
534.461	14729.06
534.826	14844.09
535.192	14916.63
535.557	15001.15
535.923	15041.82
536.288	15148.03
536.653	15209.73
537.019	15171.76
537.384	15238.65
537.749	15346.22
538.114	15352.32
538.479	15398.2
538.845	15564.52
539.21	15539.44
539.575	15553.22
539.94	15640.68
540.305	15753.89
540.67	15728.13
541.034	15801.8
541.399	15842.93
541.764	15962.48
542.129	15992.98
542.494	16086.99
542.858	16131.51
543.223	16116.14
543.587	16297.83
543.952	16262.81
544.316	16314.56
544.681	16366.76
545.045	16440.88
545.41	16553.42
545.774	16644.94
546.138	16645.62
546.503	16671.61
546.867	16784.6
547.231	16809.91
547.595	16876.35
547.959	16985.5
548.324	16978.72
548.688	17001.09
549.052	17052.84
549.416	17003.8
549.779	17152.27
550.143	17229.79
550.507	17271.82
550.871	17390.69
551.235	17440.18
551.599	17551.81
551.962	17546.84
552.326	17573.73
552.689	17556.78
553.053	17698.02
553.417	17742.99
553.78	17870
554.143	17796.1
554.507	18066.6
554.87	17982.31
555.234	18208.52
555.597	18005.36
555.96	18153.83
556.323	18196.77
556.686	18221.4
557.05	18328.97
557.413	18496.42
557.776	18516.31
558.139	18632.46
558.502	18648.96
558.865	18714.27
559.228	18815.06
559.59	18777.09
559.953	18826.81
560.316	19144.54
560.679	19145.67
561.041	19159
561.404	19229.96
561.767	19338.21
562.129	19265.89
562.492	19507.69
562.854	19377.3
563.217	19474.93
563.579	19668.37
563.941	19673.34
564.304	19847.57
564.666	19891.86
565.028	19908.81
565.39	20010.73
565.753	20166.43
566.115	20150.16
566.477	20242.36
566.839	20297.28
567.201	20395.81
567.563	20471.51
567.925	20626.76
568.287	20620.88
568.648	20670.37
569.01	20803.93
569.372	20888.9
569.734	20789.92
570.095	20920.31
570.457	21134.09
570.819	21107.88
571.18	21133.64
571.542	21317.14
571.903	21461.99
572.265	21421.54
572.626	21600.07
572.987	21552.39
573.349	21696.56
573.71	21766.84
574.071	21861.98
574.432	22043.45
574.794	22190.33
575.155	22182.65
575.516	22226.72
575.877	22405.24
576.238	22578.35
576.599	22681.85
576.96	22740.15
577.32	22925
577.681	23011.56
578.042	23155.73
578.403	23304.88
578.763	23355.05
579.124	23540.58
579.485	23724.53
579.845	23839.56
580.206	23983.51
580.566	24162.49
580.927	24244.29
581.287	24479.54
581.648	24468.47
582.008	24677.27
582.368	24795.92
582.728	24891.96
583.089	25140.31
583.449	25279.52
583.809	25494.2
584.169	25679.06
584.529	25712.73
584.889	26082.89
585.249	26167.41
585.609	26318.59
585.969	26598.35
586.329	26768.29
586.688	26988.17
587.048	27156.53
587.408	27414.6
587.768	27485.34
588.127	27703.64
588.487	27941.37
588.846	28340.23
589.206	28356.95
589.565	28523.05
589.925	28889.59
590.284	29031.51
590.643	29290.03
591.003	29392.41
591.362	29749.68
591.721	29929.34
592.08	30130.24
592.44	30313.51
592.799	30548.53
593.158	30720.73
593.517	30806.61
593.876	31160.04
594.235	31184.45
594.593	31449.75
594.952	31663.76
595.311	31759.12
595.67	32138.77
596.029	32393
596.387	32560.68
596.746	32759.1
597.104	32974.68
597.463	33045.42
597.822	33371.06
598.18	33470.94
598.538	33606.31
598.897	34007.43
599.255	33858.5
599.613	34560.63
599.972	34456.23
600.33	34653.74
600.688	34693.73
601.046	34994.52
601.404	35171.01
601.762	35240.61
602.12	35616.65
602.478	35781.62
602.836	35821.61
603.194	35886.7
603.552	36121.72
603.91	36018.67
604.268	36529.84
604.625	36441.26
604.983	36799.44
605.341	36724.19
605.698	37067.91
606.056	37155.59
606.413	37291.18
606.771	37641
607.128	37630.38
607.485	37715.35
607.843	37826.31
608.2	38121.22
608.557	38361.21
608.914	38190.14
609.272	38502.22
609.629	38709.45
609.986	38853.4
610.343	38771.82
610.7	39225.37
611.057	39031.47
611.414	39171.13
611.771	39308.75
612.127	39505.81
612.484	39654.06
612.841	39815.63
613.198	39969.08
613.554	39883.88
613.911	40219.01
614.267	40254.04
614.624	40194.16
614.98	40419.01
615.337	40612.9
615.693	40599.12
616.05	40622.62
616.406	40990.07
616.762	40946.68
617.118	40974.7
617.475	41102.83
617.831	41351.41
618.187	41298.98
618.543	41267.8
618.899	41668.01
619.255	41642.93
619.611	41629.82
619.967	41740.56
620.323	41891.06
620.678	41905.97
621.034	41883.15
621.39	41858.07
621.746	41798.41
622.101	42469.12
622.457	42070.04
622.812	42238.17
623.168	42378.96
623.523	42393.87
623.879	42545.51
624.234	42329.01
624.589	42452.17
624.945	42640.19
625.3	42725.39
625.655	42611.94
626.01	42621.44
626.365	42682.68
626.72	42736.24
627.075	42806.52
627.43	42879.73
627.785	42740.75
628.14	42844.48
628.495	42855.33
628.85	42818.94
629.205	42835.44
629.559	43067.3
629.914	42926.96
630.269	42957.02
630.623	42834.99
630.978	42831.6
631.332	43055.77
631.687	43111.14
632.041	42932.84
632.396	43154.08
632.75	42968.09
633.104	42935.78
633.459	42932.84
633.813	42896.23
634.167	42905.27
634.521	42925.83
634.875	43041.31
635.229	42957.02
635.583	42810.13
635.937	42707.99
636.291	43019.39
636.645	42993.18
636.999	42793.41
637.352	42931.71
637.706	42660.98
638.06	42847.19
638.413	42740.08
638.767	42778.49
639.121	42632.28
639.474	42563.81
639.828	42524.04
640.181	42642.68
640.534	42631.38
640.888	42547.31
641.241	42322.69
641.594	42400.2
641.947	42592.96
642.301	42516.58
642.654	42547.99
643.007	42445.17
643.36	42377.6
643.713	42309.58
644.066	42506.41
644.419	42300.77
644.771	42157.04
645.124	41788.69
645.477	41684.29
645.83	41404.97
646.182	41283.84
646.535	41348.47
646.888	41381.24
647.24	41091.31
647.593	41301.92
647.945	41208.37
648.298	41002.95
648.65	40985.32
649.002	40838.21
649.355	41030.97
649.707	41077.75
650.059	41373.79
650.411	41716.83
650.763	41736.71
651.115	42128.34
651.467	41991.4
651.819	41924.05
652.171	41784.62
652.523	41829.59
652.875	41781.91
653.227	41640.9
653.578	41965.41
653.93	41679.77
654.282	41728.13
654.633	41598.19
654.985	41546.44
655.337	41697.39
655.688	41711.63
656.039	41859.42
656.391	41448.59
656.742	41567.68
657.094	41609.26
657.445	41784.85
657.796	41470.96
658.147	41525.87
658.498	41521.58
658.849	41607.68
659.2	41545.31
659.551	41437.29
659.902	41425.54
660.253	41431.18
660.604	41592.76
660.955	41437.96
661.306	41515.02
661.656	41358.42
662.007	41452.88
662.358	41445.42
662.708	41515.7
663.059	41446.1
663.409	41294.69
663.76	41549.83
664.11	41431.86
664.461	41607.23
664.811	41330.17
665.161	41222.38
665.511	41256.27
665.862	41387.57
666.212	41506.89
666.562	41421.92
666.912	41298.31
667.262	41357.29
667.612	41367.91
667.962	41435.48
668.312	41232.77
668.662	41505.98
669.011	41384.86
669.361	41424.63
669.711	41290.17
670.06	41201.59
670.41	41195.26
670.76	41161.81
671.109	41226.22
671.459	41239.78
671.808	41149.38
672.157	41239.78
672.507	40964.3
672.856	41026.9
673.205	40982.16
673.554	41228.7
673.904	41060.8
674.253	41197.74
674.602	41089.27
674.951	40644.76
675.3	40329.52
675.649	40927.02
675.998	41035.49
676.346	40983.06
676.695	41089.05
677.044	40698.32
677.393	40920.24
677.741	40976.28
678.09	40896.28
678.438	40718.44
678.787	40828.04
679.135	40712.33
679.484	40474.15
679.832	40695.38
680.181	40473.7
680.529	40582.39
680.877	40359.57
681.225	40394.38
681.573	40588.27
681.922	40303.08
682.27	40204.78
682.618	40103.99
682.966	40155.29
683.314	40207.71
683.661	40216.08
684.009	40035.06
684.357	39877.55
684.705	39785.58
685.053	39871
685.4	39771.79
685.748	39593.49
686.095	39622.19
686.443	39512.14
686.79	39475.98
687.138	39506.49
687.485	39586.04
687.832	39361.18
688.18	39399.83
688.527	39198.47
688.874	39159.38
689.221	39015.88
689.568	39033.06
689.915	38902.66
690.262	38929.78
690.609	38795.77
690.956	38747.64
691.303	38590.13
691.65	38574.31
691.997	38452.05
692.344	38378.38
692.69	38129.58
693.037	38327.54
693.383	37954.67
693.73	38026.75
694.077	37835.12
694.423	37848
694.769	37764.84
695.116	37688.23
695.462	37652.75
695.808	37349.03
696.155	37474
696.501	37432.42
696.847	37348.35
697.193	37141.58
697.539	37141.13
697.885	37055.03
698.231	36984.75
698.577	36888.03
698.923	36760.8
699.269	36721.7
699.614	36289.17
699.96	36364.88
700.306	36339.79
700.651	36240.59
700.997	36063.87
701.342	35984.77
701.688	36083.3
702.033	35953.81
702.379	35796.3
702.724	35905.91
703.069	35784.78
703.415	35463.88
703.76	35391.57
704.105	35505.69
704.45	35171.69
704.795	35082.2
705.14	35164.91
705.485	35127.62
705.83	34839.72
706.175	34912.03
706.52	34949.1
706.865	34774.18
707.209	34755.65
707.554	34588.43
707.899	34608.77
708.243	34406.96
708.588	34411.71
708.932	34313.86
709.277	34116.12
709.621	34238.83
709.966	34075.45
710.31	34173.3
710.654	33794.78
710.998	33834.77
711.342	34033.87
711.687	33739.41
712.031	33613.31
712.375	33530.6
712.719	33638.85
713.063	33555.91
713.407	33455.58
713.75	33396.37
714.094	33300.32
714.438	33192.76
714.782	33287.22
715.125	33077.05
715.469	33108.24
715.812	32970.62
716.156	32732.66
716.499	32806.1
716.843	32800.68
717.186	32541.25
717.53	32834.57
717.873	32651.08
718.216	32586.45
718.559	32484.75
718.902	32156.63
719.246	32452.21
719.589	32303.29
719.932	32182.39
720.275	32223.52
720.617	32191.65
720.96	32121.15
721.303	32080.24
721.646	32113.24
721.989	31787.82
722.331	31922.06
722.674	31828.73
723.016	31890.19
723.359	31722.74
723.701	31881.61
724.044	31668.05
724.386	31452.24
724.729	31647.71
725.071	31584.66
725.413	31639.8
725.755	31478.45
726.097	31349.64
726.439	31287.27
726.782	31203.2
727.124	31308.29
727.465	31184.22
727.807	31103.32
728.149	31091.12
728.491	30868.98
728.833	31008.86
729.175	30967.05
729.516	30844.57
729.858	30744.46
730.199	30778.13
730.541	30642.54
730.882	30668.98
731.224	30792.37
731.565	30549.44
731.906	30603.22
732.248	30635.31
732.589	30394.86
732.93	30263.57
733.271	30329.78
733.612	30409.1
733.953	30315.54
734.294	30184.47
734.635	30127.75
734.976	30271.25
735.317	29998.26
735.658	29909
735.999	29968.66
736.339	29991.03
736.68	29994.88
737.021	29855.44
737.361	29753.75
737.702	29888.44
738.042	29801.66
738.383	29726.18
738.723	29627.43
739.063	29698.16
739.404	29678.05
739.744	29472.4
740.084	29472.63
740.424	29509.92
740.764	29367.32
741.104	29509.46
741.444	29389.47
741.784	29272.63
742.124	29410.48
742.464	29206.87
742.804	29268.79
743.143	29174.78
743.483	29249.13
743.823	28956.48
744.162	29042.36
744.502	29129.81
744.841	28892.31
745.181	29107.21
745.52	28907.22
745.86	28911.29
746.199	28886.2
746.538	28878.75
746.877	28878.07
747.216	28970.04
747.556	28738.64
747.895	28735.47
748.234	28714.91
748.573	28629.49
748.911	28616.38
749.25	28473.11
749.589	28434.46
749.928	28449.38
750.267	28510.62
750.605	28276.05
750.944	28237.63
751.283	28252.77
751.621	28300.23
751.96	28196.73
752.298	28093.68
752.636	28124.64
752.975	28014.81
753.313	27983.4
753.651	27976.62
753.989	27719.91
754.327	27763.97
754.666	27633.36
755.004	27624.54
755.342	27739.57
755.679	27575.5
756.017	27472.91
756.355	27555.17
756.693	27366.47
757.031	27372.57
757.368	27291.22
757.706	27272.01
758.044	27152.92
758.381	27155.63
758.719	27045.35
759.056	26961.73
759.394	26955.41
759.731	26734.62
760.068	26788.63
760.405	26628.18
760.743	26574.63
761.08	26603.33
761.417	26506.61
761.754	26455.08
762.091	26206.05
762.428	26320.17
762.765	26084.7
763.102	26242.88
763.438	26017.13
763.775	25887.64
764.112	25991.36
764.449	25982.55
764.785	25849.22
765.122	25752.05
765.458	25502.11
765.795	25577.59
766.131	25447.65
766.467	25332.62
766.804	25188.45
767.14	25192.74
767.476	25210.59
767.812	25114.33
768.148	25036.59
768.485	24887.89
768.821	24828.23
769.157	24785.97
769.492	24714.34
769.828	24578.07
770.164	24346.21
770.5	24465.08
770.836	24485.42
771.171	24167.91
771.507	24177.63
771.842	24141.02
772.178	24053.56
772.513	23982.38
772.849	23917.52
773.184	23710.52
773.519	23672.78
773.855	23659
774.19	23550.52
774.525	23504.42
774.86	23487.7
775.195	23331.77
775.53	23320.25
775.865	23146.92
776.2	23007.26
776.535	22875.97
776.87	22867.15
777.205	22754.39
777.539	22647.95
777.874	22673.94
778.209	22510.1
778.543	22403.66
778.878	22350.56
779.212	22341.52
779.547	22269.2
779.881	22186.94
780.215	22061.98
780.55	22112.37
780.884	21871.92
781.218	21890.91
781.552	21813.17
781.886	21687.75
782.22	21708.77
782.554	21503.12
782.888	21344.26
783.222	21268.1
783.556	21246.4
783.889	21208.44
784.223	21036.24
784.557	20988.11
784.89	21087.09
785.224	20935.23
785.557	20676.25
785.891	20831.27
786.224	20634.67
786.558	20697.72
786.891	20410.49
787.224	20423.83
787.557	20390.16
787.891	20382.7
788.224	20302.25
788.557	20251.85
788.89	20241.69
789.223	20137.06
789.556	20000.34
789.888	20024.74
790.221	19892.77
790.554	19688.93
790.887	19706.56
791.219	19760.12
791.552	19520.35
791.884	19403.52
792.217	19376.4
792.549	19413.91
792.882	19230.19
793.214	19170.08
793.546	19200.81
793.879	19136.86
794.211	18979.8
794.543	19130.08
794.875	19002.17
795.207	18945.22
795.539	18790.42
795.871	18870.87
796.203	18641.28
796.535	18630.65
796.867	18602.63
797.198	18502.07
797.53	18432.24
797.862	18441.96
798.193	18361.96
798.525	18312.47
798.856	18365.12
799.188	18117.22
799.519	18098.92
799.85	17946.83
800.182	17940.05
800.513	17916.55
800.844	17728.98
801.175	17813.5
801.506	17761.3
801.837	17698.7
802.168	17695.31
802.499	17595.65
802.83	17509.33
803.161	17457.8
803.491	17399.95
803.822	17471.81
804.153	17389.1
804.483	17153.4
804.814	17180.07
805.145	17056.91
805.475	17178.26
805.805	17082.9
806.136	17103.24
806.466	17040.64
806.796	17027.53
807.126	16756.81
807.457	16842.45
807.787	16790.7
808.117	16647.2
808.447	16625.06
808.777	16749.57
809.107	16624.61
809.436	16479.3
809.766	16460.32
810.096	16498.51
810.426	16479.3
810.755	16394.1
811.085	16381
811.414	16296.48
811.744	16199.53
812.073	16214.45
812.403	16172.64
812.732	16090.83
813.061	16062.81
813.39	16006.09
813.719	15927.45
814.049	16015.58
814.378	15880.9
814.707	15879.09
815.036	15897.39
815.365	15771.52
815.693	15626.21
816.022	15634.35
816.351	15590.51
816.68	15498.99
817.008	15583.73
817.337	15442.26
817.665	15374.02
817.994	15423.51
818.322	15384.41
818.651	15285.21
818.979	15252.66
819.307	15332.21
819.636	15280.46
819.964	15146
820.292	15210.18
820.62	15239.1
820.948	15112.55
821.276	15139.22
821.604	15051.77
821.932	15124.98
822.259	15091.31
822.587	15144.42
822.915	15053.35
823.243	15111.42
823.57	15067.81
823.898	15092.67
824.225	14976.74
824.553	15013.8
824.88	15014.48
825.207	15014.03
825.535	15025.1
825.862	15121.14
826.189	15013.35
826.516	15108.94
826.843	15191.2
827.17	15005.66
827.497	15096.51
827.824	15135.6
828.151	15075.27
828.478	14968.6
828.805	15043.86
829.131	14947.14
829.458	15002.05
829.785	14998.89
830.111	14862.62
830.438	15056.96
830.764	15013.57
831.09	15062.61
831.417	14925.21
831.743	15015.38
832.069	15011.99
832.395	14893.35
832.722	15007.02
833.048	14914.82
833.374	14987.36
833.7	14740.59
834.026	14837.53
834.351	14849.74
834.677	14890.19
835.003	14810.42
835.329	14861.49
835.654	14790.08
835.98	14702.4
836.306	14814.26
836.631	14693.81
836.956	14774.94
837.282	14801.83
837.607	14634.83
837.932	14590.99
838.258	14543.53
838.583	14689.51
838.908	14565.45
839.233	14601.16
839.558	14525.45
839.883	14475.74
840.208	14391.9
840.533	14474.61
840.858	14386.7
841.182	14442.97
841.507	14424.66
841.832	14255.85
842.156	14286.14
842.481	14314.16
842.805	14276.87
843.13	14184.44
843.454	14185.57
843.778	14136.99
844.103	14107.84
844.427	14003.43
844.751	14076.2
845.075	13955.3
845.399	13971.34
845.723	13981.96
846.047	13964.56
846.371	13829.88
846.695	13830.1
847.019	13706.49
847.343	13600.5
847.666	13559.15
847.99	13593.72
848.313	13513.27
848.637	13456.55
848.96	13428.53
849.284	13378.59
849.607	13292.94
849.931	13191.7
850.254	13218.14
850.577	13029.45
850.9	12991.03
851.223	13053.85
851.546	12961.88
851.869	12840.98
852.192	12892.95
852.515	12753.97
852.838	12717.59
853.161	12783.58
853.483	12627.42
853.806	12571.83
854.129	12524.83
854.451	12485.28
854.774	12465.84
855.096	12403.47
855.419	12358.5
855.741	12357.6
856.063	12290.03
856.385	12337.71
856.708	12224.72
857.03	12096.81
857.352	12145.18
857.674	12168.23
857.996	12127.55
858.318	11964.61
858.64	12128.23
858.961	11945.41
859.283	11972.07
859.605	11809.82
859.926	11912.86
860.248	11846.43
860.57	11828.8
860.891	11812.75
861.212	11733.21
861.534	11694.34
861.855	11692.53
862.176	11693.89
862.498	11621.57
862.819	11624.74
863.14	11537.73
863.461	11517.39
863.782	11610.05
864.103	11511.29
864.424	11508.81
864.745	11487.11
865.065	11430.17
865.386	11462.48
865.707	11396.95
866.027	11403.95
866.348	11398.3
866.668	11289.83
866.989	11374.12
867.309	11243.96
867.63	11356.04
867.95	11283.05
868.27	11191.75
868.59	11224.75
868.91	11199.21
869.23	11211.87
869.55	11153.56
869.87	11203.73
870.19	11176.39
870.51	11171.87
870.83	11110.4
871.15	11017.75
871.469	11061.81
871.789	11050.97
872.109	11068.82
872.428	10982.04
872.748	11031.76
873.067	10960.12
873.386	10941.14
873.706	10939.33
874.025	10852.55
874.344	10921.03
874.663	10882.61
874.982	10842.38
875.301	10924.19
875.62	10767.36
875.939	10785.89
876.258	10800.35
876.577	10767.81
876.896	10790.18
877.214	10684.65
877.533	10755.16
877.852	10741.14
878.17	10714.7
878.489	10700.47
878.807	10656.17
879.125	10576.4
879.444	10632.22
879.762	10587.02
880.08	10633.58
880.398	10535.05
880.716	10575.27
881.034	10467.03
881.352	10514.71
881.67	10497.08
881.988	10455.5
882.306	10422.28
882.624	10368.05
882.941	10363.98
883.259	10313.81
883.577	10362.17
883.894	10282.4
884.212	10266.81
884.529	10262.29
884.846	10242.17
885.164	10254.38
885.481	10217.99
885.798	10231.55
886.115	10027.26
886.432	10124.44
886.75	10077.43
887.067	10121.95
887.383	10086.47
887.7	10030.88
888.017	9961.05
888.334	9986.14
888.651	10016.87
888.967	9936.65
889.284	9870.21
889.6	9875.18
889.917	9798.34
890.233	9785.01
890.55	9732.13
890.866	9725.58
891.182	9754.73
891.498	9739.36
891.815	9776.88
892.131	9628.86
892.447	9648.97
892.763	9542.53
893.079	9583.21
893.395	9528.29
893.71	9492.14
894.026	9482.87
894.342	9446.94
894.657	9352.93
894.973	9368.3
895.289	9344.34
895.604	9403.55
895.92	9290.56
896.235	9255.53
896.55	9218.02
896.865	9209.21
897.181	9167.85
897.496	9139.83
897.811	9111.13
898.126	9072.71
898.441	9053.73
898.756	9046.73
899.071	8973.96
899.386	9009.89
899.7	8964.02
900.015	8914.53
900.33	8801.08
900.644	8831.14
900.959	8846.73
901.273	8795.66
901.588	8802.44
901.902	8715.89
902.216	8649.67
902.531	8588.21
902.845	8550.24
903.159	8540.98
903.473	8575.78
903.787	8502.33
904.101	8411.04
904.415	8435.44
904.729	8452.62
905.042	8380.53
905.356	8367.42
905.67	8399.96
905.984	8300.53
906.297	8344.15
906.611	8190.93
906.924	8217.82
907.237	8182.34
907.551	8168.78
907.864	8089.24
908.177	8114.09
908.491	8089.46
908.804	8025.74
909.117	7949.13
909.43	7894.44
909.743	7946.64
910.056	7899.64
910.368	7861.67
910.681	7758.85
910.994	7802.01
911.307	7761.79
911.619	7677.95
911.932	7704.39
912.244	7627.55
912.557	7643.82
912.869	7624.62
913.181	7590.49
913.494	7548.01
913.806	7458.74
914.118	7486.77
914.43	7455.13
914.742	7450.38
915.054	7395.47
915.366	7397.05
915.678	7355.47
915.99	7313.21
916.302	7176.49
916.613	7216.94
916.925	7165.19
917.236	7188.24
917.548	7212.65
917.859	7178.98
918.171	7057.85
918.482	7087.68
918.794	7056.04
919.105	6993.67
919.416	6931.53
919.727	6951.87
920.038	6928.59
920.349	6903.28
920.66	6823.73
920.971	6856.5
921.282	6769.27
921.593	6738.54
921.903	6741.93
922.214	6748.48
922.525	6762.27
922.835	6666.9
923.146	6593.68
923.456	6623.74
923.767	6582.16
924.077	6552.1
924.387	6530.63
924.697	6475.49
925.008	6432.56
925.318	6437.08
925.628	6453.57
925.938	6360.47
926.248	6282.05
926.558	6327.25
926.867	6322.5
927.177	6239.12
927.487	6280.24
927.796	6187.14
928.106	6216.07
928.416	6149.63
928.725	6151.89
929.034	6090.64
929.344	6107.14
929.653	6029.63
929.962	6038.44
930.271	5996.86
930.581	5991.44
930.89	5929.29
931.199	5876.41
931.508	5932.91
931.817	5878
932.125	5853.36
932.434	5823.31
932.743	5760.94
933.051	5718.68
933.36	5762.29
933.669	5710.09
933.977	5657.21
934.286	5674.84
934.594	5718.9
934.902	5594.84
935.21	5602.97
935.519	5607.49
935.827	5606.82
936.135	5481.85
936.443	5507.38
936.751	5461.73
937.059	5434.39
937.367	5435.97
937.674	5441.4
937.982	5411.57
938.29	5348.29
938.597	5334.28
938.905	5260.84
939.213	5265.13
939.52	5263.55
939.827	5246.83
940.135	5214.28
940.442	5235.75
940.749	5228.29
941.056	5184.68
941.363	5127.73
941.67	5150.56
941.977	5160.95
942.284	5084.34
942.591	5051.35
942.898	5047.96
943.205	4970.9
943.511	4997.34
943.818	4977
944.125	4927.74
944.431	4947.17
944.738	4906.72
945.044	4867.63
945.35	4859.94
945.657	4806.84
945.963	4842.77
946.269	4813.62
946.575	4794.41
946.881	4731.81
947.187	4716.9
947.493	4745.14
947.799	4673.96
948.105	4666.05
948.41	4674.64
948.716	4635.09
949.022	4634.86
949.327	4590.8
949.633	4545.37
949.938	4566.62
950.244	4499.05
950.549	4489.78
950.854	4489.56
951.16	4482.55
951.465	4466.96
951.77	4440.52
952.075	4421.08
952.38	4389.9
952.685	4394.42
952.99	4354.87
953.294	4320.97
953.599	4311.48
953.904	4272.84
954.209	4277.81
954.513	4230.35
954.818	4204.37
955.122	4232.61
955.426	4210.02
955.731	4192.39
956.035	4162.33
956.339	4156.01
956.643	4151.26
956.948	4119.62
957.252	4052.73
957.556	4100.41
957.86	4079.17
958.163	4054.31
958.467	4005.5
958.771	4039.63
959.075	4031.26
959.378	3979.06
959.682	3974.32
959.985	3897.48
960.289	3949.91
960.592	3932.28
960.896	3855.9
961.199	3860.42
961.502	3868.1
961.805	3862.91
962.108	3805.06
962.411	3795.34
962.714	3749.69
963.017	3775.9
963.32	3799.63
963.623	3735.68
963.926	3723.93
964.228	3720.31
964.531	3708.56
964.833	3699.52
965.136	3670.82
965.438	3648
965.741	3601.67
966.043	3621.78
966.345	3595.12
966.648	3619.75
966.95	3581.56
967.252	3557.83
967.554	3551.05
967.856	3541.11
968.158	3518.51
968.46	3520.54
968.761	3462.24
969.063	3442.13
969.365	3444.61
969.666	3435.57
969.968	3415.69
970.269	3405.07
970.571	3397.83
970.872	3375.01
971.174	3397.83
971.475	3336.37
971.776	3309.48
972.077	3316.03
972.378	3285.07
972.679	3290.94
972.98	3283.04
973.281	3247.33
973.582	3269.93
973.883	3247.1
974.183	3240.1
974.484	3219.53
974.785	3191.29
975.085	3172.53
975.386	3169.37
975.686	3165.52
975.986	3156.94
976.287	3135.69
976.587	3110.16
976.887	3075.36
977.187	3116.49
977.487	3081.01
977.787	3061.12
978.087	3047.56
978.387	3048.47
978.687	3019.09
978.987	2979.09
979.286	2958.52
979.586	3016.83
979.885	2959.65
980.185	2956.49
980.484	2933.89
980.784	2930.05
981.083	2900.9
981.382	2873.33
981.682	2872.42
981.981	2862.26
982.28	2850.5
982.579	2798.75
982.878	2815.48
983.177	2828.58
983.475	2834.01
983.774	2778.42
984.073	2784.74
984.372	2736.38
984.67	2724.63
984.969	2754.24
985.267	2733.45
985.566	2710.62
985.864	2720.34
986.162	2695.48
986.461	2689.15
986.759	2705.2
987.057	2637.4
987.355	2647.8
987.653	2618.19
987.951	2603.28
988.249	2605.31
988.547	2571.42
988.844	2606.22
989.142	2538.65
989.44	2555.6
989.737	2547.01
990.035	2542.26
990.332	2528.7
990.63	2508.82
990.927	2555.82
991.224	2478.99
991.521	2487.8
991.819	2451.19
992.116	2446
992.413	2450.06
992.71	2453.68
993.006	2410.97
993.303	2380.69
993.6	2399.67
993.897	2409.16
994.193	2397.86
994.49	2383.85
994.787	2352.89
995.083	2332.78
995.379	2366.68
995.676	2334.13
995.972	2290.97
996.268	2277.86
996.565	2295.49
996.861	2298.88
997.157	2240.12
997.453	2283.29
997.749	2261.59
998.044	2209.39
998.34	2234.25
998.636	2195.61
998.932	2193.12
999.227	2171.88
999.523	2188.6
999.818	2169.62
1000.114	2125.78
1000.409	2154.48
1000.704	2118.32
1001	2117.42
1001.295	2117.64
1001.59	2107.92
1001.885	2071.77
1002.18	2086.46
1002.475	2081.03
1002.77	2054.37
1003.065	2065.21
1003.359	2048.04
1003.654	2014.59
1003.949	1996.74
1004.243	1996.97
1004.538	1980.92
1004.832	1966.69
1005.127	1970.98
1005.421	1950.64
1005.715	1969.62
1006.009	1935.95
1006.304	1938.44
1006.598	1926.23
1006.892	1900.25
1007.186	1946.8
1007.48	1842.85
1007.773	1851.43
1008.067	1870.19
1008.361	1837.2
1008.655	1806.92
1008.948	1841.49
1009.242	1818.89
1009.535	1809.63
1009.829	1831.32
1010.122	1772.57
1010.415	1766.46
1010.708	1766.24
1011.001	1747.48
1011.295	1721.27
1011.588	1727.6
1011.881	1733.25
1012.173	1714.49
1012.466	1686.92
1012.759	1665.45
1013.052	1665.45
1013.344	1660.48
1013.637	1686.47
1013.93	1657.99
1014.222	1631.55
1014.514	1637.65
1014.807	1601.5
1015.099	1613.7
1015.391	1612.8
1015.683	1596.98
1015.976	1630.2
1016.268	1579.35
1016.56	1584.32
1016.851	1554.49
1017.143	1537.54
1017.435	1536.41
1017.727	1581.38
1018.018	1526.47
1018.31	1525.57
1018.602	1505.45
1018.893	1482.4
1019.185	1490.54
1019.476	1500.26
1019.767	1450.09
1020.058	1466.36
1020.35	1437.43
1020.641	1430.88
1020.932	1429.07
1021.223	1410.99
1021.514	1388.62
1021.804	1400.6
1022.095	1415.06
1022.386	1385.01
1022.677	1354.95
1022.967	1347.72
1023.258	1349.75
1023.548	1358.34
1023.839	1356.31
1024.129	1307.27
1024.419	1326.7
1024.709	1321.05
1025	1275.86
1025.29	1310.88
1025.58	1264.33
1025.87	1292.8
1026.16	1246.25
1026.449	1292.8
1026.739	1245.57
1027.029	1262.98
1027.319	1261.17
1027.608	1233.15
1027.898	1248.06
1028.187	1232.02
1028.477	1205.35
1028.766	1227.04
1029.055	1185.46
1029.344	1176.42
1029.634	1173.26
1029.923	1167.61
1030.212	1157.44
1030.501	1149.76
1030.79	1143.88
1031.078	1143.43
1031.367	1119.7
1031.656	1134.84
1031.945	1112.92
1032.233	1120.15
1032.522	1091.91
1032.81	1075.64
1033.099	1069.53
1033.387	1078.8
1033.675	1062.98
1033.963	1074.96
1034.251	1044
1034.54	1056.43
1034.828	1059.59
1035.116	1040.61
1035.403	1035.86
1035.691	1050.78
1035.979	1017.33
1036.267	1024.34
1036.554	1004.68
1036.842	1001.51
1037.129	997.67
1037.417	961.74
1037.704	975.53
1037.992	957.22
1038.279	966.03
1038.566	974.85
1038.853	974.85
1039.14	974.85
