Data from hue_210_FLMS001491_00087.txt Node
Date: Tue Feb 07 16:41:53 GMT 2017
User: dcchb
Spectrometer: FLMS00149
Trigger mode: 0
Integration Time (sec): 2.000000E-2
Scans to average: 10
Electric dark correction enabled: true
Nonlinearity correction enabled: false
Boxcar width: 0
XAxis mode: Wavelengths
Number of Pixels in Spectrum: 2048
>>>>>Begin Spectral Data<<<<<
341.393	-26.71
341.776	-26.71
342.16	-26.71
342.543	-57.67
342.927	-66.71
343.31	-69.65
343.693	-73.49
344.077	-67.16
344.46	-66.93
344.843	-47.05
345.226	-28.52
345.61	-44.11
345.993	-8.63
346.376	-18.8
346.759	1.54
347.142	51.03
347.525	28.66
347.908	60.3
348.291	69.56
348.674	96.45
349.057	116.79
349.44	106.4
349.823	118.37
350.206	164.47
350.588	200.86
350.971	206.73
351.354	213.06
351.737	234.08
352.119	239.05
352.502	260.29
352.884	245.37
353.267	284.47
353.65	289.89
354.032	279.5
354.414	309.55
354.797	306.62
355.179	338.48
355.562	316.33
355.944	321.76
356.326	302.77
356.709	342.1
357.091	321.31
357.473	336.22
357.855	319.72
358.238	321.08
358.62	328.31
359.002	320.85
359.384	350.91
359.766	326.5
360.148	346.39
360.53	346.84
360.912	333.28
361.294	306.84
361.676	331.93
362.057	329.67
362.439	320.63
362.821	322.44
363.203	311.36
363.584	331.02
363.966	323.11
364.348	323.34
364.729	344.36
365.111	297.35
365.493	326.28
365.874	309.55
366.256	331.93
366.637	310.23
367.019	322.44
367.4	312.49
367.781	310.91
368.163	307.75
368.544	294.87
368.925	318.14
369.306	316.33
369.688	299.84
370.069	326.73
370.45	285.6
370.831	288.09
371.212	321.31
371.593	327.86
371.974	321.31
372.355	309.33
372.736	302.1
373.117	312.49
373.498	315.43
373.879	306.16
374.26	314.53
374.641	299.38
375.021	298.93
375.402	314.3
375.783	316.33
376.163	325.15
376.544	315.66
376.925	341.64
377.305	311.81
377.686	311.81
378.066	319.95
378.447	342.1
378.827	335.77
379.208	328.54
379.588	318.14
379.968	331.93
380.349	344.13
380.729	337.8
381.109	344.36
381.489	316.56
381.87	327.41
382.25	356.56
382.63	300.74
383.01	338.71
383.39	338.48
383.77	334.64
384.15	341.42
384.53	336.22
384.91	339.84
385.29	338.93
385.67	346.84
386.049	350.46
386.429	336.22
386.809	360.17
387.189	348.42
387.568	355.65
387.948	353.39
388.328	367.18
388.707	357.24
389.087	355.88
389.466	343.23
389.846	363.34
390.225	369.67
390.605	365.15
390.984	385.48
391.363	372.83
391.743	366.95
392.122	365.6
392.501	368.76
392.881	363.79
393.26	353.17
393.639	366.28
394.018	382.09
394.397	398.82
394.776	379.16
395.155	378.03
395.534	360.85
395.913	375.09
396.292	395.43
396.671	410.12
397.05	399.27
397.429	406.5
397.808	392.72
398.186	392.94
398.565	405.6
398.944	448.53
399.323	417.57
399.701	432.49
400.08	409.44
400.458	420.74
400.837	420.29
401.215	433.39
401.594	410.12
401.972	430
402.351	419.61
402.729	450.57
403.107	444.92
403.486	424.35
403.864	451.47
404.242	443.34
404.62	466.61
404.999	454.18
405.377	457.57
405.755	456.22
406.133	468.42
406.511	474.07
406.889	476.78
407.267	494.18
407.645	497.35
408.023	479.72
408.401	502.77
408.779	523.33
409.156	509.32
409.534	539.6
409.912	515.42
410.29	520.4
410.667	533.05
411.045	541.19
411.422	555.42
411.8	562.43
412.178	543.22
412.555	601.3
412.933	592.26
413.31	604.24
413.687	595.87
414.065	614.18
414.442	611.69
414.819	637
415.197	642.43
415.574	660.73
415.951	633.84
416.328	670
416.705	671.58
417.082	683.1
417.46	692.59
417.837	707.06
418.214	711.58
418.591	721.97
418.967	717
419.344	713.61
419.721	753.61
420.098	728.98
420.475	772.14
420.852	768.52
421.228	788.19
421.605	796.77
421.982	813.95
422.358	813.72
422.735	827.73
423.111	813.95
423.488	847.62
423.864	868.86
424.241	878.13
424.617	924.23
424.994	910.67
425.37	921.06
425.746	935.98
426.123	949.76
426.499	969.88
426.875	966.26
427.251	999.71
427.627	1001.74
428.003	1035.86
428.379	1036.09
428.756	1064.11
429.132	1053.94
429.507	1081.06
429.883	1069.08
430.259	1065.92
430.635	1121.06
431.011	1103.88
431.387	1128.06
431.763	1177.33
432.138	1180.49
432.514	1184.11
432.89	1193.37
433.265	1208.29
433.641	1252.35
434.016	1270.43
434.392	1307.27
434.767	1338.23
435.143	1331.9
435.518	1380.94
435.894	1389.98
436.269	1413.71
436.644	1410.32
437.02	1440.82
437.395	1456.19
437.77	1487.6
438.145	1504.55
438.52	1511.56
438.895	1573.93
439.271	1572.8
439.646	1629.97
440.021	1659.8
440.395	1670.65
440.77	1636.98
441.145	1657.09
441.52	1714.49
441.895	1734.15
442.27	1792.68
442.645	1737.77
443.019	1775.73
443.394	1790.19
443.769	1815.05
444.143	1817.99
444.518	1841.72
444.892	1856.18
445.267	1874.94
445.641	1898.21
446.016	1899.12
446.39	1926.69
446.764	1933.24
447.139	1937.08
447.513	1964.2
447.887	2013.92
448.262	1964.2
448.636	2006.91
449.01	2029.51
449.384	2067.7
449.758	2063.18
450.132	2103.41
450.506	2087.59
450.88	2133.46
451.254	2119.68
451.628	2143.86
452.002	2177.53
452.376	2208.49
452.75	2211.88
453.123	2254.81
453.497	2268.37
453.871	2278.32
454.244	2319.44
454.618	2347.69
454.992	2363.51
455.365	2356.51
455.739	2428.37
456.112	2429.5
456.486	2436.5
456.859	2481.93
457.232	2536.61
457.606	2524.19
457.979	2594.01
458.352	2590.4
458.725	2607.35
459.099	2624.3
459.472	2693.22
459.845	2721.02
460.218	2782.94
460.591	2757.17
460.964	2788.81
461.337	2831.97
461.71	2854.35
462.083	2887.11
462.456	2929.6
462.829	2901.8
463.201	2970.5
463.574	2981.57
463.947	3025.64
464.32	3095.92
464.692	3141.12
465.065	3141.8
465.438	3166.43
465.81	3231.96
466.183	3253.66
466.555	3321.45
466.928	3334.56
467.3	3319.19
467.672	3365.52
468.045	3403.48
468.417	3461.56
468.789	3465.86
469.161	3532.07
469.534	3595.57
469.906	3657.71
470.278	3697.26
470.65	3706.53
471.022	3759.41
471.394	3869.91
471.766	3891.83
472.138	3943.36
472.51	3978.38
472.882	4033.75
473.253	4092.51
473.625	4142.67
473.997	4210.92
474.369	4247.3
474.74	4268.77
475.112	4331.14
475.484	4403.91
475.855	4496.79
476.227	4534.3
476.598	4613.17
476.97	4656.56
477.341	4756.22
477.713	4777.91
478.084	4833.05
478.455	4935.2
478.827	4920.73
479.198	5141.07
479.569	5080.5
479.94	5285.69
480.311	5277.56
480.682	5419.48
481.053	5476.88
481.424	5523.43
481.795	5588.74
482.166	5732.24
482.537	5700.82
482.908	5803.65
483.279	5883.19
483.65	6017.2
484.021	6090.42
484.391	6107.59
484.762	6142.17
485.133	6235.5
485.503	6336.97
485.874	6379.22
486.244	6482.73
486.615	6561.59
486.985	6609.5
487.356	6754.36
487.726	6856.5
488.097	6950.51
488.467	6884.3
488.837	7040.22
489.207	7108.92
489.578	7196.6
489.948	7244.74
490.318	7350.72
490.688	7357.28
491.058	7386.2
491.428	7524.28
491.798	7561.79
492.168	7770.37
492.538	7797.94
492.908	7831.84
493.278	7927.88
493.648	7881.11
494.017	8023.02
494.387	8094.66
494.757	8142.12
495.126	8202.45
495.496	8232.51
495.866	8357.93
496.235	8336.24
496.605	8374.65
496.974	8368.33
497.344	8505.72
497.713	8532.61
498.082	8615.55
498.452	8571.94
498.821	8610.13
499.19	8625.27
499.559	8725.15
499.928	8742.1
500.298	8792.04
500.667	8859.16
501.036	8793.17
501.405	8914.3
501.774	8920.4
502.143	8979.61
502.512	8991.81
502.88	9110
503.249	9124.24
503.618	9155.42
503.987	9071.13
504.356	9173.95
504.724	9183.67
505.093	9209.66
505.462	9177.12
505.83	9268.64
506.199	9244.46
506.567	9391.58
506.936	9361.29
507.304	9433.61
507.672	9426.6
508.041	9485.36
508.409	9526.49
508.777	9589.99
509.145	9617.78
509.514	9608.07
509.882	9629.31
510.25	9627.05
510.618	9663.21
510.986	9706.14
511.354	9780.94
511.722	9758.8
512.09	9826.59
512.458	9741.17
512.826	9862.52
513.193	9813.26
513.561	9840.15
513.929	9892.13
514.297	9874.5
514.664	9966.48
515.032	9949.53
515.4	10046.02
515.767	9997.21
516.135	10025.23
516.502	9991.33
516.869	10082.63
517.237	10110.88
517.604	10037.43
517.972	10049.41
518.339	10123.31
518.706	10115.4
519.073	10176.41
519.44	10130.99
519.808	10225
520.175	10103.42
520.542	10245.11
520.909	10259.8
521.276	10210.08
521.643	10241.04
522.009	10264.32
522.376	10276.98
522.743	10272
523.11	10388.84
523.477	10403.07
523.843	10405.11
524.21	10493.02
524.577	10491.43
524.943	10411.89
525.31	10459.12
525.676	10525.78
526.043	10522.84
526.409	10537.31
526.776	10620.47
527.142	10539.34
527.508	10582.73
527.874	10562.17
528.241	10620.92
528.607	10562.17
528.973	10611.2
529.339	10567.36
529.705	10597.19
530.071	10658.66
530.437	10680.35
530.803	10628.6
531.169	10685.55
531.535	10642.39
531.901	10601.03
532.267	10609.17
532.632	10620.92
532.998	10642.84
533.364	10613.46
533.73	10536.63
534.095	10624.54
534.461	10553.8
534.826	10538.66
535.192	10620.47
535.557	10592.45
535.923	10550.64
536.288	10592.9
536.653	10512.9
537.019	10492.56
537.384	10436.97
537.749	10399.46
538.114	10446.69
538.479	10400.14
538.845	10432.9
539.21	10327.14
539.575	10312.91
539.94	10260.93
540.305	10341.38
540.67	10248.05
541.034	10281.04
541.399	10255.73
541.764	10271.1
542.129	10217.32
542.494	10197.2
542.858	10212.34
543.223	10129.86
543.587	10153.59
543.952	10068.62
544.316	10071.11
544.681	10059.35
545.045	10051.9
545.41	10109.07
545.774	10079.24
546.138	10014.84
546.503	9991.33
546.867	9854.16
547.231	9932.13
547.595	9931
547.959	9872.47
548.324	9874.27
548.688	9815.52
549.052	9817.78
549.416	9763.54
549.779	9738.91
550.143	9738.46
550.507	9779.36
550.871	9722.19
551.235	9693.49
551.599	9710.66
551.962	9647.16
552.326	9646.26
552.689	9621.17
553.053	9578.01
553.417	9591.12
553.78	9620.95
554.143	9534.62
554.507	9547.5
554.87	9534.17
555.234	9568.07
555.597	9466.6
555.96	9536.66
556.323	9489.88
556.686	9502.31
557.05	9464.57
557.413	9480.84
557.776	9475.19
558.139	9524.45
558.502	9487.17
558.865	9401.74
559.228	9485.58
559.59	9445.58
559.953	9421.18
560.316	9528.52
560.679	9492.59
561.041	9459.6
561.404	9530.1
561.767	9505.92
562.129	9447.39
562.492	9501.4
562.854	9427.51
563.217	9455.08
563.579	9506.6
563.941	9431.35
564.304	9530.1
564.666	9569.88
565.028	9525.81
565.39	9536.88
565.753	9527.84
566.115	9543.44
566.477	9583.89
566.839	9496.88
567.201	9600.61
567.563	9629.99
567.925	9660.27
568.287	9626.37
568.648	9595.19
569.01	9697.78
569.372	9682.19
569.734	9686.26
570.095	9695.52
570.457	9657.78
570.819	9702.98
571.18	9717.67
571.542	9739.14
571.903	9759.93
572.265	9796.76
572.626	9725.8
572.987	9822.07
573.349	9845.57
573.71	9896.19
574.071	9835.18
574.432	9918.79
574.794	9860.26
575.155	9910.43
575.516	9887.61
575.877	9896.42
576.238	9874.05
576.599	9940.94
576.96	9949.07
577.32	9906.82
577.681	9988.17
578.042	10034.5
578.403	9983.88
578.763	10010.99
579.124	10000.15
579.485	10011.45
579.845	10049.41
580.206	10080.14
580.566	10059.13
580.927	10050.09
581.287	10092.35
581.648	10118.11
582.008	10174.15
582.368	10115.4
582.728	10173.02
583.089	10054.61
583.449	10131.67
583.809	10152.01
584.169	10073.59
584.529	10123.08
584.889	10198.33
585.249	10192.91
585.609	10104.78
585.969	10183.19
586.329	10173.02
586.688	10224.55
587.048	10242.4
587.408	10198.11
587.768	10127.15
588.127	10172.35
588.487	10112.91
588.846	10314.04
589.206	10154.72
589.565	10178.9
589.925	10246.24
590.284	10282.17
590.643	10279.69
591.003	10254.38
591.362	10252.34
591.721	10257.54
592.08	10255.96
592.44	10222.06
592.799	10267.48
593.158	10269.52
593.517	10267.94
593.876	10295.05
594.235	10293.47
594.593	10327.37
594.952	10325.11
595.311	10298.22
595.67	10349.74
596.029	10349.97
596.387	10338.44
596.746	10400.36
597.104	10269.97
597.463	10313.36
597.822	10292.12
598.18	10240.59
598.538	10321.95
598.897	10423.19
599.255	10293.47
599.613	10436.29
599.972	10420.25
600.33	10360.36
600.688	10357.65
601.046	10405.11
601.404	10431.55
601.762	10346.35
602.12	10443.52
602.478	10428.38
602.836	10429.29
603.194	10386.8
603.552	10380.93
603.91	10378.89
604.268	10453.02
604.625	10423.64
604.983	10422.28
605.341	10418.89
605.698	10422.51
606.056	10458.44
606.413	10385.67
606.771	10550.64
607.128	10555.16
607.485	10423.64
607.843	10523.75
608.2	10472.45
608.557	10579.57
608.914	10507.48
609.272	10485.33
609.629	10569.17
609.986	10557.42
610.343	10535.73
610.7	10536.4
611.057	10531.43
611.414	10509.51
611.771	10576.18
612.127	10623.18
612.484	10570.75
612.841	10633.35
613.198	10610.98
613.554	10545.9
613.911	10641.03
614.267	10700.47
614.624	10635.84
614.98	10589.96
615.337	10734.14
615.693	10697.76
616.05	10612.11
616.406	10688.49
616.762	10637.42
617.118	10671.09
617.475	10670.86
617.831	10711.77
618.187	10733.46
618.543	10710.41
618.899	10764.19
619.255	10727.36
619.611	10723.74
619.967	10773.91
620.323	10803.06
620.678	10726.68
621.034	10727.36
621.39	10710.64
621.746	10702.05
622.101	10754.48
622.457	10740.01
622.812	10768.94
623.168	10756.06
623.523	10784.76
623.879	10784.76
624.234	10730.97
624.589	10719.45
624.945	10773.23
625.3	10774.36
625.655	10703.18
626.01	10756.74
626.365	10770.52
626.72	10775.72
627.075	10753.8
627.43	10704.99
627.785	10679.68
628.14	10716.29
628.495	10715.38
628.85	10730.52
629.205	10751.54
629.559	10688.26
629.914	10628.83
630.269	10669.96
630.623	10690.75
630.978	10653.46
631.332	10657.76
631.687	10672.22
632.041	10634.03
632.396	10677.87
632.75	10554.48
633.104	10611.66
633.459	10516.29
633.813	10540.02
634.167	10520.13
634.521	10608.27
634.875	10509.29
635.229	10520.81
635.583	10506.57
635.937	10479.23
636.291	10477.42
636.645	10436.07
636.999	10444.88
637.352	10434.03
637.706	10438.55
638.06	10508.83
638.413	10390.87
638.767	10335.73
639.121	10368.5
639.474	10335.51
639.828	10354.94
640.181	10337.99
640.534	10342.51
640.888	10291.44
641.241	10269.29
641.594	10306.13
641.947	10238.56
642.301	10382.28
642.654	10200.37
643.007	10310.87
643.36	10272.23
643.713	10245.34
644.066	10271.78
644.419	10227.94
644.771	10180.48
645.124	10105
645.477	10149.97
645.83	10058.22
646.182	9942.97
646.535	10007.6
646.888	9935.74
647.24	9881.51
647.593	9926.25
647.945	9847.61
648.298	9827.27
648.65	9843.09
649.002	9798.57
649.355	9900.94
649.707	9890.32
650.059	9912.92
650.411	10015.51
650.763	10086.02
651.115	10142.29
651.467	10139.13
651.819	10056.42
652.171	10060.26
652.523	10095.74
652.875	10081.05
653.227	9994.5
653.578	10116.98
653.93	10018
654.282	10107.71
654.633	10009.19
654.985	10079.69
655.337	10050.77
655.688	10027.72
656.039	10119.47
656.391	9943.65
656.742	10035.63
657.094	9998.34
657.445	10091.22
657.796	10021.39
658.147	9993.14
658.498	10012.8
658.849	10066.81
659.2	10022.97
659.551	10008.96
659.902	10050.54
660.253	10103.65
660.604	10083.53
660.955	10110.2
661.306	10086.92
661.656	10085.34
662.007	10104.78
662.358	10083.99
662.708	10080.82
663.059	10087.38
663.409	10036.76
663.76	10116.75
664.11	10091.44
664.461	10131.89
664.811	10071.11
665.161	10082.18
665.511	10060.48
665.862	10124.66
666.212	10101.16
666.562	10101.61
666.912	10093.25
667.262	10110.2
667.612	10181.38
667.962	10085.34
668.312	10093.25
668.662	10151.1
669.011	10074.27
669.361	10015.51
669.711	10044.89
670.06	10063.65
670.41	10018.23
670.76	10027.94
671.109	10044.67
671.459	9997.21
671.808	10005.12
672.157	9989.98
672.507	9973.93
672.856	10005.34
673.205	9994.27
673.554	10105.23
673.904	10074.72
674.253	9989.3
674.602	10005.8
674.951	9805.8
675.3	9783.88
675.649	9943.88
675.998	9964.22
676.346	9843.31
676.695	9947.49
677.044	9827.5
677.393	9905.69
677.741	9947.04
678.09	9885.35
678.438	9872.92
678.787	9891.22
679.135	9848.51
679.484	9839.47
679.832	9854.16
680.181	9750.89
680.529	9813.26
680.877	9756.76
681.225	9719.25
681.573	9768.06
681.922	9685.58
682.27	9780.49
682.618	9719.48
682.966	9726.93
683.314	9695.97
683.661	9653.72
684.009	9613.04
684.357	9621.85
684.705	9563.77
685.053	9551.8
685.4	9550.44
685.748	9484
686.095	9498.69
686.443	9418.24
686.79	9378.02
687.138	9467.28
687.485	9373.27
687.832	9389.09
688.18	9360.62
688.527	9312.48
688.874	9305.93
689.221	9285.14
689.568	9312.48
689.915	9238.81
690.262	9258.7
690.609	9203.56
690.956	9142.32
691.303	9144.8
691.65	9118.36
691.997	9078.14
692.344	9060.51
692.69	9048.53
693.037	8980.51
693.383	8932.83
693.73	8952.72
694.077	8936.45
694.423	8868.2
694.769	8838.82
695.116	8908.42
695.462	8804.92
695.808	8775.77
696.155	8791.36
696.501	8756.34
696.847	8763.57
697.193	8695.77
697.539	8663.91
697.885	8601.54
698.231	8571.94
698.577	8590.24
698.923	8507.76
699.269	8471.83
699.614	8439.96
699.96	8435.67
700.306	8446.97
700.651	8339.63
700.997	8356.57
701.342	8312.51
701.688	8293.75
702.033	8295.78
702.379	8197.71
702.724	8219.85
703.069	8198.61
703.415	8109.35
703.76	8124.49
704.105	8110.25
704.45	8103.7
704.795	8010.37
705.14	7980.54
705.485	7980.09
705.83	7958.17
706.175	7982.57
706.52	7884.72
706.865	7927.21
707.209	7845.4
707.554	7841.79
707.899	7832.97
708.243	7752.52
708.588	7852.41
708.932	7769.92
709.277	7713.88
709.621	7698.96
709.966	7693.31
710.31	7674.56
710.654	7636.37
710.998	7608.12
711.342	7612.41
711.687	7541.68
712.031	7567.89
712.375	7527.67
712.719	7540.1
713.063	7516.82
713.407	7517.73
713.75	7461.68
714.094	7489.93
714.438	7464.85
714.782	7496.94
715.125	7385.53
715.469	7441.34
715.812	7347.34
716.156	7366.77
716.499	7393.44
716.843	7350.95
717.186	7321.12
717.53	7343.27
717.873	7322.7
718.216	7343.72
718.559	7290.84
718.902	7223.5
719.246	7275.02
719.589	7249.94
719.932	7162.93
720.275	7220.78
720.617	7243.61
720.96	7284.29
721.303	7200.45
721.646	7209.49
721.989	7177.62
722.331	7205.64
722.674	7216.49
723.016	7166.77
723.359	7145.98
723.701	7119.54
724.044	7131.52
724.386	7029.83
724.729	7145.08
725.071	7096.27
725.413	7063.95
725.755	7099.88
726.097	7072.31
726.439	7054.91
726.782	7039.77
727.124	7076.61
727.465	7013.56
727.807	7023.5
728.149	7011.75
728.491	7028.7
728.833	7052.88
729.175	6994.35
729.516	7009.04
729.858	6981.69
730.199	6997.06
730.541	7017.17
730.882	6994.58
731.224	6996.16
731.565	6953
731.906	6983.73
732.248	6978.98
732.589	6965.65
732.93	6965.88
733.271	6963.84
733.612	6986.89
733.953	6923.17
734.294	6952.09
734.635	7001.13
734.976	7041.35
735.317	6934.92
735.658	7032.32
735.999	7001.13
736.339	6970.62
736.68	7037.29
737.021	7031.41
737.361	6992.09
737.702	6990.51
738.042	6933.56
738.383	6997.97
738.723	7009.94
739.063	6976.95
739.404	7035.25
739.744	7049.72
740.084	7038.42
740.424	6993.9
740.764	6990.73
741.104	7086.32
741.444	7009.26
741.784	7080.45
742.124	7097.85
742.464	7068.47
742.804	7083.61
743.143	7137.4
743.483	7153.22
743.823	7171.29
744.162	7170.39
744.502	7171.29
744.841	7232.08
745.181	7256.04
745.52	7253.78
745.86	7338.97
746.199	7318.64
746.538	7345.3
746.877	7501.46
747.216	7466.88
747.556	7449.25
747.895	7518.63
748.234	7566.09
748.573	7572.19
748.911	7672.98
749.25	7788.45
749.589	7803.82
749.928	7826.64
750.267	7855.57
750.605	7959.3
750.944	8025.28
751.283	8102.34
751.621	8198.61
751.96	8197.26
752.298	8331.26
752.636	8396.35
752.975	8403.58
753.313	8554.53
753.651	8635.89
753.989	8691.93
754.327	8811.25
754.666	8905.49
755.004	9100.28
755.342	9192.94
755.679	9225.25
756.017	9390.9
756.355	9567.84
756.693	9635.41
757.031	9702.98
757.368	9915.63
757.706	10017.1
758.044	10229.75
758.381	10356.97
758.719	10472.9
759.056	10621.37
759.394	10724.87
759.731	10881.25
760.068	11034.02
760.405	11162.38
760.743	11257.97
761.08	11497.06
761.417	11658.41
761.754	11778.63
762.091	11968.68
762.428	12090.71
762.765	12207.77
763.102	12455.9
763.438	12553.75
763.775	12726.63
764.112	12956.68
764.449	13176.79
764.785	13208.42
765.122	13291.13
765.458	13371.13
765.795	13630.11
766.131	13788.3
766.467	14051.34
766.804	14144.67
767.14	14260.6
767.476	14435.74
767.812	14518.9
768.148	14722.96
768.485	14699.91
768.821	14896.06
769.157	15107.36
769.492	15171.76
769.828	15296.96
770.164	15372.43
770.5	15497.86
770.836	15636.83
771.171	15626.67
771.507	15803.84
771.842	15813.55
772.178	15959.31
772.513	16085.86
772.849	16166.31
773.184	16224.16
773.519	16322.24
773.855	16470.49
774.19	16533.08
774.525	16522.46
774.86	16591.39
775.195	16747.54
775.53	16692.85
775.865	16749.57
776.2	16815.56
776.535	16797.93
776.87	17055.78
777.205	16899.85
777.539	17014.43
777.874	17137.36
778.209	17064.37
778.543	17086.29
778.878	17043.58
779.212	17149.79
779.547	17217.58
779.881	17319.28
780.215	17171.26
780.55	17341.42
780.884	17286.28
781.218	17256.45
781.552	17306.85
781.886	17256.45
782.22	17305.94
782.554	17308.2
782.888	17194.99
783.222	17157.47
783.556	17267.98
783.889	17253.97
784.223	17174.42
784.557	17189.34
784.89	17331.03
785.224	17204.7
785.557	17201.31
785.891	17227.98
786.224	17233.18
786.558	17213.52
786.891	17076.8
787.224	17107.3
787.557	17186.17
787.891	17087.42
788.224	17266.4
788.557	17164.93
788.89	17238.6
789.223	17147.98
789.556	17000.41
789.888	17087.87
790.221	17075.67
790.554	16957.93
790.887	17009.68
791.219	16917.7
791.552	16885.62
791.884	16871.83
792.217	16865.73
792.549	16852.4
792.882	16716.13
793.214	16756.58
793.546	16763.81
793.879	16664.38
794.211	16590.03
794.543	16661.89
794.875	16700.76
795.207	16796.58
795.539	16704.15
795.871	16658.05
796.203	16526.75
796.535	16456.47
796.867	16458.28
797.198	16382.58
797.53	16438.85
797.862	16392.75
798.193	16362.92
798.525	16254.67
798.856	16353.88
799.188	16180.78
799.519	16097.61
799.85	16069.82
800.182	16072.08
800.513	16075.24
800.844	15950.72
801.175	16046.77
801.506	16028.24
801.837	15899.43
802.168	15896.26
802.499	15913.66
802.83	15831.63
803.161	15748.47
803.491	15838.19
803.822	15798.86
804.153	15667.34
804.483	15621.69
804.814	15562.49
805.145	15625.31
805.475	15585.76
805.805	15468.25
806.136	15479.32
806.466	15547.12
806.796	15466.9
807.126	15319.55
807.457	15273.45
807.787	15388.25
808.117	15296.5
808.447	15233.91
808.777	15266.45
809.107	15250.4
809.436	15198.2
809.766	15188.94
810.096	15025.55
810.426	15071.2
810.755	15065.32
811.085	15038.88
811.414	14950.75
811.744	14855.16
812.073	14950.52
812.403	14988.94
812.732	14831.43
813.061	14840.02
813.39	14810.87
813.719	14677.76
814.049	14815.84
814.378	14717.08
814.707	14656.52
815.036	14672.11
815.365	14588.95
815.693	14503.31
816.022	14566.58
816.351	14461.05
816.68	14424.89
817.008	14506.92
817.337	14314.84
817.665	14361.61
817.994	14426.02
818.322	14443.19
818.651	14282.75
818.979	14293.82
819.307	14267.83
819.636	14272.35
819.964	14269.64
820.292	14240.26
820.62	14167.27
820.948	14160.04
821.276	14200.94
821.604	14221.73
821.932	14240.04
822.259	14236.87
822.587	14271.9
822.915	14136.99
823.243	14217.21
823.57	14153.71
823.898	14191.45
824.225	14104.45
824.553	14082.53
824.88	14129.3
825.207	14235.06
825.535	14204.33
825.862	14346.02
826.189	14124.56
826.516	14280.71
826.843	14253.59
827.17	14294.95
827.497	14306.93
827.824	14221.28
828.151	14294.05
828.478	14223.31
828.805	14291.33
829.131	14214.27
829.458	14268.28
829.785	14162.3
830.111	14239.13
830.438	14228.51
830.764	14172.47
831.09	14272.35
831.417	14151.22
831.743	14204.1
832.069	14213.14
832.395	14199.36
832.722	14231.22
833.048	14092.47
833.374	14181.96
833.7	14091.79
834.026	14114.61
834.351	14152.81
834.677	14151.9
835.003	14141.28
835.329	14081.85
835.654	14071.45
835.98	14062.86
836.306	14151.68
836.631	13974.96
836.956	14013.83
837.282	14128.85
837.607	14009.53
837.932	13871.46
838.258	13914.85
838.583	13931.79
838.908	13759.6
839.233	13981.96
839.558	13870.55
839.883	13788.52
840.208	13739.26
840.533	13833.49
840.858	13731.35
841.182	13838.24
841.507	13684.8
841.832	13704.91
842.156	13666.94
842.481	13658.81
842.805	13593.27
843.13	13599.83
843.454	13559.6
843.778	13550.56
844.103	13579.04
844.427	13406.38
844.751	13522.09
845.075	13406.16
845.399	13270.34
845.723	13298.59
846.047	13373.84
846.371	13213.85
846.695	13189.44
847.019	13100.18
847.343	13022.89
847.666	12937.47
847.99	12893.4
848.313	12890.47
848.637	12781.99
848.96	12823.35
849.284	12743.58
849.607	12639.85
849.931	12678.04
850.254	12551.72
850.577	12535.45
850.9	12494.32
851.223	12335.9
851.546	12408.67
851.869	12226.08
852.192	12365.06
852.515	12264.95
852.838	12237.6
853.161	12224.04
853.483	12149.69
853.806	12071.28
854.129	12064.95
854.451	12005.74
854.774	11907.67
855.096	11890.04
855.419	11846.88
855.741	11855.47
856.063	11751.97
856.385	11823.38
856.708	11741.34
857.03	11695.24
857.352	11651.4
857.674	11623.61
857.996	11666.32
858.318	11589.48
858.64	11570.05
858.961	11495.47
859.283	11440.79
859.605	11424.29
859.926	11493.67
860.248	11371.86
860.57	11332.99
860.891	11379.55
861.212	11268.36
861.534	11273.11
861.855	11210.51
862.176	11228.14
862.498	11231.07
862.819	11186.33
863.14	11205.76
863.461	11133.68
863.782	11152.43
864.103	11140.23
864.424	11062.04
864.745	11029.95
865.065	10973.23
865.386	10961.93
865.707	10988.37
866.027	11038.76
866.348	10939.78
866.668	10957.18
866.989	10886
867.309	10921.48
867.63	10852.55
867.95	10878.54
868.27	10807.81
868.59	10819.79
868.91	10783.4
869.23	10746.34
869.55	10748.15
869.87	10762.84
870.19	10779.56
870.51	10812.1
870.83	10722.84
871.15	10710.18
871.469	10639.45
871.789	10716.51
872.109	10673.35
872.428	10564.88
872.748	10622.5
873.067	10588.61
873.386	10632.9
873.706	10499.57
874.025	10544.77
874.344	10456.41
874.663	10473.13
874.982	10477.65
875.301	10446.46
875.62	10497.99
875.939	10435.16
876.258	10468.83
876.577	10394.49
876.896	10333.02
877.214	10337.54
877.533	10309.07
877.852	10321.27
878.17	10246.69
878.489	10312.91
878.807	10334.6
879.125	10249.41
879.444	10235.17
879.762	10269.07
880.08	10232.68
880.398	10164.44
880.716	10205.34
881.034	10172.35
881.352	10162.18
881.67	10087.15
881.988	10108.39
882.306	10052.12
882.624	10088.73
882.941	9909.3
883.259	9949.75
883.577	9989.75
883.894	9916.53
884.212	9858.91
884.529	9891.22
884.846	9883.54
885.164	9794.5
885.481	9769.87
885.798	9837.67
886.115	9771.9
886.432	9780.04
886.75	9766.93
887.067	9774.62
887.383	9634.73
887.7	9717.22
888.017	9626.15
888.334	9613.26
888.651	9660.04
888.967	9658.23
889.284	9518.58
889.6	9460.27
889.917	9471.12
890.233	9444.91
890.55	9451.01
890.866	9444.68
891.182	9417.56
891.498	9396.77
891.815	9363.33
892.131	9347.28
892.447	9298.47
892.763	9237.91
893.079	9233.61
893.395	9226.16
893.71	9161.07
894.026	9145.48
894.342	9117.68
894.657	9048.76
894.973	9067.06
895.289	9039.04
895.604	9097.35
895.92	8975.54
896.235	8892.15
896.55	8930.8
896.865	8870.23
897.181	8826.39
897.496	8868.2
897.811	8744.36
898.126	8783.23
898.441	8736.9
898.756	8682.67
899.071	8685.6
899.386	8673.85
899.7	8652.61
900.015	8537.36
900.33	8460.3
900.644	8529.9
900.959	8496.01
901.273	8424.59
901.588	8389.12
901.902	8366.97
902.216	8365.39
902.531	8321.32
902.845	8277.93
903.159	8249.23
903.473	8246.29
903.787	8108.67
904.101	8131.95
904.415	8084.94
904.729	8135.56
905.042	8050.14
905.356	8046.53
905.67	8087.65
905.984	8045.85
906.297	8009.46
906.611	7858.51
906.924	7938.28
907.237	7899.64
907.551	7863.93
907.864	7780.32
908.177	7762.92
908.491	7749.13
908.804	7736.93
909.117	7647.21
909.43	7601.57
909.743	7551.85
910.056	7536.93
910.368	7538.29
910.681	7510.04
910.994	7502.81
911.307	7430.27
911.619	7352.31
911.932	7390.05
912.244	7362.48
912.557	7291.97
912.869	7307.11
913.181	7238.64
913.494	7257.62
913.806	7184.4
914.118	7155.93
914.43	7077.29
914.742	7142.59
915.054	7062.14
915.366	7049.26
915.678	7042.48
915.99	7029.38
916.302	6961.36
916.613	6934.24
916.925	6910.51
917.236	6908.25
917.548	6841.13
917.859	6851.98
918.171	6794.81
918.482	6774.47
918.794	6709.61
919.105	6698.99
919.416	6701.93
919.727	6671.65
920.038	6642.04
920.349	6650.63
920.66	6586.23
920.971	6565.21
921.282	6534.02
921.593	6535.6
921.903	6447.02
922.214	6497.87
922.525	6497.64
922.835	6440.24
923.146	6381.94
923.456	6321.83
923.767	6288.61
924.077	6334.48
924.387	6252.9
924.697	6216.52
925.008	6206.8
925.318	6238.66
925.628	6178.33
925.938	6158.89
926.248	6135.16
926.558	6124.99
926.867	6133.58
927.177	6037.09
927.487	6059.46
927.796	5973.59
928.106	6008.39
928.416	5896.3
928.725	5962.96
929.034	5942.85
929.344	5907.15
929.653	5843.42
929.962	5827.83
930.271	5801.84
930.581	5742.86
930.89	5802.29
931.199	5734.72
931.508	5695.4
931.817	5695.4
932.125	5696.31
932.434	5671.9
932.743	5541.05
933.051	5599.81
933.36	5541.05
933.669	5524.78
933.977	5560.49
934.286	5463.32
934.594	5478.23
934.902	5420.61
935.21	5449.31
935.519	5417.89
935.827	5419.48
936.135	5386.48
936.443	5296.32
936.751	5322.08
937.059	5316.43
937.367	5261.97
937.674	5270.1
937.982	5263.77
938.29	5216.54
938.597	5239.37
938.905	5155.08
939.213	5164.57
939.52	5098.81
939.827	5104.68
940.135	5078.47
940.442	5035.31
940.749	5033.5
941.056	5091.35
941.363	5015.87
941.67	4995.76
941.977	4954.4
942.284	4877.34
942.591	4889.55
942.898	4860.39
943.205	4895.65
943.511	4864.69
943.818	4816.1
944.125	4782.66
944.431	4771.81
944.738	4760.28
945.044	4770.23
945.35	4757.35
945.657	4659.04
945.963	4662.43
946.269	4703.56
946.575	4711.47
946.881	4637.35
947.187	4624.24
947.493	4545.15
947.799	4589.44
948.105	4560.74
948.41	4504.92
948.716	4490.69
949.022	4525.26
949.327	4477.58
949.633	4440.52
949.938	4437.58
950.244	4427.86
950.549	4357.81
950.854	4354.65
951.16	4340.86
951.465	4378.83
951.77	4287.53
952.075	4321.2
952.38	4279.17
952.685	4286.17
952.99	4263.35
953.294	4242.56
953.599	4270.35
953.904	4198.04
954.209	4141.32
954.513	4138.61
954.818	4132.96
955.122	4127.76
955.426	4118.04
955.731	4105.84
956.035	4067.87
956.339	4041.43
956.643	4026.52
956.948	3983.13
957.252	3997.14
957.556	3958.5
957.86	3949.46
958.163	3948.1
958.467	3951.27
958.771	3902.45
959.075	3933.19
959.378	3877.37
959.682	3880.08
959.985	3858.84
960.289	3856.58
960.592	3825.17
960.896	3832.63
961.199	3788.56
961.502	3795.56
961.805	3769.8
962.108	3708.56
962.411	3728.67
962.714	3715.79
963.017	3671.05
963.32	3662.01
963.623	3641.22
963.926	3683.48
964.228	3653.42
964.531	3608.68
964.833	3598.28
965.136	3569.58
965.438	3589.47
965.741	3565.51
966.043	3548.11
966.345	3529.13
966.648	3527.32
966.95	3476.93
967.252	3481.22
967.554	3428.57
967.856	3467.21
968.158	3420.21
968.46	3408.68
968.761	3347.21
969.063	3395.12
969.365	3356.93
969.666	3396.48
969.968	3376.82
970.269	3314.67
970.571	3296.37
970.872	3289.36
971.174	3275.35
971.475	3285.52
971.776	3250.72
972.077	3240.78
972.378	3237.61
972.679	3225.41
972.98	3207.33
973.281	3171.17
973.582	3157.61
973.883	3179.08
974.183	3135.92
974.484	3152.19
974.785	3108.12
975.085	3115.81
975.386	3127.78
975.686	3078.97
975.986	3062.7
976.287	3075.13
976.587	3037.84
976.887	3009.37
977.187	3016.6
977.487	3013.44
977.787	3023.61
978.087	2963.5
978.387	2978.18
978.687	2932.99
978.987	2899.77
979.286	2901.12
979.586	2919.2
979.885	2896.15
980.185	2885.31
980.484	2881.92
980.784	2842.82
981.083	2841.92
981.382	2837.85
981.682	2813.22
981.981	2809.83
982.28	2772.99
982.579	2796.49
982.878	2757.63
983.177	2744.29
983.475	2713.11
983.774	2700.68
984.073	2702.71
984.372	2680.34
984.67	2685.76
984.969	2727.57
985.267	2690.28
985.566	2686.44
985.864	2674.92
986.162	2600.79
986.461	2642.6
986.759	2610.51
987.057	2600.34
987.355	2587.91
987.653	2561.25
987.951	2561.02
988.249	2542.49
988.547	2578.87
988.844	2509.04
989.142	2488.03
989.44	2505.43
989.737	2511.76
990.035	2444.87
990.332	2472.66
990.63	2474.02
990.927	2439.44
991.224	2448.71
991.521	2412.1
991.819	2408.93
992.116	2375.26
992.413	2367.58
992.71	2379.56
993.006	2342.49
993.303	2364.42
993.6	2350.18
993.897	2324.42
994.193	2341.14
994.49	2316.73
994.787	2304.3
995.083	2254.81
995.379	2271.54
995.676	2269.95
995.972	2256.85
996.268	2240.35
996.565	2224.31
996.861	2206.23
997.157	2223.85
997.453	2220.92
997.749	2171.65
998.044	2156.74
998.34	2146.12
998.636	2135.72
998.932	2141.14
999.227	2126.91
999.523	2121.26
999.818	2088.49
1000.114	2095.27
1000.409	2081.26
1000.704	2062.05
1001	2079.9
1001.295	2049.85
1001.59	2012.11
1001.885	2037.87
1002.18	2043.75
1002.475	2039
1002.77	2002.62
1003.065	1974.59
1003.359	1987.7
1003.654	1977.08
1003.949	1948.61
1004.243	1945.9
1004.538	1916.07
1004.832	1950.41
1005.127	1915.61
1005.421	1896.18
1005.715	1913.81
1006.009	1908.61
1006.304	1880.81
1006.598	1877.87
1006.892	1854.15
1007.186	1833.36
1007.48	1856.18
1007.773	1826.58
1008.067	1817.99
1008.361	1815.96
1008.655	1772.79
1008.948	1800.36
1009.242	1777.54
1009.535	1747.26
1009.829	1748.84
1010.122	1742.51
1010.415	1723.98
1010.708	1726.69
1011.001	1718.33
1011.295	1715.17
1011.588	1698.44
1011.881	1670.42
1012.173	1672.23
1012.466	1657.99
1012.759	1688.05
1013.052	1631.33
1013.344	1641.27
1013.637	1614.83
1013.93	1616.64
1014.222	1613.02
1014.514	1574.15
1014.807	1589.07
1015.099	1570.54
1015.391	1543.42
1015.683	1566.92
1015.976	1548.17
1016.268	1535.74
1016.56	1585.23
1016.851	1486.7
1017.143	1498.68
1017.435	1503.87
1017.727	1482.18
1018.018	1520.6
1018.31	1495.96
1018.602	1459.81
1018.893	1461.84
1019.185	1443.08
1019.476	1433.37
1019.767	1445.34
1020.058	1408.28
1020.35	1414.38
1020.641	1422.97
1020.932	1384.78
1021.223	1384.78
1021.514	1380.26
1021.804	1359.92
1022.095	1349.07
1022.386	1363.31
1022.677	1331.45
1022.967	1316.76
1023.258	1326.93
1023.548	1299.81
1023.839	1299.36
1024.129	1312.47
1024.419	1306.82
1024.709	1272.47
1025	1274.73
1025.29	1276.31
1025.58	1285.8
1025.87	1240.38
1026.16	1259.36
1026.449	1221.17
1026.739	1218.46
1027.029	1224.11
1027.319	1233.82
1027.608	1164.9
1027.898	1188.85
1028.187	1189.98
1028.477	1186.37
1028.766	1209.64
1029.055	1155.63
1029.344	1141.4
1029.634	1140.04
1029.923	1107.73
1030.212	1130.1
1030.501	1145.24
1030.79	1126.93
1031.078	1124.67
1031.367	1121.96
1031.656	1103.43
1031.945	1098.91
1032.233	1089.19
1032.522	1081.29
1032.81	1067.05
1033.099	1053.26
1033.387	1048.52
1033.675	1056.2
1033.963	1032.92
1034.251	1015.07
1034.54	1020.95
1034.828	1026.15
1035.116	1010.55
1035.403	1019.59
1035.691	1009.87
1035.979	1000.61
1036.267	1000.16
1036.554	988.41
1036.842	965.13
1037.129	959.71
1037.417	976.66
1037.704	973.27
1037.992	968.97
1038.279	917
1038.566	938.01
1038.853	938.01
1039.14	938.01
