Data from hue_250_FLMS001491_00021.txt Node
Date: Tue Feb 07 16:00:44 GMT 2017
User: dcchb
Spectrometer: FLMS00149
Trigger mode: 0
Integration Time (sec): 2.000000E-2
Scans to average: 10
Electric dark correction enabled: true
Nonlinearity correction enabled: false
Boxcar width: 0
XAxis mode: Wavelengths
Number of Pixels in Spectrum: 2048
>>>>>Begin Spectral Data<<<<<
341.393	-10.71
341.776	-10.71
342.16	-10.71
342.543	-45.51
342.927	-80.08
343.31	-70.82
343.693	-73.3
344.077	-70.82
344.46	-54.32
344.843	-46.19
345.226	-40.76
345.61	-25.62
345.993	-26.3
346.376	-17.71
346.759	20.03
347.142	23.42
347.525	46.24
347.908	43.53
348.291	83.53
348.674	104.09
349.057	105
349.44	121.27
349.823	140.48
350.206	163.53
350.588	194.71
350.971	202.17
351.354	203.3
351.737	240.81
352.119	221.83
352.502	264.32
352.884	254.37
353.267	269.96
353.65	290.08
354.032	304.09
354.414	293.47
354.797	314.26
355.179	330.98
355.562	302.51
355.944	322.62
356.326	338.66
356.709	313.35
357.091	328.27
357.473	329.62
357.855	324.43
358.238	340.7
358.62	316.29
359.002	329.85
359.384	358.32
359.766	343.18
360.148	313.35
360.53	333.47
360.912	330.98
361.294	319.68
361.676	323.52
362.057	330.98
362.439	322.84
362.821	332.79
363.203	324.88
363.584	319.91
363.966	325.56
364.348	313.58
364.729	326.91
365.111	326.01
365.493	323.52
365.874	308.83
366.256	310.87
366.637	307.25
367.019	315.39
367.4	295.73
367.781	300.25
368.163	317.2
368.544	316.29
368.925	304.31
369.306	301.15
369.688	324.65
370.069	314.71
370.45	303.86
370.831	327.36
371.212	296.86
371.593	309.96
371.974	308.16
372.355	314.71
372.736	312
373.117	319.45
373.498	315.16
373.879	313.81
374.26	298.89
374.641	305.9
375.021	301.15
375.402	319.45
375.783	337.08
376.163	336.18
376.544	320.58
376.925	331.66
377.305	317.87
377.686	309.96
378.066	311.77
378.447	330.08
378.827	338.66
379.208	343.64
379.588	323.52
379.968	321.26
380.349	323.97
380.729	351.54
381.109	323.97
381.489	343.64
381.87	343.18
382.25	336.4
382.63	340.25
383.01	348.83
383.39	337.31
383.77	334.37
384.15	366.69
384.53	326.69
384.91	353.35
385.29	368.95
385.67	374.14
386.049	355.16
386.429	361.71
386.809	354.93
387.189	365.1
387.568	347.48
387.948	362.39
388.328	366.46
388.707	358.32
389.087	367.14
389.466	363.07
389.846	344.31
390.225	342.96
390.605	387.7
390.984	372.79
391.363	390.41
391.743	366.23
392.122	395.16
392.501	391.77
392.881	384.54
393.26	373.01
393.639	386.12
394.018	382.05
394.397	385.67
394.776	373.46
395.155	413.46
395.534	410.07
395.913	422.5
396.292	400.36
396.671	398.32
397.05	398.77
397.429	394.48
397.808	394.03
398.186	403.75
398.565	387.25
398.944	413.01
399.323	402.84
399.701	406.46
400.08	403.07
400.458	411.2
400.837	430.41
401.215	436.51
401.594	418.66
401.972	412.11
402.351	431.54
402.729	435.84
403.107	428.15
403.486	438.77
403.864	459.34
404.242	441.94
404.62	457.98
404.999	445.78
405.377	435.61
405.755	457.53
406.133	440.58
406.511	475.16
406.889	479.68
407.267	477.42
407.645	502.73
408.023	470.86
408.401	466.12
408.779	503.86
409.156	497.76
409.534	495.95
409.912	503.4
410.29	506.12
410.667	520.81
411.045	523.07
411.422	543.63
411.8	524.87
412.178	547.92
412.555	572.1
412.933	553.12
413.31	575.95
413.687	563.29
414.065	596.74
414.442	595.61
414.819	589.73
415.197	586.34
415.574	599.67
415.951	594.02
416.328	606
416.705	622.95
417.082	607.81
417.46	637.64
417.837	629.73
418.214	643.29
418.591	648.03
418.967	667.69
419.344	667.47
419.721	682.16
420.098	696.17
420.475	686.68
420.852	688.03
421.228	685.55
421.605	697.98
421.982	692.33
422.358	699.56
422.735	748.37
423.111	720.35
423.488	763.96
423.864	773.45
424.241	788.6
424.617	780.01
424.994	782.72
425.37	812.1
425.746	799.22
426.123	810.06
426.499	831.98
426.875	847.12
427.251	862.49
427.627	877.63
428.003	869.04
428.379	894.13
428.756	897.97
429.132	900.91
429.507	900.23
429.883	937.07
430.259	935.94
430.635	928.48
431.011	956.27
431.387	982.71
431.763	967.57
432.138	1007.8
432.514	1013
432.89	1019.1
433.265	1063.84
433.641	1060
434.016	1055.71
434.392	1046.22
434.767	1065.42
435.143	1110.17
435.518	1102.49
435.894	1150.39
436.269	1143.39
436.644	1173.9
437.02	1168.47
437.395	1208.47
437.77	1198.08
438.145	1238.3
438.52	1252.76
438.895	1248.7
439.271	1245.53
439.646	1308.81
440.021	1327.79
440.395	1342.93
440.77	1315.81
441.145	1347
441.52	1375.47
441.895	1362.82
442.27	1400.33
442.645	1380.9
443.019	1415.25
443.394	1435.81
443.769	1395.58
444.143	1404.85
444.518	1458.41
444.892	1458.18
445.267	1441.01
445.641	1469.93
446.016	1494.11
446.39	1509.48
446.764	1520.1
447.139	1506.09
447.513	1508.35
447.887	1516.94
448.262	1527.33
448.636	1539.76
449.01	1569.14
449.384	1563.72
449.758	1575.69
450.132	1609.14
450.506	1621.79
450.88	1614.11
451.254	1651.17
451.628	1668.12
452.002	1675.8
452.376	1678.74
452.75	1668.8
453.123	1692.07
453.497	1757.84
453.871	1753.09
454.244	1770.72
454.618	1793.31
454.992	1818.4
455.365	1801
455.739	1849.36
456.112	1883.03
456.486	1879.87
456.859	1901.79
457.232	1932.52
457.606	1930.71
457.979	1944.72
458.352	1983.59
458.725	2018.39
459.099	2037.6
459.472	2080.99
459.845	2030.6
460.218	2092.97
460.591	2074.66
460.964	2085.28
461.337	2168.67
461.71	2177.26
462.083	2192.85
462.456	2224.72
462.829	2220.87
463.201	2257.93
463.574	2283.02
463.947	2292.06
464.32	2311.04
464.692	2334.32
465.065	2399.17
465.438	2392.62
465.81	2426.07
466.183	2488.66
466.555	2482.79
466.928	2515.78
467.3	2481.66
467.672	2551.26
468.045	2624.25
468.417	2596.46
468.789	2625.61
469.161	2649.56
469.534	2721.65
469.906	2734.08
470.278	2786.06
470.65	2811.37
471.022	2827.41
471.394	2907.64
471.766	2907.64
472.138	2944.02
472.51	2981.98
472.882	3044.81
473.253	3038.25
473.625	3074.64
473.997	3152.15
474.369	3138.59
474.74	3182.2
475.112	3258.59
475.484	3309.21
475.855	3348.98
476.227	3394.4
476.598	3449.99
476.97	3443.44
477.341	3539.94
477.713	3564.79
478.084	3583.32
478.455	3710.78
478.827	3690.21
479.198	3830.32
479.569	3764.11
479.94	3911.9
480.311	3906.48
480.682	3952.81
481.053	4051.79
481.424	4133.14
481.795	4160.48
482.166	4190.54
482.537	4280.25
482.908	4335.85
483.279	4379.91
483.65	4483.41
484.021	4514.82
484.391	4526.8
484.762	4602.28
485.133	4650.41
485.503	4708.72
485.874	4787.81
486.244	4841.37
486.615	4888.15
486.985	4915.04
487.356	4980.58
487.726	5007.47
488.097	5127.46
488.467	5109.84
488.837	5218.31
489.207	5290.62
489.578	5340.79
489.948	5413.11
490.318	5433.22
490.688	5514.35
491.058	5550.28
491.428	5607.68
491.798	5662.14
492.168	5721.12
492.538	5726.09
492.908	5835.02
493.278	5863.94
493.648	5862.81
494.017	5950.49
494.387	5989.81
494.757	6019.42
495.126	6105.52
495.496	6095.35
495.866	6141
496.235	6150.49
496.605	6265.29
496.974	6258.28
497.344	6371.05
497.713	6311.84
498.082	6352.52
498.452	6469.8
498.821	6414.89
499.19	6453.53
499.559	6508.44
499.928	6544.6
500.298	6555.45
500.667	6590.25
501.036	6584.6
501.405	6669.34
501.774	6702.56
502.143	6716.57
502.512	6708.44
502.88	6799.28
503.249	6757.03
503.618	6790.7
503.987	6826.63
504.356	6858.49
504.724	6881.32
505.093	6946.17
505.462	6912.05
505.83	6945.5
506.199	7047.87
506.567	7047.87
506.936	7052.16
507.304	7167.64
507.672	7173.06
508.041	7185.49
508.409	7196.56
508.777	7244.7
509.145	7303.68
509.514	7244.24
509.882	7277.01
510.25	7323.34
510.618	7361.98
510.986	7386.61
511.354	7369.21
511.722	7458.02
512.09	7465.48
512.458	7474.97
512.826	7506.61
513.193	7568.98
513.561	7505.71
513.929	7554.29
514.297	7617.57
514.664	7638.13
515.032	7684.91
515.4	7728.3
515.767	7722.42
516.135	7739.15
516.502	7716.1
516.869	7773.27
517.237	7767.39
517.604	7783.21
517.972	7812.59
518.339	7865.92
518.706	7811.69
519.073	7879.48
519.44	7875.41
519.808	7879.48
520.175	7925.58
520.542	7992.7
520.909	7971.68
521.276	7971.46
521.643	8105.24
522.009	8069.76
522.376	8039.93
522.743	8137.78
523.11	8213.71
523.477	8218.23
523.843	8240.6
524.21	8267.04
524.577	8311.34
524.943	8309.75
525.31	8289.87
525.676	8323.76
526.043	8409.86
526.409	8369.19
526.776	8477.66
527.142	8457.32
527.508	8447.83
527.874	8484.89
528.241	8527.83
528.607	8581.38
528.973	8581.16
529.339	8524.44
529.705	8550.42
530.071	8647.6
530.437	8677.65
530.803	8634.49
531.169	8701.61
531.535	8703.42
531.901	8621.61
532.267	8705.9
532.632	8755.62
532.998	8728.5
533.364	8743.19
533.73	8763.53
534.095	8801.49
534.461	8780.7
534.826	8770.76
535.192	8780.02
535.557	8812.56
535.923	8737.99
536.288	8770.53
536.653	8786.58
537.019	8748.39
537.384	8747.71
537.749	8777.09
538.114	8712.23
538.479	8797.2
538.845	8820.7
539.21	8751.78
539.575	8791.32
539.94	8809.63
540.305	8817.31
540.67	8832.23
541.034	8872.45
541.399	8782.51
541.764	8857.99
542.129	8793.36
542.494	8864.54
542.858	8772.79
543.223	8845.78
543.587	8871.09
543.952	8827.71
544.316	8907.93
544.681	8786.58
545.045	8860.02
545.41	8877.42
545.774	8929.62
546.138	8913.35
546.503	8864.77
546.867	8824.99
547.231	8923.07
547.595	8874.03
547.959	8921.71
548.324	8948.15
548.688	8847.59
549.052	8796.29
549.416	8841.49
549.779	8849.63
550.143	8813.92
550.507	8809.63
550.871	8856.63
551.235	8826.12
551.599	8903.64
551.962	8899.57
552.326	8876.52
552.689	8915.16
553.053	8853.92
553.417	8894.14
553.78	8995.38
554.143	8897.99
554.507	8985.22
554.87	8961.04
555.234	8962.84
555.597	9011.66
555.96	9006.91
556.323	9040.13
556.686	9014.37
557.05	8989.06
557.413	9000.58
557.776	9060.92
558.139	9059.34
558.502	9076.29
558.865	8988.61
559.228	9114.48
559.59	9150.64
559.953	9121.26
560.316	9210.52
560.679	9227.7
561.041	9199
561.404	9227.02
561.767	9283.74
562.129	9240.8
562.492	9285.55
562.854	9214.36
563.217	9308.15
563.579	9328.03
563.941	9366.45
564.304	9422.27
564.666	9434.92
565.028	9462.27
565.39	9446.45
565.753	9468.37
566.115	9493
566.477	9550.85
566.839	9534.35
567.201	9601.7
567.563	9560.79
567.925	9660.23
568.287	9648.48
568.648	9620.91
569.01	9686.21
569.372	9703.61
569.734	9734.57
570.095	9756.04
570.457	9758.75
570.819	9825.19
571.18	9845.76
571.542	9883.72
571.903	9851.41
572.265	9912.87
572.626	9934.12
572.987	9936.6
573.349	9939.54
573.71	9927.56
574.071	10069.03
574.432	10015.7
574.794	10102.47
575.155	10136.6
575.516	10040.1
575.877	10136.15
576.238	10110.84
576.599	10224.51
576.96	10212.53
577.32	10243.04
577.681	10312.41
578.042	10253.66
578.403	10319.87
578.763	10318.29
579.124	10329.14
579.485	10320.55
579.845	10372.75
580.206	10398.29
580.566	10399.64
580.927	10449.36
581.287	10488.45
581.648	10386.99
582.008	10519.64
582.368	10477.38
582.728	10505.18
583.089	10529.36
583.449	10539.98
583.809	10486.42
584.169	10591.5
584.529	10648
584.889	10667.88
585.249	10599.41
585.609	10522.58
585.969	10550.37
586.329	10595.12
586.688	10668.34
587.048	10558.51
587.408	10631.95
587.768	10676.7
588.127	10699.97
588.487	10633.99
588.846	10741.33
589.206	10734.1
589.565	10675.57
589.925	10726.86
590.284	10779.74
590.643	10697.94
591.003	10816.35
591.362	10866.52
591.721	10760.76
592.08	10776.58
592.44	10786.3
592.799	10949.68
593.158	10754.89
593.517	10825.85
593.876	10838.27
594.235	10774.77
594.593	10891.38
594.952	10796.69
595.311	10932.51
595.67	10930.7
596.029	10955.79
596.387	10916.24
596.746	10958.95
597.104	10883.7
597.463	10948.55
597.822	10987.87
598.18	10987.42
598.538	10897.26
598.897	11047.99
599.255	10850.93
599.613	11012.28
599.972	10952.17
600.33	10954.2
600.688	11018.16
601.046	11033.52
601.404	11054.09
601.762	11025.61
602.12	11150.58
602.478	11113.07
602.836	11074.2
603.194	11067.87
603.552	11062.45
603.91	11019.96
604.268	11118.49
604.625	11054.09
604.983	11093.41
605.341	11145.84
605.698	11111.71
606.056	11162.11
606.413	11143.13
606.771	11211.6
607.128	11149.68
607.485	11132.73
607.843	11106.29
608.2	11116.46
608.557	11193.07
608.914	11204.37
609.272	11231.94
609.629	11230.81
609.986	11350.8
610.343	11285.04
610.7	11256.12
611.057	11298.83
611.414	11264.93
611.771	11350.8
612.127	11416.79
612.484	11313.06
612.841	11383.12
613.198	11380.41
613.554	11271.48
613.911	11338.6
614.267	11382.44
614.624	11371.14
614.98	11399.39
615.337	11430.35
615.693	11380.18
616.05	11472.16
616.406	11409.78
616.762	11387.41
617.118	11419.73
617.475	11438.71
617.831	11514.41
618.187	11482.55
618.543	11564.13
618.899	11598.03
619.255	11530.01
619.611	11480.29
619.967	11574.98
620.323	11532.72
620.678	11535.43
621.034	11546.28
621.39	11556.9
621.746	11383.12
622.101	11574.75
622.457	11467.64
622.812	11535.43
623.168	11540.18
623.523	11609.78
623.879	11598.03
624.234	11544.92
624.589	11604.36
624.945	11518.03
625.3	11541.98
625.655	11494.53
626.01	11656.33
626.365	11547.63
626.72	11450.69
627.075	11571.36
627.43	11505.6
627.785	11501.31
628.14	11448.43
628.495	11453.4
628.85	11570.68
629.205	11544.02
629.559	11470.12
629.914	11430.8
630.269	11450.46
630.623	11406.39
630.978	11438.71
631.332	11479.39
631.687	11490.69
632.041	11365.49
632.396	11459.27
632.75	11377.47
633.104	11291.82
633.459	11335.44
633.813	11303.35
634.167	11242.11
634.521	11303.8
634.875	11313.29
635.229	11299.28
635.583	11239.17
635.937	11273.07
636.291	11252.95
636.645	11276
636.999	11245.72
637.352	11277.13
637.706	11186.97
638.06	11251.82
638.413	11183.58
638.767	11153.07
639.121	11164.14
639.474	11116.01
639.828	11118.49
640.181	11137.7
640.534	11196.01
640.888	11105.39
641.241	10996.91
641.594	11155.55
641.947	11040.3
642.301	11125.72
642.654	11012.73
643.007	11048.66
643.36	11038.5
643.713	11012.73
644.066	11047.31
644.419	10918.95
644.771	10904.49
645.124	10744.94
645.477	10669.24
645.83	10661.33
646.182	10635.79
646.535	10588.34
646.888	10625.85
647.24	10573.2
647.593	10633.31
647.945	10636.02
648.298	10549.47
648.65	10555.8
649.002	10493.65
649.355	10633.76
649.707	10613.65
650.059	10628.11
650.411	10708.11
650.763	10762.57
651.115	10867.65
651.467	10828.33
651.819	10836.47
652.171	10748.11
652.523	10772.97
652.875	10826.07
653.227	10712.4
653.578	10813.42
653.93	10779.74
654.282	10766.86
654.633	10707.88
654.985	10750.37
655.337	10772.97
655.688	10768.9
656.039	10755.79
656.391	10735
656.742	10743.36
657.094	10703.81
657.445	10751.5
657.796	10770.71
658.147	10685.74
658.498	10749.01
658.849	10738.39
659.2	10707.66
659.551	10650.93
659.902	10824.94
660.253	10690.71
660.604	10777.71
660.955	10658.39
661.306	10753.53
661.656	10751.27
662.007	10705.17
662.358	10760.76
662.708	10748.79
663.059	10747.66
663.409	10629.47
663.76	10786.3
664.11	10756.02
664.461	10764.83
664.811	10723.93
665.161	10798.28
665.511	10722.8
665.862	10777.26
666.212	10797.37
666.562	10769.8
666.912	10711.5
667.262	10694.55
667.612	10747.66
667.962	10673.53
668.312	10677.15
668.662	10702.46
669.011	10719.41
669.361	10688
669.711	10669.47
670.06	10676.92
670.41	10645.51
670.76	10617.72
671.109	10758.5
671.459	10672.4
671.808	10581.78
672.157	10634.66
672.507	10579.75
672.856	10623.36
673.205	10609.13
673.554	10605.51
673.904	10600.54
674.253	10608.68
674.602	10565.51
674.951	10464.72
675.3	10380.43
675.649	10575.23
675.998	10505.85
676.346	10520.09
676.695	10550.6
677.044	10381.79
677.393	10517.83
677.741	10469.47
678.09	10451.39
678.438	10387.89
678.787	10497.27
679.135	10478.74
679.484	10417.27
679.832	10507.44
680.181	10357.38
680.529	10385.4
680.877	10317.38
681.225	10320.77
681.573	10433.09
681.922	10309.93
682.27	10315.12
682.618	10274.9
682.966	10206.88
683.314	10302.02
683.661	10265.18
684.009	10213.21
684.357	10067
684.705	10141.12
685.053	10177.05
685.4	10165.98
685.748	10076.26
686.095	10101.34
686.443	10086.88
686.79	10066.54
687.138	9994.45
687.485	10061.12
687.832	10074.23
688.18	9981.12
688.527	9974.34
688.874	9937.06
689.221	9871.29
689.568	9875.81
689.915	9827.91
690.262	9826.32
690.609	9824.97
690.956	9744.52
691.303	9722.15
691.65	9699.32
691.997	9686.21
692.344	9633.56
692.69	9645.54
693.037	9616.16
693.383	9500.68
693.73	9579.78
694.077	9528.03
694.423	9546.33
694.769	9488.93
695.116	9399.22
695.462	9389.27
695.808	9394.02
696.155	9424.07
696.501	9310.86
696.847	9326.45
697.193	9202.16
697.539	9295.04
697.885	9216.4
698.231	9170.75
698.577	9199.22
698.923	9146.79
699.269	9080.13
699.614	9041.71
699.96	8976.63
700.306	9021.82
700.651	8884.43
700.997	8912.9
701.342	8879.68
701.688	8857.76
702.033	8846.46
702.379	8831.1
702.724	8799.91
703.069	8794.71
703.415	8681.95
703.76	8623.19
704.105	8711.1
704.45	8666.81
704.795	8639.46
705.14	8579.8
705.485	8621.61
705.83	8518.56
706.175	8514.72
706.52	8510.2
706.865	8454.38
707.209	8500.03
707.554	8443.08
707.899	8418.9
708.243	8421.61
708.588	8372.35
708.932	8344.55
709.277	8282.86
709.621	8279.25
709.966	8207.61
710.31	8293.71
710.654	8243.31
710.998	8212.35
711.342	8192.92
711.687	8176.65
712.031	8156.08
712.375	8133.26
712.719	8147.05
713.063	8098.01
713.407	8189.98
713.75	8065.92
714.094	8080.15
714.438	8066.82
714.782	8023.21
715.125	8012.81
715.469	8013.72
715.812	8025.47
716.156	7942.31
716.499	7976.65
716.843	7930.78
717.186	7899.59
717.53	7962.87
717.873	7921.29
718.216	7917.45
718.559	7868.18
718.902	7833.16
719.246	7812.14
719.589	7778.24
719.932	7802.87
720.275	7854.62
720.617	7792.7
720.96	7807.62
721.303	7794.96
721.646	7775.08
721.989	7756.1
722.331	7772.37
722.674	7734.18
723.016	7688.75
723.359	7721.97
723.701	7692.59
724.044	7680.84
724.386	7653.95
724.729	7684.23
725.071	7632.71
725.413	7591.35
725.755	7622.77
726.097	7623.67
726.439	7573.28
726.782	7586.83
727.124	7612.14
727.465	7563.33
727.807	7575.08
728.149	7606.72
728.491	7563.56
728.833	7596.78
729.175	7486.95
729.516	7582.31
729.858	7571.47
730.199	7555.42
730.541	7502.77
730.882	7517.01
731.224	7517.23
731.565	7490.34
731.906	7550.45
732.248	7498.93
732.589	7451.92
732.93	7411.7
733.271	7421.42
733.612	7487.4
733.953	7476.1
734.294	7493.96
734.635	7467.29
734.976	7478.81
735.317	7419.61
735.658	7449.89
735.999	7482.66
736.339	7434.97
736.68	7490.11
737.021	7387.29
737.361	7439.49
737.702	7450.11
738.042	7472.04
738.383	7479.04
738.723	7453.73
739.063	7466.84
739.404	7439.49
739.744	7439.27
740.084	7457.57
740.424	7505.03
740.764	7545.48
741.104	7471.36
741.444	7507.97
741.784	7444.69
742.124	7503.45
742.464	7451.24
742.804	7491.24
743.143	7467.29
743.483	7547.29
743.823	7481.98
744.162	7493.73
744.502	7500.51
744.841	7561.07
745.181	7613.27
745.52	7519.72
745.86	7579.83
746.199	7649.66
746.538	7665.25
746.877	7629.55
747.216	7691.24
747.556	7719.94
747.895	7729.2
748.234	7764.91
748.573	7816.21
748.911	7810.33
749.25	7851.69
749.589	7862.53
749.928	7936.88
750.267	7919.03
750.605	7963.77
750.944	8091.45
751.283	8100.95
751.621	8178.23
751.96	8188.63
752.298	8253.48
752.636	8311.56
752.975	8337.32
753.313	8401.05
753.651	8479.24
753.989	8532.35
754.327	8618.22
754.666	8651.21
755.004	8793.58
755.342	8859.34
755.679	8936.86
756.017	8944.99
756.355	9111.99
756.693	9107.25
757.031	9225.89
757.368	9311.08
757.706	9367.58
758.044	9493.22
758.381	9634.24
758.719	9670.17
759.056	9778.64
759.394	9848.02
759.731	9925.08
760.068	10056.37
760.405	10093.44
760.743	10223.83
761.08	10328.46
761.417	10421.34
761.754	10466.08
762.091	10605.29
762.428	10718.05
762.765	10752.17
763.102	10935.9
763.438	10934.99
763.775	11080.98
764.112	11241.43
764.449	11266.06
764.785	11344.7
765.122	11389.22
765.458	11496.56
765.795	11612.94
766.131	11769.1
766.467	11723.9
766.804	11848.42
767.14	11942.43
767.476	12034.85
767.812	12033.72
768.148	12167.05
768.485	12193.72
768.821	12256.77
769.157	12260.16
769.492	12396.88
769.828	12501.28
770.164	12501.06
770.5	12591.67
770.836	12655.63
771.171	12607.49
771.507	12728.85
771.842	12737.66
772.178	12885
772.513	12894.27
772.849	12924.1
773.184	12921.61
773.519	13030.99
773.855	12989.63
774.19	13005.45
774.525	13082.96
774.86	13103.53
775.195	13183.07
775.53	13148.72
775.865	13264.2
776.2	13195.05
776.535	13093.58
776.87	13216.74
777.205	13199.34
777.539	13179.91
777.874	13343.52
778.209	13187.82
778.543	13213.13
778.878	13147.59
779.212	13227.14
779.547	13220.13
779.881	13273.46
780.215	13232.11
780.55	13362.95
780.884	13293.13
781.218	13219.68
781.552	13311.2
781.886	13213.81
782.22	13259.45
782.554	13199.79
782.888	13031.89
783.222	13124.09
783.556	13049.52
783.889	13127.03
784.223	13064.2
784.557	13056.75
784.89	13117.08
785.224	13041.83
785.557	13018.78
785.891	12949.18
786.224	12936.52
786.558	13081.38
786.891	12888.62
787.224	12884.1
787.557	12874.83
787.891	12857.66
788.224	12956.41
788.557	12844.78
788.89	12894.94
789.223	12950.08
789.556	12770.43
789.888	12749.86
790.221	12799.13
790.554	12660.83
790.887	12686.14
791.219	12588.51
791.552	12616.53
791.884	12625.8
792.217	12582.86
792.549	12532.02
792.882	12515.52
793.214	12493.15
793.546	12589.64
793.879	12406.37
794.211	12323.88
794.543	12416.99
794.875	12436.88
795.207	12425.8
795.539	12273.26
795.871	12355.75
796.203	12238.69
796.535	12204.11
796.867	12128.86
797.198	12195.98
797.53	12136.32
797.862	12113.04
798.193	12043.21
798.525	12028.3
798.856	12063.55
799.188	11915.08
799.519	11897.46
799.85	11838.02
800.182	11912.14
800.513	11818.81
800.844	11754.18
801.175	11905.59
801.506	11788.08
801.837	11757.57
802.168	11760.06
802.499	11746.95
802.83	11584.47
803.161	11565.71
803.491	11635.99
803.822	11608.88
804.153	11619.72
804.483	11516.45
804.814	11450.24
805.145	11427.19
805.475	11470.57
805.805	11413.17
806.136	11407.98
806.466	11469.44
806.796	11459.5
807.126	11336.34
807.457	11238.49
807.787	11317.81
808.117	11241.65
808.447	11187.42
808.777	11254.99
809.107	11221.77
809.436	11170.02
809.766	11149.23
810.096	11094.09
810.426	11091.83
810.755	11045.5
811.085	11029.91
811.414	11038.72
811.744	10892.74
812.073	10938.61
812.403	10965.28
812.732	10929.8
813.061	10878.95
813.39	10895.45
813.719	10833.08
814.049	10871.49
814.378	10797.82
814.707	10703.14
815.036	10811.38
815.365	10703.36
815.693	10603.25
816.022	10595.57
816.351	10586.98
816.68	10556.02
817.008	10613.2
817.337	10521.22
817.665	10448.23
817.994	10556.02
818.322	10613.65
818.651	10485.52
818.979	10436.93
819.307	10496.59
819.636	10520.32
819.964	10414.33
820.292	10488.45
820.62	10405.52
820.948	10431.51
821.276	10455.69
821.604	10397.61
821.932	10322.36
822.259	10403.94
822.587	10307.67
822.915	10363.71
823.243	10349.93
823.57	10405.97
823.898	10396.48
824.225	10298.63
824.553	10334.56
824.88	10350.38
825.207	10391.51
825.535	10415.91
825.862	10400.09
826.189	10339.53
826.516	10458.17
826.843	10398.06
827.17	10436.93
827.497	10453.65
827.824	10369.59
828.151	10471.73
828.478	10386.53
828.805	10448
829.131	10359.87
829.458	10423.6
829.785	10342.92
830.111	10369.36
830.438	10477.38
830.764	10347.67
831.09	10343.15
831.417	10343.15
831.743	10401.22
832.069	10379.08
832.395	10297.95
832.722	10351.06
833.048	10283.26
833.374	10329.36
833.7	10275.35
834.026	10332.3
834.351	10364.84
834.677	10331.17
835.003	10321.68
835.329	10288.68
835.654	10304.73
835.98	10293.88
836.306	10290.72
836.631	10185.18
836.956	10268.12
837.282	10262.47
837.607	10246.65
837.932	10156.48
838.258	10198.29
838.583	10156.26
838.908	10120.78
839.233	10158.74
839.558	10021.12
839.883	10045.53
840.208	10058.18
840.533	10067.9
840.858	10046.66
841.182	10028.58
841.507	10002.82
841.832	9927.34
842.156	10008.69
842.481	9980.67
842.805	9907
843.13	9894.8
843.454	9819.77
843.778	9911.97
844.103	9758.53
844.427	9806.66
844.751	9780.22
845.075	9745.87
845.399	9751.3
845.723	9652.32
846.047	9671.3
846.371	9632.66
846.695	9623.39
847.019	9565.31
847.343	9511.98
847.666	9450.06
847.99	9439.67
848.313	9408.48
848.637	9368.03
848.96	9345.43
849.284	9322.83
849.607	9319.67
849.931	9265.43
850.254	9203.06
850.577	9148.38
850.9	9110.41
851.223	9107.92
851.546	9019.57
851.869	8904.09
852.192	9008.27
852.515	8937.53
852.838	8900.7
853.161	8888.95
853.483	8865.67
853.806	8790.42
854.129	8758.56
854.451	8830.19
854.774	8767.14
855.096	8728.5
855.419	8686.47
855.741	8660.93
856.063	8644.66
856.385	8598.56
856.708	8609.18
857.03	8535.51
857.352	8520.6
857.674	8568.96
857.996	8522.4
858.318	8467.94
858.64	8442.86
858.961	8443.99
859.283	8406.02
859.605	8319.24
859.926	8371.67
860.248	8356.08
860.57	8266.59
860.891	8333.93
861.212	8258.68
861.534	8271.34
861.855	8258.68
862.176	8227.5
862.498	8219.59
862.819	8215.07
863.14	8199.93
863.461	8177.78
863.782	8110.89
864.103	8199.93
864.424	8156.99
864.745	8184.33
865.065	8108.4
865.386	8078.8
865.707	8054.17
866.027	8057.1
866.348	8019.82
866.668	8009.2
866.989	8068.18
867.309	7960.84
867.63	7971.23
867.95	8010.55
868.27	7928.75
868.59	7971.68
868.91	7921.51
869.23	7906.83
869.55	7865.47
869.87	7920.16
870.19	7911.35
870.51	7893.49
870.83	7895.75
871.15	7836.77
871.469	7814.63
871.789	7795.87
872.109	7846.94
872.428	7743.21
872.748	7795.64
873.067	7805.36
873.386	7752.03
873.706	7786.83
874.025	7680.17
874.344	7644.46
874.663	7729.66
874.982	7725.36
875.301	7685.36
875.62	7688.98
875.939	7640.17
876.258	7698.7
876.577	7646.95
876.896	7650.11
877.214	7563.78
877.533	7611.69
877.852	7611.69
878.17	7628.87
878.489	7566.72
878.807	7558.36
879.125	7577.57
879.444	7480.17
879.762	7514.75
880.08	7472.49
880.398	7497.57
880.716	7483.56
881.034	7503.22
881.352	7472.94
881.67	7484.92
881.988	7446.27
882.306	7429.78
882.624	7348.2
882.941	7365.6
883.259	7380.51
883.577	7356.33
883.894	7300.74
884.212	7288.76
884.529	7283.11
884.846	7304.36
885.164	7286.73
885.481	7193.85
885.798	7287.63
886.115	7189.33
886.432	7200.18
886.75	7214.19
887.067	7206.51
887.383	7187.07
887.7	7167.86
888.017	7128.99
888.334	7145.94
888.651	7072.5
888.967	7065.27
889.284	7011.71
889.6	7099.39
889.917	7015.32
890.233	6973.07
890.55	6975.78
890.866	6925.38
891.182	6940.98
891.498	6928.32
891.815	6856.46
892.131	6866.18
892.447	6851.71
892.763	6790.02
893.079	6830.02
893.395	6785.05
893.71	6795.67
894.026	6776.91
894.342	6742.56
894.657	6671.83
894.973	6656.01
895.289	6720.87
895.604	6692.85
895.92	6597.93
896.235	6596.58
896.55	6540.31
896.865	6530.82
897.181	6484.72
897.496	6516.35
897.811	6540.53
898.126	6472.29
898.441	6466.86
898.756	6396.58
899.071	6409.24
899.386	6418.73
899.7	6366.08
900.015	6357.49
900.33	6220.77
900.644	6254.67
900.959	6259.19
901.273	6220.09
901.588	6230.03
901.902	6200.88
902.216	6223.71
902.531	6182.8
902.845	6174.22
903.159	6108
903.473	6065.74
903.787	6076.14
904.101	5994.33
904.415	6030.27
904.729	6006.09
905.042	5962.7
905.356	5944.17
905.67	5944.62
905.984	5959.08
906.297	5878.63
906.611	5899.42
906.924	5908.01
907.237	5858.07
907.551	5826.2
907.864	5780.1
908.177	5764.28
908.491	5797.28
908.804	5723.83
909.117	5708.47
909.43	5712.76
909.743	5632.54
910.056	5642.03
910.368	5600.45
910.681	5613.55
910.994	5572.65
911.307	5552.31
911.619	5509.15
911.932	5529.94
912.244	5451.98
912.557	5533.1
912.869	5434.12
913.181	5429.6
913.494	5420.56
913.806	5363.62
914.118	5390.96
914.43	5321.13
914.742	5342.37
915.054	5298.31
915.366	5264.18
915.678	5223.28
915.99	5289.72
916.302	5187.35
916.613	5217.63
916.925	5171.53
917.236	5169.5
917.548	5132.21
917.859	5127.01
918.171	5096.73
918.482	5090.18
918.794	5035.26
919.105	5016.96
919.416	5001.14
919.727	5013.79
920.038	4987.35
920.349	4995.26
920.66	4913.46
920.971	4936.73
921.282	4918.88
921.593	4927.02
921.903	4850.64
922.214	4823.97
922.525	4829.17
922.835	4833.91
923.146	4783.74
923.456	4779
923.767	4718.44
924.077	4725.21
924.387	4677.98
924.697	4703.07
925.008	4674.82
925.318	4632.79
925.628	4631.88
925.938	4623.52
926.248	4574.94
926.558	4600.92
926.867	4550.76
927.177	4553.69
927.487	4529.29
927.796	4459.23
928.106	4466.46
928.416	4467.37
928.725	4466.24
929.034	4384.66
929.344	4446.8
929.653	4410.87
929.962	4393.25
930.271	4360.25
930.581	4302.18
930.89	4316.19
931.199	4252.91
931.508	4252.68
931.817	4252.91
932.125	4285.23
932.434	4251.55
932.743	4228.05
933.051	4175.4
933.36	4184.66
933.669	4173.59
933.977	4158.68
934.286	4129.98
934.594	4145.79
934.902	4046.59
935.21	4097.21
935.519	4040.49
935.827	4067.83
936.135	4026.02
936.443	3997.1
936.751	4053.82
937.059	3990.77
937.367	3982.18
937.674	3948.29
937.982	3970.43
938.29	3903.54
938.597	3942.18
938.905	3885.91
939.213	3878.23
939.52	3865.35
939.827	3894.73
940.135	3851.79
940.442	3777.9
940.749	3793.94
941.056	3794.39
941.363	3751.68
941.67	3716.2
941.977	3733.15
942.284	3716.2
942.591	3716.2
942.898	3665.36
943.205	3670.55
943.511	3639.82
943.818	3647.5
944.125	3619.03
944.431	3582.65
944.738	3624.9
945.044	3554.4
945.35	3565.02
945.657	3576.09
945.963	3542.65
946.269	3563.44
946.575	3536.55
946.881	3506.26
947.187	3479.15
947.493	3450.45
947.799	3470.78
948.105	3478.92
948.41	3423.33
948.716	3405.48
949.022	3399.6
949.327	3377.68
949.633	3351.01
949.938	3348.75
950.244	3347.85
950.549	3271.69
950.854	3276.44
951.16	3283.44
951.465	3252.03
951.77	3255.65
952.075	3261.07
952.38	3283.67
952.685	3251.58
952.99	3183.56
953.294	3222.88
953.599	3186.72
953.904	3132.04
954.209	3153.73
954.513	3151.47
954.818	3123
955.122	3145.82
955.426	3102.66
955.731	3098.59
956.035	3056.78
956.339	3060.63
956.643	3059.72
956.948	3057.24
957.252	3031.25
957.556	3042.32
957.86	2995.54
958.163	3018.59
958.467	2990.8
958.771	2972.04
959.075	2975.88
959.378	2959.16
959.682	2920.97
959.985	2910.57
960.289	2901.99
960.592	2885.04
960.896	2858.82
961.199	2890.91
961.502	2819.95
961.805	2830.58
962.108	2837.58
962.411	2825.38
962.714	2800.07
963.017	2781.54
963.32	2805.04
963.623	2763.01
963.926	2761.2
964.228	2768.2
964.531	2749.67
964.833	2743.12
965.136	2709.22
965.438	2715.55
965.741	2718.04
966.043	2659.96
966.345	2681.65
966.648	2667.87
966.95	2681.43
967.252	2618.6
967.554	2643.91
967.856	2636.23
968.158	2598.04
968.46	2609.11
968.761	2575.44
969.063	2557.81
969.365	2544.93
969.666	2573.63
969.968	2522.11
970.269	2554.2
970.571	2490.92
970.872	2528.21
971.174	2488.89
971.475	2476.91
971.776	2476.69
972.077	2487.53
972.378	2471.26
972.679	2453.41
972.98	2440.76
973.281	2437.59
973.582	2388.1
973.883	2418.83
974.183	2391.94
974.484	2383.36
974.785	2406.18
975.085	2363.92
975.386	2374.99
975.686	2362.56
975.986	2332.28
976.287	2333.64
976.587	2330.93
976.887	2266.52
977.187	2285.73
977.487	2317.14
977.787	2297.26
978.087	2259.06
978.387	2263.58
978.687	2266.75
978.987	2249.35
979.286	2239.86
979.586	2219.07
979.885	2231.72
980.185	2210.93
980.484	2192.85
980.784	2180.87
981.083	2176.58
981.382	2200.76
981.682	2185.39
981.981	2150.37
982.28	2137.71
982.579	2105.4
982.878	2115.11
983.177	2129.8
983.475	2114.66
983.774	2109.92
984.073	2086.64
984.372	2065.62
984.67	2072.86
984.969	2069.01
985.267	2050.03
985.566	2065.4
985.864	2045.51
986.162	2050.03
986.461	2010.48
986.759	2019.52
987.057	2001.44
987.355	1992.18
987.653	1993.31
987.951	1979.98
988.249	1949.02
988.547	1976.13
988.844	1929.81
989.142	1914.67
989.44	1927.77
989.737	1946.53
990.035	1874.22
990.332	1897.72
990.63	1927.1
990.927	1912.18
991.224	1864.95
991.521	1885.29
991.819	1901.33
992.116	1846.19
992.413	1877.61
992.71	1846.87
993.006	1824.5
993.303	1813.65
993.6	1831.73
993.897	1835.8
994.193	1823.37
994.49	1819.98
994.787	1768.46
995.083	1743.37
995.379	1777.72
995.676	1767.33
995.972	1789.92
996.268	1749.25
996.565	1737.27
996.861	1716.03
997.157	1738.4
997.453	1712.19
997.749	1713.32
998.044	1683.94
998.34	1694.56
998.636	1677.16
998.932	1666.54
999.227	1641.45
999.523	1661.57
999.818	1641
1000.114	1657.72
1000.409	1607.33
1000.704	1592.19
1001	1613.21
1001.295	1573.89
1001.59	1586.54
1001.885	1604.84
1002.18	1565.07
1002.475	1561.23
1002.77	1574.34
1003.065	1548.8
1003.359	1555.13
1003.654	1535.92
1003.949	1518.07
1004.243	1528.69
1004.538	1533.89
1004.832	1495.7
1005.127	1516.03
1005.421	1489.59
1005.715	1488.24
1006.009	1484.62
1006.304	1475.58
1006.598	1466.32
1006.892	1462.25
1007.186	1454.11
1007.48	1434.91
1007.773	1423.38
1008.067	1438.07
1008.361	1425.41
1008.655	1382.03
1008.948	1422.02
1009.242	1412.31
1009.535	1406.66
1009.829	1401.01
1010.122	1390.84
1010.415	1369.6
1010.708	1357.17
1011.001	1347.22
1011.295	1350.84
1011.588	1335.7
1011.881	1339.77
1012.173	1326.89
1012.466	1326.89
1012.759	1310.84
1013.052	1309.26
1013.344	1274.46
1013.637	1273.1
1013.93	1265.42
1014.222	1293.21
1014.514	1283.95
1014.807	1252.54
1015.099	1297.96
1015.391	1256.83
1015.683	1245.76
1015.976	1226.1
1016.268	1232.43
1016.56	1206.66
1016.851	1232.2
1017.143	1219.09
1017.435	1206.66
1017.727	1193.1
1018.018	1188.58
1018.31	1187.23
1018.602	1174.35
1018.893	1161.92
1019.185	1178.42
1019.476	1194.69
1019.767	1125.99
1020.058	1162.82
1020.35	1118.76
1020.641	1150.62
1020.932	1121.92
1021.223	1128.93
1021.514	1099.1
1021.804	1126.89
1022.095	1114.24
1022.386	1101.58
1022.677	1069.49
1022.967	1087.34
1023.258	1077.85
1023.548	1058.87
1023.839	1068.14
1024.129	1060.68
1024.419	1042.15
1024.709	1038.31
1025	1011.87
1025.29	1036.5
1025.58	1012.32
1025.87	993.11
1026.16	995.14
1026.449	985.65
1026.739	989.04
1027.029	975.26
1027.319	991.08
1027.608	965.77
1027.898	976.84
1028.187	941.13
1028.477	948.14
1028.766	971.19
1029.055	919.44
1029.344	930.06
1029.634	927.35
1029.923	933.68
1030.212	921.02
1030.501	940.23
1030.79	923.51
1031.078	900.46
1031.367	903.17
1031.656	909.27
1031.945	911.53
1032.233	910.63
1032.522	897.52
1032.81	894.58
1033.099	866.56
1033.387	873.79
1033.675	853.9
1033.963	871.3
1034.251	858.2
1034.54	866.79
1034.828	837.63
1035.116	843.28
1035.403	841.7
1035.691	829.95
1035.979	809.61
1036.267	837.41
1036.554	818.2
1036.842	814.36
1037.129	828.37
1037.417	775.49
1037.704	801.48
1037.992	804.87
1038.279	799.44
1038.566	780.46
1038.853	780.46
1039.14	780.46
