Data from hue_90_FLMS001491_50.txt Node
Date: Mon Feb 06 15:25:12 GMT 2017
User: dcchb
Spectrometer: FLMS00149
Trigger mode: 0
Integration Time (sec): 2.000000E-2
Scans to average: 10
Electric dark correction enabled: true
Nonlinearity correction enabled: false
Boxcar width: 0
XAxis mode: Wavelengths
Number of Pixels in Spectrum: 2048
>>>>>Begin Spectral Data<<<<<
341.393	-4.73
341.776	-4.73
342.16	-4.73
342.543	-49.48
342.927	-85.63
343.31	-75.69
343.693	-80.89
344.077	-51.51
344.46	-79.98
344.843	-54.9
345.226	-29.14
345.61	-28.69
345.993	-37.27
346.376	-2.7
346.759	0.69
347.142	26.68
347.525	36.85
347.908	61.93
348.291	88.83
348.674	107.58
349.057	118.2
349.44	128.6
349.823	141.93
350.206	153.91
350.588	194.59
350.971	200.91
351.354	225.09
351.737	214.92
352.119	249.5
352.502	248.14
352.884	272.1
353.267	281.59
353.65	277.07
354.032	287.01
354.414	296.73
354.797	292.89
355.179	315.26
355.562	312.32
355.944	299.22
356.326	344.41
356.709	332.21
357.091	333.56
357.473	330.4
357.855	327.01
358.238	328.37
358.62	327.01
359.002	324.3
359.384	329.05
359.766	332.21
360.148	316.16
360.53	329.95
360.912	330.63
361.294	328.14
361.676	328.82
362.057	340.57
362.439	325.66
362.821	317.75
363.203	311.19
363.584	321.81
363.966	316.39
364.348	318.88
364.729	321.36
365.111	310.74
365.493	310.29
365.874	323.85
366.256	292.89
366.637	287.46
367.019	305.54
367.4	321.14
367.781	295.6
368.163	304.64
368.544	274.58
368.925	282.27
369.306	308.25
369.688	315.49
370.069	297.86
370.45	319.33
370.831	319.1
371.212	316.84
371.593	289.5
371.974	300.12
372.355	291.76
372.736	311.19
373.117	310.74
373.498	305.99
373.879	321.14
374.26	296.05
374.641	319.1
375.021	320.46
375.402	324.07
375.783	307.35
376.163	324.75
376.544	315.26
376.925	304.86
377.305	316.39
377.686	325.2
378.066	315.94
378.447	315.03
378.827	310.97
379.208	323.85
379.588	327.92
379.968	318.42
380.349	326.11
380.729	330.4
381.109	321.14
381.489	326.79
381.87	325.43
382.25	341.02
382.63	341.25
383.01	350.06
383.39	307.35
383.77	346.45
384.15	313.45
384.53	343.06
384.91	339.89
385.29	343.06
385.67	347.58
386.049	350.06
386.429	338.08
386.809	364.07
387.189	362.49
387.568	346.22
387.948	354.36
388.328	361.59
388.707	361.81
389.087	345.32
389.466	355.49
389.846	353.45
390.225	361.36
390.605	371.3
390.984	379.89
391.363	355.26
391.743	374.24
392.122	373.34
392.501	363.62
392.881	389.83
393.26	368.37
393.639	385.99
394.018	387.12
394.397	372.43
394.776	361.36
395.155	380.57
395.534	389.61
395.913	381.7
396.292	381.47
396.671	406.11
397.05	385.54
397.429	385.31
397.808	379.21
398.186	375.15
398.565	381.47
398.944	389.38
399.323	385.99
399.701	400
400.08	395.03
400.458	392.32
400.837	385.09
401.215	396.84
401.594	414.69
401.972	392.32
402.351	416.05
402.729	434.13
403.107	413.56
403.486	422.15
403.864	397.97
404.242	395.71
404.62	418.31
404.999	402.26
405.377	423.05
405.755	404.98
406.133	423.96
406.511	431.87
406.889	417.18
407.267	446.1
407.645	448.59
408.023	430.51
408.401	458.76
408.779	445.88
409.156	447.69
409.534	449.95
409.912	439.78
410.29	467.12
410.667	476.84
411.045	447.23
411.422	456.27
411.8	474.58
412.178	477.97
412.555	451.53
412.933	465.54
413.31	472.32
413.687	470.96
414.065	494.46
414.442	485.2
414.819	491.3
415.197	499.66
415.574	505.54
415.951	511.87
416.328	503.5
416.705	510.96
417.082	508.7
417.46	506.89
417.837	524.75
418.214	502.6
418.591	508.25
418.967	510.28
419.344	517.06
419.721	501.02
420.098	534.01
420.475	530.85
420.852	538.31
421.228	523.62
421.605	521.13
421.982	538.53
422.358	540.79
422.735	562.26
423.111	534.92
423.488	545.99
423.864	555.71
424.241	555.48
424.617	570.85
424.994	570.62
425.37	555.25
425.746	562.71
426.123	587.12
426.499	573.56
426.875	579.66
427.251	594.12
427.627	594.12
428.003	598.19
428.379	606.55
428.756	616.95
429.132	592.54
429.507	610.85
429.883	623.27
430.259	634.12
430.635	632.99
431.011	642.03
431.387	633.9
431.763	642.71
432.138	630.96
432.514	684.29
432.89	671.86
433.265	684.97
433.641	681.58
434.016	688.58
434.392	696.04
434.767	703.27
435.143	689.71
435.518	699.66
435.894	710.5
436.269	708.02
436.644	725.87
437.02	754.34
437.395	741.69
437.77	738.98
438.145	723.84
438.52	746.89
438.895	788.02
439.271	732.2
439.646	793.67
440.021	771.97
440.395	759.32
440.77	776.49
441.145	773.33
441.52	803.16
441.895	788.02
442.27	772.65
442.645	810.39
443.019	836.83
443.394	810.39
443.769	846.77
444.143	806.55
444.518	815.81
444.892	853.55
445.267	825.08
445.641	818.52
446.016	835.47
446.39	864.62
446.764	866.88
447.139	854.68
447.513	863.72
447.887	852.42
448.262	838.86
448.636	879.31
449.01	866.21
449.384	890.61
449.758	885.19
450.132	906.66
450.506	893.55
450.88	924.06
451.254	934.45
451.628	933.32
452.002	933.32
452.376	934.9
452.75	970.16
453.123	961.57
453.497	978.29
453.871	951.63
454.244	997.28
454.618	1004.73
454.992	1032.08
455.365	1001.57
455.739	1024.39
456.112	1027.11
456.486	1049.25
456.859	1056.71
457.232	1091.06
457.606	1081.57
457.979	1069.14
458.352	1105.97
458.725	1097.84
459.099	1125.63
459.472	1124.96
459.845	1150.94
460.218	1157.05
460.591	1173.09
460.964	1168.34
461.337	1200.89
461.71	1207.44
462.083	1235.01
462.456	1248.57
462.829	1271.39
463.201	1268.46
463.574	1277.27
463.947	1289.02
464.32	1353.88
464.692	1343.26
465.065	1331.5
465.438	1383.03
465.81	1389.36
466.183	1414.67
466.555	1430.26
466.928	1453.76
467.3	1460.99
467.672	1502.12
468.045	1533.99
468.417	1561.1
468.789	1565.17
469.161	1587.77
469.534	1607.43
469.906	1664.38
470.278	1653.76
470.65	1714.32
471.022	1727.43
471.394	1784.6
471.766	1794.32
472.138	1809.91
472.51	1869.57
472.882	1913.41
473.253	1961.77
473.625	1966.52
473.997	2044.48
474.369	2020.98
474.74	2091.26
475.112	2181.2
475.484	2178.04
475.855	2218.49
476.227	2290.12
476.598	2334.42
476.97	2395.43
477.341	2498.71
477.713	2525.6
478.084	2572.6
478.455	2658.7
478.827	2670.23
479.198	2830.22
479.569	2875.87
479.94	2938.92
480.311	3013.27
480.682	3133.27
481.053	3139.37
481.424	3299.14
481.795	3349.98
482.166	3431.56
482.537	3537.32
482.908	3646.7
483.279	3743.64
483.65	3807.37
484.021	3937.09
484.391	4017.31
484.762	4161.94
485.133	4182.05
485.503	4351.99
485.874	4476.96
486.244	4546.56
486.615	4676.28
486.985	4813.67
487.356	4932.54
487.726	5038.07
488.097	5222.93
488.467	5234.9
488.837	5466.54
489.207	5532.07
489.578	5700.66
489.948	5842.57
490.318	5965.96
490.688	6052.06
491.058	6219.96
491.428	6350.58
491.798	6469.9
492.168	6678.26
492.538	6722.1
492.908	6897.01
493.278	7046.83
493.648	7144.69
494.017	7305.81
494.387	7435.3
494.757	7492.25
495.126	7662.86
495.496	7788.51
495.866	7925.68
496.235	8075.73
496.605	8176.3
496.974	8302.39
497.344	8403.63
497.713	8487.47
498.082	8613.8
498.452	8795.49
498.821	8857.18
499.19	8917.97
499.559	9015.6
499.928	9188.47
500.298	9192.77
500.667	9446.32
501.036	9425.53
501.405	9613.32
501.774	9681.34
502.143	9762.47
502.512	9844.28
502.88	9986.87
503.249	10026.19
503.618	10076.13
503.987	10203.36
504.356	10265.96
504.724	10315.45
505.093	10403.36
505.462	10464.37
505.83	10616.68
506.199	10691.03
506.567	10850.12
506.936	10827.98
507.304	11001.98
507.672	11002.89
508.041	11070.68
508.409	11209.89
508.777	11290.34
509.145	11321.75
509.514	11357.46
509.882	11430.9
510.25	11408.53
510.618	11598.13
510.986	11546.6
511.354	11660.72
511.722	11736.88
512.09	11850.32
512.458	11792.25
512.826	11966.25
513.193	12086.48
513.561	12017.1
513.929	12102.75
514.297	12268.17
514.664	12240.14
515.032	12190.43
515.4	12393.59
515.767	12309.52
516.135	12374.15
516.502	12290.09
516.869	12484.43
517.237	12544.77
517.604	12458.9
517.972	12557.65
518.339	12647.59
518.706	12656.4
519.073	12656.63
519.44	12726.69
519.808	12754.26
520.175	12690.98
520.542	12854.14
520.909	12913.12
521.276	12872.9
521.643	12983.18
522.009	12973.91
522.376	13056.62
522.743	13046.9
523.11	13147.01
523.477	13203.73
523.843	13209.61
524.21	13330.74
524.577	13316.95
524.943	13297.97
525.31	13343.84
525.676	13421.58
526.043	13514.46
526.409	13503.39
526.776	13589.04
527.142	13434.92
527.508	13560.11
527.874	13601.92
528.241	13683.5
528.607	13628.81
528.973	13689.15
529.339	13643.5
529.705	13705.87
530.071	13690.05
530.437	13684.17
530.803	13705.19
531.169	13829.93
531.535	13717.62
531.901	13681.24
532.267	13708.58
532.632	13801.69
532.998	13727.11
533.364	13725.53
533.73	13650.73
534.095	13799.2
534.461	13754
534.826	13705.87
535.192	13762.14
535.557	13741.57
535.923	13679.65
536.288	13690.73
536.653	13639.2
537.019	13601.24
537.384	13621.8
537.749	13606.44
538.114	13580.45
538.479	13506.78
538.845	13483.5
539.21	13492.54
539.575	13472.88
539.94	13448.47
540.305	13510.17
540.67	13417.29
541.034	13455.03
541.399	13388.59
541.764	13363.96
542.129	13361.02
542.494	13282.15
542.858	13275.82
543.223	13269.04
543.587	13250.74
543.952	13153.79
544.316	13127.58
544.681	13108.82
545.045	13081.25
545.41	13068.6
545.774	13035.15
546.138	13005.1
546.503	13018.88
546.867	13025.89
547.231	12962.39
547.595	12916.51
547.959	12884.65
548.324	12922.84
548.688	12860.01
549.052	12838.09
549.416	12784.54
549.779	12709.51
550.143	12727.14
550.507	12719.68
550.871	12727.14
551.235	12653.69
551.599	12727.36
551.962	12648.04
552.326	12620.47
552.689	12633.58
553.053	12514.94
553.417	12562.85
553.78	12637.2
554.143	12493.7
554.507	12512.91
554.87	12539.8
555.234	12487.82
555.597	12366.69
555.96	12434.49
556.323	12448.95
556.686	12429.74
557.05	12446.47
557.413	12365.56
557.776	12428.84
558.139	12456.64
558.502	12389.29
558.865	12387.26
559.228	12476.52
559.59	12366.02
559.953	12392.23
560.316	12437.2
560.679	12440.82
561.041	12452.12
561.404	12393.81
561.767	12437.43
562.129	12456.86
562.492	12501.83
562.854	12354.04
563.217	12328.05
563.579	12341.84
563.941	12441.95
564.304	12468.16
564.666	12575.05
565.028	12462.96
565.39	12536.63
565.753	12436.98
566.115	12568.27
566.477	12617.99
566.839	12616.41
567.201	12539.12
567.563	12530.76
567.925	12585.67
568.287	12596.07
568.648	12568.72
569.01	12655.05
569.372	12686.46
569.734	12636.52
570.095	12721.04
570.457	12675.16
570.819	12661.83
571.18	12636.29
571.542	12705.44
571.903	12738.21
572.265	12730.75
572.626	12691.43
572.987	12747.25
573.349	12770.75
573.71	12768.04
574.071	12835.16
574.432	12771.88
574.794	12926
575.155	12819.11
575.516	12766.46
575.877	12846
576.238	12853.69
576.599	12849.62
576.96	12796.06
577.32	12864.99
577.681	12873.12
578.042	12879.45
578.403	12852.78
578.763	12852.33
579.124	12814.59
579.485	12950.86
579.845	12891.2
580.206	12856.4
580.566	12823.86
580.927	12842.84
581.287	12861.6
581.648	12810.52
582.008	12936.17
582.368	12867.92
582.728	12841.71
583.089	12808.26
583.449	12806.68
583.809	12863.63
584.169	12826.8
584.529	12826.57
584.889	12848.49
585.249	12770.07
585.609	12675.16
585.969	12768.94
586.329	12762.84
586.688	12746.57
587.048	12732.79
587.408	12735.72
587.768	12710.87
588.127	12752.22
588.487	12756.06
588.846	12798.55
589.206	12609.4
589.565	12691.21
589.925	12754.03
590.284	12652.56
590.643	12647.59
591.003	12629.51
591.362	12705.67
591.721	12633.35
592.08	12683.3
592.44	12723.97
592.799	12723.75
593.158	12589.06
593.517	12682.84
593.876	12656.18
594.235	12622.73
594.593	12703.63
594.952	12662.05
595.311	12587.93
595.67	12621.38
596.029	12711.32
596.387	12600.59
596.746	12646.24
597.104	12617.31
597.463	12555.62
597.822	12595.84
598.18	12475.17
598.538	12515.39
598.897	12624.31
599.255	12442.62
599.613	12641.94
599.972	12587.48
600.33	12486.92
600.688	12475.84
601.046	12576.86
601.404	12637.65
601.762	12472.45
602.12	12556.97
602.478	12595.62
602.836	12596.97
603.194	12546.8
603.552	12485.34
603.91	12440.59
604.268	12549.06
604.625	12474.94
604.983	12581.6
605.341	12530.31
605.698	12624.77
606.056	12570.98
606.413	12523.3
606.771	12640.36
607.128	12613.69
607.485	12573.92
607.843	12626.57
608.2	12654.82
608.557	12684.43
608.914	12614.82
609.272	12698.89
609.629	12665.9
609.986	12667.48
610.343	12629.06
610.7	12703.86
611.057	12703.86
611.414	12681.49
611.771	12720.36
612.127	12687.82
612.484	12653.47
612.841	12728.49
613.198	12740.92
613.554	12692.11
613.911	12776.18
614.267	12739.57
614.624	12853.01
614.98	12724.2
615.337	12813.91
615.693	12779.34
616.05	12809.85
616.406	12877.42
616.762	12797.64
617.118	12819.11
617.475	12836.51
617.831	12828.6
618.187	12875.61
618.543	12891.65
618.899	12912.67
619.255	12935.04
619.611	12892.78
619.967	12961.48
620.323	12965.77
620.678	12950.86
621.034	12850.75
621.39	12890.97
621.746	12862.05
622.101	13044.42
622.457	12896.17
622.812	12897.53
623.168	12897.75
623.523	12911.09
623.879	12961.03
624.234	12850.3
624.589	12975.94
624.945	12933.46
625.3	12890.97
625.655	12889.62
626.01	12944.08
626.365	12923.74
626.72	12889.39
627.075	12900.47
627.43	12908.15
627.785	12820.69
628.14	12917.41
628.495	12840.81
628.85	12809.85
629.205	12796.51
629.559	12876.06
629.914	12804.65
630.269	12908.6
630.623	12792.9
630.978	12766.68
631.332	12834.25
631.687	12870.64
632.041	12723.97
632.396	12777.53
632.75	12833.35
633.104	12835.61
633.459	12722.17
633.813	12710.64
634.167	12709.74
634.521	12690.75
634.875	12703.41
635.229	12763.52
635.583	12603.75
635.937	12664.99
636.291	12667.93
636.645	12607.82
636.999	12548.38
637.352	12649.85
637.706	12575.95
638.06	12562.62
638.413	12553.58
638.767	12515.17
639.121	12571.89
639.474	12392.68
639.828	12536.18
640.181	12485.11
640.534	12481.49
640.888	12461.38
641.241	12359.46
641.594	12396.52
641.947	12351.33
642.301	12326.47
642.654	12412.57
643.007	12448.27
643.36	12298.45
643.713	12289.18
644.066	12383.87
644.419	12305
644.771	12212.35
645.124	12085.35
645.477	12113.59
645.83	12033.14
646.182	11992.69
646.535	11877.22
646.888	11984.78
647.24	11954.28
647.593	12031.79
647.945	12004.9
648.298	11949.53
648.65	11944.11
649.002	11864.79
649.355	11914.5
649.707	11909.31
650.059	11994.05
650.411	12124.44
650.763	12081.96
651.115	12279.69
651.467	12185.68
651.819	12191.33
652.171	12142.97
652.523	12130.54
652.875	12212.57
653.227	12147.49
653.578	12268.62
653.93	12139.13
654.282	12083.54
654.633	12159.92
654.985	12116.53
655.337	12121.5
655.688	12223.42
656.039	12279.92
656.391	12053.71
656.742	12165.8
657.094	12131.67
657.445	12213.25
657.796	12202.41
658.147	12164.21
658.498	12187.49
658.849	12208.28
659.2	12203.54
659.551	12182.97
659.902	12228.85
660.253	12174.84
660.604	12180.71
660.955	12215.51
661.306	12220.26
661.656	12171.45
662.007	12228.39
662.358	12220.26
662.708	12229.98
663.059	12165.8
663.409	12180.48
663.76	12227.49
664.11	12265.23
664.461	12210.31
664.811	12262.06
665.161	12222.74
665.511	12233.14
665.862	12260.26
666.212	12253.93
666.562	12315.4
666.912	12264.78
667.262	12229.52
667.612	12286.24
667.962	12223.42
668.312	12249.86
668.662	12345.9
669.011	12259.58
669.361	12224.33
669.711	12207.6
670.06	12283.76
670.41	12206.25
670.76	12204.89
671.109	12239.47
671.459	12252.35
671.808	12182.07
672.157	12225
672.507	12188.62
672.856	12171.67
673.205	12227.49
673.554	12166.7
673.904	12156.76
674.253	12249.86
674.602	12179.35
674.951	11959.7
675.3	11969.42
675.649	12149.75
675.998	12030.21
676.346	12037.89
676.695	12117.89
677.044	12021.84
677.393	12024.78
677.741	12032.24
678.09	12037.89
678.438	11904.11
678.787	11971
679.135	12012.13
679.484	11906.14
679.832	11961.51
680.181	11892.36
680.529	11896.88
680.877	11884.45
681.225	11851.45
681.573	11908.63
681.922	11795.41
682.27	11793.38
682.618	11767.61
682.966	11780.5
683.314	11720.84
683.661	11787.5
684.009	11665.24
684.357	11638.13
684.705	11681.06
685.053	11706.15
685.4	11672.02
685.748	11530.56
686.095	11598.13
686.443	11572.14
686.79	11511.8
687.138	11476.32
687.485	11431.8
687.832	11466.61
688.18	11509.32
688.527	11422.09
688.874	11331.24
689.221	11382.09
689.568	11340.51
689.915	11227.74
690.262	11260.96
690.609	11228.87
690.956	11167.63
691.303	11141.64
691.65	11132.15
691.997	11093.73
692.344	11007.63
692.69	10965.15
693.037	11011.48
693.383	10843.34
693.73	10898.48
694.077	10817.13
694.423	10765.83
694.769	10788.43
695.116	10751.82
695.462	10754.31
695.808	10644.93
696.155	10703.91
696.501	10591.83
696.847	10627.53
697.193	10495.11
697.539	10554.99
697.885	10413.53
698.231	10369.23
698.577	10408.55
698.923	10343.02
699.269	10288.78
699.614	10214.89
699.96	10266.86
700.306	10285.85
700.651	10211.5
700.997	10140.76
701.342	10057.6
701.688	10075
702.033	9973.54
702.379	10013.76
702.724	9931.05
703.069	9990.71
703.415	9872.75
703.76	9923.14
704.105	9919.3
704.45	9845.18
704.795	9765.41
705.14	9751.17
705.485	9686.09
705.83	9680.66
706.175	9687.22
706.52	9610.83
706.865	9579.65
707.209	9609.25
707.554	9583.94
707.899	9544.62
708.243	9499.88
708.588	9482.48
708.932	9357.28
709.277	9444.96
709.621	9423.72
709.966	9318.41
710.31	9360.67
710.654	9271.41
710.998	9251.97
711.342	9302.37
711.687	9186.44
712.031	9203.61
712.375	9209.94
712.719	9167.46
713.063	9196.83
713.407	9161.81
713.75	9135.59
714.094	9098.08
714.438	9064.18
714.782	9146.44
715.125	9056.95
715.469	9050.62
715.812	8982.6
716.156	9018.08
716.499	8950.74
716.843	9009.49
717.186	8910.74
717.53	8944.64
717.873	8981.92
718.216	8954.58
718.559	8923.4
718.902	8849.27
719.246	8849.72
719.589	8864.64
719.932	8768.6
720.275	8870.97
720.617	8794.59
720.96	8799.78
721.303	8820.12
721.646	8800.69
721.989	8737.19
722.331	8744.87
722.674	8717.75
723.016	8693.8
723.359	8771.31
723.701	8679.33
724.044	8640.01
724.386	8642.05
724.729	8660.58
725.071	8675.94
725.413	8657.19
725.755	8628.26
726.097	8597.53
726.439	8658.77
726.782	8544.2
727.124	8636.85
727.465	8546.23
727.807	8491.77
728.149	8624.19
728.491	8619.22
728.833	8573.35
729.175	8575.61
729.516	8474.37
729.858	8545.33
730.199	8603.18
730.541	8546.46
730.882	8519.11
731.224	8636.85
731.565	8567.25
731.906	8589.39
732.248	8581.94
732.589	8484.31
732.93	8497.42
733.271	8561.6
733.612	8555.72
733.953	8566.12
734.294	8568.15
734.635	8569.51
734.976	8580.35
735.317	8514.82
735.658	8512.11
735.999	8557.08
736.339	8495.16
736.68	8552.11
737.021	8471.66
737.361	8497.19
737.702	8572.67
738.042	8498.32
738.383	8538.77
738.723	8562.05
739.063	8546
739.404	8562.5
739.744	8581.94
740.084	8606.79
740.424	8659.67
740.764	8554.14
741.104	8649.96
741.444	8580.35
741.784	8604.53
742.124	8666.45
742.464	8614.93
742.804	8698.77
743.143	8690.18
743.483	8702.16
743.823	8707.13
744.162	8764.08
744.502	8785.55
744.841	8795.72
745.181	8873.91
745.52	8858.31
745.86	8851.98
746.199	8931.3
746.538	8944.86
746.877	9009.04
747.216	9058.08
747.556	9115.25
747.895	9181.47
748.234	9122.03
748.573	9216.49
748.911	9276.15
749.25	9294.68
749.589	9376.04
749.928	9422.59
750.267	9547.33
750.605	9544.62
750.944	9704.84
751.283	9718.18
751.621	9873.65
751.96	9879.53
752.298	9937.15
752.636	10096.7
752.975	10094.89
753.313	10275
753.651	10274.77
753.989	10477.48
754.327	10527.19
754.666	10712.5
755.004	10752.05
755.342	10736.91
755.679	11023
756.017	11111.81
756.355	11293.73
756.693	11305.25
757.031	11498.24
757.368	11627.96
757.706	11740.95
758.044	11821.4
758.381	11944.56
758.719	12161.73
759.056	12305.45
759.394	12460.7
759.731	12509.06
760.068	12778.89
760.405	12829.06
760.743	12994.02
761.08	13164.64
761.417	13171.65
761.754	13449.38
762.091	13640.79
762.428	13671.97
762.765	13808.24
763.102	14147.21
763.438	14195.57
763.775	14332.07
764.112	14480.09
764.449	14657.48
764.785	14740.42
765.122	14939.96
765.458	14971.6
765.795	15160.29
766.131	15380.17
766.467	15406.39
766.804	15619.26
767.14	15698.13
767.476	15843.67
767.812	16015.64
768.148	16131.79
768.485	16169.53
768.821	16259.7
769.157	16403.2
769.492	16438
769.828	16675.06
770.164	16596.87
770.5	16767.48
770.836	16829.4
771.171	16885.22
771.507	17073.92
771.842	16983.3
772.178	17195.04
772.513	17186
772.849	17333.57
773.184	17287.02
773.519	17469.61
773.855	17393.68
774.19	17548.93
774.525	17460.35
774.86	17644.3
775.195	17750.28
775.53	17722.03
775.865	17717.74
776.2	17791.86
776.535	17706.67
776.87	17792.77
777.205	17732.2
777.539	17878.87
777.874	17909.37
778.209	17794.35
778.543	17927.45
778.878	17853.33
779.212	17888.36
779.547	17825.08
779.881	18063.95
780.215	17951.86
780.55	18076.37
780.884	17961.12
781.218	17925.64
781.552	18065.08
781.886	18037.96
782.22	18012.65
782.554	17868.92
782.888	17821.24
783.222	17876.61
783.556	17804.52
783.889	17839.77
784.223	17662.6
784.557	17794.12
784.89	17873.67
785.224	17851.52
785.557	17757.74
785.891	17716.61
786.224	17669.38
786.558	17715.03
786.891	17652.43
787.224	17661.7
787.557	17563.39
787.891	17640.45
788.224	17578.76
788.557	17667.12
788.89	17559.1
789.223	17569.95
789.556	17521.81
789.888	17538.31
790.221	17453.11
790.554	17362.5
790.887	17405.66
791.219	17357.98
791.552	17315.27
791.884	17316.85
792.217	17258.09
792.549	17109.85
792.882	17185.1
793.214	17022.39
793.546	17071.43
793.879	16969.06
794.211	16921.38
794.543	16964.77
794.875	16907.14
795.207	17049.51
795.539	16926.57
795.871	16957.76
796.203	16767.71
796.535	16757.54
796.867	16669.41
797.198	16712.57
797.53	16704.21
797.862	16616.98
798.193	16554.16
798.525	16464.67
798.856	16519.35
799.188	16391.9
799.519	16297.66
799.85	16285.69
800.182	16295.63
800.513	16246.82
800.844	16138.57
801.175	16248.85
801.506	16217.44
801.837	16164.33
802.168	16042.76
802.499	16072.36
802.83	16017.67
803.161	16013.83
803.491	15988.75
803.822	15951.01
804.153	15905.36
804.483	15783.33
804.814	15729.54
805.145	15706.95
805.475	15700.39
805.805	15803.21
806.136	15639.6
806.466	15633.28
806.796	15664.24
807.126	15494.52
807.457	15446.61
807.787	15479.38
808.117	15386.73
808.447	15329.33
808.777	15422.66
809.107	15355.77
809.436	15244.59
809.766	15323.68
810.096	15200.97
810.426	15211.14
810.755	15198.48
811.085	15223.12
811.414	15120.75
811.744	14994.87
812.073	14981.99
812.403	15076.91
812.732	14959.17
813.061	14981.54
813.39	14867.19
813.719	14811.83
814.049	14819.51
814.378	14846.4
814.707	14824.71
815.036	14774.99
815.365	14662.23
815.693	14598.5
816.022	14669.91
816.351	14585.85
816.68	14412.74
817.008	14628.1
817.337	14430.37
817.665	14408.45
817.994	14474.89
818.322	14454.1
818.651	14318.51
818.979	14321.9
819.307	14424.95
819.636	14374.55
819.964	14241.22
820.292	14230.37
820.62	14200.54
820.948	14140.89
821.276	14231.96
821.604	14256.14
821.932	14231.5
822.259	14262.69
822.587	14241.45
822.915	14182.69
823.243	14232.86
823.57	14189.25
823.898	14267.44
824.225	14178.62
824.553	14120.09
824.88	14194.9
825.207	14231.28
825.535	14158.74
825.862	14111.96
826.189	14173.2
826.516	14272.63
826.843	14312.18
827.17	14167.78
827.497	14253.2
827.824	14307.66
828.151	14309.92
828.478	14196.25
828.805	14248.45
829.131	14158.74
829.458	14238.06
829.785	14146.08
830.111	14109.25
830.438	14225.85
830.764	14232.86
831.09	14182.24
831.417	14178.4
831.743	14144.5
832.069	14127.55
832.395	14149.7
832.722	14200.32
833.048	14091.85
833.374	14073.77
833.7	14080.32
834.026	14144.95
834.351	14139.98
834.677	14135.46
835.003	14133.65
835.329	14082.36
835.654	14062.24
835.98	13957.84
836.306	14020.44
836.631	13996.93
836.956	14007.33
837.282	14077.84
837.607	13892.76
837.932	13949.25
838.258	13982.47
838.583	13834
838.908	13852.31
839.233	13858.41
839.558	13845.98
839.883	13773.66
840.208	13777.5
840.533	13709.26
840.858	13741.57
841.182	13688.24
841.507	13768.24
841.832	13616.61
842.156	13625.19
842.481	13578.41
842.805	13591.75
843.13	13462.94
843.454	13523.95
843.778	13488.02
844.103	13456.84
844.427	13429.49
844.751	13347.91
845.075	13288.25
845.399	13386.1
845.723	13301.13
846.047	13316.27
846.371	13076.28
846.695	13173.45
847.019	12959
847.343	13024.53
847.666	12986.79
847.99	12909.28
848.313	12861.6
848.637	12791.99
848.96	12761.71
849.284	12793.8
849.607	12620.93
849.931	12601.04
850.254	12559.46
850.577	12426.35
850.9	12424.09
851.223	12438.56
851.546	12405.79
851.869	12249.41
852.192	12364.66
852.515	12105.23
852.838	12112.69
853.161	12213.7
853.483	12063.43
853.806	12072.92
854.129	12016.42
854.451	11948.63
854.774	11933.03
855.096	11820.49
855.419	11887.16
855.741	11877.44
856.063	11758.35
856.385	11726.03
856.708	11675.19
857.03	11617.79
857.352	11632.7
857.674	11625.02
857.996	11599.71
858.318	11566.72
858.64	11504.34
858.961	11432.48
859.283	11401.75
859.605	11333.28
859.926	11387.74
860.248	11306.16
860.57	11315.87
860.891	11341.41
861.212	11239.04
861.534	11266.84
861.855	11196.56
862.176	11207.4
862.498	11222.09
862.819	11145.26
863.14	11121.98
863.461	11045.6
863.782	11114.3
864.103	11042.66
864.424	10994.08
864.745	11088.76
865.065	10965.83
865.386	10924.7
865.707	10885.83
866.027	10962.21
866.348	10898.48
866.668	10924.47
866.989	10884.02
867.309	10759.05
867.63	10844.93
867.95	10831.37
868.27	10738.71
868.59	10723.8
868.91	10752.27
869.23	10671.15
869.55	10662.56
869.87	10700.75
870.19	10696
870.51	10641.09
870.83	10684.48
871.15	10600.87
871.469	10596.57
871.789	10624.37
872.109	10553.18
872.428	10545.27
872.748	10541.43
873.067	10518.38
873.386	10509.34
873.706	10491.04
874.025	10552.28
874.344	10445.39
874.663	10486.29
874.982	10405.62
875.301	10447.42
875.62	10327.65
875.939	10303.7
876.258	10394.32
876.577	10334.66
876.896	10338.05
877.214	10315.9
877.533	10235.23
877.852	10310.48
878.17	10279.07
878.489	10314.32
878.807	10248.11
879.125	10226.19
879.444	10188.22
879.762	10098.73
880.08	10105.74
880.398	10209.46
880.716	10136.24
881.034	10120.2
881.352	10129.47
881.67	10057.15
881.988	10058.05
882.306	10024.61
882.624	9980.09
882.941	9990.26
883.259	9911.17
883.577	9919.75
883.894	9863.48
884.212	9854.67
884.529	9815.12
884.846	9839.98
885.164	9818.96
885.481	9835.01
885.798	9762.7
886.115	9679.99
886.432	9687.67
886.75	9650.83
887.067	9688.35
887.383	9661
887.7	9669.59
888.017	9622.59
888.334	9606.32
888.651	9566.99
888.967	9531.06
889.284	9491.97
889.6	9433.89
889.917	9382.14
890.233	9398.41
890.55	9338.98
890.866	9367.9
891.182	9337.85
891.498	9346.21
891.815	9283.16
892.131	9236.61
892.447	9229.38
892.763	9196.83
893.079	9181.69
893.395	9155.71
893.71	9119.32
894.026	9104.86
894.342	9045.88
894.657	8992.32
894.973	8982.38
895.289	8957.29
895.604	8974.92
895.92	8866.67
896.235	8884.53
896.55	8895.6
896.865	8849.5
897.181	8847.47
897.496	8815.83
897.811	8819.67
898.126	8708.26
898.441	8630.97
898.756	8636.17
899.071	8611.99
899.386	8603.18
899.7	8515.72
900.015	8530.41
900.33	8437.53
900.644	8443.18
900.959	8434.37
901.273	8414.48
901.588	8323.64
901.902	8310.53
902.216	8272.11
902.531	8242.96
902.845	8280.25
903.159	8202.51
903.473	8179.69
903.787	8165
904.101	8102.63
904.415	8125.45
904.729	8081.84
905.042	7980.6
905.356	7948.51
905.67	7966.58
905.984	7959.8
906.297	7950.99
906.611	7838.9
906.924	7847.04
907.237	7791.45
907.551	7759.81
907.864	7719.59
908.177	7680.49
908.491	7687.5
908.804	7664.22
909.117	7644.78
909.43	7600.72
909.743	7531.34
910.056	7563.88
910.368	7475.3
910.681	7454.51
910.994	7461.29
911.307	7450.89
911.619	7360.05
911.932	7342.42
912.244	7278.47
912.557	7291.35
912.869	7205.93
913.181	7217.45
913.494	7223.33
913.806	7145.14
914.118	7150.79
914.43	7130.45
914.742	7111.92
915.054	7027.63
915.366	6987.63
915.678	6975.2
915.99	6959.15
916.302	6892.26
916.613	6844.35
916.925	6845.71
917.236	6803
917.548	6814.52
917.859	6850.23
918.171	6772.49
918.482	6760.29
918.794	6702.89
919.105	6669.67
919.416	6673.51
919.727	6634.19
920.038	6631.93
920.349	6520.07
920.66	6523.23
920.971	6544.02
921.282	6451.37
921.593	6434.65
921.903	6375.89
922.214	6386.51
922.525	6343.8
922.835	6353.75
923.146	6344.93
923.456	6300.41
923.767	6323.24
924.077	6268.32
924.387	6234.65
924.697	6202.11
925.008	6181.55
925.318	6151.49
925.628	6171.38
925.938	6121.44
926.248	6132.96
926.558	6076.01
926.867	6059.52
927.177	6036.01
927.487	5961.89
927.796	5958.73
928.106	5917.82
928.416	5922.34
928.725	5849.13
929.034	5835.34
929.344	5841.89
929.653	5834.21
929.962	5807.55
930.271	5781.33
930.581	5711.95
930.89	5730.48
931.199	5673.99
931.508	5708.56
931.817	5631.28
932.125	5634.44
932.434	5627.21
932.743	5563.03
933.051	5512.41
933.36	5530.94
933.669	5483.49
933.977	5472.41
934.286	5452.98
934.594	5441.45
934.902	5368.91
935.21	5394.22
935.519	5396.48
935.827	5373.43
936.135	5311.74
936.443	5295.02
936.751	5261.34
937.059	5280.1
937.367	5196.71
937.674	5196.71
937.982	5221.57
938.29	5165.08
938.597	5180.44
938.905	5093.67
939.213	5125.98
939.52	5090.73
939.827	5133.66
940.135	5028.36
940.442	4988.58
940.749	5000.56
941.056	4963.95
941.363	4973.67
941.67	4965.53
941.977	4933.9
942.284	4879.89
942.591	4898.19
942.898	4864.97
943.205	4880.34
943.511	4812.77
943.818	4791.98
944.125	4780
944.431	4770.74
944.738	4734.8
945.044	4684.41
945.35	4631.98
945.657	4700.23
945.963	4651.19
946.269	4614.58
946.575	4573.45
946.881	4554.7
947.187	4578.65
947.493	4517.41
947.799	4550.85
948.105	4480.57
948.41	4467.69
948.716	4508.37
949.022	4435.6
949.327	4449.84
949.633	4413.46
949.938	4425.43
950.244	4399.67
950.549	4372.78
950.854	4320.58
951.16	4338.66
951.465	4294.59
951.77	4297.3
952.075	4260.47
952.38	4267.02
952.685	4244.42
952.99	4226.34
953.294	4182.95
953.599	4179.79
953.904	4165.33
954.209	4086.91
954.513	4160.81
954.818	4166.46
955.122	4073.81
955.426	4041.72
955.731	4036.97
956.035	4025.22
956.339	4012.79
956.643	3991.32
956.948	3931.89
957.252	3964.88
957.556	3960.81
957.86	3947.25
958.163	3920.14
958.467	3910.42
958.771	3883.53
959.075	3872.23
959.378	3859.57
959.682	3891.89
959.985	3824.77
960.289	3782.29
960.592	3767.82
960.896	3745.9
961.199	3771.89
961.502	3732.35
961.805	3737.99
962.108	3700.71
962.411	3713.36
962.714	3666.36
963.017	3649.86
963.32	3632.24
963.623	3636.53
963.926	3622.29
964.228	3552.46
964.531	3575.29
964.833	3602.41
965.136	3563.76
965.438	3537.32
965.741	3520.15
966.043	3492.35
966.345	3486.02
966.648	3456.42
966.95	3454.16
967.252	3421.85
967.554	3453.48
967.856	3409.42
968.158	3374.84
968.46	3357.21
968.761	3371.68
969.063	3379.13
969.365	3323.32
969.666	3318.8
969.968	3272.24
970.269	3311.34
970.571	3276.54
970.872	3261.4
971.174	3244.67
971.475	3238.12
971.776	3227.73
972.077	3208.29
972.378	3185.69
972.679	3209.2
972.98	3202.19
973.281	3154.06
973.582	3142.53
973.883	3120.61
974.183	3091.46
974.484	3109.31
974.785	3091.68
975.085	3055.98
975.386	3084.23
975.686	3051.69
975.986	2995.87
976.287	3028.41
976.587	2991.12
976.887	2987.51
977.187	3016.88
977.487	2983.66
977.787	2952.25
978.087	2935.3
978.387	2909.77
978.687	2931.01
978.987	2880.16
979.286	2854.85
979.586	2851.92
979.885	2861.63
980.185	2843.78
980.484	2804.01
980.784	2805.36
981.083	2797.23
981.382	2791.58
981.682	2768.3
981.981	2763.78
982.28	2752.48
982.579	2742.77
982.878	2752.03
983.177	2722.88
983.475	2716.33
983.774	2687.4
984.073	2681.98
984.372	2677.68
984.67	2682.88
984.969	2652.6
985.267	2619.38
985.566	2630.23
985.864	2582.09
986.162	2597.23
986.461	2572.38
986.759	2575.31
987.057	2547.07
987.355	2551.36
987.653	2547.52
987.951	2541.87
988.249	2503.68
988.547	2503.68
988.844	2472.72
989.142	2470.46
989.44	2497.8
989.737	2465.03
990.035	2421.65
990.332	2425.94
990.63	2402.66
990.927	2404.02
991.224	2410.57
991.521	2374.87
991.819	2380.29
992.116	2355.21
992.413	2358.14
992.71	2337.35
993.006	2359.95
993.303	2370.35
993.6	2353.17
993.897	2305.94
994.193	2326.73
994.49	2295.55
994.787	2287.86
995.083	2280.41
995.379	2256.9
995.676	2231.37
995.972	2275.89
996.268	2234.76
996.565	2209
996.861	2230.69
997.157	2183.69
997.453	2150.24
997.749	2174.19
998.044	2137.81
998.34	2178.94
998.636	2148.21
998.932	2143.46
999.227	2109.56
999.523	2154.53
999.818	2110.02
1000.114	2082.45
1000.409	2046.97
1000.704	2052.84
1001	2039.73
1001.295	2025.05
1001.59	2023.46
1001.885	2020.75
1002.18	1994.76
1002.475	1973.52
1002.77	1971.71
1003.065	1977.82
1003.359	1984.37
1003.654	1957.7
1003.949	1951.38
1004.243	1952.28
1004.538	1903.24
1004.832	1938.49
1005.127	1896.01
1005.421	1885.16
1005.715	1884.26
1006.009	1838.84
1006.304	1857.37
1006.598	1879.51
1006.892	1831.15
1007.186	1792.51
1007.48	1854.88
1007.773	1811.94
1008.067	1795.45
1008.361	1786.41
1008.655	1780.53
1008.948	1768.1
1009.242	1757.26
1009.535	1703.02
1009.829	1748.44
1010.122	1715
1010.415	1734.66
1010.708	1705.05
1011.001	1687.2
1011.295	1732.85
1011.588	1690.37
1011.881	1660.31
1012.173	1630.03
1012.466	1626.19
1012.759	1640.2
1013.052	1626.19
1013.344	1623.7
1013.637	1606.75
1013.93	1606.75
1014.222	1581.44
1014.514	1585.06
1014.807	1583.25
1015.099	1545.74
1015.391	1548.45
1015.683	1535.79
1015.976	1536.24
1016.268	1510.03
1016.56	1508.22
1016.851	1502.12
1017.143	1495.34
1017.435	1472.07
1017.727	1504.38
1018.018	1461.22
1018.31	1453.08
1018.602	1439.98
1018.893	1437.49
1019.185	1435.46
1019.476	1429.13
1019.767	1407.43
1020.058	1402.69
1020.35	1420.77
1020.641	1399.3
1020.932	1403.14
1021.223	1373.31
1021.514	1366.98
1021.804	1360.66
1022.095	1317.72
1022.386	1317.72
1022.677	1337.15
1022.967	1309.58
1023.258	1325.18
1023.548	1312.97
1023.839	1322.69
1024.129	1315.01
1024.419	1307.55
1024.709	1256.25
1025	1248.79
1025.29	1259.64
1025.58	1247.21
1025.87	1240.89
1026.16	1223.48
1026.449	1202.69
1026.739	1227.1
1027.029	1226.42
1027.319	1180.32
1027.608	1198.85
1027.898	1163.37
1028.187	1202.02
1028.477	1173.09
1028.766	1175.35
1029.055	1164.96
1029.344	1145.52
1029.634	1139.42
1029.923	1124.05
1030.212	1105.3
1030.501	1121.79
1030.79	1112.08
1031.078	1083.15
1031.367	1059.87
1031.656	1093.09
1031.945	1072.3
1032.233	1055.35
1032.522	1065.97
1032.81	1073.43
1033.099	1070.72
1033.387	1050.38
1033.675	1036.37
1033.963	1021.46
1034.251	1022.81
1034.54	1035.24
1034.828	988.69
1035.116	1007.9
1035.403	1021.68
1035.691	1005.41
1035.979	969.48
1036.267	976.71
1036.554	986.88
1036.842	952.98
1037.129	952.76
1037.417	965.64
1037.704	960.21
1037.992	942.59
1038.279	935.81
1038.566	914.57
1038.853	914.57
1039.14	914.57
