Data from hue_32_FLMS001491_00013.txt Node
Date: Tue Feb 07 17:22:58 GMT 2017
User: dcchb
Spectrometer: FLMS00149
Trigger mode: 0
Integration Time (sec): 2.000000E-2
Scans to average: 10
Electric dark correction enabled: true
Nonlinearity correction enabled: false
Boxcar width: 0
XAxis mode: Wavelengths
Number of Pixels in Spectrum: 2048
>>>>>Begin Spectral Data<<<<<
341.393	5.51
341.776	5.51
342.16	5.51
342.543	-48.5
342.927	-57.99
343.31	-60.25
343.693	-58.9
344.077	-87.6
344.46	-34.04
344.843	-66.13
345.226	-52.12
345.61	-29.74
345.993	-18.22
346.376	-16.19
346.759	4.83
347.142	14.1
347.525	52.96
347.908	45.51
348.291	86.64
348.674	99.29
349.057	119.86
349.44	117.37
349.823	157.82
350.206	153.98
350.588	208.21
350.971	210.02
351.354	225.16
351.737	251.83
352.119	260.42
352.502	271.49
352.884	285.27
353.267	283.47
353.65	308.55
354.032	314.43
354.414	310.13
354.797	316.69
355.179	327.99
355.562	320.75
355.944	339.06
356.326	337.25
356.709	346.97
357.091	320.75
357.473	345.61
357.855	363.01
358.238	365.05
358.62	365.05
359.002	347.19
359.384	341.09
359.766	345.61
360.148	345.16
360.53	333.41
360.912	336.57
361.294	344.93
361.676	340.87
362.057	340.41
362.439	347.42
362.821	330.47
363.203	321.43
363.584	337.25
363.966	331.15
364.348	339.74
364.729	328.89
365.111	356.69
365.493	318.04
365.874	307.2
366.256	317.59
366.637	302.9
367.019	330.92
367.4	341.77
367.781	330.47
368.163	338.15
368.544	313.52
368.925	299.74
369.306	338.61
369.688	318.04
370.069	311.26
370.45	326.63
370.831	306.74
371.212	315.56
371.593	339.51
371.974	333.86
372.355	347.87
372.736	343.8
373.117	346.97
373.498	327.53
373.879	326.4
374.26	328.21
374.641	305.39
375.021	322.56
375.402	310.36
375.783	348.32
376.163	340.87
376.544	337.25
376.925	330.7
377.305	334.09
377.686	328.66
378.066	351.71
378.447	334.77
378.827	338.83
379.208	324.6
379.588	350.13
379.968	319.85
380.349	362.11
380.729	356.46
381.109	338.38
381.489	331.38
381.87	353.07
382.25	369.57
382.63	355.56
383.01	353.52
383.39	346.06
383.77	347.87
384.15	361.66
384.53	362.79
384.91	337.48
385.29	362.56
385.67	361.66
386.049	373.86
386.429	345.61
386.809	358.72
387.189	373.18
387.568	364.37
387.948	361.21
388.328	367.53
388.707	383.8
389.087	355.78
389.466	378.83
389.846	369.79
390.225	357.82
390.605	376.12
390.984	368.21
391.363	367.53
391.743	372.96
392.122	373.41
392.501	382
392.881	355.78
393.26	381.54
393.639	391.49
394.018	370.47
394.397	370.47
394.776	378.61
395.155	386.29
395.534	378.61
395.913	377.25
396.292	386.74
396.671	394.88
397.05	397.81
397.429	395.55
397.808	395.1
398.186	373.41
398.565	409.79
398.944	391.03
399.323	406.63
399.701	413.41
400.08	385.61
400.458	409.79
400.837	406.85
401.215	416.34
401.594	391.03
401.972	407.76
402.351	451.37
402.729	434.65
403.107	395.33
403.486	442.56
403.864	401.88
404.242	443.91
404.62	440.3
404.999	416.8
405.377	436.91
405.755	429.68
406.133	438.72
406.511	434.88
406.889	423.35
407.267	440.75
407.645	448.21
408.023	452.05
408.401	443.91
408.779	452.5
409.156	463.12
409.534	445.72
409.912	482.56
410.29	460.19
410.667	492.5
411.045	478.04
411.422	454.99
411.8	450.47
412.178	476.68
412.555	458.6
412.933	492.73
413.31	502.67
413.687	500.18
414.065	481.2
414.442	470.81
414.819	494.31
415.197	494.99
415.574	496.57
415.951	506.96
416.328	507.42
416.705	488.21
417.082	530.47
417.46	511.48
417.837	506.74
418.214	529.56
418.591	504.25
418.967	533.63
419.344	523.01
419.721	527.75
420.098	531.14
420.475	510.81
420.852	546.51
421.228	550.35
421.605	560.3
421.982	546.06
422.358	541.31
422.735	544.03
423.111	559.17
423.488	541.77
423.864	565.49
424.241	592.16
424.617	585.61
424.994	564.36
425.37	567.3
425.746	568.21
426.123	591.71
426.499	580.86
426.875	583.57
427.251	607.75
427.627	603.68
428.003	612.95
428.379	611.37
428.756	605.27
429.132	613.63
429.507	628.99
429.883	619.05
430.259	633.74
430.635	634.19
431.011	637.36
431.387	649.56
431.763	633.29
432.138	642.55
432.514	662.21
432.89	644.14
433.265	665.15
433.641	683.46
434.016	661.99
434.392	662.89
434.767	688.43
435.143	708.31
435.518	689.56
435.894	710.35
436.269	738.6
436.644	720.52
437.02	725.26
437.395	742.89
437.77	717.35
438.145	724.81
438.52	746.51
438.895	765.94
439.271	751.03
439.646	744.92
440.021	765.71
440.395	782.66
440.77	806.39
441.145	781.99
441.52	764.81
441.895	802.78
442.27	788.99
442.645	789.67
443.019	804.58
443.394	823.79
443.769	798.71
444.143	820.18
444.518	829.44
444.892	810.23
445.267	855.2
445.641	837.35
446.016	828.54
446.39	821.31
446.764	846.16
447.139	849.55
447.513	857.46
447.887	850.01
448.262	861.31
448.636	860.63
449.01	899.95
449.384	894.07
449.758	885.26
450.132	879.61
450.506	891.13
450.88	908.99
451.254	900.4
451.628	906.73
452.002	908.99
452.376	925.48
452.75	959.83
453.123	935.43
453.497	937.24
453.871	983.34
454.244	969.32
454.618	983.56
454.992	981.98
455.365	981.53
455.739	999.83
456.112	1039.38
456.486	1020.62
456.859	1012.49
457.232	1055.65
457.606	1034.41
457.979	1056.1
458.352	1084.8
458.725	1055.65
459.099	1065.59
459.472	1092.03
459.845	1124.8
460.218	1109.21
460.591	1102.65
460.964	1124.8
461.337	1140.17
461.71	1163.44
462.083	1170.68
462.456	1184.23
462.829	1178.58
463.201	1204.57
463.574	1218.58
463.947	1226.27
464.32	1258.36
464.692	1267.17
465.065	1288.19
465.438	1299.49
465.81	1336.32
466.183	1335.42
466.555	1369.31
466.928	1346.49
467.3	1370.9
467.672	1389.43
468.045	1440.05
468.417	1414.06
468.789	1440.72
469.161	1459.48
469.534	1452.02
469.906	1509.88
470.278	1531.12
470.65	1532.47
471.022	1594.85
471.394	1584.68
471.766	1603.66
472.138	1648.63
472.51	1689.98
472.882	1696.99
473.253	1728.85
473.625	1761.85
473.997	1778.57
474.369	1804.11
474.74	1833.03
475.112	1877.32
475.484	1916.19
475.855	1981.73
476.227	1953.03
476.598	2029.18
476.97	2042.74
477.341	2139.24
477.713	2107.6
478.084	2187.15
478.455	2287.71
478.827	2255.84
479.198	2357.08
479.569	2355.5
479.94	2449.51
480.311	2516.18
480.682	2553.24
481.053	2635.72
481.424	2707.13
481.795	2776.06
482.166	2836.85
482.537	2852.67
482.908	2934.02
483.279	3006.33
483.65	3062.15
484.021	3154.35
484.391	3201.13
484.762	3299.43
485.133	3310.73
485.503	3395.7
485.874	3492.2
486.244	3541.01
486.615	3611.06
486.985	3749.59
487.356	3801.11
487.726	3810.61
488.097	3948.23
488.467	4017.61
488.837	4166.98
489.207	4229.13
489.578	4305.28
489.948	4313.19
490.318	4425.73
490.688	4518.38
491.058	4629.34
491.428	4682
491.798	4769.45
492.168	4846.74
492.538	4961.76
492.908	5034.98
493.278	5124.02
493.648	5143.23
494.017	5269.78
494.387	5357.91
494.757	5404.91
495.126	5535.53
495.496	5499.38
495.866	5611.91
496.235	5723.55
496.605	5817.33
496.974	5817.11
497.344	5945.92
497.713	6005.12
498.082	6064.78
498.452	6152.69
498.821	6180.49
499.19	6275.4
499.559	6338
499.928	6368.05
500.298	6436.53
500.667	6504.77
501.036	6571.44
501.405	6600.36
501.774	6693.02
502.143	6778.89
502.512	6839.45
502.88	6874.93
503.249	6865.89
503.618	7006.91
503.987	7024.98
504.356	7076.06
504.724	7130.52
505.093	7169.61
505.462	7239.22
505.83	7323.51
506.199	7354.47
506.567	7463.62
506.936	7478.76
507.304	7488.7
507.672	7622.03
508.041	7650.51
508.409	7741.58
508.777	7778.41
509.145	7891.85
509.514	7856.83
509.882	8051.17
510.25	7946.99
510.618	8035.13
510.986	8030.83
511.354	8104.5
511.722	8161.9
512.09	8280.09
512.458	8294.56
512.826	8360.77
513.193	8399.86
513.561	8414.78
513.929	8448.22
514.297	8519.18
514.664	8585.85
515.032	8609.35
515.4	8715.79
515.767	8726.86
516.135	8755.11
516.502	8681.66
516.869	8927.31
517.237	8917.82
517.604	8867.2
517.972	9037.36
518.339	9010.02
518.706	9110.58
519.073	9090.92
519.44	9184.7
519.808	9241.2
520.175	9224.93
520.542	9328.43
520.909	9377.47
521.276	9313.74
521.643	9459.27
522.009	9515.09
522.376	9519.83
522.743	9613.17
523.11	9637.57
523.477	9800.51
523.843	9826.72
524.21	9943.55
524.577	9940.84
524.943	10015.87
525.31	10046.37
525.676	10208.86
526.043	10223.32
526.409	10173.38
526.776	10336.76
527.142	10304.22
527.508	10348.97
527.874	10465.8
528.241	10515.74
528.607	10564.78
528.973	10688.39
529.339	10673.93
529.705	10738.56
530.071	10824.43
530.437	10810.2
530.803	10964.54
531.169	11027.14
531.535	10992.79
531.901	11107.36
532.267	11127.48
532.632	11157.08
532.998	11209.51
533.364	11325.66
533.73	11265.78
534.095	11415.83
534.461	11454.7
534.826	11461.93
535.192	11488.6
535.557	11611.76
535.923	11618.99
536.288	11696.05
536.653	11690.4
537.019	11708.48
537.384	11720.45
537.749	11751.41
538.114	11808.14
538.479	11899.66
538.845	11889.49
539.21	11927.23
539.575	12006.55
539.94	12049.03
540.305	12147.11
540.67	12110.73
541.034	12199.09
541.399	12263.94
541.764	12334
542.129	12332.64
542.494	12340.33
542.858	12415.13
543.223	12484.73
543.587	12580.77
543.952	12479.98
544.316	12595.01
544.681	12647.44
545.045	12783.48
545.41	12750.94
545.774	12828.22
546.138	12954.09
546.503	12863.25
546.867	12944.6
547.231	13032.28
547.595	13062.57
547.959	13106.63
548.324	13142.11
548.688	13111.38
549.052	13245.84
549.416	13229.79
549.779	13277.48
550.143	13350.92
550.507	13416.23
550.871	13467.53
551.235	13492.84
551.599	13551.82
551.962	13600.41
552.326	13625.94
552.689	13780.29
553.053	13671.82
553.417	13762.89
553.78	13989.77
554.143	13834.07
554.507	13959.72
554.87	13869.32
555.234	14029.55
555.597	14017.8
555.96	14128.3
556.323	14136.21
556.686	14043.11
557.05	14289.43
557.413	14290.33
557.776	14349.76
558.139	14287.84
558.502	14375.07
558.865	14478.57
559.228	14442.64
559.59	14564.67
559.953	14563.77
560.316	14698.68
560.679	14744.78
561.041	14842.18
561.404	14925.34
561.767	14938.22
562.129	14940.71
562.492	15076.52
562.854	15025.9
563.217	15049.86
563.579	15145.68
563.941	15291.89
564.304	15286.91
564.666	15335.73
565.028	15403.3
565.39	15415.27
565.753	15561.48
566.115	15562.39
566.477	15643.74
566.839	15650.75
567.201	15728.71
567.563	15654.14
567.925	15855.26
568.287	15867.46
568.648	15925.32
569.01	16001.02
569.372	16135.03
569.734	16160.56
570.095	16288.92
570.457	16284.18
570.819	16278.07
571.18	16408.92
571.542	16495.92
571.903	16503.83
572.265	16614.11
572.626	16705.41
572.987	16781.79
573.349	16761.68
573.71	16917.38
574.071	17014.33
574.432	17058.39
574.794	17167.77
575.155	17193.76
575.516	17302.68
575.877	17466.52
576.238	17418.38
576.599	17598.72
576.96	17643.69
577.32	17761.88
577.681	17922.55
578.042	18057.46
578.403	18099.5
578.763	18272.15
579.124	18436.89
579.485	18499.26
579.845	18750.1
580.206	18759.82
580.566	19047.49
580.927	19125.46
581.287	19338.56
581.648	19483.87
582.008	19661.71
582.368	19860.58
582.728	19989.16
583.089	20111.19
583.449	20485.65
583.809	20516.61
584.169	20882.25
584.529	20925.18
584.889	21208.57
585.249	21379.86
585.609	21502.12
585.969	21901.2
586.329	22018.94
586.688	22236.11
587.048	22546.16
587.408	22724.68
587.768	22771.24
588.127	23109.31
588.487	23285.8
588.846	23820.7
589.206	23920.59
589.565	24194.93
589.925	24450.74
590.284	24771.86
590.643	25001.01
591.003	25256.6
591.362	25578.17
591.721	25851.61
592.08	26104.26
592.44	26424.02
592.799	26672.83
593.158	27029.88
593.517	27184.68
593.876	27595.07
594.235	27730.88
594.593	27977.2
594.952	28412.9
595.311	28448.83
595.67	28879.33
596.029	29080.9
596.387	29506.43
596.746	29652.64
597.104	29890.82
597.463	30074.55
597.822	30383.47
598.18	30530.58
598.538	30793.63
598.897	31272.93
599.255	31331.69
599.613	31919.7
599.972	31961.96
600.33	32287.82
600.688	32290.31
601.046	32675.38
601.404	33035.6
601.762	33281.24
602.12	33553.55
602.478	33803.26
602.836	33954.67
603.194	33979.53
603.552	34254.55
603.91	34376.58
604.268	34753.52
604.625	34891.37
604.983	35218.14
605.341	35356.44
605.698	35701.29
606.056	35745.81
606.413	36076.42
606.771	36209.3
607.128	36582.4
607.485	36501.05
607.843	36833.69
608.2	37119.79
608.557	37145.77
608.914	37416.73
609.272	37778.3
609.629	37778.75
609.986	38211.06
610.343	37997.96
610.7	38482.24
611.057	38563.82
611.414	38761.78
611.771	38936.24
612.127	39240.86
612.484	39288.09
612.841	39396.56
613.198	39438.6
613.554	39551.14
613.911	39803.56
614.267	39993.16
614.624	40101.63
614.98	40202.42
615.337	40511.34
615.693	40551.56
616.05	40626.36
616.406	40923.98
616.762	40996.97
617.118	40908.39
617.475	41124.65
617.831	41396.28
618.187	41495.04
618.543	41725.32
618.899	41934.12
619.255	41834.46
619.611	41813.45
619.967	42123.72
620.323	42364.85
620.678	42223.83
621.034	42217.51
621.39	42357.39
621.746	42322.36
622.101	42763.71
622.457	42619.98
622.812	42774.33
623.168	42823.59
623.523	42923.02
623.879	43014.09
624.234	42747.44
624.589	43124.6
624.945	43141.1
625.3	43337.25
625.655	43147.65
626.01	43399.62
626.365	43418.6
626.72	43455.21
627.075	43443.01
627.43	43446.17
627.785	43510.13
628.14	43642.1
628.495	43813.62
628.85	43766.84
629.205	43533.63
629.559	43981.3
629.914	43558.49
630.269	43678.48
630.623	43741.76
630.978	43770.01
631.332	43872.6
631.687	43931.81
632.041	43942.66
632.396	43874.19
632.75	43900.85
633.104	43873.73
633.459	43738.14
633.813	43789.67
634.167	43814.53
634.521	43793.06
634.875	43849.78
635.229	43802.32
635.583	43517.81
635.937	43716.68
636.291	43570.01
636.645	43661.76
636.999	43713.74
637.352	43939.72
637.706	43645.94
638.06	43920.96
638.413	43644.13
638.767	43735.88
639.121	43723.45
639.474	43578.83
639.828	43686.17
640.181	43690.01
640.534	43696.79
640.888	43508.77
641.241	43465.61
641.594	43456.57
641.947	43609.33
642.301	43559.39
642.654	43524.82
643.007	43657.69
643.36	43569.11
643.713	43520.07
644.066	43462.9
644.419	43372.73
644.771	43108.33
645.124	42815.23
645.477	42521
645.83	42388.35
646.182	42335.24
646.535	42134.12
646.888	42369.59
647.24	42132.99
647.593	42417.05
647.945	42182.48
648.298	42164.85
648.65	42052.09
649.002	41854.13
649.355	42041.69
649.707	42085.98
650.059	42303.38
650.411	42788.11
650.763	42748.79
651.115	43056.35
651.467	43083.02
651.819	43046.64
652.171	43022.91
652.523	42910.59
652.875	42963.93
653.227	42622.92
653.578	43052.06
653.93	42863.59
654.282	42731.62
654.633	42752.18
654.985	42796.02
655.337	42766.42
655.688	42821.56
656.039	43112.85
656.391	42564.62
656.742	42620.21
657.094	42577.27
657.445	42677.38
657.796	42774.55
658.147	42669.02
658.498	42631.96
658.849	42752.86
659.2	42552.86
659.551	42525.97
659.902	42733.88
660.253	42589.93
660.604	42633.54
660.955	42383.6
661.306	42636.7
661.656	42530.04
662.007	42490.49
662.358	42543.82
662.708	42552.86
663.059	42454.56
663.409	42459.31
663.76	42489.81
664.11	42534.33
664.461	42609.36
664.811	42551.28
665.161	42578.63
665.511	42497.72
665.862	42447.78
666.212	42663.14
666.562	42503.83
666.912	42276.04
667.262	42318.75
667.612	42497.05
667.962	42445.52
668.312	42439.65
668.662	42523.71
669.011	42421.34
669.361	42317.62
669.711	42312.87
670.06	42216.6
670.41	42269.48
670.76	42062.03
671.109	42434.68
671.459	42325.07
671.808	42164.63
672.157	42110.62
672.507	42045.08
672.856	42069.94
673.205	42125.98
673.554	42327.56
673.904	42167.56
674.253	42278.52
674.602	42154.91
674.951	41794.24
675.3	41377.98
675.649	42056.83
675.998	42021.35
676.346	42130.05
676.695	42168.24
677.044	41876.95
677.393	42141.58
677.741	42094.8
678.09	41976.61
678.438	41754.02
678.787	41871.75
679.135	41871.07
679.484	41545.66
679.832	41770.29
680.181	41648.93
680.529	41517.86
680.877	41539.33
681.225	41584.98
681.573	41797.86
681.922	41482.16
682.27	41218.89
682.618	41508.6
682.966	41337.53
683.314	41301.15
683.661	41249.85
684.009	41090.53
684.357	40943.41
684.705	40965.56
685.053	41007.59
685.4	40969.18
685.748	40627.49
686.095	40727.83
686.443	40701.16
686.79	40528.06
687.138	40680.15
687.485	40753.14
687.832	40491.9
688.18	40471.11
688.527	40239.03
688.874	40322.87
689.221	40147.05
689.568	40084.68
689.915	40070.44
690.262	40069.09
690.609	39868.41
690.956	39848.53
691.303	39670.68
691.65	39548.2
691.997	39557.69
692.344	39302.1
692.69	39333.51
693.037	39295.77
693.383	39008.32
693.73	39006.97
694.077	38849.68
694.423	38943.24
694.769	38859.4
695.116	38863.24
695.462	38731.72
695.808	38603.59
696.155	38572.4
696.501	38230.04
696.847	38272.07
697.193	38262.36
697.539	38333.31
697.885	38005.64
698.231	37897.17
698.577	37967
698.923	37847
699.269	37634.58
699.614	37541.92
699.96	37574.01
700.306	37566.1
700.651	37303.74
700.997	37218.54
701.342	37148.71
701.688	37091.09
702.033	36967.25
702.379	37031.65
702.724	36838.44
703.069	36874.6
703.415	36455.62
703.76	36605.45
704.105	36440.71
704.45	36377.21
704.795	36151.9
705.14	36009.76
705.485	36031.91
705.83	35841.85
706.175	36012.92
706.52	35807.5
706.865	35772.7
707.209	35724.12
707.554	35674.17
707.899	35537
708.243	35442.32
708.588	35518.02
708.932	35228.31
709.277	35225.15
709.621	35212.72
709.966	34918.94
710.31	35099.27
710.654	34686.63
710.998	34986.51
711.342	34714.43
711.687	34671.26
712.031	34541.78
712.375	34430.59
712.719	34411.61
713.063	34509.01
713.407	34507.2
713.75	34410.93
714.094	34401.21
714.438	34165.06
714.782	34094.1
715.125	33956.25
715.469	34088.91
715.812	33961
716.156	33812.3
716.499	33731.18
716.843	33707.9
717.186	33655.02
717.53	33689.37
717.873	33714.68
718.216	33615.02
718.559	33481.92
718.902	33328.25
719.246	33396.72
719.589	33230.4
719.932	33202.83
720.275	33165.09
720.617	33156.05
720.96	33083.73
721.303	32997.41
721.646	32935.04
721.989	32798.77
722.331	33013.91
722.674	32766.91
723.016	33032.66
723.359	32739.34
723.701	32776.85
724.044	32536.4
724.386	32349.97
724.729	32440.36
725.071	32384.09
725.413	32375.73
725.755	32370.99
726.097	32284.89
726.439	32027.27
726.782	32147.49
727.124	32172.12
727.465	32019.81
727.807	32088.05
728.149	31886.03
728.491	31899.58
728.833	31927.38
729.175	31792.7
729.516	31709.31
729.858	31682.19
730.199	31742.98
730.541	31660.04
730.882	31647.84
731.224	31693.26
731.565	31475.87
731.906	31505.02
732.248	31509.99
732.589	31337.57
732.93	31250.79
733.271	31242.43
733.612	31286.72
733.953	31433.83
734.294	31120.85
734.635	31043.11
734.976	31139.83
735.317	31035.43
735.658	31022.09
735.999	30928.54
736.339	31034.07
736.68	30978.93
737.021	30895.54
737.361	30732.61
737.702	30902.32
738.042	30736
738.383	30687.64
738.723	30663.69
739.063	30658.94
739.404	30694.42
739.744	30645.38
740.084	30423.69
740.424	30515.67
740.764	30420.53
741.104	30494.42
741.444	30375.33
741.784	30225.28
742.124	30374.43
742.464	30136.92
742.804	30078.39
743.143	30042.91
743.483	30167.2
743.823	29911.16
744.162	29867.55
744.502	29953.65
744.841	29787.78
745.181	29887.43
745.52	29769.25
745.86	29797.49
746.199	29783.71
746.538	29696.25
746.877	29879.53
747.216	29722.02
747.556	29656.48
747.895	29628.91
748.234	29502.36
748.573	29515.92
748.911	29393.44
749.25	29499.87
749.589	29259.2
749.928	29336.94
750.267	29354.34
750.605	29276.83
750.944	29168.13
751.283	29147.79
751.621	29223.27
751.96	29021.47
752.298	28976.95
752.636	29152.76
752.975	29008.59
753.313	28764.75
753.651	28911.19
753.989	28648.15
754.327	28607.92
754.666	28490.41
755.004	28630.74
755.342	28517.08
755.679	28458.55
756.017	28426
756.355	28303.52
756.693	28291.54
757.031	28403.86
757.368	28107.37
757.706	28115.5
758.044	27952.8
758.381	28045.68
758.719	27919.8
759.056	27871.67
759.394	27750.99
759.731	27664.89
760.068	27584.9
760.405	27569.76
760.743	27498.8
761.08	27394.39
761.417	27241.18
761.754	27268.52
762.091	27097.68
762.428	27134.06
762.765	26919.6
763.102	27069.88
763.438	26941.75
763.775	26824.01
764.112	26787.85
764.449	26826.5
764.785	26682.32
765.122	26558.71
765.458	26361.43
765.795	26341.31
766.131	26344.7
766.467	26217.47
766.804	26165.72
767.14	26001.66
767.476	26040.76
767.812	25942.91
768.148	25832.85
768.485	25715.34
768.821	25572.75
769.157	25651.16
769.492	25485.29
769.828	25527.55
770.164	25330.49
770.5	25185.19
770.836	25202.81
771.171	24997.17
771.507	24984.74
771.842	24854.12
772.178	24801.01
772.513	24709.04
772.849	24541.36
773.184	24580
773.519	24536.61
773.855	24346.34
774.19	24197.64
774.525	24197.87
774.86	24227.7
775.195	24153.57
775.53	24013.69
775.865	23960.58
776.2	23742.74
776.535	23661.38
776.87	23560.14
777.205	23410.54
777.539	23462.29
777.874	23502.29
778.209	23215.52
778.543	23338
778.878	23123.32
779.212	23074.05
779.547	22938.69
779.881	23005.13
780.215	22723.56
780.55	22926.49
780.884	22637.91
781.218	22589.1
781.552	22574.86
781.886	22453.05
782.22	22274.98
782.554	22308.42
782.888	22077.02
783.222	21986.4
783.556	21968.32
783.889	21943.69
784.223	21868.44
784.557	21650.59
784.89	21738.95
785.224	21554.77
785.557	21496.24
785.891	21500.08
786.224	21307.32
786.558	21317.04
786.891	21113.88
787.224	20979.65
787.557	20990.95
787.891	20862.36
788.224	20969.25
788.557	20914.56
788.89	20809.48
789.223	20880.44
789.556	20557.28
789.888	20563.84
790.221	20411.75
790.554	20337.4
790.887	20266.9
791.219	20237.74
791.552	20123.4
791.884	20098.99
792.217	20097.64
792.549	20039.78
792.882	19787.36
793.214	19798.66
793.546	19823.97
793.879	19672.56
794.211	19571.32
794.543	19579.68
794.875	19560.47
795.207	19611.55
795.539	19356.41
795.871	19353.7
796.203	19235.29
796.535	19210.2
796.867	19121.16
797.198	19070.09
797.53	19115.06
797.862	18902.86
798.193	18954.61
798.525	18761.63
798.856	18850.89
799.188	18606.38
799.519	18659.48
799.85	18484.57
800.182	18561.18
800.513	18539.03
800.844	18377.23
801.175	18423.56
801.506	18417.68
801.837	18284.12
802.168	18243.67
802.499	18165.03
802.83	17971.14
803.161	18053.62
803.491	18040.06
803.822	17951.03
804.153	17913.96
804.483	17775.66
804.814	17720.97
805.145	17643.46
805.475	17767.53
805.805	17579.28
806.136	17606.4
806.466	17518.49
806.796	17530.47
807.126	17464.71
807.457	17418.38
807.787	17346.3
808.117	17224.26
808.447	17223.36
808.777	17226.98
809.107	17156.7
809.436	17153.08
809.766	17118.73
810.096	17045.29
810.426	17011.39
810.755	17038.96
811.085	16831.51
811.414	16817.27
811.744	16773.88
812.073	16774.78
812.403	16683.26
812.732	16607.56
813.061	16633.09
813.39	16436.71
813.719	16537.05
814.049	16607.56
814.378	16481.69
814.707	16400.78
815.036	16405.76
815.365	16229.26
815.693	16078.53
816.022	16161.47
816.351	16155.82
816.68	15923.06
817.008	16166.21
817.337	15895.49
817.665	15892.32
817.994	15954.24
818.322	15964.41
818.651	15853
818.979	15755.83
819.307	15876.5
819.636	15678.54
819.964	15651.2
820.292	15704.76
820.62	15661.82
820.948	15639.9
821.276	15756.73
821.604	15660.46
821.932	15692.55
822.259	15740.46
822.587	15634.25
822.915	15649.39
823.243	15622.05
823.57	15549.28
823.898	15601.48
824.225	15535.72
824.553	15496.63
824.88	15544.53
825.207	15554.48
825.535	15477.87
825.862	15579.34
826.189	15554.93
826.516	15554.25
826.843	15582.5
827.17	15560.58
827.497	15571.2
827.824	15492.11
828.151	15584.76
828.478	15545.44
828.805	15630.41
829.131	15566.91
829.458	15512.9
829.785	15403.52
830.111	15393.8
830.438	15557.19
830.764	15469.06
831.09	15519.68
831.417	15454.14
831.743	15468.38
832.069	15509.28
832.395	15445.33
832.722	15435.39
833.048	15436.52
833.374	15333.92
833.7	15363.3
834.026	15414.37
834.351	15364.88
834.677	15303.86
835.003	15387.7
835.329	15349.51
835.654	15328.04
835.98	15232.23
836.306	15245.11
836.631	15229.51
836.956	15262.51
837.282	15305.45
837.607	15215.05
837.932	15114.26
838.258	15115.85
838.583	15027.03
838.908	15034.49
839.233	15008.05
839.558	15038.56
839.883	14886.47
840.208	14890.99
840.533	14891.22
840.858	14832.01
841.182	14887.83
841.507	14886.7
841.832	14766.02
842.156	14673.6
842.481	14794.27
842.805	14740.71
843.13	14624.33
843.454	14688.96
843.778	14607.16
844.103	14524
844.427	14533.26
844.751	14488.29
845.075	14460.27
845.399	14468.18
845.723	14313.83
846.047	14274.29
846.371	14145.48
846.695	14256.21
847.019	14070
847.343	14034.07
847.666	13998.36
847.99	14017.12
848.313	13930.11
848.637	13892.15
848.96	13817.57
849.284	13804.47
849.607	13688.54
849.931	13658.03
850.254	13528.32
850.577	13487.19
850.9	13417.36
851.223	13450.58
851.546	13372.61
851.869	13286.97
852.192	13317.25
852.515	13162.68
852.838	13110.25
853.161	13212.17
853.483	13052.4
853.806	13069.8
854.129	12971.95
854.451	12937.82
854.774	12933.3
855.096	12875.68
855.419	12779.41
855.741	12807.43
856.063	12714.55
856.385	12642.46
856.708	12648.57
857.03	12652.86
857.352	12674.55
857.674	12612.41
857.996	12541.45
858.318	12420.1
858.64	12385.52
858.961	12365.64
859.283	12371.74
859.605	12378.74
859.926	12338.29
860.248	12262.14
860.57	12288.58
860.891	12283.83
861.212	12150.5
861.534	12136.49
861.855	12066.66
862.176	12096.04
862.498	12091.29
862.819	12022.59
863.14	11979.66
863.461	11926.55
863.782	11964.74
864.103	12014.91
864.424	11894.46
864.745	11931.52
865.065	11829.15
865.386	11817.18
865.707	11768.81
866.027	11792.77
866.348	11682.94
866.668	11817.18
866.989	11789.38
867.309	11724.75
867.63	11695.37
867.95	11656.05
868.27	11565.43
868.59	11644.75
868.91	11549.84
869.23	11601.36
869.55	11491.76
869.87	11595.03
870.19	11542.61
870.51	11564.3
870.83	11648.14
871.15	11450.18
871.469	11478.2
871.789	11529.5
872.109	11411.31
872.428	11386
872.748	11400.46
873.067	11350.07
873.386	11424.42
873.706	11431.2
874.025	11340.58
874.344	11244.31
874.663	11280.01
874.982	11272.56
875.301	11312.56
875.62	11196.63
875.939	11221.48
876.258	11214.93
876.577	11155.27
876.896	11116.18
877.214	11134.26
877.533	11102.84
877.852	11051.77
878.17	11132.67
878.489	11114.59
878.807	11054.03
879.125	10999.57
879.444	11054.26
879.762	10937.88
880.08	10933.36
880.398	10905.11
880.716	10925.45
881.034	10833.7
881.352	10791.89
881.67	10828.5
881.988	10792.8
882.306	10782.63
882.624	10726.81
882.941	10696.75
883.259	10638.45
883.577	10626.92
883.894	10655.17
884.212	10651.33
884.529	10627.6
884.846	10591.22
885.164	10495.85
885.481	10599.13
885.798	10550.77
886.115	10491.79
886.432	10443.43
886.75	10455.86
887.067	10405.91
887.383	10360.94
887.7	10398.68
888.017	10341.73
888.334	10323.2
888.651	10306.03
888.967	10295.18
889.284	10256.76
889.6	10218.12
889.917	10127.05
890.233	10172.92
890.55	10093.83
890.866	10047.73
891.182	10107.62
891.498	10030.33
891.815	9948.07
892.131	9991.69
892.447	9911.69
892.763	9963.44
893.079	9877.34
893.395	9836.44
893.71	9805.48
894.026	9751.69
894.342	9746.95
894.657	9795.76
894.973	9673.95
895.289	9714.41
895.604	9659.49
895.92	9574.07
896.235	9546.05
896.55	9547.18
896.865	9566.84
897.181	9506.95
897.496	9488.65
897.811	9463.56
898.126	9367.75
898.441	9425.6
898.756	9302.21
899.071	9277.81
899.386	9287.3
899.7	9216.11
900.015	9193.52
900.33	9115.1
900.644	9138.15
900.959	9099.51
901.273	9032.62
901.588	9037.81
901.902	8992.84
902.216	8992.39
902.531	8959.62
902.845	8939.96
903.159	8858.38
903.473	8819.06
903.787	8773.19
904.101	8777.93
904.415	8754.88
904.729	8755.79
905.042	8661.1
905.356	8713.75
905.67	8597.82
905.984	8636.24
906.297	8525.96
906.611	8508.11
906.924	8496.81
907.237	8526.41
907.551	8454.78
907.864	8435.12
908.177	8450.26
908.491	8348.34
908.804	8292.3
909.117	8238.51
909.43	8231.28
909.743	8222.69
910.056	8165.97
910.368	8149.47
910.681	8065.41
910.994	8083.04
911.307	8081.68
911.619	7955.81
911.932	8000.1
912.244	7914.9
912.557	7889.37
912.869	7858.86
913.181	7879.43
913.494	7834.68
913.806	7808.92
914.118	7756.26
914.43	7680.33
914.742	7708.58
915.054	7634.01
915.366	7600.56
915.678	7540.23
915.99	7542.26
916.302	7473.33
916.613	7466.1
916.925	7478.53
917.236	7497.74
917.548	7394.24
917.859	7381.36
918.171	7317.86
918.482	7266.56
918.794	7274.7
919.105	7264.98
919.416	7220.23
919.727	7202.83
920.038	7141.37
920.349	7031.31
920.66	7072.67
920.971	7060.01
921.282	7040.58
921.593	6977.53
921.903	6969.62
922.214	6939.34
922.525	6918.09
922.835	6856.85
923.146	6821.83
923.456	6805.78
923.767	6784.99
924.077	6786.8
924.387	6724.88
924.697	6686.46
925.008	6741.6
925.318	6661.83
925.628	6655.73
925.938	6577.99
926.248	6547.03
926.558	6513.81
926.867	6483.76
927.177	6475.85
927.487	6441.5
927.796	6376.87
928.106	6435.85
928.416	6356.75
928.725	6310.43
929.034	6283.31
929.344	6269.52
929.653	6304.33
929.962	6135.97
930.271	6145.23
930.581	6198.79
930.89	6124.9
931.199	6117.44
931.508	6051.9
931.817	6089.42
932.125	6044.9
932.434	6009.87
932.743	5970.55
933.051	5901.4
933.36	5930.32
933.669	5886.26
933.977	5920.61
934.286	5907.73
934.594	5866.37
934.902	5822.08
935.21	5800.38
935.519	5749.99
935.827	5749.76
936.135	5703.44
936.443	5609.2
936.751	5668.64
937.059	5633.83
937.367	5629.54
937.674	5617.79
937.982	5570.33
938.29	5588.64
938.597	5572.59
938.905	5501.64
939.213	5484.69
939.52	5430.9
939.827	5455.53
940.135	5378.93
940.442	5423.9
940.749	5355.2
941.056	5361.3
941.363	5324.24
941.67	5247.4
941.977	5237.24
942.284	5231.81
942.591	5227.97
942.898	5191.13
943.205	5217.35
943.511	5191.13
943.818	5177.35
944.125	5078.37
944.431	5113.85
944.738	5025.26
945.044	5055.09
945.35	5058.03
945.657	4993.4
945.963	4963.12
946.269	4932.61
946.575	4954.98
946.881	4909.79
947.187	4922.22
947.493	4800.86
947.799	4825.72
948.105	4812.39
948.41	4830.47
948.716	4837.25
949.022	4765.38
949.327	4752.5
949.633	4719.06
949.938	4687.87
950.244	4697.59
950.549	4658.27
950.854	4609
951.16	4658.04
951.465	4621.66
951.77	4578.27
952.075	4588.21
952.38	4536.24
952.685	4503.24
952.99	4519.51
953.294	4452.4
953.599	4402.68
953.904	4444.71
954.209	4382.34
954.513	4413.08
954.818	4403.58
955.122	4368.11
955.426	4366.3
955.731	4353.87
956.035	4338.28
956.339	4325.62
956.643	4267.32
956.948	4250.14
957.252	4262.35
957.556	4285.85
957.86	4225.28
958.163	4192.52
958.467	4191.16
958.771	4176.47
959.075	4119.3
959.378	4117.49
959.682	4128.34
959.985	4115
960.289	4077.04
960.592	4050.37
960.896	4044.27
961.199	3980.09
961.502	4003.6
961.805	3978.96
962.108	3968.57
962.411	3950.26
962.714	3926.76
963.017	3886.54
963.32	3868.23
963.623	3871.62
963.926	3896.93
964.228	3807.89
964.531	3814.67
964.833	3790.95
965.136	3727.67
965.438	3756.82
965.741	3750.95
966.043	3731.06
966.345	3734
966.648	3760.66
966.95	3678.41
967.252	3675.24
967.554	3660.33
967.856	3626.43
968.158	3608.35
968.46	3603.83
968.761	3591.18
969.063	3531.74
969.365	3553.66
969.666	3550.95
969.968	3525.19
970.269	3549.37
970.571	3522.7
970.872	3465.08
971.174	3444.51
971.475	3428.92
971.776	3441.58
972.077	3415.59
972.378	3416.27
972.679	3401.8
972.98	3367.91
973.281	3351.64
973.582	3391.41
973.883	3333.78
974.183	3337.4
974.484	3305.76
974.785	3297.17
975.085	3269.6
975.386	3266.89
975.686	3264.41
975.986	3241.58
976.287	3227.57
976.587	3190.28
976.887	3164.52
977.187	3160.91
977.487	3175.14
977.787	3162.94
978.087	3141.02
978.387	3152.54
978.687	3107.8
978.987	3072.09
979.286	3075.71
979.586	3064.64
979.885	3023.73
980.185	2981.7
980.484	2994.58
980.784	3026.67
981.083	3003.17
981.382	2995.26
981.682	2969.95
981.981	2958.65
982.28	2951.19
982.579	2922.04
982.878	2914.81
983.177	2882.72
983.475	2864.87
983.774	2908.26
984.073	2891.08
984.372	2826.9
984.67	2838.43
984.969	2821.25
985.267	2817.64
985.566	2811.08
985.864	2775.6
986.162	2765.89
986.461	2774.7
986.759	2731.76
987.057	2732.67
987.355	2731.99
987.653	2721.14
987.951	2711.2
988.249	2727.92
988.547	2670.07
988.844	2634.37
989.142	2645.44
989.44	2648.15
989.737	2630.3
990.035	2590.98
990.332	2614.93
990.63	2568.83
990.927	2571.77
991.224	2584.65
991.521	2555.72
991.819	2556.63
992.116	2552.56
992.413	2536.06
992.71	2487.03
993.006	2481.15
993.303	2507.14
993.6	2444.99
993.897	2443.18
994.193	2472.11
994.49	2463.07
994.787	2430.76
995.083	2416.29
995.379	2406.35
995.676	2392.56
995.972	2409.74
996.268	2379.23
996.565	2361.83
996.861	2314.83
997.157	2344.43
997.453	2344.66
997.749	2315.5
998.044	2286.13
998.34	2298.56
998.636	2256.3
998.932	2271.89
999.227	2249.97
999.523	2228.73
999.818	2234.15
1000.114	2220.59
1000.409	2228.73
1000.704	2215.39
1001	2169.97
1001.295	2186.92
1001.59	2174.26
1001.885	2155.73
1002.18	2144.89
1002.475	2134.04
1002.77	2122.51
1003.065	2124.32
1003.359	2100.82
1003.654	2086.81
1003.949	2064.66
1004.243	2030.09
1004.538	2007.26
1004.832	2061.5
1005.127	2045.68
1005.421	2041.84
1005.715	2011.11
1006.009	2004.55
1006.304	2002.52
1006.598	1968.39
1006.892	1964.33
1007.186	1938.34
1007.48	1939.92
1007.773	1941.95
1008.067	1933.14
1008.361	1929.75
1008.655	1888.85
1008.948	1868.06
1009.242	1892.69
1009.535	1880.49
1009.829	1875.97
1010.122	1863.99
1010.415	1831
1010.708	1834.39
1011.001	1824.22
1011.295	1770.89
1011.588	1795.07
1011.881	1789.64
1012.173	1789.64
1012.466	1760.94
1012.759	1721.17
1013.052	1735.41
1013.344	1716.65
1013.637	1717.1
1013.93	1690.44
1014.222	1668.52
1014.514	1673.49
1014.807	1673.94
1015.099	1651.34
1015.391	1656.09
1015.683	1682.3
1015.976	1621.06
1016.268	1613.83
1016.56	1577.22
1016.851	1575.41
1017.143	1604.11
1017.435	1581.96
1017.727	1596.43
1018.018	1579.25
1018.31	1541.06
1018.602	1545.13
1018.893	1540.16
1019.185	1551
1019.476	1516.43
1019.767	1535.41
1020.058	1489.31
1020.35	1494.96
1020.641	1484.57
1020.932	1471.46
1021.223	1447.96
1021.514	1459.93
1021.804	1467.84
1022.095	1419.93
1022.386	1436.43
1022.677	1407.73
1022.967	1401.4
1023.258	1384
1023.548	1391.91
1023.839	1386.04
1024.129	1375.19
1024.419	1355.98
1024.709	1361.18
1025	1357.11
1025.29	1347.62
1025.58	1324.8
1025.87	1322.31
1026.16	1329.09
1026.449	1329.99
1026.739	1297
1027.029	1270.79
1027.319	1275.76
1027.608	1299.49
1027.898	1283.89
1028.187	1247.06
1028.477	1231.24
1028.766	1257
1029.055	1221.3
1029.344	1216.32
1029.634	1200.05
1029.923	1182.88
1030.212	1186.95
1030.501	1214.74
1030.79	1205.25
1031.078	1179.71
1031.367	1166.61
1031.656	1169.55
1031.945	1146.5
1032.233	1137.68
1032.522	1152.14
1032.81	1100.39
1033.099	1118.25
1033.387	1116.44
1033.675	1105.14
1033.963	1111.69
1034.251	1119.6
1034.54	1083.22
1034.828	1075.76
1035.116	1081.86
1035.403	1055.88
1035.691	1041.87
1035.979	1034.63
1036.267	1046.38
1036.554	1037.8
1036.842	1026.72
1037.129	1034.41
1037.417	1022.88
1037.704	1002.77
1037.992	987.18
1038.279	1003.22
1038.566	1003
1038.853	1003
1039.14	1003
