Data from hue_50_FLMS001491_1.txt Node
Date: Mon Feb 06 15:09:29 GMT 2017
User: dcchb
Spectrometer: FLMS00149
Trigger mode: 0
Integration Time (sec): 2.000000E-2
Scans to average: 10
Electric dark correction enabled: true
Nonlinearity correction enabled: false
Boxcar width: 0
XAxis mode: Wavelengths
Number of Pixels in Spectrum: 2048
>>>>>Begin Spectral Data<<<<<
341.393	5.24
341.776	5.24
342.16	5.24
342.543	-48.54
342.927	-53.52
343.31	-83.12
343.693	-62.33
344.077	-72.5
344.46	-58.94
344.843	-38.15
345.226	-32.95
345.61	-28.66
345.993	-19.84
346.376	4.79
346.759	-0.86
347.142	26.48
347.525	46.82
347.908	70.55
348.291	63.77
348.674	80.49
349.057	104.45
349.44	132.02
349.823	138.12
350.206	161.85
350.588	176.08
350.971	204.78
351.354	227.38
351.737	253.6
352.119	228.51
352.502	270.77
352.884	284.1
353.267	280.04
353.65	289.07
354.032	317.32
354.414	307.15
354.797	299.02
355.179	339.24
355.562	311.22
355.944	331.79
356.326	350.77
356.709	349.19
357.091	331.11
357.473	348.96
357.855	348.06
358.238	347.38
358.62	337.66
359.002	331.56
359.384	350.99
359.766	353.48
360.148	347.83
360.53	336.53
360.912	351.67
361.294	355.06
361.676	334.95
362.057	332.91
362.439	314.38
362.821	342.18
363.203	328.62
363.584	338.34
363.966	309.64
364.348	328.85
364.729	340.6
365.111	324.1
365.493	340.6
365.874	346.7
366.256	326.59
366.637	314.61
367.019	325.01
367.4	327.94
367.781	316.87
368.163	331.33
368.544	315.51
368.925	329.98
369.306	320.49
369.688	300.15
370.069	313.48
370.45	307.6
370.831	326.81
371.212	314.16
371.593	319.81
371.974	312.35
372.355	323.65
372.736	306.25
373.117	292.46
373.498	318.68
373.879	324.1
374.26	315.29
374.641	321.62
375.021	322.97
375.402	320.94
375.783	313.71
376.163	313.25
376.544	325.46
376.925	346.47
377.305	333.14
377.686	321.39
378.066	346.25
378.447	325.68
378.827	333.82
379.208	327.72
379.588	322.07
379.968	320.94
380.349	342.63
380.729	346.7
381.109	339.47
381.489	333.14
381.87	335.4
382.25	327.94
382.63	331.56
383.01	350.09
383.39	342.41
383.77	344.21
384.15	344.21
384.53	339.24
384.91	353.48
385.29	334.27
385.67	342.63
386.049	331.33
386.429	352.8
386.809	353.25
387.189	350.09
387.568	353.03
387.948	343.54
388.328	350.54
388.707	329.07
389.087	347.38
389.466	353.93
389.846	353.48
390.225	361.16
390.605	341.05
390.984	354.16
391.363	349.64
391.743	361.61
392.122	374.72
392.501	361.16
392.881	383.76
393.26	367.72
393.639	378.79
394.018	343.31
394.397	351.67
394.776	352.58
395.155	377.66
395.534	371.78
395.913	360.03
396.292	365
396.671	388.73
397.05	378.34
397.429	362.29
397.808	395.74
398.186	364.78
398.565	365.46
398.944	393.93
399.323	373.59
399.701	374.5
400.08	373.59
400.458	371.78
400.837	386.7
401.215	394.16
401.594	383.54
401.972	390.54
402.351	375.4
402.729	394.83
403.107	413.14
403.486	381.95
403.864	380.37
404.242	370.43
404.62	401.84
404.999	397.55
405.377	379.92
405.755	394.61
406.133	395.29
406.511	405.91
406.889	403.2
407.267	398.22
407.645	402.52
408.023	408.62
408.401	405.46
408.779	412.69
409.156	433.93
409.534	435.51
409.912	426.7
410.29	431.9
410.667	419.69
411.045	444.32
411.422	435.29
411.8	432.8
412.178	440.26
412.555	449.97
412.933	441.16
413.31	453.82
413.687	431.67
414.065	449.75
414.442	453.82
414.819	457.66
415.197	441.16
415.574	465.79
415.951	465.79
416.328	453.36
416.705	470.54
417.082	483.42
417.46	491.33
417.837	476.64
418.214	457.88
418.591	479.35
418.967	486.81
419.344	467.37
419.721	487.04
420.098	476.41
420.475	485.91
420.852	480.71
421.228	480.71
421.605	481.39
421.982	498.33
422.358	479.58
422.735	501.27
423.111	506.02
423.488	510.76
423.864	493.81
424.241	524.32
424.617	512.12
424.994	520.48
425.37	519.8
425.746	527.49
426.123	517.32
426.499	534.94
426.875	522.74
427.251	558.9
427.627	532.91
428.003	535.17
428.379	551.89
428.756	569.97
429.132	561.38
429.507	564.77
429.883	567.71
430.259	562.29
430.635	567.49
431.011	593.93
431.387	580.37
431.763	581.72
432.138	606.81
432.514	595.05
432.89	584.43
433.265	593.47
433.641	622.4
434.016	640.03
434.392	607.03
434.767	589.18
435.143	623.53
435.518	630.99
435.894	628.95
436.269	652.45
436.644	651.1
437.02	644.09
437.395	640.48
437.77	686.8
438.145	640.03
438.52	629.18
438.895	656.75
439.271	653.58
439.646	667.14
440.021	680.48
440.395	672.79
440.77	678.22
441.145	672.12
441.52	685.9
441.895	716.63
442.27	703.75
442.645	681.61
443.019	699.01
443.394	683.64
443.769	682.96
444.143	713.7
444.518	705.11
444.892	712.57
445.267	726.58
445.641	723.87
446.016	710.98
446.39	739.01
446.764	742.62
447.139	716.63
447.513	739.46
447.887	743.07
448.262	728.84
448.636	743.75
449.01	768.16
449.384	738.33
449.758	751.66
450.132	776.07
450.506	780.13
450.88	767.71
451.254	780.13
451.628	794.82
452.002	794.15
452.376	795.73
452.75	807.48
453.123	821.49
453.497	829.63
453.871	828.27
454.244	840.47
454.618	842.28
454.992	848.61
455.365	858.55
455.739	890.87
456.112	868.72
456.486	863.3
456.859	884.76
457.232	903.75
457.606	906.69
457.979	920.92
458.352	929.96
458.725	917.76
459.099	944.42
459.472	957.31
459.845	977.42
460.218	987.81
460.591	972.9
460.964	997.08
461.337	997.3
461.71	1000.24
462.083	1036.4
462.456	1035.04
462.829	1026.46
463.201	1057.19
463.574	1075.72
463.947	1061.94
464.32	1091.77
464.692	1096.28
465.065	1146.45
465.438	1100.8
465.81	1143.97
466.183	1165.66
466.555	1168.37
466.928	1182.61
467.3	1198.2
467.672	1192.55
468.045	1253.79
468.417	1243.4
468.789	1259.44
469.161	1273.46
469.534	1295.83
469.906	1328.14
470.278	1358.65
470.65	1357.07
471.022	1408.82
471.394	1418.76
471.766	1468.03
472.138	1474.13
472.51	1503.05
472.882	1545.09
473.253	1557.97
473.625	1602.71
473.997	1654.01
474.369	1679.77
474.74	1705.08
475.112	1724.97
475.484	1712.54
475.855	1821.24
476.227	1825.76
476.598	1876.15
476.97	1949.37
477.341	1986.66
477.713	2024.85
478.084	2076.37
478.455	2170.61
478.827	2230.72
479.198	2269.14
479.569	2299.64
479.94	2384.84
480.311	2477.94
480.682	2513.2
481.053	2591.39
481.424	2656.47
481.795	2736.92
482.166	2853.3
482.537	2880.19
482.908	2995.44
483.279	3052.17
483.65	3133.75
484.021	3193.63
484.391	3296.68
484.762	3384.36
485.133	3456.9
485.503	3582.32
485.874	3695.76
486.244	3752.26
486.615	3866.16
486.985	3929.66
487.356	4105.02
487.726	4194.96
488.097	4309.53
488.467	4404.9
488.837	4547.49
489.207	4680.15
489.578	4747.94
489.948	4867.71
490.318	5013.02
490.688	5075.62
491.058	5213.46
491.428	5388.38
491.798	5497.75
492.168	5657.07
492.538	5740.91
492.908	5860.45
493.278	6018.19
493.648	6040.11
494.017	6269.71
494.387	6368.91
494.757	6488.46
495.126	6647.78
495.496	6721
495.866	6818.17
496.235	6998.5
496.605	7152.62
496.974	7200.76
497.344	7298.38
497.713	7388.32
498.082	7583.35
498.452	7672.38
498.821	7833.96
499.19	7946.95
499.559	8052.94
499.928	8155.31
500.298	8287.51
500.667	8421.06
501.036	8487.73
501.405	8613.6
501.774	8662.87
502.143	8899.02
502.512	8958
502.88	9051.1
503.249	9139.92
503.618	9306.46
503.987	9392.11
504.356	9430.3
504.724	9618.32
505.093	9688.6
505.462	9768.15
505.83	9944.41
506.199	10078.65
506.567	10192.09
506.936	10241.13
507.304	10408.58
507.672	10489.71
508.041	10522.7
508.409	10677.05
508.777	10875.91
509.145	10944.61
509.514	10977.61
509.882	11151.84
510.25	11169.47
510.618	11302.34
510.986	11386.86
511.354	11451.04
511.722	11698.72
512.09	11751.37
512.458	11739.62
512.826	11864.59
513.193	12098.26
513.561	12073.17
513.929	12266.61
514.297	12271.36
514.664	12499.6
515.032	12493.5
515.4	12638.35
515.767	12718.13
516.135	12808.29
516.502	12834.96
516.869	13050.32
517.237	13139.36
517.604	13111.11
517.972	13255.51
518.339	13393.36
518.706	13422.29
519.073	13567.6
519.44	13644.88
519.808	13808.04
520.175	13741.83
520.542	14061.37
520.909	14089.62
521.276	14111.54
521.643	14309.72
522.009	14407.12
522.376	14488.25
522.743	14548.13
523.11	14696.15
523.477	14852.53
523.843	14968.46
524.21	15205.74
524.577	15275.57
524.943	15290.04
525.31	15457.94
525.676	15533.19
526.043	15736.13
526.409	15718.05
526.776	15984.93
527.142	16036
527.508	16046.85
527.874	16225.83
528.241	16270.12
528.607	16343.79
528.973	16555.54
529.339	16529.78
529.705	16666.5
530.071	16784.01
530.437	16896.1
530.803	16924.57
531.169	17203.88
531.535	17055.41
531.901	17216.31
532.267	17227.39
532.632	17354.16
532.998	17453.82
533.364	17498.34
533.73	17636.19
534.095	17736.53
534.461	17817.2
534.826	18006.12
535.192	17996.63
535.557	18155.27
535.923	18174.03
536.288	18232.78
536.653	18348.49
537.019	18339.22
537.384	18302.61
537.749	18449.27
538.114	18495.15
538.479	18539.44
538.845	18673.45
539.21	18647.69
539.575	18780.34
539.94	18833.22
540.305	19080.22
540.67	18911.64
541.034	19047
541.399	19146.88
541.764	19129.03
542.129	19291.51
542.494	19335.35
542.858	19427.55
543.223	19381
543.587	19608.11
543.952	19589.81
544.316	19675.68
544.681	19668.45
545.045	19712.74
545.41	19952.74
545.774	19945.73
546.138	19910.48
546.503	20026.63
546.867	20151.38
547.231	20268.21
547.595	20314.08
547.959	20393.86
548.324	20372.39
548.688	20388.43
549.052	20489.9
549.416	20522.21
549.779	20558.6
550.143	20758.82
550.507	20818.93
550.871	20887.4
551.235	20804.02
551.599	21052.82
551.962	21016.44
552.326	21114.52
552.689	21184.34
553.053	21156.55
553.417	21284.45
553.78	21545.92
554.143	21442.42
554.507	21598.34
554.87	21630.21
555.234	21869.98
555.597	21864.33
555.96	21818
556.323	21993.81
556.686	21935.06
557.05	22272.68
557.413	22209.4
557.776	22217.09
558.139	22278.33
558.502	22456.18
558.865	22516.74
559.228	22648.03
559.59	22692.55
559.953	22740.01
560.316	23082.83
560.679	23060.68
561.041	23095.93
561.404	23241.47
561.767	23390.61
562.129	23347.9
562.492	23620.44
562.854	23474.45
563.217	23546.99
563.579	23713.54
563.941	23780.89
564.304	23921.67
564.666	24039.41
565.028	24060.88
565.39	24155.34
565.753	24345.62
566.115	24394.2
566.477	24455.44
566.839	24544.03
567.201	24741.99
567.563	24723.01
567.925	24922.78
568.287	24930.01
568.648	24930.69
569.01	25035.99
569.372	25257.23
569.734	25361.18
570.095	25395.31
570.457	25556.21
570.819	25624.45
571.18	25607.28
571.542	25762.08
571.903	25784.68
572.265	25826.26
572.626	26080.26
572.987	26061.5
573.349	26136.76
573.71	26273.93
574.071	26332.23
574.432	26487.93
574.794	26608.16
575.155	26700.58
575.516	26705.33
575.877	26830.07
576.238	26887.92
576.599	27005.66
576.96	27083.4
577.32	27086.79
577.681	27239.78
578.042	27399.55
578.403	27438.19
578.763	27511.86
579.124	27551.41
579.485	27678.18
579.845	27900.1
580.206	27839.54
580.566	27918.86
580.927	27995.46
581.287	28312.52
581.648	28199.75
582.008	28345.51
582.368	28374.89
582.728	28513.42
583.089	28462.12
583.449	28736.46
583.809	28790.25
584.169	28912.5
584.529	28975.33
584.889	29248.76
585.249	29152.72
585.609	29063.68
585.969	29434.52
586.329	29426.84
586.688	29528.31
587.048	29646.72
587.408	29686.04
587.768	29788.64
588.127	29918.13
588.487	29811.46
588.846	30248.29
589.206	29994.96
589.565	30209.64
589.925	30397.21
590.284	30341.84
590.643	30467.94
591.003	30748.61
591.362	30970.08
591.721	30902.05
592.08	30948.61
592.44	31146.12
592.799	31183.18
593.158	31342.72
593.517	31395.6
593.876	31540.91
594.235	31596.27
594.593	31582.94
594.952	31787
595.311	31903.16
595.67	32024.96
596.029	32317.61
596.387	32309.48
596.746	32284.84
597.104	32296.59
597.463	32343.15
597.822	32535.91
598.18	32452.75
598.538	32585.17
598.897	32733.42
599.255	32641.44
599.613	32975.67
599.972	32937.71
600.33	33090.92
600.688	33132.28
601.046	33307.64
601.404	33459.5
601.762	33314.19
602.12	33648.42
602.478	33541.08
602.836	33712.83
603.194	33635.32
603.552	33845.93
603.91	33662.89
604.268	33981.97
604.625	34030.33
604.983	34059.94
605.341	34012.93
605.698	34285.47
606.056	34345.58
606.413	34401.62
606.771	34475.52
607.128	34609.98
607.485	34474.62
607.843	34689.3
608.2	34811.56
608.557	34986.02
608.914	34877.09
609.272	35083.64
609.629	35269.4
609.986	35381.71
610.343	35281.6
610.7	35542.16
611.057	35461.71
611.414	35503.97
611.771	35553.23
612.127	35707.58
612.484	35797.07
612.841	35868.7
613.198	35818.54
613.554	35890.85
613.911	36093.1
614.267	36180.79
614.624	35963.62
614.98	36248.58
615.337	36341.91
615.693	36352.53
616.05	36493.55
616.406	36537.61
616.762	36496.48
617.118	36560.44
617.475	36657.16
617.831	36684.05
618.187	36790.04
618.543	36912.74
618.899	37256.01
619.255	36994.78
619.611	37009.46
619.967	37287.65
620.323	37367.87
620.678	37241.55
621.034	37074.1
621.39	37134.21
621.746	37209.69
622.101	37625.49
622.457	37337.82
622.812	37439.06
623.168	37594.31
623.523	37476.35
623.879	37623.46
624.234	37409.23
624.589	37722.21
624.945	37646.51
625.3	37821.19
625.655	37783
626.01	37732.84
626.365	37750.69
626.72	37744.81
627.075	37735.1
627.43	37794.3
627.785	37717.02
628.14	37622.33
628.495	37852.38
628.85	37787.75
629.205	37661.88
629.559	37985.71
629.914	37728.32
630.269	37801.76
630.623	37765.6
630.978	37831.36
631.332	37888.54
631.687	37836.79
632.041	37727.64
632.396	37881.53
632.75	37663.23
633.104	37733.97
633.459	37743
633.813	37604.93
634.167	37580.98
634.521	37583.91
634.875	37767.18
635.229	37680.63
635.583	37571.71
635.937	37566.74
636.291	37497.59
636.645	37566.74
636.999	37402.67
637.352	37557.92
637.706	37489.45
638.06	37603.8
638.413	37423.69
638.767	37342.34
639.121	37510.02
639.474	37282
639.828	37244.03
640.181	37493.52
640.534	37309.8
640.888	37265.96
641.241	37031.61
641.594	37243.36
641.947	37442.9
642.301	37061.21
642.654	37217.14
643.007	37215.11
643.36	37189.12
643.713	37165.39
644.066	37119.97
644.419	36996.13
644.771	36853.31
645.124	36494.68
645.477	36323.61
645.83	36200.67
646.182	35965.2
646.535	35989.38
646.888	36049.49
647.24	35797.75
647.593	36031.86
647.945	35989.83
648.298	35648.14
648.65	35764.3
649.002	35570.63
649.355	35807.46
649.707	35800.01
650.059	35918.87
650.411	36301.46
650.763	36407.67
651.115	36792.75
651.467	36580.55
651.819	36578.29
652.171	36535.13
652.523	36520.44
652.875	36384.4
653.227	36282.03
653.578	36552.3
653.93	36440.89
654.282	36313.89
654.633	36244.29
654.985	36333.78
655.337	36297.85
655.688	36375.13
656.039	36358.86
656.391	36105.76
656.742	36275.92
657.094	36182.37
657.445	36395.02
657.796	36283.16
658.147	36221.01
658.498	36055.82
658.849	36193.22
659.2	36151.63
659.551	36154.8
659.902	36214.68
660.253	36276.6
660.604	36136.49
660.955	35952.09
661.306	36072.54
661.656	36035.25
662.007	36037.29
662.358	36087.46
662.708	35938.53
663.059	35987.57
663.409	35815.82
663.76	36087.46
664.11	35988.25
664.461	36087.46
664.811	36148.02
665.161	35903.28
665.511	36000
665.862	35945.54
666.212	36114.57
666.562	36095.36
666.912	35905.76
667.262	36000.45
667.612	35954.13
667.962	35937.85
668.312	35854.24
668.662	36125.65
669.011	35841.13
669.361	35739.67
669.711	35882.26
670.06	35731.98
670.41	35769.05
670.76	35720.23
671.109	35892.88
671.459	35755.71
671.808	35683.85
672.157	35761.81
672.507	35524.08
672.856	35595.04
673.205	35626.45
673.554	35764.53
673.904	35502.16
674.253	35679.1
674.602	35544.87
674.951	35163.64
675.3	34931.78
675.649	35562.5
675.998	35578.99
676.346	35568.6
676.695	35710.29
677.044	35350.3
677.393	35370.64
677.741	35563.63
678.09	35441.37
678.438	35220.13
678.787	35427.36
679.135	35274.37
679.484	35182.17
679.832	35407.47
680.181	35035.28
680.529	35280.24
680.877	35021.27
681.225	35040.48
681.573	35357.08
681.922	34963.42
682.27	34875.06
682.618	34847.04
682.966	34798.45
683.314	34961.38
683.661	34710.99
684.009	34646.81
684.357	34653.14
684.705	34478.68
685.053	34514.39
685.4	34603.65
685.748	34417.89
686.095	34353.49
686.443	34261.51
686.79	34173.83
687.138	34358.91
687.485	34286.6
687.832	34076.43
688.18	34225.13
688.527	33914.86
688.874	33904.91
689.221	33865.82
689.568	33753.28
689.915	33760.51
690.262	33637.8
690.609	33568.88
690.956	33548.99
691.303	33471.7
691.65	33406.85
691.997	33335.21
692.344	33214.54
692.69	33027.87
693.037	33099.06
693.383	32885.28
693.73	32967.31
694.077	32852.96
694.423	32819.52
694.769	32652.74
695.116	32615.91
695.462	32565.29
695.808	32343.6
696.155	32553.08
696.501	32351.51
696.847	32289.81
697.193	32042.36
697.539	32195.58
697.885	32043.72
698.231	31941.8
698.577	31879.43
698.923	31755.37
699.269	31695.25
699.614	31498.88
699.96	31463.17
700.306	31422.72
700.651	31352.66
700.997	31221.14
701.342	31321.7
701.688	31098.66
702.033	31066.12
702.379	30961.94
702.724	30916.52
703.069	30892.56
703.415	30541.16
703.76	30831.77
704.105	30749.06
704.45	30589.52
704.795	30304.33
705.14	30372.13
705.485	30446.47
705.83	30144.56
706.175	30245.8
706.52	30227.5
706.865	30056.43
707.209	30016.43
707.554	29792.93
707.899	30014.62
708.243	29755.42
708.588	29729.2
708.932	29442.66
709.277	29546.84
709.621	29571.24
709.966	29374.64
710.31	29434.3
710.654	29103.01
710.998	29147.3
711.342	29222.55
711.687	29131.25
712.031	29135.55
712.375	28961.99
712.719	28934.87
713.063	28940.52
713.407	28950.47
713.75	28731.72
714.094	28783.24
714.438	28732.85
714.782	28662.11
715.125	28435.68
715.469	28645.39
715.812	28517.94
716.156	28264.61
716.499	28377.38
716.843	28263.03
717.186	28119.3
717.53	28333.53
717.873	28189.58
718.216	28138.51
718.559	28077.04
718.902	27905.52
719.246	27974.22
719.589	28008.8
719.932	27857.16
720.275	27717.96
720.617	27711.18
720.96	27672.31
721.303	27623.95
721.646	27589.37
721.989	27534.91
722.331	27578.53
722.674	27463.73
723.016	27475.7
723.359	27382.37
723.701	27443.16
724.044	27289.72
724.386	27152.32
724.729	27233.9
725.071	27057.41
725.413	27169.27
725.755	27080.23
726.097	26984.87
726.439	26799.56
726.782	26912.1
727.124	26917.3
727.465	26820.58
727.807	26794.37
728.149	26723.18
728.491	26807.93
728.833	26737.87
729.175	26644.09
729.516	26457.65
729.858	26538.78
730.199	26594.6
730.541	26518.67
730.882	26355.96
731.224	26519.35
731.565	26364.77
731.906	26308.05
732.248	26424.66
732.589	26231.67
732.93	26170.88
733.271	26260.14
733.612	26213.36
733.953	26183.31
734.294	26051.79
734.635	26000.49
734.976	26028.06
735.317	25787.16
735.658	25864.45
735.999	25947.83
736.339	25891.79
736.68	25900.38
737.021	25847.05
737.361	25680.5
737.702	25863.09
738.042	25638.69
738.383	25634.4
738.723	25643.89
739.063	25516.43
739.404	25621.97
739.744	25454.06
740.084	25378.58
740.424	25475.3
740.764	25362.09
741.104	25392.6
741.444	25191.92
741.784	25249.55
742.124	25204.35
742.464	25210
742.804	25143.56
743.143	25136.56
743.483	25155.31
743.823	24953.74
744.162	25050.01
744.502	25014.07
744.841	25006.16
745.181	24896.34
745.52	24884.81
745.86	24951.25
746.199	24899.27
746.538	24803.68
746.877	24710.58
747.216	24794.87
747.556	24746.51
747.895	24596.68
748.234	24514.88
748.573	24539.96
748.911	24505.16
749.25	24451.83
749.589	24333.64
749.928	24463.58
750.267	24369.8
750.605	24191.5
750.944	24322.11
751.283	24211.84
751.621	24291.61
751.96	24077.83
752.298	24145.4
752.636	24149.01
752.975	23976.36
753.313	23877.61
753.651	23990.15
753.989	23928.23
754.327	23863.14
754.666	23603.94
755.004	23674.67
755.342	23805.52
755.679	23749.7
756.017	23573.66
756.355	23485.75
756.693	23455.47
757.031	23573.43
757.368	23431.29
757.706	23369.6
758.044	23252.99
758.381	23297.51
758.719	23190.17
759.056	23226.78
759.394	23031.98
759.731	22970.74
760.068	23024.75
760.405	22775.26
760.743	22646.9
761.08	22818.65
761.417	22561.94
761.754	22605.55
762.091	22592.67
762.428	22493.91
762.765	22274.03
763.102	22373.01
763.438	22298.44
763.775	22130.31
764.112	22130.53
764.449	22170.53
764.785	22028.16
765.122	21888.28
765.458	21846.7
765.795	21888.28
766.131	21784.78
766.467	21650.09
766.804	21666.14
767.14	21393.15
767.476	21580.94
767.812	21335.07
768.148	21392.7
768.485	21272.7
768.821	21158.36
769.157	21164.46
769.492	21146.6
769.828	21060.96
770.164	20914.52
770.5	20897.57
770.836	20880.17
771.171	20818.48
771.507	20679.95
771.842	20544.59
772.178	20583.46
772.513	20401.77
772.849	20429.11
773.184	20333.29
773.519	20205.61
773.855	20163.13
774.19	20160.19
774.525	20075.67
774.86	20077.71
775.195	20095.11
775.53	19830.93
775.865	19831.39
776.2	19632.52
776.535	19549.81
776.87	19496.93
777.205	19450.6
777.539	19458.97
777.874	19383.49
778.209	19257.39
778.543	19197.96
778.878	19178.52
779.212	19116.6
779.547	19004.29
779.881	19010.84
780.215	18817.4
780.55	18859.43
780.884	18775.59
781.218	18749.61
781.552	18739.44
781.886	18569.72
782.22	18483.17
782.554	18477.3
782.888	18253.35
783.222	18244.99
783.556	18106.01
783.889	18068.72
784.223	17853.58
784.557	17962.28
784.89	18011.32
785.224	17906.01
785.557	17721.84
785.891	17684.32
786.224	17622.4
786.558	17720.93
786.891	17570.88
787.224	17474.39
787.557	17374.95
787.891	17361.17
788.224	17324.56
788.557	17337.44
788.89	17301.51
789.223	17162.75
789.556	17081.85
789.888	16969.54
790.221	16992.59
790.554	16802.76
790.887	16822.88
791.219	16802.54
791.552	16780.62
791.884	16688.87
792.217	16640.51
792.549	16476.45
792.882	16437.12
793.214	16355.09
793.546	16312.16
793.879	16252.27
794.211	16223.34
794.543	16282.78
794.875	16044.14
795.207	16184.02
795.539	16063.12
795.871	16007.31
796.203	15953.52
796.535	15824.71
796.867	15735
797.198	15754.43
797.53	15735.9
797.862	15658.61
798.193	15622.91
798.525	15526.64
798.856	15567.54
799.188	15384.27
799.519	15361.22
799.85	15296.82
800.182	15332.07
800.513	15336.81
800.844	15148.8
801.175	15256.14
801.506	15146.99
801.837	15043.26
802.168	15044.39
802.499	14992.19
802.83	14910.38
803.161	14954.45
803.491	14872.87
803.822	14900.67
804.153	14658.87
804.483	14559.89
804.814	14682.82
805.145	14589.04
805.475	14634.69
805.805	14554.24
806.136	14503.84
806.466	14496.38
806.796	14481.02
807.126	14337.74
807.457	14270.18
807.787	14318.31
808.117	14196.05
808.447	14181.82
808.777	14169.16
809.107	14186.56
809.436	14149.95
809.766	14090.29
810.096	13982.05
810.426	14009.62
810.755	14024.53
811.085	13887.81
811.414	13915.16
811.744	13824.09
812.073	13781.37
812.403	13791.09
812.732	13699.34
813.061	13765.78
813.39	13617.99
813.719	13574.83
814.049	13666.12
814.378	13585.9
814.707	13453.02
815.036	13512
815.365	13454.38
815.693	13377.09
816.022	13318.11
816.351	13285.12
816.68	13202.63
817.008	13255.06
817.337	13135.29
817.665	13138
817.994	13212.58
818.322	13162.41
818.651	13005.8
818.979	13039.93
819.307	13048.51
819.636	13005.58
819.964	12948.4
820.292	13042.19
820.62	12958.8
820.948	12971.23
821.276	12935.97
821.604	12911.34
821.932	12968.97
822.259	12876.54
822.587	12889.65
822.915	12862.53
823.243	12834.51
823.57	12945.01
823.898	12865.24
824.225	12770.1
824.553	12877.22
824.88	12767.16
825.207	12875.18
825.535	12787.5
825.862	12861.85
826.189	12728.3
826.516	12869.76
826.843	12814.85
827.17	12844.68
827.497	12897.33
827.824	12918.8
828.151	12903.88
828.478	12726.04
828.805	12840.38
829.131	12788.41
829.458	12749.31
829.785	12754.06
830.111	12787.28
830.438	12837.22
830.764	12806.71
831.09	12852.59
831.417	12788.18
831.743	12853.49
832.069	12752.7
832.395	12711.35
832.722	12720.39
833.048	12705.92
833.374	12647.85
833.7	12694.4
834.026	12746.83
834.351	12701.4
834.677	12618.92
835.003	12745.92
835.329	12662.76
835.654	12648.75
835.98	12578.92
836.306	12620.95
836.631	12545.02
836.956	12524.46
837.282	12592.93
837.607	12568.98
837.932	12465.93
838.258	12399.49
838.583	12494.86
838.908	12438.81
839.233	12504.57
839.558	12414.63
839.883	12343.45
840.208	12314.52
840.533	12278.82
840.858	12275.65
841.182	12346.16
841.507	12283.34
841.832	12242.43
842.156	12237.46
842.481	12147.75
842.805	12217.12
843.13	12110.23
843.454	12006.73
843.778	12025.26
844.103	11992.72
844.427	11912.5
844.751	12019.61
845.075	11943.01
845.399	11914.31
845.723	11863.69
846.047	11799.05
846.371	11767.64
846.695	11780.3
847.019	11644.48
847.343	11642
847.666	11524.03
847.99	11489.01
848.313	11479.06
848.637	11427.99
848.96	11391.16
849.284	11352.29
849.607	11305.51
849.931	11354.77
850.254	11218.05
850.577	11105.29
850.9	11093.76
851.223	11051.5
851.546	10967.66
851.869	10905.74
852.192	10942.58
852.515	10861.68
852.838	10811.06
853.161	10817.61
853.483	10777.84
853.806	10789.14
854.129	10735.58
854.451	10606.77
854.774	10605.41
855.096	10593.21
855.419	10570.39
855.741	10491.29
856.063	10431.63
856.385	10476.83
856.708	10455.36
857.03	10370.62
857.352	10455.36
857.674	10307.57
857.996	10331.3
858.318	10241.81
858.64	10249.04
858.961	10247.91
859.283	10221.69
859.605	10095.82
859.926	10147.35
860.248	10141.02
860.57	10063.73
860.891	10113.45
861.212	10008.14
861.534	9983.73
861.855	9996.39
862.176	10077.97
862.498	9916.39
862.819	10009.95
863.14	9920.91
863.461	9890.4
863.782	9876.62
864.103	9837.98
864.424	9842.72
864.745	9763.4
865.065	9746.23
865.386	9799.78
865.707	9736.51
866.027	9731.09
866.348	9737.87
866.668	9746.23
866.989	9681.37
867.309	9590.52
867.63	9710.52
867.95	9688.38
868.27	9597.08
868.59	9579
868.91	9623.29
869.23	9547.14
869.55	9505.33
869.87	9470.53
870.19	9504.65
870.51	9528.61
870.83	9469.62
871.15	9463.52
871.469	9508.27
871.789	9465.33
872.109	9466.46
872.428	9402.28
872.748	9439.57
873.067	9384.43
873.386	9404.09
873.706	9431.88
874.025	9391.89
874.344	9277.54
874.663	9324.54
874.982	9308.05
875.301	9282.74
875.62	9197.99
875.939	9292.91
876.258	9237.99
876.577	9224.21
876.896	9199.8
877.214	9165
877.533	9215.85
877.852	9167.71
878.17	9140.14
878.489	9175.39
878.807	9139.92
879.125	9120.03
879.444	9064.89
879.762	9099.46
880.08	9049.52
880.398	8954.84
880.716	8929.98
881.034	8970.88
881.352	8972.91
881.67	8969.98
881.988	8929.75
882.306	8945.12
882.624	8863.99
882.941	8889.53
883.259	8800.26
883.577	8829.19
883.894	8828.74
884.212	8802.3
884.529	8794.16
884.846	8715.29
885.164	8745.12
885.481	8678.01
885.798	8750.32
886.115	8657.22
886.432	8654.96
886.75	8639.14
887.067	8609.08
887.383	8638.69
887.7	8596.88
888.017	8537.67
888.334	8511.01
888.651	8554.17
888.967	8470.33
889.284	8454.74
889.6	8428.52
889.917	8375.87
890.233	8391.91
890.55	8331.57
890.866	8315.08
891.182	8381.52
891.498	8253.61
891.815	8298.58
892.131	8213.84
892.447	8263.33
892.763	8213.39
893.079	8171.35
893.395	8149.88
893.71	8104.69
894.026	8093.16
894.342	8127.74
894.657	8069.66
894.973	8064.46
895.289	7964.8
895.604	7977.46
895.92	7941.98
896.235	7911.02
896.55	7920.74
896.865	7848.88
897.181	7820.4
897.496	7915.99
897.811	7783.11
898.126	7779.72
898.441	7759.16
898.756	7726.62
899.071	7716.9
899.386	7768.65
899.7	7583.8
900.015	7621.54
900.33	7494.08
900.644	7488.43
900.959	7560.52
901.273	7475.1
901.588	7470.35
901.902	7465.83
902.216	7400.75
902.531	7398.72
902.845	7377.93
903.159	7292.96
903.473	7263.35
903.787	7253.64
904.101	7282.34
904.415	7238.95
904.729	7171.15
905.042	7176.35
905.356	7097.71
905.67	7077.37
905.984	7107.65
906.297	7066.52
906.611	6996.92
906.924	7039.41
907.237	7024.26
907.551	6984.72
907.864	6967.09
908.177	6913.76
908.491	6911.05
908.804	6830.37
909.117	6837.15
909.43	6796.02
909.743	6743.14
910.056	6716.48
910.368	6764.84
910.681	6665.63
910.994	6645.07
911.307	6615.01
911.619	6556.03
911.932	6594.45
912.244	6579.98
912.557	6556.03
912.869	6541.34
913.181	6490.72
913.494	6459.53
913.806	6400.33
914.118	6365.3
914.43	6377.73
914.742	6335.69
915.054	6309.71
915.366	6295.92
915.678	6253.66
915.99	6188.13
916.302	6154.68
916.613	6225.87
916.925	6178.86
917.236	6103.84
917.548	6052.09
917.859	6083.05
918.171	6085.53
918.482	6053.89
918.794	5986.33
919.105	5964.86
919.416	5950.17
919.727	5913.79
920.038	5924.63
920.349	5858.19
920.66	5892.32
920.971	5814.35
921.282	5881.47
921.593	5780.23
921.903	5776.61
922.214	5785.65
922.525	5733
922.835	5736.84
923.146	5681.02
923.456	5674.24
923.767	5609.61
924.077	5614.13
924.387	5569.39
924.697	5552.44
925.008	5535.04
925.318	5527.13
925.628	5524.87
925.938	5469.28
926.248	5435.61
926.558	5414.36
926.867	5367.58
927.177	5353.35
927.487	5336.17
927.796	5296.63
928.106	5324.42
928.416	5292.11
928.725	5298.21
929.034	5255.95
929.344	5245.33
929.653	5230.64
929.962	5109.29
930.271	5175.95
930.581	5155.84
930.89	5138.44
931.199	5038.1
931.508	5091.21
931.817	5057.08
932.125	5053.69
932.434	5073.36
932.743	4989.52
933.051	4988.61
933.36	4955.62
933.669	4925.56
933.977	4888.05
934.286	4893.47
934.594	4881.27
934.902	4848.28
935.21	4819.12
935.519	4820.48
935.827	4744.55
936.135	4749.07
936.443	4703.87
936.751	4699.35
937.059	4673.14
937.367	4659.13
937.674	4682.18
937.982	4681.5
938.29	4619.58
938.597	4571.67
938.905	4529.87
939.213	4576.42
939.52	4521.73
939.827	4516.53
940.135	4553.82
940.442	4491
940.749	4474.73
941.056	4482.86
941.363	4438.8
941.67	4389.98
941.977	4371.68
942.284	4360.83
942.591	4331
942.898	4325.35
943.205	4363.77
943.511	4307.27
943.818	4273.83
944.125	4259.82
944.431	4226.82
944.738	4259.14
945.044	4180.95
945.35	4187.28
945.657	4163.77
945.963	4118.58
946.269	4120.84
946.575	4111.8
946.881	4098.92
947.187	4039.71
947.493	4058.01
947.799	4059.6
948.105	4012.37
948.41	3983.44
948.716	4013.95
949.022	3959.03
949.327	3966.27
949.633	3912.93
949.938	3892.6
950.244	3910.67
950.549	3901.41
950.854	3848.53
951.16	3851.69
951.465	3836.1
951.77	3835.2
952.075	3814.86
952.38	3795.2
952.685	3779.83
952.99	3729.21
953.294	3763.11
953.599	3702.77
953.904	3733.96
954.209	3668.19
954.513	3657.35
954.818	3668.87
955.122	3631.13
955.426	3622.09
955.731	3578.25
956.035	3592.72
956.339	3577.58
956.643	3533.06
956.948	3533.51
957.252	3512.94
957.556	3555.43
957.86	3470.46
958.163	3503
958.467	3469.56
958.771	3473.17
959.075	3451.03
959.378	3455.54
959.682	3453.74
959.985	3420.07
960.289	3378.71
960.592	3408.09
960.896	3368.99
961.199	3382.33
961.502	3346.4
961.805	3352.72
962.108	3300.75
962.411	3278.37
962.714	3254.65
963.017	3273.85
963.32	3261.43
963.623	3256.45
963.926	3236.12
964.228	3200.64
964.531	3192.5
964.833	3184.59
965.136	3199.05
965.438	3116.34
965.741	3116.34
966.043	3124.03
966.345	3098.72
966.648	3106.18
966.95	3104.14
967.252	3048.1
967.554	3042.67
967.856	3044.48
968.158	3009.45
968.46	3043.13
968.761	3008.1
969.063	2976.46
969.365	2982.11
969.666	2959.29
969.968	2931.26
970.269	2924.26
970.571	2962
970.872	2897.82
971.174	2903.24
971.475	2890.36
971.776	2871.15
972.077	2850.36
972.378	2842.91
972.679	2828.44
972.98	2814.88
973.281	2809.69
973.582	2781.89
973.883	2802.23
974.183	2801.55
974.484	2778.73
974.785	2798.84
975.085	2694.66
975.386	2736.92
975.686	2763.81
975.986	2741.67
976.287	2682.91
976.587	2711.38
976.887	2700.08
977.187	2675.23
977.487	2635.45
977.787	2628
978.087	2606.3
978.387	2638.17
978.687	2597.04
978.987	2593.42
979.286	2556.59
979.586	2582.8
979.885	2562.01
980.185	2566.3
980.484	2524.72
980.784	2533.76
981.083	2497.6
981.382	2521.78
981.682	2485.63
981.981	2491.5
982.28	2474.78
982.579	2457.83
982.878	2429.13
983.177	2418.51
983.475	2409.02
983.774	2431.62
984.073	2415.8
984.372	2411.05
984.67	2386.65
984.969	2356.14
985.267	2377.61
985.566	2355.91
985.864	2369.02
986.162	2306.2
986.461	2326.08
986.759	2344.16
987.057	2310.26
987.355	2283.6
987.653	2269.81
987.951	2274.56
988.249	2249.7
988.547	2265.97
988.844	2215.13
989.142	2211.74
989.44	2239.08
989.737	2210.38
990.035	2178.52
990.332	2167.89
990.63	2155.92
990.927	2157.95
991.224	2173.32
991.521	2162.25
991.819	2150.04
992.116	2153.21
992.413	2117.73
992.71	2105.3
993.006	2119.76
993.303	2069.14
993.6	2106.2
993.897	2071.85
994.193	2058.97
994.49	2039.76
994.787	2041.57
995.083	2024.62
995.379	2047.67
995.676	2026.2
995.972	2022.81
996.268	1997.5
996.565	2002.02
996.861	1983.95
997.157	1973.1
997.453	1963.61
997.749	1945.75
998.044	1936.71
998.34	1961.8
998.636	1953.66
998.932	1922.93
999.227	1920.9
999.523	1929.48
999.818	1870.5
1000.114	1886.55
1000.409	1873.44
1000.704	1870.95
1001	1848.13
1001.295	1833.67
1001.59	1832.31
1001.885	1825.76
1002.18	1812.42
1002.475	1790.28
1002.77	1778.98
1003.065	1796.38
1003.359	1784.85
1003.654	1791.63
1003.949	1782.14
1004.243	1759.77
1004.538	1715.93
1004.832	1725.65
1005.127	1710.05
1005.421	1687.46
1005.715	1705.99
1006.009	1716.83
1006.304	1667.34
1006.598	1663.28
1006.892	1676.83
1007.186	1651.07
1007.48	1654.24
1007.773	1644.74
1008.067	1621.02
1008.361	1643.16
1008.655	1611.75
1008.948	1597.29
1009.242	1586.67
1009.535	1596.61
1009.829	1567.01
1010.122	1542.6
1010.415	1570.4
1010.708	1540.11
1011.001	1562.26
1011.295	1574.69
1011.588	1567.46
1011.881	1521.36
1012.173	1536.5
1012.466	1551.64
1012.759	1473.22
1013.052	1493.56
1013.344	1483.62
1013.637	1459.44
1013.93	1459.44
1014.222	1467.12
1014.514	1448.37
1014.807	1439.78
1015.099	1429.16
1015.391	1423.51
1015.683	1430.97
1015.976	1433.45
1016.268	1385.32
1016.56	1375.6
1016.851	1371.76
1017.143	1376.96
1017.435	1366.56
1017.727	1334.02
1018.018	1362.04
1018.31	1331.31
1018.602	1349.39
1018.893	1320.69
1019.185	1330.4
1019.476	1310.29
1019.767	1267.58
1020.058	1305.09
1020.35	1280.69
1020.641	1253.12
1020.932	1244.08
1021.223	1254.02
1021.514	1242.5
1021.804	1246.56
1022.095	1248.6
1022.386	1226.9
1022.677	1211.54
1022.967	1221.03
1023.258	1233.23
1023.548	1193.91
1023.839	1177.86
1024.129	1199.33
1024.419	1194.59
1024.709	1152.1
1025	1143.06
1025.29	1151.88
1025.58	1144.42
1025.87	1100.35
1026.16	1129.28
1026.449	1101.93
1026.739	1139.67
1027.029	1134.02
1027.319	1102.39
1027.608	1107.36
1027.898	1099.45
1028.187	1099.45
1028.477	1079.34
1028.766	1084.99
1029.055	1070.52
1029.344	1056.29
1029.634	1036.85
1029.923	1046.34
1030.212	1042.95
1030.501	1020.13
1030.79	1046.57
1031.078	1039.11
1031.367	1010.86
1031.656	1002.28
1031.945	1017.87
1032.233	1016.74
1032.522	973.58
1032.81	993.01
1033.099	997.08
1033.387	976.06
1033.675	946.46
1033.963	971.09
1034.251	962.95
1034.54	946.68
1034.828	947.36
1035.116	919.34
1035.403	944.2
1035.691	932.45
1035.979	908.27
1036.267	911.88
1036.554	912.79
1036.842	910.3
1037.129	908.27
1037.417	906.91
1037.704	895.61
1037.992	876.4
1038.279	869.62
1038.566	847.03
1038.853	847.03
1039.14	847.03
