Data from hue_310_FLMS001491_12.txt Node
Date: Mon Feb 06 15:48:53 GMT 2017
User: dcchb
Spectrometer: FLMS00149
Trigger mode: 0
Integration Time (sec): 2.000000E-2
Scans to average: 10
Electric dark correction enabled: true
Nonlinearity correction enabled: false
Boxcar width: 0
XAxis mode: Wavelengths
Number of Pixels in Spectrum: 2048
>>>>>Begin Spectral Data<<<<<
341.393	-21.65
341.776	-21.65
342.16	-21.65
342.543	-63.01
342.927	-60.97
343.31	-75.66
343.693	-75.21
344.077	-63.23
344.46	-51.71
344.843	-51.03
345.226	-37.47
345.61	-20.75
345.993	-16.23
346.376	-6.96
346.759	17.9
347.142	10.66
347.525	35.07
347.908	68.06
348.291	69.19
348.674	81.17
349.057	116.2
349.44	125.91
349.823	122.75
350.206	181.73
350.588	190.32
350.971	200.49
351.354	237.55
351.737	230.09
352.119	242.75
352.502	245.46
352.884	278
353.267	268.74
353.65	260.83
354.032	299.47
354.414	306.47
354.797	308.96
355.179	328.4
355.562	322.07
355.944	307.83
356.326	343.99
356.709	326.14
357.091	348.51
357.473	333.82
357.855	328.85
358.238	348.96
358.62	328.62
359.002	331.56
359.384	348.51
359.766	333.37
360.148	329.98
360.53	327.94
360.912	342.41
361.294	303.31
361.676	333.82
362.057	328.62
362.439	335.63
362.821	321.16
363.203	334.27
363.584	321.84
363.966	314.84
364.348	303.54
364.729	324.33
365.111	322.75
365.493	309.64
365.874	314.84
366.256	309.19
366.637	319.13
367.019	320.26
367.4	310.54
367.781	309.64
368.163	313.48
368.544	317.1
368.925	314.84
369.306	317.77
369.688	306.47
370.069	332.24
370.45	315.29
370.831	306.7
371.212	306.02
371.593	299.47
371.974	326.59
372.355	301.05
372.736	314.61
373.117	329.75
373.498	322.52
373.879	326.14
374.26	309.19
374.641	312.8
375.021	291.56
375.402	307.83
375.783	316.87
376.163	326.81
376.544	334.95
376.925	312.12
377.305	312.12
377.686	330.66
378.066	313.93
378.447	337.43
378.827	335.17
379.208	326.14
379.588	329.53
379.968	314.61
380.349	316.42
380.729	334.04
381.109	341.5
381.489	340.82
381.87	314.38
382.25	329.3
382.63	342.41
383.01	337.89
383.39	350.99
383.77	345.8
384.15	347.15
384.53	336.76
384.91	350.77
385.29	330.2
385.67	344.67
386.049	336.53
386.429	348.06
386.809	351.67
387.189	366.13
387.568	356.19
387.948	336.98
388.328	369.07
388.707	353.25
389.087	327.27
389.466	355.97
389.846	371.56
390.225	356.42
390.605	352.12
390.984	341.05
391.363	352.12
391.743	375.63
392.122	360.48
392.501	373.59
392.881	377.21
393.26	373.37
393.639	357.77
394.018	383.99
394.397	379.47
394.776	383.99
395.155	381.28
395.534	379.92
395.913	364.33
396.292	363.65
396.671	405.68
397.05	380.37
397.429	374.95
397.808	385.57
398.186	388.05
398.565	395.74
398.944	393.03
399.323	388.05
399.701	396.64
400.08	383.76
400.458	392.8
400.837	393.03
401.215	411.11
401.594	412.46
401.972	406.81
402.351	413.59
402.729	429.18
403.107	431.67
403.486	412.69
403.864	428.05
404.242	446.36
404.62	439.35
404.999	413.59
405.377	435.51
405.755	432.57
406.133	445.91
406.511	454.72
406.889	456.08
407.267	458.11
407.645	456.53
408.023	472.35
408.401	451.33
408.779	467.15
409.156	480.03
409.534	464.89
409.912	487.94
410.29	480.71
410.667	507.37
411.045	503.53
411.422	517.09
411.8	513.93
412.178	501.95
412.555	527.26
412.933	555.06
413.31	553.7
413.687	531.55
414.065	552.34
414.442	544.43
414.819	575.62
415.197	578.11
415.574	581.72
415.951	611.55
416.328	588.5
416.705	610.2
417.082	613.59
417.46	619.69
417.837	611.1
418.214	625.56
418.591	653.36
418.967	636.86
419.344	637.09
419.721	661.95
420.098	692.68
420.475	666.92
420.852	670.08
421.228	700.59
421.605	682.28
421.982	710.76
422.358	714.6
422.735	701.27
423.111	715.28
423.488	729.06
423.864	761.38
424.241	741.49
424.617	742.62
424.994	749.4
425.37	756.41
425.746	776.07
426.123	776.97
426.499	782.17
426.875	797.99
427.251	777.42
427.627	826.46
428.003	828.5
428.379	849.96
428.756	816.74
429.132	843.41
429.507	874.37
429.883	856.07
430.259	868.72
430.635	866.01
431.011	889.96
431.387	889.06
431.763	917.53
432.138	910.75
432.514	940.58
432.89	929.74
433.265	946.68
433.641	945.1
434.016	965.44
434.392	980.36
434.767	996.17
435.143	986.46
435.518	1022.39
435.894	1040.47
436.269	1022.16
436.644	1052.9
437.02	1066
437.395	1054.93
437.77	1074.36
438.145	1068.04
438.52	1096.51
438.895	1089.96
439.271	1107.36
439.646	1124.08
440.021	1122.27
440.395	1134.02
440.77	1139
441.145	1173.8
441.52	1175.38
441.895	1171.09
442.27	1170.63
442.645	1166.34
443.019	1151.65
443.394	1188.94
443.769	1181.93
444.143	1179.22
444.518	1212.21
444.892	1197.07
445.267	1175.38
445.641	1208.37
446.016	1184.87
446.39	1221.03
446.764	1209.95
447.139	1216.51
447.513	1240.69
447.887	1248.82
448.262	1252.21
448.636	1249.73
449.01	1248.82
449.384	1256.05
449.758	1255.38
450.132	1290.4
450.506	1275.49
450.88	1286.34
451.254	1286.79
451.628	1304.64
452.002	1279.33
452.376	1319.33
452.75	1299.22
453.123	1345.32
453.497	1376.96
453.871	1339.89
454.244	1341.93
454.618	1359.55
454.992	1386.45
455.365	1412.43
455.739	1381.93
456.112	1401.14
456.486	1416.5
456.859	1423.73
457.232	1429.61
457.606	1413.11
457.979	1442.94
458.352	1463.05
458.725	1476.61
459.099	1470.96
459.472	1474.35
459.845	1536.05
460.218	1521.58
460.591	1509.16
460.964	1485.65
461.337	1553
461.71	1569.94
462.083	1627.12
462.456	1574.92
462.829	1562.71
463.201	1606.78
463.574	1578.76
463.947	1596.16
464.32	1626.44
464.692	1655.59
465.065	1653.11
465.438	1683.61
465.81	1695.14
466.183	1689.26
466.555	1717.06
466.928	1710.96
467.3	1756.83
467.672	1753.22
468.045	1786.44
468.417	1762.71
468.789	1773.1
469.161	1785.08
469.534	1834.8
469.906	1844.29
470.278	1836.38
470.65	1850.16
471.022	1868.02
471.394	1893.33
471.766	1931.97
472.138	1963.83
472.51	1972.65
472.882	1963.83
473.253	2000.89
473.625	2004.28
473.997	2068.46
474.369	2072.76
474.74	2108.01
475.112	2070.5
475.484	2111.4
475.855	2143.71
476.227	2155.47
476.598	2164.51
476.97	2198.85
477.341	2225.07
477.713	2241.11
478.084	2256.03
478.455	2322.02
478.827	2296.48
479.198	2367.66
479.569	2340.77
479.94	2413.09
480.311	2405.85
480.682	2454.89
481.053	2455.8
481.424	2520.2
481.795	2512.97
482.166	2549.35
482.537	2594.32
482.908	2668.22
483.279	2628.45
483.65	2666.41
484.021	2686.53
484.391	2723.13
484.762	2782.12
485.133	2735.79
485.503	2783.25
485.874	2808.33
486.244	2823.24
486.615	2850.81
486.985	2883.81
487.356	2939.17
487.726	2923.58
488.097	2994.77
488.467	2989.12
488.837	3060.53
489.207	3058.72
489.578	3078.38
489.948	3138.26
490.318	3182.78
490.688	3158.38
491.058	3211.03
491.428	3204.03
491.798	3249
492.168	3323.12
492.538	3285.15
492.908	3351.82
493.278	3358.6
493.648	3335.1
494.017	3401.53
494.387	3414.42
494.757	3433.85
495.126	3446.73
495.496	3473.17
495.866	3483.34
496.235	3548.65
496.605	3553.17
496.974	3539.84
497.344	3583
497.713	3545.94
498.082	3572.38
498.452	3607.41
498.821	3616.22
499.19	3611.7
499.559	3647.4
499.928	3665.26
500.298	3697.57
500.667	3739.38
501.036	3724.46
501.405	3752.49
501.774	3763.33
502.143	3779.83
502.512	3780.96
502.88	3850.56
503.249	3800.62
503.618	3837.68
503.987	3804.46
504.356	3863.22
504.724	3841.75
505.093	3859.38
505.462	3873.39
505.83	3928.07
506.199	3886.95
506.567	3947.06
506.936	3946.83
507.304	4020.28
507.672	3990.22
508.041	4021.41
508.409	4044.68
508.777	4056.66
509.145	4104.79
509.514	4011.01
509.882	4034.29
510.25	4062.08
510.618	4084.91
510.986	4105.25
511.354	4168.07
511.722	4151.57
512.09	4154.06
512.458	4170.1
512.826	4145.47
513.193	4226.15
513.561	4185.02
513.929	4185.7
514.297	4227.73
514.664	4228.18
515.032	4306.6
515.4	4316.31
515.767	4284.45
516.135	4294.17
516.502	4300.04
516.869	4331.23
517.237	4318.35
517.604	4301.17
517.972	4332.36
518.339	4345.01
518.706	4355.41
519.073	4343.88
519.44	4411
519.808	4411.9
520.175	4390.89
520.542	4404.22
520.909	4439.02
521.276	4457.1
521.643	4449.19
522.009	4520.15
522.376	4514.5
522.743	4555.63
523.11	4534.39
523.477	4587.04
523.843	4589.98
524.21	4582.29
524.577	4610.09
524.943	4691.67
525.31	4624.33
525.676	4680.37
526.043	4735.06
526.409	4722.63
526.776	4740.26
527.142	4755.85
527.508	4827.49
527.874	4811.22
528.241	4829.29
528.607	4876.3
528.973	4907.48
529.339	4921.27
529.705	4959.23
530.071	4955.17
530.437	4993.81
530.803	5005.33
531.169	5028.84
531.535	5045.11
531.901	5035.84
532.267	5091.43
532.632	5127.59
532.998	5151.55
533.364	5174.6
533.73	5165.33
534.095	5206.69
534.461	5222.73
534.826	5291.43
535.192	5271.32
535.557	5296.17
535.923	5325.1
536.288	5283.75
536.653	5333.24
537.019	5302.95
537.384	5325.33
537.749	5373.23
538.114	5380.47
538.479	5408.04
538.845	5370.75
539.21	5496.85
539.575	5446
539.94	5548.15
540.305	5542.27
540.67	5532.78
541.034	5522.16
541.399	5570.97
541.764	5616.84
542.129	5611.19
542.494	5646.22
542.858	5703.85
543.223	5660.91
543.587	5727.12
543.952	5741.13
544.316	5817.06
544.681	5740.46
545.045	5808.7
545.41	5828.14
545.774	5851.41
546.138	5896.16
546.503	5900
546.867	5952.2
547.231	6009.6
547.595	5989.04
547.959	6002.37
548.324	5982.48
548.688	6017.96
549.052	6044.86
549.416	6055.7
549.779	6078.98
550.143	6107
550.507	6106.32
550.871	6128.47
551.235	6084.85
551.599	6242.59
551.962	6198.07
552.326	6225.64
552.689	6261.8
553.053	6272.65
553.417	6327.79
553.78	6347.22
554.143	6307
554.507	6309.93
554.87	6398.52
555.234	6422.92
555.597	6399.42
555.96	6424.73
556.323	6417.05
556.686	6468.12
557.05	6475.35
557.413	6489.36
557.776	6486.65
558.139	6522.58
558.502	6533.66
558.865	6552.86
559.228	6624.5
559.59	6611.62
559.953	6610.04
560.316	6650.04
560.679	6703.37
561.041	6729.81
561.404	6699.08
561.767	6761.45
562.129	6721.67
562.492	6818.17
562.854	6834.89
563.217	6812.29
563.579	6854.1
563.941	6863.59
564.304	6868.11
564.666	6942.68
565.028	6938.17
565.39	6959.41
565.753	6980.2
566.115	6939.29
566.477	7000.99
566.839	7034.21
567.201	7102.45
567.563	7102
567.925	7196.92
568.287	7167.99
568.648	7131.61
569.01	7223.36
569.372	7260.19
569.734	7233.52
570.095	7266.74
570.457	7358.72
570.819	7318.04
571.18	7351.04
571.542	7430.13
571.903	7429.68
572.265	7557.58
572.626	7542.44
572.987	7532.05
573.349	7648.2
573.71	7598.94
574.071	7671.03
574.432	7725.04
574.794	7790.35
575.155	7827.63
575.516	7850.01
575.877	7931.59
576.238	7954.64
576.599	8056.1
576.96	8175.87
577.32	8197.34
577.681	8250.9
578.042	8360.05
578.403	8440.5
578.763	8527.28
579.124	8618.8
579.485	8721.62
579.845	8845.01
580.206	8961.61
580.566	9021.5
580.927	9166.58
581.287	9280.93
581.648	9385.56
582.008	9474.82
582.368	9681.6
582.728	9746
583.089	9899.67
583.449	10048.37
583.809	10258.98
584.169	10427.34
584.529	10613.1
584.889	10789.59
585.249	10963.82
585.609	11092.18
585.969	11325.62
586.329	11570.36
586.688	11785.72
587.048	11962.44
587.408	12160.17
587.768	12374.86
588.127	12686.94
588.487	12783.21
588.846	13154.72
589.206	13321.5
589.565	13589.52
589.925	13893.91
590.284	14129.61
590.643	14368.25
591.003	14671.75
591.362	15003.72
591.721	15213.65
592.08	15370.26
592.44	15847.99
592.799	16057.02
593.158	16344.47
593.517	16736.33
593.876	16974.06
594.235	17212.25
594.593	17563.2
594.952	17783.08
595.311	18126.57
595.67	18485.21
596.029	18818.53
596.387	19068.24
596.746	19390.49
597.104	19679.07
597.463	19898.73
597.822	20251.94
598.18	20415.78
598.538	20687.86
598.897	21189.99
599.255	21260.95
599.613	21902.52
599.972	22020.03
600.33	22345.22
600.688	22540.92
601.046	22979.1
601.404	23202.82
601.762	23488.69
602.12	23810.94
602.478	24143.81
602.836	24422.45
603.194	24540.87
603.552	24859.5
603.91	25047.07
604.268	25395.76
604.625	25673.49
604.983	25905.8
605.341	26084.1
605.698	26382.63
606.056	26638.44
606.413	26950.75
606.771	27330.17
607.128	27460.11
607.485	27654.23
607.843	27845.41
608.2	28230.26
608.557	28556.81
608.914	28635.22
609.272	28912.5
609.629	29164.93
609.986	29440.85
610.343	29484.46
610.7	29990.21
611.057	30148.4
611.414	30265.24
611.771	30430.43
612.127	30774.6
612.484	30969.17
612.841	31173.91
613.198	30994.48
613.554	31321.7
613.911	31752.43
614.267	31745.42
614.624	31987.68
614.98	32181.8
615.337	32469.92
615.693	32606.19
616.05	32640.99
616.406	32853.42
616.762	32876.24
617.118	33115.33
617.475	33201.66
617.831	33453.4
618.187	33594.87
618.543	33737.01
618.899	34065.81
619.255	34044.12
619.611	34156.88
619.967	34510.1
620.323	34649.75
620.678	34456.54
621.034	34600.94
621.39	34663.54
621.746	34749.86
622.101	35233.69
622.457	35110.31
622.812	35259.68
623.168	35396.63
623.523	35494.93
623.879	35629.39
624.234	35408.15
624.589	35610.63
624.945	35730.85
625.3	36002.03
625.655	35953
626.01	35992.32
626.365	36233.44
626.72	36235.93
627.075	36298.3
627.43	36326.32
627.785	36284.29
628.14	36474.56
628.495	36524.28
628.85	36615.12
629.205	36480.21
629.559	36719.08
629.914	36601.57
630.269	36763.14
630.623	36698.74
630.978	36582.81
631.332	36731.28
631.687	36942.8
632.041	36711.17
632.396	36848.34
632.75	36802.01
633.104	37006.53
633.459	36815.12
633.813	36857.15
634.167	36895.8
634.521	36889.02
634.875	37034.1
635.229	36966.53
635.583	36879.98
635.937	36955
636.291	36879.52
636.645	36850.6
636.999	36882.01
637.352	37116.81
637.706	36875.46
638.06	36994.78
638.413	36982.57
638.767	36834.1
639.121	36965.17
639.474	36831.62
639.828	36821.22
640.181	37033.19
640.534	36862.12
640.888	36920.88
641.241	36715.69
641.594	36903.03
641.947	37006.98
642.301	36769.47
642.654	36968.34
643.007	36769.47
643.36	36868.68
643.713	36790.94
644.066	36946.19
644.419	36907.09
644.771	36456.26
645.124	36136.49
645.477	36348.92
645.83	35903.51
646.182	35879.78
646.535	35585.77
646.888	35866.44
647.24	35802.04
647.593	35852.88
647.945	35704.64
648.298	35661.7
648.65	35536.96
649.002	35373.8
649.355	35650.86
649.707	35626
650.059	35834.13
650.411	36303.49
650.763	36341.91
651.115	36604.5
651.467	36478.86
651.819	36588.46
652.171	36439.31
652.523	36367.22
652.875	36398.41
653.227	36276.6
653.578	36463.72
653.93	36414
654.282	36289.94
654.633	36140.56
654.985	36241.8
655.337	36361.57
655.688	36278.86
656.039	36380.33
656.391	36039.32
656.742	36122.93
657.094	36148.7
657.445	36235.47
657.796	36050.85
658.147	36091.3
658.498	36138.75
658.849	36165.19
659.2	36151.41
659.551	36105.08
659.902	36183.27
660.253	36170.39
660.604	36256.94
660.955	35939.89
661.306	36009.72
661.656	35983.5
662.007	36104.18
662.358	36141.92
662.708	36116.15
663.059	36001.58
663.409	35718.88
663.76	36163.39
664.11	36132.43
664.461	36057.4
664.811	36012.88
665.161	36006.33
665.511	35841.59
665.862	35936.27
666.212	36151.86
666.562	35976.95
666.912	35893.34
667.262	35908.02
667.612	36029.83
667.962	36117.96
668.312	35910.06
668.662	36003.84
669.011	35957.29
669.361	35984.63
669.711	35876.84
670.06	35799.1
670.41	35842.94
670.76	35773.57
671.109	35970.62
671.459	35911.64
671.808	35822.15
672.157	35844.07
672.507	35695.83
672.856	35570.63
673.205	35723.17
673.554	35931.53
673.904	35641.14
674.253	35779.67
674.602	35794.81
674.951	35198.89
675.3	35048.61
675.649	35713.45
675.998	35591.65
676.346	35581.25
676.695	35598.88
677.044	35473.46
677.393	35586.9
677.741	35575.6
678.09	35397.3
678.438	35498.54
678.787	35490.86
679.135	35491.54
679.484	35307.36
679.832	35481.6
680.181	35315.05
680.529	35388.72
680.877	35184.43
681.225	35203.41
681.573	35409.28
681.922	35222.62
682.27	35070.98
682.618	35162.28
682.966	34943.53
683.314	35082.51
683.661	34988.95
684.009	34647.94
684.357	34783.99
684.705	34631.22
685.053	34703.54
685.4	34735.17
685.748	34534.05
686.095	34511.9
686.443	34324.34
686.79	34400.72
687.138	34460.15
687.485	34329.76
687.832	34265.58
688.18	34308.29
688.527	34161.18
688.874	34161.4
689.221	33970
689.568	33869.21
689.915	33929.09
690.262	33875.54
690.609	33769.78
690.956	33655.88
691.303	33616.56
691.65	33518.26
691.997	33445.26
692.344	33205.72
692.69	33200.07
693.037	33288.66
693.383	32986.75
693.73	33168.44
694.077	32916.69
694.423	32850.7
694.769	32778.62
695.116	32742.23
695.462	32681.22
695.808	32620.2
696.155	32675.34
696.501	32381.34
696.847	32492.52
697.193	32214.34
697.539	32226.99
697.885	32061.57
698.231	32122.14
698.577	31907.68
698.923	31915.14
699.269	31761.24
699.614	31701.36
699.96	31564.86
700.306	31639.89
700.651	31532.55
700.997	31417.3
701.342	31237.64
701.688	31323.06
702.033	31204.19
702.379	31145.66
702.724	30982.73
703.069	31118.77
703.415	30730.31
703.76	30748.61
704.105	30912
704.45	30758.33
704.795	30566.47
705.14	30501.16
705.485	30534.15
705.83	30372.13
706.175	30379.13
706.52	30161.06
706.865	30124.22
707.209	30187.5
707.554	30034.51
707.899	30198.34
708.243	29945.7
708.588	29837.22
708.932	29691.47
709.277	29700.28
709.621	29603.11
709.966	29587.29
710.31	29502.54
710.654	29355.2
710.998	29460.51
711.342	29382.32
711.687	29331.47
712.031	29179.84
712.375	29153.63
712.719	29120.18
713.063	29035.66
713.407	29206.05
713.75	28934.42
714.094	28961.77
714.438	28945.95
714.782	28817.36
715.125	28585.96
715.469	28756.35
715.812	28660.53
716.156	28399.97
716.499	28519.29
716.843	28528.56
717.186	28254.21
717.53	28400.43
717.873	28449.69
718.216	28374.21
718.559	28192.97
718.902	27992.07
719.246	28149.13
719.589	27992.53
719.932	27861.46
720.275	27952.53
720.617	27893.09
720.96	27901.23
721.303	27834.79
721.646	27746.43
721.989	27606.32
722.331	27715.02
722.674	27739.2
723.016	27630.28
723.359	27541.01
723.701	27647.9
724.044	27356.84
724.386	27219.67
724.729	27427.34
725.071	27267.12
725.413	27208.14
725.755	27307.12
726.097	27132.44
726.439	27021.03
726.782	27088.14
727.124	27183.28
727.465	27129.72
727.807	27000.01
728.149	26883.86
728.491	26853.12
728.833	26966.34
729.175	26806.8
729.516	26781.03
729.858	26693.13
730.199	26772.22
730.541	26651.09
730.882	26666.91
731.224	26647.93
731.565	26561.6
731.906	26396.64
732.248	26547.14
732.589	26265.79
732.93	26205.23
733.271	26384.43
733.612	26257.88
733.953	26396.18
734.294	26237.77
734.635	26105.8
734.976	26224.21
735.317	26060.83
735.658	25927.72
735.999	26038.23
736.339	25993.26
736.68	26078.23
737.021	25967.04
737.361	25879.36
737.702	25927.27
738.042	25881.62
738.383	25767.95
738.723	25829.42
739.063	25824.9
739.404	25807.27
739.744	25736.77
740.084	25598.24
740.424	25612.25
740.764	25520.28
741.104	25634.85
741.444	25471.24
741.784	25446.38
742.124	25383.56
742.464	25414.29
742.804	25282.77
743.143	25229.66
743.483	25225.37
743.823	25107.86
744.162	25097.69
744.502	25136.78
744.841	25137.91
745.181	25181.75
745.52	24990.57
745.86	25062.21
746.199	24880.07
746.538	24912.61
746.877	24929.56
747.216	24983.34
747.556	24727.3
747.895	24914.87
748.234	24776.34
748.573	24740.63
748.911	24673.74
749.25	24760.75
749.589	24584.25
749.928	24545.39
750.267	24606.4
750.605	24577.25
750.944	24454.54
751.283	24455.44
751.621	24506.06
751.96	24301.32
752.298	24342.23
752.636	24348.78
752.975	24287.54
753.313	24048.9
753.651	24224.72
753.989	24066.98
754.327	23919.64
754.666	23844.16
755.004	24023.82
755.342	23921.45
755.679	23796.48
756.017	23646.65
756.355	23773.2
756.693	23648.91
757.031	23664.5
757.368	23487.33
757.706	23519.65
758.044	23330.28
758.381	23340.9
758.719	23203.5
759.056	23331.63
759.394	23305.64
759.731	23119.21
760.068	23036.72
760.405	23068.14
760.743	22913.79
761.08	22950.63
761.417	22906.11
761.754	22813.91
762.091	22734.81
762.428	22715.6
762.765	22547.7
763.102	22616.17
763.438	22429.06
763.775	22233.13
764.112	22402.84
764.449	22499.56
764.785	22316.52
765.122	22069.52
765.458	22080.14
765.795	21948.39
766.131	21861.39
766.467	21924.89
766.804	21769.87
767.14	21723.99
767.476	21689.19
767.812	21661.17
768.148	21516.54
768.485	21511.57
768.821	21317.22
769.157	21299.82
769.492	21274.29
769.828	21292.82
770.164	21098.24
770.5	21046.04
770.836	21036.78
771.171	20807.63
771.507	20772.38
771.842	20641.31
772.178	20648.31
772.513	20645.6
772.849	20570.35
773.184	20536.68
773.519	20520.86
773.855	20313.86
774.19	20288.32
774.525	20235.89
774.86	20206.74
775.195	20141.66
775.53	19971.49
775.865	20042.45
776.2	19860.31
776.535	19776.92
776.87	19665.97
777.205	19691.73
777.539	19480.21
777.874	19608.57
778.209	19336.71
778.543	19383.49
778.878	19170.39
779.212	19236.6
779.547	19164.06
779.881	19256.26
780.215	19016.04
780.55	19092.42
780.884	18945.08
781.218	18907.79
781.552	18812.43
781.886	18745.54
782.22	18724.07
782.554	18665.09
782.888	18401.37
783.222	18362.27
783.556	18303.97
783.889	18196.4
784.223	18179
784.557	18112.11
784.89	18113.24
785.224	18004.09
785.557	17886.8
785.891	17959.34
786.224	17861.04
786.558	17795.05
786.891	17586.25
787.224	17543.99
787.557	17431.9
787.891	17550.99
788.224	17478.23
788.557	17607.94
788.89	17405.01
789.223	17348.06
789.556	17202.08
789.888	17205.47
790.221	17137.9
790.554	16988.3
790.887	16972.25
791.219	16916.43
791.552	16892.93
791.884	16771.35
792.217	16828.53
792.549	16656.78
792.882	16555.77
793.214	16519.16
793.546	16466.28
793.879	16423.57
794.211	16359.16
794.543	16396.67
794.875	16279.16
795.207	16290.24
795.539	16153.52
795.871	16261.54
796.203	16164.14
796.535	15998.27
796.867	15992.84
797.198	15850.25
797.53	15863.58
797.862	15769.12
798.193	15839.17
798.525	15708.56
798.856	15736.58
799.188	15603.93
799.519	15524.38
799.85	15484.61
800.182	15392.18
800.513	15547.43
800.844	15299.3
801.175	15289.81
801.506	15351.96
801.837	15147.67
802.168	15201.22
802.499	15186.76
802.83	15097.05
803.161	14932.98
803.491	15003.04
803.822	15013.21
804.153	14928.24
804.483	14804.4
804.814	14720.56
805.145	14750.39
805.475	14762.37
805.805	14617.06
806.136	14581.35
806.466	14650.28
806.796	14608.7
807.126	14514.69
807.457	14392.66
807.787	14404.18
808.117	14379.33
808.447	14289.61
808.777	14347.01
809.107	14267.46
809.436	14253.68
809.766	14173
810.096	14175.49
810.426	14024.31
810.755	14127.35
811.085	14100.69
811.414	14053.23
811.744	13932.11
812.073	13935.27
812.403	13953.35
812.732	13744.77
813.061	13718.55
813.39	13785.44
813.719	13787.25
814.049	13852.56
814.378	13776.18
814.707	13646.69
815.036	13613.02
815.365	13566.92
815.693	13425.23
816.022	13393.81
816.351	13359.01
816.68	13342.74
817.008	13358.34
817.337	13330.09
817.665	13196.31
817.994	13236.3
818.322	13221.62
818.651	13171.67
818.979	13152.24
819.307	13223.2
819.636	13137.32
819.964	13086.03
820.292	13081.96
820.62	13104.1
820.948	12953.83
821.276	13017.78
821.604	13011
821.932	13105.23
822.259	12993.15
822.587	12997.67
822.915	13054.61
823.243	13061.39
823.57	12974.16
823.898	12970.32
824.225	12918.8
824.553	12921.74
824.88	12963.32
825.207	13029.76
825.535	12931.23
825.862	13004.22
826.189	12851.68
826.516	12988.4
826.843	12978.23
827.17	12865.92
827.497	13038.57
827.824	12961.74
828.151	12973.03
828.478	12923.09
828.805	12943.43
829.131	12947.5
829.458	12917.89
829.785	12907.05
830.111	12831.34
830.438	13000.83
830.764	12974.16
831.09	12919.7
831.417	12852.36
831.743	12941.17
832.069	12872.7
832.395	12729.88
832.722	12895.97
833.048	12837.9
833.374	12851.23
833.7	12803.1
834.026	12859.59
834.351	12753.38
834.677	12864.34
835.003	12838.8
835.329	12796.99
835.654	12780.95
835.98	12780.05
836.306	12763.32
836.631	12662.53
836.956	12727.62
837.282	12717
837.607	12685.13
837.932	12653.49
838.258	12679.71
838.583	12602.42
838.908	12536.21
839.233	12520.84
839.558	12452.6
839.883	12512.71
840.208	12374.86
840.533	12473.61
840.858	12381.86
841.182	12375.76
841.507	12332.15
841.832	12256.22
842.156	12331.02
842.481	12221.87
842.805	12210.12
843.13	12191.36
843.454	12218.25
843.778	12105.49
844.103	12041.76
844.427	12114.3
844.751	12064.36
845.075	12054.87
845.399	12039.27
845.723	11945.94
846.047	11966.51
846.371	11905.94
846.695	11879.28
847.019	11771.03
847.343	11789.11
847.666	11684.93
847.99	11614.88
848.313	11668.44
848.637	11432.51
848.96	11540.53
849.284	11435.67
849.607	11452.85
849.931	11317.71
850.254	11287.43
850.577	11272.97
850.9	11206.75
851.223	11216.47
851.546	11177.6
851.869	11088.11
852.192	11114.78
852.515	11000.88
852.838	10951.62
853.161	10929.7
853.483	10936.7
853.806	10831.17
854.129	10802.7
854.451	10771.51
854.774	10744.17
855.096	10748.01
855.419	10723.38
855.741	10679.31
856.063	10594.34
856.385	10585.98
856.708	10497.85
857.03	10557.5
857.352	10496.04
857.674	10473.44
857.996	10407.68
858.318	10376.27
858.64	10405.19
858.961	10333.1
859.283	10355.93
859.605	10224.41
859.926	10252.43
860.248	10202.03
860.57	10139.44
860.891	10173.56
861.212	10133.56
861.534	10123.39
861.855	10068.7
862.176	10122.26
862.498	10065.09
862.819	10072.77
863.14	9972.21
863.461	9957.75
863.782	9971.53
864.103	9941.7
864.424	9938.31
864.745	9993.9
865.065	9877.52
865.386	9857.41
865.707	9883.17
866.027	9824.42
866.348	9842.95
866.668	9848.82
866.989	9723.85
867.309	9759.56
867.63	9725.44
867.95	9704.87
868.27	9717.08
868.59	9694.48
868.91	9653.12
869.23	9697.41
869.55	9633.24
869.87	9724.53
870.19	9605.67
870.51	9687.7
870.83	9623.29
871.15	9559.34
871.469	9542.39
871.789	9561.15
872.109	9589.39
872.428	9540.58
872.748	9531.54
873.067	9449.06
873.386	9552.33
873.706	9520.7
874.025	9524.09
874.344	9355.95
874.663	9471.43
874.982	9389.17
875.301	9390.08
875.62	9395.28
875.939	9350.08
876.258	9330.64
876.577	9303.07
876.896	9312.34
877.214	9237.77
877.533	9291.78
877.852	9281.61
878.17	9292.68
878.489	9224.88
878.807	9207.26
879.125	9270.08
879.444	9219.69
879.762	9137.2
880.08	9142.63
880.398	9115.73
880.716	9172.68
881.034	9061.05
881.352	9114.6
881.67	9079.58
881.988	9045.91
882.306	9026.02
882.624	9039.13
882.941	8936.98
883.259	9016.08
883.577	8959.81
883.894	8896.31
884.212	8889.07
884.529	8799.36
884.846	8841.39
885.164	8834.39
885.481	8752.81
885.798	8836.19
886.115	8704.45
886.432	8748.51
886.75	8749.19
887.067	8672.81
887.383	8649.76
887.7	8708.74
888.017	8632.81
888.334	8629.19
888.651	8565.24
888.967	8536.54
889.284	8465.36
889.6	8538.8
889.917	8454.06
890.233	8464.45
890.55	8391.01
890.866	8477.11
891.182	8417.45
891.498	8354.17
891.815	8379.71
892.131	8328.41
892.447	8339.26
892.763	8314.17
893.079	8235.98
893.395	8242.31
893.71	8221.52
894.026	8233.5
894.342	8135.2
894.657	8093.61
894.973	8050.23
895.289	8046.61
895.604	8066.5
895.92	8039.6
896.235	7956.22
896.55	8019.49
896.865	7979.72
897.181	7980.85
897.496	7907.63
897.811	7890
898.126	7867.86
898.441	7819.72
898.756	7775.88
899.071	7797.8
899.386	7797.8
899.7	7713.74
900.015	7681.87
900.33	7615.89
900.644	7640.07
900.959	7624.93
901.273	7595.32
901.588	7596.23
901.902	7485.27
902.216	7484.59
902.531	7479.62
902.845	7441.43
903.159	7382
903.473	7370.7
903.787	7365.05
904.101	7333.41
904.415	7303.58
904.729	7257.03
905.042	7207.08
905.356	7210.02
905.67	7200.53
905.984	7210.7
906.297	7138.16
906.611	7113.75
906.924	7134.09
907.237	7076.69
907.551	7065.62
907.864	7005.51
908.177	6981.33
908.491	6964.83
908.804	6939.52
909.117	6904.72
909.43	6885.74
909.743	6858.62
910.056	6824.27
910.368	6737.49
910.681	6764.16
910.994	6770.71
911.307	6742.24
911.619	6644.84
911.932	6651.39
912.244	6596.03
912.557	6610.49
912.869	6628.57
913.181	6542.7
913.494	6581.56
913.806	6434
914.118	6432.42
914.43	6445.3
914.742	6402.81
915.054	6399.42
915.366	6415.69
915.678	6349.25
915.99	6320.1
916.302	6267
916.613	6248.92
916.925	6235.81
917.236	6196.49
917.548	6214.57
917.859	6198.52
918.171	6128.02
918.482	6103.38
918.794	6064.97
919.105	6098.19
919.416	5989.04
919.727	6000.11
920.038	5969.6
920.349	5940.68
920.66	5938.64
920.971	5916.27
921.282	5868.14
921.593	5843.05
921.903	5859.32
922.214	5850.96
922.525	5814.35
922.835	5802.15
923.146	5683.51
923.456	5724.19
923.767	5713.11
924.077	5644.64
924.387	5687.58
924.697	5634.92
925.008	5651.19
925.318	5568.71
925.628	5607.35
925.938	5549.27
926.248	5505.43
926.558	5530.52
926.867	5469.05
927.177	5436.28
927.487	5408.26
927.796	5425.89
928.106	5348.83
928.416	5327.13
928.725	5335.04
929.034	5308.83
929.344	5340.69
929.653	5247.59
929.962	5185.22
930.271	5202.84
930.581	5178.21
930.89	5156.06
931.199	5135.27
931.508	5123.52
931.817	5111.09
932.125	5062.96
932.434	5077.87
932.743	5036.52
933.051	4992.91
933.36	5014.6
933.669	4977.76
933.977	4958.1
934.286	4937.99
934.594	4905.9
934.902	4897.77
935.21	4844.43
935.519	4850.54
935.827	4819.58
936.135	4775.96
936.443	4781.61
936.751	4751.78
937.059	4736.19
937.367	4717.88
937.674	4705.68
937.982	4650.99
938.29	4630.43
938.597	4696.64
938.905	4579.36
939.213	4572.58
939.52	4574.39
939.827	4579.81
940.135	4548.17
940.442	4525.57
940.749	4491.22
941.056	4507.72
941.363	4483.99
941.67	4454.39
941.977	4449.64
942.284	4421.4
942.591	4397.67
942.898	4370.77
943.205	4374.84
943.511	4305.92
943.818	4360.15
944.125	4311.34
944.431	4269.31
944.738	4317.89
945.044	4245.13
945.35	4223.21
945.657	4206.26
945.963	4209.65
946.269	4165.13
946.575	4195.19
946.881	4124.23
947.187	4114.74
947.493	4111.57
947.799	4119.93
948.105	4085.36
948.41	4032.7
948.716	4048.98
949.022	4021.86
949.327	4021.41
949.633	3972.59
949.938	3980.05
950.244	4001.75
950.549	3935.98
950.854	3888.08
951.16	3872.48
951.465	3917
951.77	3885.82
952.075	3864.8
952.38	3820.96
952.685	3837.46
952.99	3797.23
953.294	3779.15
953.599	3751.36
953.904	3724.46
954.209	3710.23
954.513	3724.46
954.818	3707.06
955.122	3668.87
955.426	3658.25
955.731	3640.4
956.035	3632.94
956.339	3617.57
956.643	3615.09
956.948	3592.04
957.252	3623.45
957.556	3552.27
957.86	3533.06
958.163	3535.77
958.467	3536.67
958.771	3535.32
959.075	3490.8
959.378	3466.62
959.682	3462.32
959.985	3445.6
960.289	3424.81
960.592	3388.43
960.896	3392.72
961.199	3401.31
961.502	3365.6
961.805	3370.58
962.108	3366.96
962.411	3336.68
962.714	3276.11
963.017	3293.52
963.32	3305.72
963.623	3264.36
963.926	3242.44
964.228	3231.14
964.531	3222.78
964.833	3190.01
965.136	3219.17
965.438	3202.67
965.741	3203.35
966.043	3120.41
966.345	3143.24
966.648	3117.7
966.95	3106.18
967.252	3087.19
967.554	3069.79
967.856	3085.61
968.158	3039.74
968.46	3060.3
968.761	3063.92
969.063	3062.11
969.365	2983.47
969.666	3035.22
969.968	2957.03
970.269	2972.62
970.571	2950.47
970.872	2942.34
971.174	2901.21
971.475	2931.49
971.776	2919.06
972.077	2913.19
972.378	2871.61
972.679	2852.62
972.98	2853.53
973.281	2870.25
973.582	2837.71
973.883	2837.93
974.183	2812.62
974.484	2773.53
974.785	2801.32
975.085	2749.8
975.386	2792.74
975.686	2750.48
975.986	2753.87
976.287	2736.92
976.587	2717.03
976.887	2699.63
977.187	2739.18
977.487	2687.66
977.787	2653.53
978.087	2658.96
978.387	2662.8
978.687	2664.15
978.987	2680.42
979.286	2596.13
979.586	2609.69
979.885	2603.36
980.185	2588
980.484	2560.65
980.784	2530.37
981.083	2544.61
981.382	2515.23
981.682	2509.35
981.981	2479.75
982.28	2493.76
982.579	2481.79
982.878	2493.76
983.177	2477.27
983.475	2481.79
983.774	2437.49
984.073	2420.32
984.372	2437.94
984.67	2409.24
984.969	2388.68
985.267	2410.15
985.566	2405.18
985.864	2370.38
986.162	2377.16
986.461	2350.49
986.759	2351.62
987.057	2320.21
987.355	2312.98
987.653	2288.34
987.951	2271.4
988.249	2284.05
988.547	2261.9
988.844	2253.77
989.142	2259.42
989.44	2223.71
989.737	2285.86
990.035	2227.33
990.332	2196.82
990.63	2239.98
990.927	2211.96
991.224	2213.09
991.521	2182.58
991.819	2162.47
992.116	2163.15
992.413	2155.24
992.71	2159.99
993.006	2105.75
993.303	2162.92
993.6	2081.34
993.897	2103.04
994.193	2083.15
994.49	2068.24
994.787	2068.69
995.083	2062.14
995.379	2021.68
995.676	2050.84
995.972	2030.5
996.268	2029.37
996.565	2014.45
996.861	1999.76
997.157	2003.83
997.453	2006.77
997.749	1967.45
998.044	1968.8
998.34	1974.45
998.636	1976.26
998.932	1973.1
999.227	1893.55
999.523	1896.04
999.818	1920.44
1000.114	1886.55
1000.409	1892.87
1000.704	1915.7
1001	1870.73
1001.295	1856.72
1001.59	1850.16
1001.885	1856.26
1002.18	1813.1
1002.475	1803.38
1002.77	1780.79
1003.065	1792.76
1003.359	1817.4
1003.654	1781.46
1003.949	1797.51
1004.243	1760.22
1004.538	1759.32
1004.832	1742.6
1005.127	1744.86
1005.421	1739.88
1005.715	1681.35
1006.009	1695.14
1006.304	1699.21
1006.598	1685.65
1006.892	1661.47
1007.186	1698.75
1007.48	1655.14
1007.773	1691.3
1008.067	1626.21
1008.361	1639.32
1008.655	1615.14
1008.948	1616.05
1009.242	1575.14
1009.535	1627.12
1009.829	1621.24
1010.122	1597.06
1010.415	1580.34
1010.708	1567.68
1011.001	1579.21
1011.295	1550.06
1011.588	1566.55
1011.881	1507.35
1012.173	1564.07
1012.466	1501.47
1012.759	1506.9
1013.052	1513.45
1013.344	1488.14
1013.637	1496.95
1013.93	1454.24
1014.222	1441.81
1014.514	1457.86
1014.807	1446.78
1015.099	1451.98
1015.391	1453.34
1015.683	1396.16
1015.976	1412.21
1016.268	1413.56
1016.56	1398.2
1016.851	1386.9
1017.143	1371.53
1017.435	1395.94
1017.727	1383.06
1018.018	1340.35
1018.31	1393.9
1018.602	1349.16
1018.893	1350.06
1019.185	1327.01
1019.476	1315.71
1019.767	1308.71
1020.058	1293.57
1020.35	1302.61
1020.641	1263.96
1020.932	1267.13
1021.223	1262.61
1021.514	1268.03
1021.804	1256.96
1022.095	1246.56
1022.386	1261.03
1022.677	1236.17
1022.967	1230.52
1023.258	1208.6
1023.548	1209.95
1023.839	1203.17
1024.129	1207.92
1024.419	1177.86
1024.709	1167.24
1025	1163.85
1025.29	1143.74
1025.58	1171.54
1025.87	1145.32
1026.16	1122.05
1026.449	1153.01
1026.739	1138.09
1027.029	1132.22
1027.319	1134.25
1027.608	1099.9
1027.898	1080.24
1028.187	1098.54
1028.477	1101.71
1028.766	1077.3
1029.055	1063.07
1029.344	1058.32
1029.634	1058.55
1029.923	1073.46
1030.212	1063.29
1030.501	1053.35
1030.79	1042.27
1031.078	1020.81
1031.367	1014.93
1031.656	1012.22
1031.945	1018.55
1032.233	1020.13
1032.522	1006.12
1032.81	983.52
1033.099	965.44
1033.387	973.8
1033.675	954.82
1033.963	957.08
1034.251	937.87
1034.54	978.55
1034.828	961.82
1035.116	948.49
1035.403	939.45
1035.691	942.39
1035.979	918.66
1036.267	932
1036.554	910.3
1036.842	902.39
1037.129	886.35
1037.417	908.49
1037.704	906.23
1037.992	889.74
1038.279	868.27
1038.566	872.56
1038.853	872.56
1039.14	872.56
