Data from hue_270_FLMS001491_00083.txt Node
Date: Tue Feb 07 15:57:48 GMT 2017
User: dcchb
Spectrometer: FLMS00149
Trigger mode: 0
Integration Time (sec): 2.000000E-2
Scans to average: 10
Electric dark correction enabled: true
Nonlinearity correction enabled: false
Boxcar width: 0
XAxis mode: Wavelengths
Number of Pixels in Spectrum: 2048
>>>>>Begin Spectral Data<<<<<
341.393	-3.45
341.776	-3.45
342.16	-3.45
342.543	-68.08
342.927	-44.58
343.31	-56.1
343.693	-65.82
344.077	-52.48
344.46	-61.3
344.843	-61.3
345.226	-48.64
345.61	-24.69
345.993	-39.6
346.376	-0.73
346.759	13.05
347.142	27.29
347.525	37.23
347.908	53.95
348.291	69.09
348.674	101.41
349.057	108.64
349.44	115.65
349.823	140.96
350.206	170.79
350.588	176.66
350.971	212.37
351.354	204.91
351.737	241.97
352.119	257.11
352.502	258.69
352.884	265.47
353.267	258.02
353.65	254.63
354.032	299.14
354.414	271.57
354.797	309.54
355.179	298.47
355.562	329.43
355.944	330.78
356.326	333.27
356.709	318.81
357.091	328.07
357.473	325.36
357.855	345.25
358.238	338.24
358.62	336.43
359.002	324.91
359.384	342.08
359.766	334.62
360.148	335.53
360.53	347.05
360.912	345.7
361.294	322.19
361.676	309.54
362.057	319.03
362.439	324.68
362.821	333.04
363.203	311.12
363.584	307.05
363.966	325.81
364.348	327.62
364.729	314.96
365.111	324.23
365.493	310.44
365.874	322.87
366.256	308.41
366.637	307.51
367.019	297.56
367.4	303.21
367.781	310.22
368.163	303.21
368.544	295.3
368.925	313.61
369.306	314.29
369.688	303.44
370.069	313.16
370.45	308.18
370.831	306.15
371.212	289.65
371.593	304.34
371.974	311.8
372.355	321.29
372.736	348.18
373.117	316.09
373.498	314.74
373.879	310.44
374.26	312.93
374.641	301.4
375.021	307.51
375.402	299.14
375.783	303.44
376.163	325.36
376.544	317.9
376.925	328.75
377.305	331.01
377.686	310.67
378.066	328.07
378.447	349.76
378.827	337.34
379.208	324.45
379.588	311.8
379.968	310.67
380.349	328.3
380.729	328.97
381.109	337.56
381.489	330.56
381.87	346.83
382.25	347.28
382.63	335.3
383.01	320.61
383.39	334.62
383.77	317.9
384.15	339.6
384.53	340.95
384.91	356.32
385.29	344.34
385.67	355.87
386.049	353.83
386.429	334.17
386.809	365.36
387.189	325.81
387.568	345.7
387.948	361.06
388.328	332.59
388.707	372.14
389.087	349.31
389.466	358.13
389.846	347.5
390.225	364.45
390.605	384.34
390.984	371.69
391.363	361.97
391.743	370.1
392.122	374.4
392.501	377.33
392.881	395.87
393.26	372.82
393.639	377.56
394.018	380.05
394.397	378.92
394.776	387.05
395.155	377.79
395.534	389.99
395.913	382.53
396.292	393.38
396.671	402.64
397.05	384.79
397.429	392.25
397.808	411.01
398.186	411.01
398.565	397.45
398.944	377.33
399.323	386.6
399.701	406.94
400.08	420.95
400.458	415.3
400.837	417.11
401.215	437.9
401.594	424.57
401.972	416.43
402.351	416.66
402.729	420.95
403.107	444.68
403.486	413.94
403.864	419.14
404.242	432.93
404.62	441.74
404.999	462.3
405.377	463.21
405.755	446.26
406.133	454.85
406.511	449.2
406.889	470.21
407.267	467.5
407.645	473.6
408.023	473.15
408.401	461.17
408.779	510.89
409.156	488.29
409.534	486.48
409.912	496.43
410.29	500.04
410.667	503.43
411.045	535.52
411.422	510.44
411.8	513.38
412.178	541.4
412.555	553.15
412.933	554.28
413.31	574.17
413.687	555.86
414.065	585.69
414.442	571.45
414.819	569.87
415.197	589.76
415.574	576.2
415.951	609.64
416.328	624.79
416.705	636.31
417.082	624.33
417.46	635.18
417.837	644.9
418.214	625.01
418.591	660.27
418.967	650.1
419.344	665.01
419.721	665.24
420.098	695.07
420.475	700.04
420.852	686.25
421.228	705.69
421.605	716.53
421.982	723.09
422.358	745.46
422.735	752.47
423.111	756.99
423.488	739.36
423.864	785.69
424.241	780.04
424.617	796.08
424.994	814.39
425.37	804.67
425.746	820.71
426.123	824.78
426.499	845.8
426.875	828.62
427.251	867.94
427.627	873.82
428.003	868.17
428.379	891.45
428.756	915.4
429.132	909.52
429.507	924.44
429.883	931.22
430.259	952.46
430.635	963.08
431.011	954.72
431.387	966.25
431.763	1023.42
432.138	986.36
432.514	1027.71
432.89	1009.86
433.265	1054.61
433.641	1068.16
434.016	1085.79
434.392	1109.07
434.767	1131.67
435.143	1125.56
435.518	1124.21
435.894	1143.87
436.269	1174.83
436.644	1208.95
437.02	1194.04
437.395	1195.62
437.77	1242.85
438.145	1266.35
438.52	1250.98
438.895	1286.01
439.271	1298.89
439.646	1333.02
440.021	1346.57
440.395	1351.77
440.77	1355.84
441.145	1350.87
441.52	1398.78
441.895	1387.25
442.27	1415.05
442.645	1414.82
443.019	1433.35
443.394	1446.69
443.769	1443.3
444.143	1438.55
444.518	1490.53
444.892	1476.74
445.267	1471.54
445.641	1470.64
446.016	1494.59
446.39	1515.38
446.764	1537.76
447.139	1503.86
447.513	1544.31
447.887	1531.88
448.262	1589.96
448.636	1550.19
449.01	1594.7
449.384	1574.82
449.758	1612.56
450.132	1646.23
450.506	1635.15
450.88	1634.93
451.254	1635.61
451.628	1687.13
452.002	1688.94
452.376	1671.99
452.75	1712.89
453.123	1714.7
453.497	1757.19
453.871	1755.38
454.244	1772.78
454.618	1799.22
454.992	1847.8
455.365	1801.7
455.739	1838.54
456.112	1850.74
456.486	1860.91
456.859	1874.24
457.232	1922.15
457.606	1907.46
457.979	1905.88
458.352	1982.26
458.725	1998.76
459.099	1965.32
459.472	2007.35
459.845	2064.97
460.218	2038.53
460.591	2070.62
460.964	2077.63
461.337	2087.57
461.71	2128.02
462.083	2181.58
462.456	2165.54
462.829	2164.86
463.201	2194.91
463.574	2188.81
463.947	2227.68
464.32	2285.76
464.692	2283.27
465.065	2309.49
465.438	2332.99
465.81	2342.48
466.183	2392.2
466.555	2429.71
466.928	2423.83
467.3	2410.5
467.672	2428.13
468.045	2529.82
468.417	2505.19
468.789	2525.98
469.161	2563.49
469.534	2618.41
469.906	2601.01
470.278	2640.78
470.65	2657.27
471.022	2682.13
471.394	2739.08
471.766	2779.76
472.138	2781.79
472.51	2822.02
472.882	2923.26
473.253	2884.39
473.625	2932.07
473.997	3010.03
474.369	3000.09
474.74	3013.2
475.112	3052.07
475.484	3092.97
475.855	3128.67
476.227	3165.74
476.598	3233.98
476.97	3242.57
477.341	3266.07
477.713	3350.59
478.084	3364.37
478.455	3414.99
478.827	3474.2
479.198	3553.97
479.569	3530.02
479.94	3665.84
480.311	3620.41
480.682	3682.33
481.053	3769.56
481.424	3828.54
481.795	3791.71
482.166	3895.43
482.537	3928.43
482.908	3993.74
483.279	3994.87
483.65	4065.15
484.021	4162.77
484.391	4173.17
484.762	4200.96
485.133	4214.97
485.503	4264.69
485.874	4355.08
486.244	4378.81
486.615	4434.86
486.985	4435.31
487.356	4567.28
487.726	4601.18
488.097	4636.66
488.467	4657.45
488.837	4718.46
489.207	4730.44
489.578	4804.56
489.948	4853.15
490.318	4870.1
490.688	4888.4
491.058	5022.18
491.428	5021.73
491.798	5077.55
492.168	5171.33
492.538	5155.74
492.908	5223.53
493.278	5215.4
493.648	5199.13
494.017	5304.21
494.387	5337.88
494.757	5380.37
495.126	5421.95
495.496	5418.56
495.866	5476.41
496.235	5520.48
496.605	5507.37
496.974	5582.85
497.344	5620.81
497.713	5661.49
498.082	5653.13
498.452	5683.86
498.821	5721.6
499.19	5738.1
499.559	5755.5
499.928	5785.78
500.298	5777.87
500.667	5844.54
501.036	5828.94
501.405	5906.91
501.774	5853.8
502.143	5945.32
502.512	5938.32
502.88	5966.79
503.249	6014.47
503.618	6036.17
503.987	6048.82
504.356	6012.89
504.724	6098.09
505.093	6112.1
505.462	6077.52
505.83	6136.73
506.199	6135.6
506.567	6187.58
506.936	6146.67
507.304	6211.76
507.672	6228.71
508.041	6204.98
508.409	6254.69
508.777	6265.09
509.145	6375.6
509.514	6392.77
509.882	6356.16
510.25	6343.96
510.618	6423.5
510.986	6409.27
511.354	6469.83
511.722	6461.47
512.09	6475.48
512.458	6459.66
512.826	6510.51
513.193	6557.06
513.561	6606.78
513.929	6567.23
514.297	6635.7
514.664	6649.03
515.032	6592.76
515.4	6648.58
515.767	6661.01
516.135	6686.32
516.502	6645.64
516.869	6732.2
517.237	6723.61
517.604	6693.78
517.972	6745.3
518.339	6775.81
518.706	6787.56
519.073	6793.66
519.44	6781.91
519.808	6818.3
520.175	6865.53
520.542	6891.74
520.909	6907.11
521.276	6842.48
521.643	6925.64
522.009	6858.75
522.376	6936.71
522.743	6971.29
523.11	6977.16
523.477	7086.99
523.843	7039.53
524.21	7067.33
524.577	7115.91
524.943	7089.25
525.31	7132.64
525.676	7165.63
526.043	7192.97
526.409	7242.46
526.776	7242.92
527.142	7273.42
527.508	7308
527.874	7334.44
528.241	7332.63
528.607	7356.13
528.973	7398.85
529.339	7401.33
529.705	7393.65
530.071	7467.77
530.437	7450.37
530.803	7494.44
531.169	7528.79
531.535	7435.45
531.901	7549.12
532.267	7505.96
532.632	7534.66
532.998	7566.75
533.364	7596.81
533.73	7541.89
534.095	7647.43
534.461	7624.6
534.826	7644.04
535.192	7655.79
535.557	7767.42
535.923	7659.18
536.288	7707.31
536.653	7713.86
537.019	7630.25
537.384	7679.74
537.749	7709.57
538.114	7738.72
538.479	7721.55
538.845	7738.5
539.21	7725.84
539.575	7748.89
539.94	7799.96
540.305	7813.75
540.67	7793.41
541.034	7787.76
541.399	7784.15
541.764	7801.32
542.129	7771.26
542.494	7803.35
542.858	7879.06
543.223	7914.99
543.587	7888.1
543.952	7857.59
544.316	7833.86
544.681	7860.3
545.045	7893.52
545.41	7926.06
545.774	7897.36
546.138	7875.89
546.503	7918.61
546.867	7888.55
547.231	7939.4
547.595	7950.24
547.959	7984.37
548.324	7951.6
548.688	7983.69
549.052	7996.12
549.416	7924.93
549.779	7978.26
550.143	7994.54
550.507	8033.86
550.871	8000.64
551.235	8003.35
551.599	8079.51
551.962	8046.06
552.326	8007.64
552.689	8083.57
553.053	8050.58
553.417	8115.89
553.78	8163.8
554.143	8152.05
554.507	8133.29
554.87	8127.87
555.234	8215.09
555.597	8139.39
555.96	8204.02
556.323	8224.81
556.686	8218.03
557.05	8232.5
557.413	8256
557.776	8241.08
558.139	8299.16
558.502	8332.38
558.865	8331.25
559.228	8419.38
559.59	8378.03
559.953	8383.68
560.316	8488.08
560.679	8418.25
561.041	8524.47
561.404	8469.1
561.767	8533.73
562.129	8518.36
562.492	8565.37
562.854	8590.68
563.217	8578.02
563.579	8578.02
563.941	8638.59
564.304	8659.83
564.666	8698.02
565.028	8690.79
565.39	8748.19
565.753	8801.07
566.115	8786.83
566.477	8865.7
566.839	8860.05
567.201	8957.45
567.563	8897.34
567.925	9032.47
568.287	9038.35
568.648	9017.11
569.01	8938.69
569.372	9156.31
569.734	9071.12
570.095	9140.72
570.457	9244.45
570.819	9158.12
571.18	9173.94
571.542	9226.37
571.903	9254.84
572.265	9304.11
572.626	9324.67
572.987	9335.52
573.349	9355.86
573.71	9374.16
574.071	9453.03
574.432	9447.38
574.794	9580.93
575.155	9569.18
575.516	9546.81
575.877	9606.7
576.238	9613.25
576.599	9686.92
576.96	9669.07
577.32	9711.78
577.681	9813.24
578.042	9833.36
578.403	9765.11
578.763	9824.54
579.124	9853.92
579.485	9898.89
579.845	9917.42
580.206	10008.72
580.566	9974.6
580.927	10010.75
581.287	9992.22
581.648	10035.16
582.008	10100.47
582.368	10031.54
582.728	10149.96
583.089	10162.39
583.449	10167.36
583.809	10158.32
584.169	10242.16
584.529	10224.31
584.889	10326.45
585.249	10246
585.609	10261.14
585.969	10410.74
586.329	10339.11
586.688	10380.24
587.048	10413.91
587.408	10476.5
587.768	10470.4
588.127	10478.99
588.487	10490.29
588.846	10521.47
589.206	10528.71
589.565	10586.78
589.925	10690.96
590.284	10659.55
590.643	10713.33
591.003	10674.01
591.362	10766.89
591.721	10711.3
592.08	10747.01
592.44	10764.86
592.799	10750.85
593.158	10756.5
593.517	10864.06
593.876	10833.33
594.235	10760.34
594.593	10874.01
594.952	10893.22
595.311	10848.02
595.67	10897.96
596.029	10914.01
596.387	10952.2
596.746	11012.99
597.104	10976.83
597.463	11028.13
597.822	11095.7
598.18	11035.81
598.538	11007.11
598.897	11120.78
599.255	11043.04
599.613	11114.45
599.972	11124.4
600.33	11198.07
600.688	11120.78
601.046	11175.69
601.404	11239.65
601.762	11133.89
602.12	11249.14
602.478	11279.65
602.836	11288.46
603.194	11240.33
603.552	11226.77
603.91	11228.57
604.268	11305.63
604.625	11253.66
604.983	11379.53
605.341	11289.59
605.698	11310.83
606.056	11354.45
606.413	11318.74
606.771	11394.67
607.128	11413.43
607.485	11364.84
607.843	11351.51
608.2	11457.27
608.557	11513.77
608.914	11402.81
609.272	11484.84
609.629	11483.03
609.986	11537.04
610.343	11429.02
610.7	11595.12
611.057	11510.38
611.414	11669.24
611.771	11591.73
612.127	11598.51
612.484	11634.21
612.841	11587.89
613.198	11554.22
613.554	11564.16
613.911	11680.31
614.267	11708.79
614.624	11644.61
614.98	11644.61
615.337	11646.64
615.693	11742.69
616.05	11715.34
616.406	11739.97
616.762	11757.15
617.118	11745.17
617.475	11749.69
617.831	11849.58
618.187	11772.52
618.543	11769.58
618.899	11777.71
619.255	11771.16
619.611	11816.36
619.967	11845.06
620.323	11926.18
620.678	11808.22
621.034	11889.8
621.39	11789.46
621.746	11824.49
622.101	11950.36
622.457	11781.78
622.812	11889.35
623.168	11898.16
623.523	11850.93
623.879	11897.71
624.234	11866.98
624.589	11853.19
624.945	11906.52
625.3	11870.14
625.655	11910.36
626.01	11872.4
626.365	11836.47
626.72	11835.56
627.075	11869.46
627.43	11829.01
627.785	11887.54
628.14	11844.6
628.495	11873.08
628.85	11825.17
629.205	11815.45
629.559	11842.8
629.914	11785.85
630.269	11729.8
630.623	11782.01
630.978	11638.73
631.332	11794.44
631.687	11768.9
632.041	11700.88
632.396	11735.23
632.75	11704.27
633.104	11702.23
633.459	11631.5
633.813	11671.73
634.167	11651.84
634.521	11631.5
634.875	11597.6
635.229	11703.82
635.583	11566.65
635.937	11598.28
636.291	11540.66
636.645	11589.24
636.999	11570.94
637.352	11534.1
637.706	11461.79
638.06	11540.21
638.413	11487.78
638.767	11538.4
639.121	11556.25
639.474	11511.05
639.828	11477.83
640.181	11465.86
640.534	11446.87
640.888	11395.35
641.241	11364.84
641.594	11370.94
641.947	11438.96
642.301	11464.05
642.654	11445.07
643.007	11423.82
643.36	11392.41
643.713	11344.96
644.066	11436.93
644.419	11305.86
644.771	11215.24
645.124	11193.55
645.477	11156.26
645.83	11133.21
646.182	11042.14
646.535	10994.23
646.888	11015.93
647.24	10940.45
647.593	11055.47
647.945	10979.54
648.298	10930.73
648.65	10984.74
649.002	10862.26
649.355	11004.85
649.707	11036.72
650.059	10969.37
650.411	11115.13
650.763	11126.2
651.115	11280.32
651.467	11246.88
651.819	11247.56
652.171	11179.54
652.523	11196.49
652.875	11142.02
653.227	11108.35
653.578	11273.09
653.93	11122.81
654.282	11173.66
654.633	11090.95
654.985	11130.5
655.337	11159.65
655.688	11210.72
656.039	11209.82
656.391	11136.6
656.742	11161.91
657.094	11220.89
657.445	11250.27
657.796	11149.48
658.147	11215.02
658.498	11161.23
658.849	11214.11
659.2	11220.21
659.551	11215.24
659.902	11189.25
660.253	11169.59
660.604	11170.05
660.955	11129.37
661.306	11180.89
661.656	11170.95
662.007	11195.81
662.358	11132.31
662.708	11185.19
663.059	11186.54
663.409	11062.25
663.76	11161.91
664.11	11199.65
664.461	11180.21
664.811	11179.08
665.161	11233.77
665.511	11147.9
665.862	11221.8
666.212	11224.06
666.562	11213.66
666.912	11223.38
667.262	11207.56
667.612	11165.75
667.962	11120.1
668.312	11183.83
668.662	11181.8
669.011	11221.34
669.361	11117.84
669.711	11068.13
670.06	11173.21
670.41	11104.96
670.76	11074.68
671.109	11198.29
671.459	11099.99
671.808	11092.08
672.157	11167.11
672.507	10986.77
672.856	11066.09
673.205	11079.2
673.554	11096.37
673.904	11033.1
674.253	11122.59
674.602	11091.4
674.951	10934.57
675.3	10813.22
675.649	10987
675.998	11085.98
676.346	11043.95
676.695	11061.35
677.044	10942.48
677.393	11067
677.741	10967.11
678.09	10913.33
678.438	10923.72
678.787	10944.06
679.135	10891.86
679.484	10835.14
679.832	10874.69
680.181	10797.63
680.529	10980.22
680.877	10848.7
681.225	10776.38
681.573	10847.57
681.922	10753.11
682.27	10800.56
682.618	10724.63
682.966	10781.35
683.314	10793.78
683.661	10764.41
684.009	10705.42
684.357	10599.66
684.705	10568.93
685.053	10608.93
685.4	10555.37
685.748	10530.51
686.095	10517.18
686.443	10500.01
686.79	10507.01
687.138	10533
687.485	10408.03
687.832	10435.15
688.18	10461.59
688.527	10387.69
688.874	10332.78
689.221	10363.29
689.568	10257.98
689.915	10295.94
690.262	10255.04
690.609	10244.42
690.956	10196.29
691.303	10137.53
691.65	10137.53
691.997	10132.78
692.344	10059.11
692.69	10074.03
693.037	10049.85
693.383	9927.37
693.73	9912
694.077	9897.76
694.423	9879.01
694.769	9861.38
695.116	9805.11
695.462	9821.15
695.808	9691.44
696.155	9889.4
696.501	9687.6
696.847	9758.56
697.193	9597.43
697.539	9691.21
697.885	9549.75
698.231	9535.51
698.577	9562.4
698.923	9485.8
699.269	9387.04
699.614	9401.5
699.96	9381.62
700.306	9384.78
700.651	9274.95
700.997	9273.6
701.342	9322.41
701.688	9252.36
702.033	9270.66
702.379	9164.9
702.724	9187.95
703.069	9186.59
703.415	9061.4
703.76	9078.35
704.105	9026.82
704.45	9029.99
704.795	8958.35
705.14	9015.75
705.485	8930.33
705.83	8894.17
706.175	8855.3
706.52	8882.65
706.865	8827.06
707.209	8802.42
707.554	8779.15
707.899	8806.94
708.243	8717
708.588	8698.47
708.932	8638.36
709.277	8663.67
709.621	8605.14
709.966	8580.28
710.31	8599.27
710.654	8503.22
710.998	8503.22
711.342	8572.15
711.687	8459.61
712.031	8516.56
712.375	8490.79
712.719	8410.8
713.063	8380.51
713.407	8429.1
713.75	8357.24
714.094	8369.67
714.438	8325.83
714.782	8354.53
715.125	8281.31
715.469	8288.77
715.812	8291.25
716.156	8287.41
716.499	8239.27
716.843	8294.41
717.186	8223.68
717.53	8270.23
717.873	8206.51
718.216	8225.49
718.559	8192.04
718.902	8152.5
719.246	8170.35
719.589	8099.84
719.932	8105.04
720.275	8085.15
720.617	8121.76
720.96	8126.06
721.303	8046.51
721.646	8140.75
721.989	8037.92
722.331	8132.61
722.674	8076.34
723.016	8022.33
723.359	7978.94
723.701	8043.35
724.044	7996.8
724.386	7982.56
724.729	8016.91
725.071	8011.71
725.413	7981.88
725.755	8025.95
726.097	7921.54
726.439	7900.53
726.782	7911.6
727.124	7975.33
727.465	7925.16
727.807	7935.78
728.149	7920.87
728.491	7940.3
728.833	7886.97
729.175	7881.32
729.516	7880.41
729.858	7905.5
730.199	7892.39
730.541	7858.49
730.882	7839.29
731.224	7895.78
731.565	7781.66
731.906	7833.86
732.248	7866.18
732.589	7803.58
732.93	7750.47
733.271	7849.23
733.612	7778.5
733.953	7814.43
734.294	7846.06
734.635	7887.19
734.976	7809.23
735.317	7806.07
735.658	7787.08
735.999	7823.69
736.339	7822.56
736.68	7850.81
737.021	7773.52
737.361	7823.92
737.702	7854.43
738.042	7800.19
738.383	7834.54
738.723	7881.09
739.063	7880.87
739.404	7842.45
739.744	7858.04
740.084	7849
740.424	7827.31
740.764	7899.62
741.104	7904.59
741.444	7855.78
741.784	7870.02
742.124	7891.94
742.464	7856.69
742.804	7869.79
743.143	7952.05
743.483	7936.01
743.823	7917.25
744.162	7950.02
744.502	8009.22
744.841	7989.79
745.181	8058.49
745.52	8063.91
745.86	8143.23
746.199	8100.07
746.538	8151.82
746.877	8186.17
747.216	8242.44
747.556	8288.77
747.895	8310.46
748.234	8345.94
748.573	8407.86
748.911	8372.15
749.25	8422.55
749.589	8555.2
749.928	8610.34
750.267	8634.07
750.605	8653.73
750.944	8741.63
751.283	8797.9
751.621	8900.73
751.96	8910.44
752.298	9011.91
752.636	9078.12
752.975	9121.96
753.313	9225.24
753.651	9370.09
753.989	9407.83
754.327	9553.14
754.666	9546.81
755.004	9772.34
755.342	9855.5
755.679	9991.09
756.017	10128.72
756.355	10256.17
756.693	10335.72
757.031	10420.91
757.368	10547.01
757.706	10673.11
758.044	10844.86
758.381	11027.22
758.719	11102.25
759.056	11229.25
759.394	11446.65
759.731	11530.26
760.068	11653.2
760.405	11867.2
760.743	11997.37
761.08	12219.28
761.417	12288.21
761.754	12426.96
762.091	12616.56
762.428	12769.1
762.765	12795.54
763.102	13034.63
763.438	13182.65
763.775	13331.8
764.112	13528.85
764.449	13686.14
764.785	13798.68
765.122	13833.48
765.458	13985.11
765.795	14091.1
766.131	14364.54
766.467	14454.93
766.804	14547.81
767.14	14650.41
767.476	14897.18
767.812	14851.3
768.148	15116.61
768.485	15123.84
768.821	15224.18
769.157	15385.98
769.492	15676.37
769.828	15734.67
770.164	15678.85
770.5	15880.2
770.836	16036.13
771.171	16049.92
771.507	16258.27
771.842	16179.41
772.178	16376.91
772.513	16460.08
772.849	16595.44
773.184	16572.16
773.519	16708.2
773.855	16741.88
774.19	16754.98
774.525	16851.25
774.86	16864.81
775.195	17035.65
775.53	17135.09
775.865	17105.71
776.2	17130.34
776.535	17080.17
776.87	17265.25
777.205	17278.36
777.539	17262.77
777.874	17353.61
778.209	17350.9
778.543	17395.19
778.878	17395.42
779.212	17477.9
779.547	17408.53
779.881	17479.48
780.215	17441.97
780.55	17648.74
780.884	17572.36
781.218	17606.26
781.552	17662.53
781.886	17556.77
782.22	17555.64
782.554	17588.18
782.888	17435.87
783.222	17390.67
783.556	17398.13
783.889	17394.51
784.223	17431.35
784.557	17446.94
784.89	17504.57
785.224	17364.23
785.557	17537.79
785.891	17478.35
786.224	17470.44
786.558	17457.56
786.891	17425.25
787.224	17351.8
787.557	17297.79
787.891	17374.63
788.224	17314.06
788.557	17319.49
788.89	17375.53
789.223	17345.7
789.556	17279.94
789.888	17232.26
790.221	17240.39
790.554	17088.31
790.887	17197.46
791.219	17098.48
791.552	17144.8
791.884	16983
792.217	17080.4
792.549	16909.1
792.882	16879.95
793.214	16886.73
793.546	16936
793.879	16770.35
794.211	16800.63
794.543	16880.18
794.875	16847.64
795.207	16838.37
795.539	16695.32
795.871	16764.25
796.203	16660.3
796.535	16559.51
796.867	16529.45
797.198	16541.43
797.53	16473.63
797.862	16471.37
798.193	16522.9
798.525	16375.11
798.856	16501.2
799.188	16250.14
799.519	16164.94
799.85	16147.54
800.182	16235.9
800.513	16195.45
800.844	16064.38
801.175	16122.68
801.506	16084.72
801.837	16077.49
802.168	16032.52
802.499	15931.05
802.83	15959.3
803.161	15916.59
803.491	15880.2
803.822	15914.78
804.153	15814.89
804.483	15622.13
804.814	15613.09
805.145	15627.33
805.475	15729.25
805.805	15561.57
806.136	15663.71
806.466	15599.31
806.796	15547.56
807.126	15378.3
807.457	15379.65
807.787	15513.89
808.117	15367.68
808.447	15340.33
808.777	15342.36
809.107	15259.2
809.436	15360.67
809.766	15358.64
810.096	15245.87
810.426	15143.73
810.755	15138.3
811.085	15221.46
811.414	15129.04
811.744	15026.44
812.073	15009.94
812.403	14969.95
812.732	14925.65
813.061	14855.6
813.39	14902.83
813.719	14826.45
814.049	14869.16
814.378	14800.23
814.707	14797.29
815.036	14717.52
815.365	14725.21
815.693	14634.59
816.022	14531.76
816.351	14533.35
816.68	14490.41
817.008	14617.41
817.337	14455.38
817.665	14442.95
817.994	14418.77
818.322	14531.99
818.651	14304.43
818.979	14328.38
819.307	14388.27
819.636	14303.3
819.964	14322.73
820.292	14350.07
820.62	14349.17
820.948	14272.34
821.276	14248.61
821.604	14265.33
821.932	14300.81
822.259	14364.09
822.587	14306.46
822.915	14237.31
823.243	14332.67
823.57	14228.04
823.898	14230.08
824.225	14198.21
824.553	14279.12
824.88	14302.39
825.207	14346.91
825.535	14293.58
825.862	14311.21
826.189	14303.3
826.516	14386.46
826.843	14362.28
827.17	14397.08
827.497	14384.42
827.824	14349.17
828.151	14383.97
828.478	14267.82
828.805	14395.72
829.131	14301.94
829.458	14331.09
829.785	14303.75
830.111	14327.02
830.438	14357.76
830.764	14327.48
831.09	14353.01
831.417	14226.69
831.743	14303.3
832.069	14239.57
832.395	14287.93
832.722	14282.96
833.048	14269.17
833.374	14230.76
833.7	14195.5
834.026	14239.12
834.351	14137.65
834.677	14147.59
835.003	14180.36
835.329	14127.93
835.654	14146.01
835.98	14025.79
836.306	14187.37
836.631	14027.15
836.956	14162.06
837.282	14117.76
837.607	13986.02
837.932	13990.31
838.258	13969.07
838.583	14035.28
838.908	13920.71
839.233	14028.05
839.558	13904.44
839.883	13813.82
840.208	13775.63
840.533	13833.48
840.858	13856.08
841.182	13868.28
841.507	13793.03
841.832	13711.22
842.156	13733.82
842.481	13712.8
842.805	13699.7
843.13	13692.24
843.454	13565.01
843.778	13625.35
844.103	13583.09
844.427	13468.06
844.751	13556.65
845.075	13503.32
845.399	13433.26
845.723	13362.3
846.047	13345.58
846.371	13296.09
846.695	13285.7
847.019	13157.79
847.343	13123.44
847.666	13057.23
847.99	13005.93
848.313	12973.16
848.637	12889.32
848.96	12811.58
849.284	12866.72
849.607	12783.11
849.931	12751.47
850.254	12650.91
850.577	12586.28
850.9	12450.46
851.223	12484.81
851.546	12423.8
851.869	12255.89
852.192	12416.11
852.515	12275.33
852.838	12273.07
853.161	12250.92
853.483	12238.94
853.806	12147.65
854.129	12152.62
854.451	12090.47
854.774	12036.46
855.096	11982
855.419	12021.1
855.741	11944.71
856.063	11811.16
856.385	11861.1
856.708	11830.14
857.03	11738.39
857.352	11704.27
857.674	11721.9
857.996	11606.87
858.318	11629.69
858.64	11665.4
858.961	11586.31
859.283	11537.72
859.605	11445.29
859.926	11569.81
860.248	11435.8
860.57	11432.64
860.891	11407.33
861.212	11349.02
861.534	11303.38
861.855	11229.03
862.176	11340.89
862.498	11311.96
862.819	11242.59
863.14	11193.77
863.461	11216.82
863.782	11147.45
864.103	11215.47
864.424	11147.22
864.745	11136.6
865.065	11154.9
865.386	11083.04
865.707	11064.06
866.027	11010.5
866.348	11003.27
866.668	11020.67
866.989	10988.36
867.309	10882.14
867.63	10950.16
867.95	10901.13
868.27	10826.78
868.59	10884.63
868.91	10869.49
869.23	10801.02
869.55	10876.95
869.87	10834.01
870.19	10844.18
870.51	10714.01
870.83	10821.58
871.15	10684.86
871.469	10688.02
871.789	10722.83
872.109	10661.81
872.428	10600.79
872.748	10670.17
873.067	10710.4
873.386	10643.96
873.706	10598.99
874.025	10598.53
874.344	10540.23
874.663	10603.05
874.982	10504.98
875.301	10501.14
875.62	10503.62
875.939	10434.92
876.258	10448.48
876.577	10455.71
876.896	10417.07
877.214	10358.32
877.533	10373.68
877.852	10417.97
878.17	10380.01
878.489	10385.43
878.807	10357.86
879.125	10379.78
879.444	10302.5
879.762	10330.29
880.08	10298.66
880.398	10214.59
880.716	10269.28
881.034	10259.33
881.352	10196.51
881.67	10153.35
881.988	10156.51
882.306	10138.21
882.624	10021.37
882.941	10009.62
883.259	9993.58
883.577	9982.05
883.894	9983.18
884.212	9970.53
884.529	9990.42
884.846	9969.4
885.164	9909.29
885.481	9837.88
885.798	9921.49
886.115	9851.66
886.432	9747.71
886.75	9783.19
887.067	9766.69
887.383	9672.23
887.7	9794.49
888.017	9701.84
888.334	9700.93
888.651	9612.12
888.967	9614.38
889.284	9588.39
889.6	9575.28
889.917	9461.84
890.233	9548.62
890.55	9444.21
890.866	9483.76
891.182	9419.81
891.498	9393.37
891.815	9353.6
892.131	9356.31
892.447	9307.5
892.763	9306.82
893.079	9295.74
893.395	9232.92
893.71	9197.89
894.026	9174.39
894.342	9152.7
894.657	9078.57
894.973	9090.55
895.289	9070.67
895.604	9002.87
895.92	8968.52
896.235	8951.12
896.55	8924.23
896.865	8917.9
897.181	8846.26
897.496	8832.71
897.811	8814.85
898.126	8806.49
898.441	8762.42
898.756	8653.28
899.071	8700.05
899.386	8658.7
899.7	8599.27
900.015	8588.19
900.33	8541.64
900.644	8500.96
900.959	8517.46
901.273	8456.44
901.588	8417.8
901.902	8370.57
902.216	8374.19
902.531	8344.81
902.845	8310.23
903.159	8225.49
903.473	8223
903.787	8166.96
904.101	8100.52
904.415	8107.53
904.729	8098.26
905.042	8063.91
905.356	8086.74
905.67	7995.44
905.984	7958.38
906.297	7973.75
906.611	7914.54
906.924	7986.4
907.237	7854.65
907.551	7834.09
907.864	7783.02
908.177	7832.28
908.491	7748.89
908.804	7699.18
909.117	7685.62
909.43	7651.04
909.743	7651.49
910.056	7638.16
910.368	7594.55
910.681	7517.03
910.994	7497.37
911.307	7436.36
911.619	7395.91
911.932	7385.06
912.244	7340.77
912.557	7307.1
912.869	7315.23
913.181	7236.36
913.494	7261.67
913.806	7262.58
914.118	7203.6
914.43	7124.28
914.742	7169.92
915.054	7105.52
915.366	7110.94
915.678	7089.7
915.99	7020.55
916.302	6967.22
916.613	6936.48
916.925	6976.03
917.236	6917.28
917.548	6836.15
917.859	6840.22
918.171	6822.36
918.482	6754.57
918.794	6692.87
919.105	6826.66
919.416	6694.68
919.727	6692.87
920.038	6629.83
920.349	6552.31
920.66	6625.08
920.971	6578.08
921.282	6543.5
921.593	6507.79
921.903	6510.05
922.214	6508.02
922.525	6421.24
922.835	6364.52
923.146	6412.88
923.456	6371.3
923.767	6340.79
924.077	6332.66
924.387	6325.2
924.697	6192.1
925.008	6258.31
925.318	6221.47
925.628	6194.58
925.938	6194.81
926.248	6089.5
926.558	6104.64
926.867	6089.95
927.177	6088.82
927.487	6096.05
927.796	6019.45
928.106	6047.02
928.416	5948.04
928.725	5926.79
929.034	5865.33
929.344	5893.35
929.653	5886.34
929.962	5807.47
930.271	5797.98
930.581	5759.11
930.89	5805.21
931.199	5721.37
931.508	5718.21
931.817	5712.11
932.125	5661.94
932.434	5687.25
932.743	5631.66
933.051	5640.02
933.36	5527.48
933.669	5536.07
933.977	5559.8
934.286	5553.24
934.594	5484.55
934.902	5456.75
935.21	5452.23
935.519	5407.26
935.827	5431.21
936.135	5384.21
936.443	5295.85
936.751	5292.01
937.059	5357.99
937.367	5300.82
937.674	5268.96
937.982	5247.49
938.29	5211.78
938.597	5217.89
938.905	5240.71
939.213	5140.83
939.52	5108.06
939.827	5164.33
940.135	5070.32
940.442	5016.08
940.749	5102.41
941.056	5042.07
941.363	5009.53
941.67	5008.63
941.977	4963.65
942.284	4940.83
942.591	4902.19
942.898	4909.87
943.205	4891.34
943.511	4820.61
943.818	4834.62
944.125	4776.32
944.431	4780.38
944.738	4762.98
945.044	4762.3
945.35	4748.75
945.657	4717.11
945.963	4706.26
946.269	4648.86
946.575	4671.46
946.881	4608.18
947.187	4634.62
947.493	4561.18
947.799	4612.93
948.105	4499.03
948.41	4519.82
948.716	4542.42
949.022	4487.96
949.327	4503.55
949.633	4436.44
949.938	4432.6
950.244	4465.59
950.549	4388.3
950.854	4372.48
951.16	4357.8
951.465	4337.23
951.77	4368.19
952.075	4328.87
952.38	4251.81
952.685	4266.05
952.99	4214.07
953.294	4218.59
953.599	4161.19
953.904	4185.37
954.209	4166.61
954.513	4178.14
954.818	4155.77
955.122	4155.99
955.426	4130.46
955.731	4044.36
956.035	4096.56
956.339	4066.5
956.643	4007.3
956.948	4021.53
957.252	3964.81
957.556	4013.4
957.86	3927.3
958.163	3967.75
958.467	3934.08
958.771	3963.68
959.075	3922.55
959.378	3825.83
959.682	3866.06
959.985	3843.23
960.289	3809.56
960.592	3791.26
960.896	3806.85
961.199	3776.79
961.502	3774.53
961.805	3774.53
962.108	3709.45
962.411	3704.03
962.714	3715.78
963.017	3749.22
963.32	3729.56
963.623	3696.12
963.926	3648.66
964.228	3655.21
964.531	3609.57
964.833	3580.19
965.136	3595.1
965.438	3547.65
965.741	3559.62
966.043	3528.66
966.345	3529.34
966.648	3511.94
966.95	3501.32
967.252	3495.22
967.554	3479.85
967.856	3428.33
968.158	3379.29
968.46	3376.8
968.761	3388.33
969.063	3391.04
969.365	3378.84
969.666	3307.43
969.968	3373.64
970.269	3343.81
970.571	3336.58
970.872	3284.15
971.174	3227.66
971.475	3296.81
971.776	3230.14
972.077	3237.82
972.378	3186.07
972.679	3234.66
972.98	3202.35
973.281	3172.97
973.582	3171.16
973.883	3178.84
974.183	3157.37
974.484	3114.21
974.785	3128.67
975.085	3107.66
975.386	3121.44
975.686	3076.92
975.986	3042.8
976.287	3075.12
976.587	2979.98
976.887	3018.4
977.187	2998.51
977.487	3002.35
977.787	2969.81
978.087	2969.36
978.387	2942.47
978.687	2931.62
978.987	2889.81
979.286	2899.75
979.586	2889.13
979.885	2891.62
980.185	2831.28
980.484	2866.31
980.784	2835.35
981.083	2820.66
981.382	2827.89
981.682	2826.54
981.981	2765.07
982.28	2762.13
982.579	2751.28
982.878	2773.88
983.177	2763.03
983.475	2737.05
983.774	2700.66
984.073	2719.65
984.372	2650.5
984.67	2676.26
984.969	2711.06
985.267	2682.58
985.566	2654.34
985.864	2648.24
986.162	2612.76
986.461	2619.54
986.759	2630.61
987.057	2575.47
987.355	2581.8
987.653	2546.09
987.951	2563.04
988.249	2539.31
988.547	2548.13
988.844	2525.3
989.142	2492.31
989.44	2460.22
989.737	2506.09
990.035	2477.39
990.332	2465.42
990.63	2429.26
990.927	2409.15
991.224	2436.94
991.521	2387.68
991.819	2390.84
992.116	2421.35
992.413	2399.43
992.71	2375.25
993.006	2379.99
993.303	2379.54
993.6	2359.43
993.897	2349.94
994.193	2291.86
994.49	2322.82
994.787	2305.42
995.083	2278.98
995.379	2274.01
995.676	2245.76
995.972	2251.86
996.268	2230.62
996.565	2227.23
996.861	2220.68
997.157	2227.23
997.453	2188.81
997.749	2173.45
998.044	2147.68
998.34	2154.24
998.636	2157.85
998.932	2128.7
999.227	2114.92
999.523	2141.58
999.818	2106.1
1000.114	2097.06
1000.409	2107.68
1000.704	2039.66
1001	2071.3
1001.295	2041.7
1001.59	2058.87
1001.885	2014.81
1002.18	2017.97
1002.475	2013.45
1002.77	1980.46
1003.065	1999.44
1003.359	1957.86
1003.654	1947.69
1003.949	1938.88
1004.243	1946.33
1004.538	1933.9
1004.832	1924.19
1005.127	1897.52
1005.421	1909.05
1005.715	1876.96
1006.009	1872.89
1006.304	1870.18
1006.598	1847.35
1006.892	1825.88
1007.186	1844.41
1007.48	1833.12
1007.773	1810.97
1008.067	1795.38
1008.361	1763.06
1008.655	1780.91
1008.948	1750.63
1009.242	1762.16
1009.535	1756.28
1009.829	1705.66
1010.122	1751.99
1010.415	1706.57
1010.708	1717.19
1011.001	1688.26
1011.295	1731.2
1011.588	1701.14
1011.881	1638.32
1012.173	1674.7
1012.466	1660.24
1012.759	1649.17
1013.052	1634.48
1013.344	1637.87
1013.637	1599
1013.93	1590.64
1014.222	1578.66
1014.514	1584.76
1014.807	1577.76
1015.099	1573.91
1015.391	1566.91
1015.683	1538.43
1015.976	1526.01
1016.268	1549.06
1016.56	1530.98
1016.851	1523.07
1017.143	1503.86
1017.435	1487.81
1017.727	1488.94
1018.018	1464.09
1018.31	1479.9
1018.602	1455.27
1018.893	1432.45
1019.185	1425.44
1019.476	1400.13
1019.767	1416.18
1020.058	1393.81
1020.35	1402.39
1020.641	1400.13
1020.932	1364.65
1021.223	1372.79
1021.514	1353.81
1021.804	1340.7
1022.095	1344.99
1022.386	1340.47
1022.677	1337.08
1022.967	1333.92
1023.258	1326.24
1023.548	1297.08
1023.839	1295.5
1024.129	1299.57
1024.419	1303.41
1024.709	1290.98
1025	1260.7
1025.29	1234.26
1025.58	1242.62
1025.87	1219.8
1026.16	1198.56
1026.449	1229.74
1026.739	1203.53
1027.029	1221.38
1027.319	1210.08
1027.608	1201.95
1027.898	1173.47
1028.187	1159.24
1028.477	1168.95
1028.766	1181.16
1029.055	1136.64
1029.344	1144.55
1029.634	1131.44
1029.923	1133.25
1030.212	1134.83
1030.501	1112.23
1030.79	1103.19
1031.078	1104.1
1031.367	1098.22
1031.656	1100.03
1031.945	1094.6
1032.233	1092.12
1032.522	1059.8
1032.81	1061.84
1033.099	1068.39
1033.387	1035.62
1033.675	1031.1
1033.963	1063.19
1034.251	1037.2
1034.54	1028.39
1034.828	1027.71
1035.116	992.46
1035.403	992.91
1035.691	989.3
1035.979	1009.63
1036.267	1016.19
1036.554	985.45
1036.842	987.26
1037.129	950.65
1037.417	953.59
1037.704	949.07
1037.992	956.3
1038.279	935.06
1038.566	947.94
1038.853	947.94
1039.14	947.94
