Data from hue_90_FLMS001491_98.txt Node
Date: Mon Feb 06 15:25:57 GMT 2017
User: dcchb
Spectrometer: FLMS00149
Trigger mode: 0
Integration Time (sec): 2.000000E-2
Scans to average: 10
Electric dark correction enabled: true
Nonlinearity correction enabled: false
Boxcar width: 0
XAxis mode: Wavelengths
Number of Pixels in Spectrum: 2048
>>>>>Begin Spectral Data<<<<<
341.393	11.82
341.776	11.82
342.16	11.82
342.543	-62.75
342.927	-67.27
343.31	-69.08
343.693	-52.58
344.077	-68.63
344.46	-52.58
344.843	-62.75
345.226	-38.8
345.61	-42.41
345.993	-41.74
346.376	-9.42
346.759	21.09
347.142	19.73
347.525	48.43
347.908	60.86
348.291	87.75
348.674	74.64
349.057	125.49
349.44	155.55
349.823	137.69
350.206	169.78
350.588	204.13
350.971	216.79
351.354	227.18
351.737	223.12
352.119	238.26
352.502	268.31
352.884	256.34
353.267	287.52
353.65	279.16
354.032	287.52
354.414	308.76
354.797	318.03
355.179	330.01
355.562	310.8
355.944	337.91
356.326	318.48
356.709	309.22
357.091	347.86
357.473	337.91
357.855	328.88
358.238	333.62
358.62	339.27
359.002	333.62
359.384	354.64
359.766	337.91
360.148	342.89
360.53	335.43
360.912	321.19
361.294	330.91
361.676	313.96
362.057	327.07
362.439	336.11
362.821	331.59
363.203	331.59
363.584	343.34
363.966	342.21
364.348	317.12
364.729	319.16
365.111	311.93
365.493	310.8
365.874	324.81
366.256	331.36
366.637	325.49
367.019	318.93
367.4	313.73
367.781	310.12
368.163	308.99
368.544	318.71
368.925	284.36
369.306	315.32
369.688	314.64
370.069	310.12
370.45	312.15
370.831	312.38
371.212	316.67
371.593	317.58
371.974	327.52
372.355	324.13
372.736	294.07
373.117	320.06
373.498	326.16
373.879	321.64
374.26	309.22
374.641	316.22
375.021	330.91
375.402	330.23
375.783	319.38
376.163	316.22
376.544	332.04
376.925	304.02
377.305	302.66
377.686	294.53
378.066	304.47
378.447	340.63
378.827	320.74
379.208	354.19
379.588	326.84
379.968	311.7
380.349	335.88
380.729	328.2
381.109	317.58
381.489	329.1
381.87	358.48
382.25	350.12
382.63	340.63
383.01	342.89
383.39	345.37
383.77	339.95
384.15	342.89
384.53	347.63
384.91	332.49
385.29	360.06
385.67	351.47
386.049	346.95
386.429	335.66
386.809	348.76
387.189	356.45
387.568	355.09
387.948	344.92
388.328	359.61
388.707	353.96
389.087	389.44
389.466	352.38
389.846	365.94
390.225	362.77
390.605	373.17
390.984	363
391.363	363.45
391.743	358.03
392.122	357.12
392.501	376.78
392.881	364.13
393.26	371.59
393.639	371.81
394.018	379.72
394.397	379.5
394.776	375.88
395.155	365.03
395.534	389.44
395.913	377.24
396.292	376.11
396.671	396.22
397.05	389.21
397.429	380.63
397.808	397.12
398.186	377.46
398.565	405.26
398.944	410.23
399.323	393.28
399.701	387.86
400.08	382.43
400.458	388.53
400.837	404.58
401.215	381.08
401.594	403
401.972	406.61
402.351	393.28
402.729	430.79
403.107	408.87
403.486	407.29
403.864	433.28
404.242	387.63
404.62	410.46
404.999	432.38
405.377	419.95
405.755	429.21
406.133	425.6
406.511	434.18
406.889	438.93
407.267	454.97
407.645	433.28
408.023	428.99
408.401	457.46
408.779	428.08
409.156	458.59
409.534	450.91
409.912	450.91
410.29	470.57
410.667	445.93
411.045	470.11
411.422	473.96
411.8	457.23
412.178	468.31
412.555	465.37
412.933	480.28
413.31	468.98
413.687	469.66
414.065	497.23
414.442	505.14
414.819	477.8
415.197	490.91
415.574	463.11
415.951	488.42
416.328	502.88
416.705	490
417.082	498.59
417.46	511.7
417.837	505.82
418.214	490.45
418.591	509.89
418.967	507.85
419.344	513.05
419.721	504.01
420.098	510.11
420.475	533.16
420.852	531.81
421.228	522.77
421.605	545.14
421.982	545.59
422.358	513.05
422.735	549.89
423.111	564.8
423.488	557.12
423.864	554.86
424.241	541.07
424.617	568.64
424.994	565.03
425.37	581.3
425.746	575.87
426.123	557.57
426.499	557.57
426.875	596.44
427.251	581.75
427.627	588.3
428.003	616.78
428.379	597.8
428.756	599.38
429.132	598.47
429.507	614.07
429.883	612.03
430.259	621.98
430.635	643.22
431.011	623.33
431.387	654.52
431.763	622.88
432.138	655.65
432.514	673.05
432.89	624.69
433.265	697.45
433.641	680.96
434.016	683.22
434.392	681.63
434.767	698.81
435.143	699.71
435.518	709.2
435.894	692.71
436.269	716.66
436.644	732.71
437.02	725.48
437.395	725.93
437.77	752.82
438.145	727.06
438.52	749.2
438.895	755.76
439.271	749.2
439.646	769.09
440.021	777.68
440.395	756.66
440.77	762.76
441.145	782.2
441.52	797.34
441.895	787.39
442.27	795.08
442.645	803.44
443.019	808.18
443.394	806.83
443.769	798.02
444.143	820.84
444.518	818.13
444.892	816.09
445.267	837.56
445.641	834.85
446.016	828.98
446.39	814.96
446.764	828.98
447.139	839.82
447.513	852.25
447.887	882.08
448.262	859.71
448.636	889.09
449.01	884.79
449.384	887.05
449.758	870.78
450.132	886.83
450.506	908.52
450.88	909.43
451.254	934.96
451.628	912.81
452.002	935.87
452.376	945.81
452.75	944.9
453.123	945.36
453.497	970.21
453.871	944
454.244	960.95
454.618	998.69
454.992	995.98
455.365	992.36
455.739	1028.74
456.112	1030.55
456.486	1038.46
456.859	1040.95
457.232	1044.34
457.606	1054.51
457.979	1079.82
458.352	1097.44
458.725	1104.22
459.099	1134.05
459.472	1136.76
459.845	1139.02
460.218	1161.62
460.591	1143.32
460.964	1174.05
461.337	1170.89
461.71	1228.74
462.083	1216.99
462.456	1242.98
462.829	1240.49
463.201	1235.07
463.574	1272.35
463.947	1284.1
464.32	1293.6
464.692	1329.08
465.065	1359.36
465.438	1382.18
465.81	1364.1
466.183	1423.54
466.555	1435.97
466.928	1392.35
467.3	1476.87
467.672	1466.92
468.045	1483.2
468.417	1514.83
468.789	1534.95
469.161	1555.28
469.534	1577.43
469.906	1625.11
470.278	1659.01
470.65	1678.22
471.022	1721.83
471.394	1760.7
471.766	1786.92
472.138	1795.73
472.51	1839.57
472.882	1865.78
473.253	1922.28
473.625	1927.48
473.997	1989.17
474.369	1994.82
474.74	2052.22
475.112	2110.75
475.484	2153.46
475.855	2153.69
476.227	2256.96
476.598	2300.35
476.97	2336.73
477.341	2396.39
477.713	2489.04
478.084	2539.21
478.455	2607.46
478.827	2650.17
479.198	2741.47
479.569	2766.78
479.94	2835.7
480.311	2894.91
480.682	3030.05
481.053	3082.93
481.424	3175.81
481.795	3221.23
482.166	3351.62
482.537	3410.6
482.908	3545.06
483.279	3596.59
483.65	3700.54
484.021	3795.68
484.391	3888.78
484.762	3972.62
485.133	4009.23
485.503	4154.09
485.874	4264.37
486.244	4321.54
486.615	4479.73
486.985	4613.28
487.356	4742.54
487.726	4809.89
488.097	4943.22
488.467	5015.98
488.837	5165.13
489.207	5314.51
489.578	5409.65
489.948	5529.64
490.318	5611.22
490.688	5708.4
491.058	5881.05
491.428	6012.34
491.798	6085.33
492.168	6272.45
492.538	6342.95
492.908	6497.3
493.278	6633.57
493.648	6729.61
494.017	6888.93
494.387	6970.51
494.757	7110.39
495.126	7250.28
495.496	7340.44
495.866	7424.51
496.235	7519.19
496.605	7678.74
496.974	7773.65
497.344	7912.63
497.713	7998.73
498.082	8093.42
498.452	8231.27
498.821	8300.64
499.19	8383.13
499.559	8492.5
499.928	8600.75
500.298	8662.22
500.667	8834.64
501.036	8878.03
501.405	8964.58
501.774	9020.4
502.143	9154.18
502.512	9266.72
502.88	9337.68
503.249	9385.59
503.618	9426.26
503.987	9539.03
504.356	9615.86
504.724	9743.54
505.093	9817.21
505.462	9866.93
505.83	9920.94
506.199	9985.8
506.567	10165.91
506.936	10132.46
507.304	10288.84
507.672	10302.85
508.041	10372.45
508.409	10461.26
508.777	10536.97
509.145	10636.63
509.514	10663.07
509.882	10705.1
510.25	10721.82
510.618	10825.55
510.986	10899.45
511.354	10939.22
511.722	11014.7
512.09	11103.51
512.458	11110.29
512.826	11207.69
513.193	11202.49
513.561	11322.26
513.929	11323.61
514.297	11390.73
514.664	11438.87
515.032	11415.59
515.4	11501.24
515.767	11529.48
516.135	11620.33
516.502	11573.1
516.869	11681.8
517.237	11726.77
517.604	11680.67
517.972	11788.01
518.339	11861
518.706	11792.75
519.073	11878.85
519.44	11939.42
519.808	11978.96
520.175	11941.9
520.542	12104.61
520.909	12108.9
521.276	12082.24
521.643	12206.98
522.009	12187.32
522.376	12327.88
522.743	12318.16
523.11	12440.87
523.477	12448.1
523.843	12383.93
524.21	12551.83
524.577	12604.26
524.943	12639.06
525.31	12601.77
525.676	12654.88
526.043	12654.88
526.409	12743.46
526.776	12781.88
527.142	12785.5
527.508	12806.06
527.874	12849.68
528.241	12871.6
528.607	12886.96
528.973	12883.8
529.339	12919.05
529.705	12983.68
530.071	13060.97
530.437	12961.99
530.803	12982.55
531.169	12943.23
531.535	13015.1
531.901	12960.18
532.267	12987.75
532.632	12994.98
532.998	13064.13
533.364	12983.68
533.73	13029.11
534.095	13060.74
534.461	13023.91
534.826	12995.66
535.192	13066.62
535.557	13083.12
535.923	12948.66
536.288	12982.33
536.653	12917.47
537.019	12918.6
537.384	12946.4
537.749	12939.17
538.114	12901.65
538.479	12874.99
538.845	12970.58
539.21	12824.14
539.575	12881.99
539.94	12886.51
540.305	12832.73
540.67	12802.45
541.034	12805.38
541.399	12722.67
541.764	12765.84
542.129	12808.77
542.494	12736.68
542.858	12677.93
543.223	12619.17
543.587	12699.62
543.952	12661.66
544.316	12681.77
544.681	12479.29
545.045	12620.76
545.41	12604.94
545.774	12545.96
546.138	12561.55
546.503	12500.76
546.867	12489.23
547.231	12470.25
547.595	12456.69
547.959	12490.82
548.324	12379.63
548.688	12318.16
549.052	12321.1
549.416	12292.18
549.779	12229.58
550.143	12247.43
550.507	12235.91
550.871	12316.58
551.235	12251.95
551.599	12269.35
551.962	12211.5
552.326	12235.23
552.689	12250.14
553.053	12150.26
553.417	12154.55
553.78	12124.05
554.143	12147.32
554.507	12149.81
554.87	12161.11
555.234	12179.41
555.597	12068
555.96	12094.67
556.323	12056.7
556.686	12012.41
557.05	12112.29
557.413	12073.88
557.776	12034.33
558.139	12108
558.502	12093.76
558.865	12053.99
559.228	12149.58
559.59	12167.21
559.953	12012.86
560.316	12195.68
560.679	12063.48
561.041	12156.59
561.404	12148
561.767	12158.17
562.129	12051.28
562.492	12162.91
562.854	12079.98
563.217	12175.8
563.579	12087.66
563.941	12108.9
564.304	12162.91
564.666	12279.3
565.028	12276.58
565.39	12195.68
565.753	12327.88
566.115	12251.95
566.477	12288.79
566.839	12296.24
567.201	12354.32
567.563	12331.05
567.925	12382.8
568.287	12456.92
568.648	12411.95
569.01	12465.05
569.372	12475.22
569.734	12397.94
570.095	12530.59
570.457	12561.77
570.819	12482.68
571.18	12453.53
571.542	12559.74
571.903	12589.34
572.265	12508.67
572.626	12577.59
572.987	12503.92
573.349	12548.89
573.71	12583.24
574.071	12616.69
574.432	12634.54
574.794	12709.57
575.155	12670.47
575.516	12607.2
575.877	12755.89
576.238	12675.67
576.599	12669.34
576.96	12684.71
577.32	12751.37
577.681	12700.98
578.042	12765.61
578.403	12735.55
578.763	12698.95
579.124	12706.63
579.485	12813.29
579.845	12773.29
580.206	12825.27
580.566	12751.83
580.927	12747.53
581.287	12725.84
581.648	12730.13
582.008	12792.05
582.368	12695.33
582.728	12732.84
583.089	12776.91
583.449	12721.09
583.809	12727.42
584.169	12750.02
584.529	12722.45
584.889	12787.08
585.249	12658.27
585.609	12627.76
585.969	12718.15
586.329	12715.44
586.688	12709.79
587.048	12643.81
587.408	12625.95
587.768	12660.53
588.127	12698.04
588.487	12561.32
588.846	12713.18
589.206	12556.35
589.565	12667.08
589.925	12585.05
590.284	12594.99
590.643	12582.11
591.003	12602.23
591.362	12688.32
591.721	12597.93
592.08	12572.85
592.44	12629.57
592.799	12586.63
593.158	12566.75
593.517	12573.3
593.876	12609.46
594.235	12540.31
594.593	12566.52
594.952	12535.33
595.311	12465.05
595.67	12536.92
596.029	12590.25
596.387	12597.48
596.746	12630.7
597.104	12569.23
597.463	12515.67
597.822	12594.99
598.18	12641.09
598.538	12537.37
598.897	12620.98
599.255	12447.65
599.613	12631.83
599.972	12540.53
600.33	12564.03
600.688	12470.48
601.046	12506.86
601.404	12520.87
601.762	12458.5
602.12	12590.47
602.478	12542.34
602.836	12590.25
603.194	12472.06
603.552	12573.3
603.91	12448.56
604.268	12600.64
604.625	12477.93
604.983	12432.29
605.341	12489.91
605.698	12583.92
606.056	12520.19
606.413	12513.41
606.771	12522.23
607.128	12536.92
607.485	12476.35
607.843	12535.56
608.2	12565.62
608.557	12636.35
608.914	12591.83
609.272	12617.14
609.629	12659.62
609.986	12735.33
610.343	12658.72
610.7	12670.47
611.057	12732.62
611.414	12644.26
611.771	12659.62
612.127	12736.01
612.484	12760.19
612.841	12702.79
613.198	12712.73
613.554	12703.92
613.911	12856.68
614.267	12783.69
614.624	12744.59
614.98	12808.55
615.337	12804.93
615.693	12766.74
616.05	12769.9
616.406	12832.5
616.762	12747.76
617.118	12772.39
617.475	12821.88
617.831	12798.38
618.187	12867.3
618.543	12861.43
618.899	12926.96
619.255	12918.38
619.611	12927.41
619.967	12917.25
620.323	12930.8
620.678	12910.92
621.034	12838.6
621.39	12878.38
621.746	12818.26
622.101	13016
622.457	12885.38
622.812	12947.07
623.168	13031.82
623.523	13008.77
623.879	12995.44
624.234	12888.55
624.589	12925.15
624.945	12943.46
625.3	12932.16
625.655	12995.66
626.01	13041.31
626.365	12952.95
626.72	12922.22
627.075	12946.4
627.43	12922.44
627.785	12903.23
628.14	12924.02
628.495	12858.04
628.85	12892.16
629.205	12888.55
629.559	12931.93
629.914	12823.24
630.269	12844.93
630.623	12800.86
630.978	12708.21
631.332	12752.5
631.687	12857.36
632.041	12771.49
632.396	12800.41
632.75	12758.38
633.104	12703.47
633.459	12600.19
633.813	12690.36
634.167	12657.59
634.521	12759.51
634.875	12663.92
635.229	12656.91
635.583	12656.69
635.937	12636.57
636.291	12572.4
636.645	12608.55
636.999	12529.91
637.352	12660.08
637.706	12553.86
638.06	12560.19
638.413	12521.55
638.767	12554.32
639.121	12538.05
639.474	12464.6
639.828	12467.31
640.181	12486.3
640.534	12460.08
640.888	12370.82
641.241	12387.32
641.594	12322.46
641.947	12517.26
642.301	12400.65
642.654	12468.44
643.007	12426.41
643.36	12373.53
643.713	12324.72
644.066	12459.63
644.419	12272.74
644.771	12303.7
645.124	12231.39
645.477	12202.91
645.83	12036.59
646.182	12055.35
646.535	11948.01
646.888	12005.86
647.24	11903.71
647.593	11971.28
647.945	11951.85
648.298	11913.66
648.65	11857.84
649.002	11895.58
649.355	11945.97
649.707	11914.56
650.059	11957.27
650.411	12093.99
650.763	12149.13
651.115	12280.65
651.467	12236.36
651.819	12201.33
652.171	12203.37
652.523	12212.18
652.875	12156.81
653.227	12175.57
653.578	12322.68
653.93	12233.87
654.282	12119.75
654.633	12182.58
654.985	12125.4
655.337	12157.49
655.688	12156.59
656.039	12132.86
656.391	12075.91
656.742	12166.98
657.094	12101
657.445	12202.24
657.796	12175.57
658.147	12185.06
658.498	12181.22
658.849	12182.8
659.2	12125.18
659.551	12104.61
659.902	12127.44
660.253	12116.81
660.604	12177.83
660.955	12090.15
661.306	12154.78
661.656	12149.36
662.007	12155.23
662.358	12117.49
662.708	12224.61
663.059	12174.21
663.409	12130.83
663.76	12106.87
664.11	12140.77
664.461	12163.59
664.811	12166.98
665.161	12158.85
665.511	12184.38
665.862	12237.26
666.212	12210.82
666.562	12180.32
666.912	12247.88
667.262	12162.91
667.612	12239.75
667.962	12305.74
668.312	12064.16
668.662	12273.19
669.011	12188.9
669.361	12185.29
669.711	12220.99
670.06	12256.02
670.41	12127.21
670.76	12106.19
671.109	12168.79
671.459	12148
671.808	12079.08
672.157	12182.8
672.507	12065.06
672.856	12173.99
673.205	12100.32
673.554	12102.35
673.904	12088.57
674.253	12160.88
674.602	12071.17
674.951	11866.2
675.3	11835.69
675.649	12031.62
675.998	11926.99
676.346	11958.85
676.695	12068.45
677.044	11850.83
677.393	11952.3
677.741	11953.2
678.09	11978.51
678.438	12004.05
678.787	11950.72
679.135	11939.42
679.484	11788.01
679.832	11924.95
680.181	11831.62
680.529	11858.97
680.877	11874.11
681.225	11850.61
681.573	11909.59
681.922	11737.84
682.27	11701.23
682.618	11667.79
682.966	11700.1
683.314	11657.17
683.661	11770.16
684.009	11678.41
684.357	11655.36
684.705	11623.27
685.053	11539.2
685.4	11589.6
685.748	11484.97
686.095	11480.45
686.443	11393.22
686.79	11369.26
687.138	11436.83
687.485	11475.7
687.832	11442.48
688.18	11425.08
688.527	11301.92
688.874	11294.91
689.221	11184.64
689.568	11160
689.915	11175.37
690.262	11204.97
690.609	11091.3
690.956	11137.4
691.303	11172.21
691.65	11104.64
691.997	11021.48
692.344	10926.11
692.69	10894.47
693.037	10928.6
693.383	10871.88
693.73	10946.9
694.077	10766.34
694.423	10828.03
694.769	10749.17
695.116	10691.31
695.462	10677.98
695.808	10694.25
696.155	10635.72
696.501	10572
696.847	10592.11
697.193	10513.47
697.539	10547.14
697.885	10436.18
698.231	10370.19
698.577	10357.09
698.923	10363.19
699.269	10303.08
699.614	10185.57
699.96	10222.63
700.306	10240.48
700.651	10188.73
700.997	10125.68
701.342	10113.48
701.688	10061.95
702.033	10036.19
702.379	9995.29
702.724	10002.29
703.069	10001.39
703.415	9843.43
703.76	9879.36
704.105	9885.01
704.45	9847.72
704.795	9758.01
705.14	9735.63
705.485	9750.55
705.83	9693.6
706.175	9664
706.52	9647.27
706.865	9531.12
707.209	9623.32
707.554	9562.98
707.899	9564.56
708.243	9496.54
708.588	9556.43
708.932	9432.82
709.277	9442.08
709.621	9381.74
709.966	9349.88
710.31	9400.28
710.654	9330.67
710.998	9292.71
711.342	9250.22
711.687	9310.56
712.031	9208.42
712.375	9189.43
712.719	9210.68
713.063	9239.38
713.407	9164.12
713.75	9109.44
714.094	9103.56
714.438	9110.79
714.782	9087.97
715.125	9072.83
715.469	9025.14
715.812	8990.57
716.156	8923.68
716.499	9007.29
716.843	8935.43
717.186	8946.73
717.53	9025.82
717.873	8960.74
718.216	8900.4
718.559	8927.29
718.902	8816.79
719.246	8877.13
719.589	8881.19
719.932	8828.77
720.275	8844.36
720.617	8802.1
720.96	8810.46
721.303	8740.41
721.646	8797.13
721.989	8739.05
722.331	8746.06
722.674	8733.17
723.016	8739.73
723.359	8751.93
723.701	8818.6
724.044	8679.16
724.386	8692.95
724.729	8681.2
725.071	8691.59
725.413	8657.24
725.755	8680.07
726.097	8674.87
726.439	8567.53
726.782	8563.46
727.124	8603.46
727.465	8594.65
727.807	8598.26
728.149	8546.96
728.491	8596.45
728.833	8601.2
729.175	8529.34
729.516	8569.56
729.858	8499.73
730.199	8586.96
730.541	8558.94
730.882	8546.96
731.224	8574.53
731.565	8523.46
731.906	8543.57
732.248	8510.36
732.589	8546.74
732.93	8455.22
733.271	8456.35
733.612	8481.43
733.953	8494.31
734.294	8496.34
734.635	8495.89
734.976	8550.58
735.317	8483.24
735.658	8539.73
735.999	8507.19
736.339	8514.65
736.68	8512.62
737.021	8529.11
737.361	8411.6
737.702	8585.61
738.042	8489.79
738.383	8550.81
738.723	8556.23
739.063	8547.64
739.404	8529.11
739.744	8466.97
740.084	8558.94
740.424	8562.56
740.764	8535.44
741.104	8581.99
741.444	8564.82
741.784	8534.08
742.124	8607.98
742.464	8628.54
742.804	8661.31
743.143	8607.53
743.483	8630.13
743.823	8659.28
744.162	8636
744.502	8661.54
744.841	8666.74
745.181	8736.56
745.52	8777.01
745.86	8817.24
746.199	8861.98
746.538	8843.45
746.877	8892.27
747.216	8944.02
747.556	9024.24
747.895	8996.67
748.234	9050.68
748.573	9050
748.911	9111.92
749.25	9183.78
749.589	9152.82
749.928	9224.91
750.267	9287.06
750.605	9344.68
750.944	9386.94
751.283	9444.34
751.621	9576.09
751.96	9559.59
752.298	9667.16
752.636	9724.56
752.975	9765.69
753.313	9852.69
753.651	10030.09
753.989	10071.9
754.327	10147.83
754.666	10261.04
755.004	10400.48
755.342	10490.42
755.679	10520.25
756.017	10621.49
756.355	10763.4
756.693	10887.47
757.031	10966.56
757.368	11044.98
757.706	11261.24
758.044	11320.45
758.381	11451.97
758.719	11496.49
759.056	11697.62
759.394	11818.29
759.731	11859.42
760.068	12150.71
760.405	12188.45
760.743	12293.53
761.08	12531.04
761.417	12566.07
761.754	12671.6
762.091	12863.24
762.428	12950.46
762.765	13101.87
763.102	13242.21
763.438	13326.5
763.775	13480.17
764.112	13644.01
764.449	13822.08
764.785	13959.7
765.122	13918.12
765.458	14046.03
765.795	14250.54
766.131	14332.8
766.467	14501.38
766.804	14573.7
767.14	14599.69
767.476	14792.45
767.812	14923.75
768.148	15037.87
768.485	15023.4
768.821	15195.6
769.157	15321.7
769.492	15421.81
769.828	15494.35
770.164	15381.14
770.5	15519.66
770.836	15698.87
771.171	15725.53
771.507	15856.6
771.842	15897.05
772.178	15974.57
772.513	16006.88
772.849	16099.53
773.184	16118.52
773.519	16256.37
773.855	16248.68
774.19	16252.52
774.525	16351.28
774.86	16412.52
775.195	16532.97
775.53	16462.01
775.865	16398.06
776.2	16443.03
776.535	16423.82
776.87	16614.32
777.205	16537.71
777.539	16549.24
777.874	16722.79
778.209	16538.84
778.543	16611.84
778.878	16581.33
779.212	16668.11
779.547	16574.32
779.881	16734.55
780.215	16643.93
780.55	16733.64
780.884	16603.25
781.218	16661.55
781.552	16728.22
781.886	16635.34
782.22	16636.47
782.554	16645.96
782.888	16583.36
783.222	16605.51
783.556	16548.56
783.889	16684.83
784.223	16509.47
784.557	16445.74
784.89	16555.12
785.224	16522.8
785.557	16432.18
785.891	16382.46
786.224	16372.75
786.558	16461.33
786.891	16344.73
787.224	16283.26
787.557	16368.91
787.891	16314.22
788.224	16335.91
788.557	16331.62
788.89	16350.15
789.223	16309.92
789.556	16051.17
789.888	16121.45
790.221	16182.02
790.554	16019.08
790.887	16083.26
791.219	16070.61
791.552	16045.75
791.884	16026.32
792.217	15984.51
792.549	15934.11
792.882	15823.16
793.214	15852.08
793.546	15818.19
793.879	15785.42
794.211	15622.26
794.543	15730.05
794.875	15686.44
795.207	15734.8
795.539	15690.96
795.871	15657.51
796.203	15570.73
796.535	15489.38
796.867	15486.67
797.198	15439.89
797.53	15489.61
797.862	15400.57
798.193	15369.16
798.525	15324.87
798.856	15381.14
799.188	15213
799.519	15234.47
799.85	15135.72
800.182	15176.17
800.513	15113.12
800.844	14951.99
801.175	15091.65
801.506	15053.23
801.837	14954.48
802.168	14929.17
802.499	14841.49
802.83	14891.43
803.161	14829.29
803.491	14797.2
803.822	14846.91
804.153	14694.15
804.483	14560.59
804.814	14611.21
805.145	14601.27
805.475	14627.93
805.805	14528.5
806.136	14596.52
806.466	14489.63
806.796	14435.62
807.126	14314.5
807.457	14333.71
807.787	14281.73
808.117	14260.94
808.447	14184.78
808.777	14330.99
809.107	14159.25
809.436	14230.66
809.766	14224.78
810.096	14202.18
810.426	14101.17
810.755	14105.24
811.085	14086.93
811.414	14067.27
811.744	13981.62
812.073	13934.62
812.403	13926.03
812.732	13862.98
813.061	13835.87
813.39	13848.29
813.719	13772.59
814.049	13841.06
814.378	13786.6
814.707	13728.75
815.036	13653.95
815.365	13502.99
815.693	13470
816.022	13573.27
816.351	13465.25
816.68	13407.18
817.008	13439.49
817.337	13406.5
817.665	13393.62
817.994	13426.61
818.322	13385.71
818.651	13270
818.979	13291.47
819.307	13280.85
819.636	13228.65
819.964	13225.94
820.292	13189.78
820.62	13181.87
820.948	13175.09
821.276	13306.39
821.604	13142.78
821.932	13222.55
822.259	13236.11
822.587	13150.91
822.915	13147.3
823.243	13227.29
823.57	13174.87
823.898	13210.8
824.225	13114.08
824.553	13119.95
824.88	13093.74
825.207	13295.99
825.535	13139.39
825.862	13168.54
826.189	13195.88
826.516	13170.12
826.843	13213.28
827.17	13196.33
827.497	13309.1
827.824	13212.38
828.151	13301.87
828.478	13155.66
828.805	13194.3
829.131	13196.79
829.458	13187.07
829.785	13097.35
830.111	13171.7
830.438	13181.19
830.764	13168.31
831.09	13200.63
831.417	13199.27
831.743	13217.8
832.069	13188.65
832.395	13110.69
832.722	13168.76
833.048	13153.62
833.374	13161.31
833.7	12983.46
834.026	13099.16
834.351	13111.82
834.677	13026.17
835.003	13134.87
835.329	13101.2
835.654	13096.68
835.98	12962.67
836.306	13010.35
836.631	12949.79
836.956	13072.72
837.282	12933.97
837.607	12901.2
837.932	12920.18
838.258	12953.63
838.583	12839.73
838.908	12830.92
839.233	12827.76
839.558	12753.41
839.883	12763.12
840.208	12784.82
840.533	12797.7
840.858	12753.41
841.182	12747.31
841.507	12730.58
841.832	12660.08
842.156	12641.77
842.481	12608.1
842.805	12604.71
843.13	12532.85
843.454	12521.1
843.778	12509.35
844.103	12465.73
844.427	12410.82
844.751	12416.47
845.075	12386.19
845.399	12366.75
845.723	12320.88
846.047	12326.07
846.371	12166.53
846.695	12258.51
847.019	12064.16
847.343	12084.95
847.666	11976.48
847.99	11942.81
848.313	11958.85
848.637	11835.69
848.96	11904.84
849.284	11794.11
849.607	11777.16
849.931	11712.76
850.254	11704.85
850.577	11564.06
850.9	11474.8
851.223	11521.58
851.546	11404.74
851.869	11339.89
852.192	11498.3
852.515	11312.32
852.838	11327.68
853.161	11288.14
853.483	11199.55
853.806	11204.97
854.129	11124.75
854.451	11116.16
854.774	11049.05
855.096	11012.21
855.419	10964.08
855.741	10896.06
856.063	10952.33
856.385	10907.81
856.708	10889.28
857.03	10800.46
857.352	10772.67
857.674	10764.08
857.996	10726.12
858.318	10662.84
858.64	10677.3
858.961	10703.07
859.283	10649.28
859.605	10509.17
859.926	10523.86
860.248	10494.03
860.57	10507.36
860.891	10557.08
861.212	10465.33
861.534	10449.97
861.855	10355.28
862.176	10367.93
862.498	10389.85
862.819	10345.56
863.14	10310.31
863.461	10285.9
863.782	10280.25
864.103	10311.44
864.424	10215.62
864.745	10306.92
865.065	10176.07
865.386	10190.76
865.707	10191.22
866.027	10138.34
866.348	10210.65
866.668	10134.72
866.989	10119.58
867.309	10052.24
867.63	10040.26
867.95	10073.93
868.27	9951.9
868.59	10033.48
868.91	9995.74
869.23	10011.11
869.55	9894.27
869.87	9997.55
870.19	9968.17
870.51	9927.27
870.83	9941.96
871.15	9936.08
871.469	9976.76
871.789	9892.92
872.109	9823.99
872.428	9837.33
872.748	9871.68
873.067	9756.65
873.386	9849.53
873.706	9780.38
874.025	9664
874.344	9746.26
874.663	9733.37
874.982	9703.09
875.301	9728.4
875.62	9655.18
875.939	9656.09
876.258	9650.66
876.577	9564.79
876.896	9591.46
877.214	9502.87
877.533	9529.09
877.852	9548.97
878.17	9551.23
878.489	9553.72
878.807	9536.54
879.125	9503.32
879.444	9440.73
879.762	9434.62
880.08	9461.74
880.398	9417
880.716	9443.66
881.034	9399.37
881.352	9418.58
881.67	9332.48
881.988	9398.24
882.306	9364.34
882.624	9304.01
882.941	9263.33
883.259	9214.97
883.577	9217.68
883.894	9190.56
884.212	9180.62
884.529	9143.11
884.846	9119.15
885.164	9154.41
885.481	9110.79
885.798	9083.22
886.115	9036.44
886.432	9033.28
886.75	8981.98
887.067	9022.43
887.383	8922.77
887.7	8974.98
888.017	8944.24
888.334	8960.29
888.651	8897.69
888.967	8892.94
889.284	8848.88
889.6	8755.32
889.917	8776.79
890.233	8784.92
890.55	8706.51
890.866	8717.81
891.182	8703.34
891.498	8578.6
891.815	8635.1
892.131	8603.01
892.447	8583.35
892.763	8590.13
893.079	8520.75
893.395	8534.54
893.71	8491.37
894.026	8418.15
894.342	8406.18
894.657	8391.71
894.973	8424.93
895.289	8344.48
895.604	8344.48
895.92	8272.4
896.235	8283.69
896.55	8233.75
896.865	8220.65
897.181	8143.59
897.496	8214.77
897.811	8220.42
898.126	8087.09
898.441	8072.4
898.756	8052.97
899.071	8023.14
899.386	7984.49
899.7	7979.52
900.015	7932.74
900.33	7869.47
900.644	7952.4
900.959	7901.56
901.273	7845.97
901.588	7775.69
901.902	7826.98
902.216	7685.29
902.531	7708.34
902.845	7699.76
903.159	7645.07
903.473	7651.62
903.787	7536.6
904.101	7528.69
904.415	7549.02
904.729	7512.19
905.042	7417.05
905.356	7384.06
905.67	7420.44
905.984	7405.07
906.297	7358.07
906.611	7318.3
906.924	7329.37
907.237	7300.22
907.551	7215.93
907.864	7188.36
908.177	7196.04
908.491	7175.25
908.804	7091.18
909.117	7080.56
909.43	7006.67
909.743	7043.95
910.056	6975.48
910.368	6984.75
910.681	6921.7
910.994	6921.47
911.307	6910.4
911.619	6834.92
911.932	6830.85
912.244	6820.46
912.557	6763.06
912.869	6741.59
913.181	6743.85
913.494	6725.09
913.806	6623.63
914.118	6630.18
914.43	6574.81
914.742	6619.78
915.054	6551.31
915.366	6530.29
915.678	6486
915.99	6469.51
916.302	6421.37
916.613	6391.77
916.925	6414.37
917.236	6366
917.548	6342.5
917.859	6348.38
918.171	6309.96
918.482	6269.51
918.794	6229.96
919.105	6246.01
919.416	6187.7
919.727	6135.05
920.038	6116.07
920.349	6155.16
920.66	6105.45
920.971	6057.76
921.282	6046.01
921.593	5991.78
921.903	6001.27
922.214	5972.34
922.525	5923.3
922.835	5945
923.146	5840.6
923.456	5870.65
923.767	5895.73
924.077	5890.99
924.387	5810.77
924.697	5777.77
925.008	5756.53
925.318	5735.51
925.628	5749.75
925.938	5772.57
926.248	5679.24
926.558	5697.32
926.867	5568.74
927.177	5637.66
927.487	5573.26
927.796	5611.45
928.106	5504.11
928.416	5538.91
928.725	5538.23
929.034	5460.04
929.344	5489.64
929.653	5481.51
929.962	5365.35
930.271	5391.57
930.581	5341.63
930.89	5319.25
931.199	5354.96
931.508	5270.21
931.817	5301.63
932.125	5259.14
932.434	5294.17
932.743	5198.58
933.051	5221.63
933.36	5216.43
933.669	5156.32
933.977	5166.26
934.286	5093.27
934.594	5072.03
934.902	5026.83
935.21	5058.24
935.519	5050.56
935.827	4989.77
936.135	5008.53
936.443	4926.49
936.751	4925.59
937.059	4893.28
937.367	4895.31
937.674	4924.91
937.982	4879.72
938.29	4858.93
938.597	4806.5
938.905	4792.04
939.213	4811.92
939.52	4764.47
939.827	4716.56
940.135	4710.23
940.442	4692.38
940.749	4648.99
941.056	4628.2
941.363	4624.58
941.67	4604.7
941.977	4622.77
942.284	4625.03
942.591	4522.66
942.898	4555.66
943.205	4525.15
943.511	4439.95
943.818	4514.53
944.125	4463.46
944.431	4445.6
944.738	4416.9
945.044	4411.71
945.35	4382.1
945.657	4325.61
945.963	4354.53
946.269	4303.91
946.575	4291.26
946.881	4295.78
947.187	4277.92
947.493	4263.46
947.799	4241.77
948.105	4237.47
948.41	4226.63
948.716	4186.85
949.022	4184.14
949.327	4169.45
949.633	4105.27
949.938	4101.43
950.244	4108.21
950.549	4094.2
950.854	4081.32
951.16	4066.4
951.465	4028.21
951.77	4044.26
952.075	4002.68
952.38	3989.8
952.685	3973.3
952.99	3973.98
953.294	3930.59
953.599	3915.67
953.904	3911.83
954.209	3867.09
954.513	3845.85
954.818	3838.16
955.122	3835.9
955.426	3792.97
955.731	3809.91
956.035	3783.02
956.339	3756.81
956.643	3766.98
956.948	3752.29
957.252	3741.44
957.556	3715.68
957.86	3705.74
958.163	3678.84
958.467	3705.06
958.771	3647.21
959.075	3667.54
959.378	3581.22
959.682	3554.78
959.985	3545.51
960.289	3578.73
960.592	3521.79
960.896	3557.94
961.199	3496.48
961.502	3465.52
961.805	3420.77
962.108	3469.13
962.411	3431.39
962.714	3429.81
963.017	3405.4
963.32	3417.61
963.623	3430.26
963.926	3406.31
964.228	3359.98
964.531	3337.16
964.833	3356.37
965.136	3323.37
965.438	3327.44
965.741	3287.89
966.043	3247.67
966.345	3270.04
966.648	3258.97
966.95	3262.81
967.252	3236.37
967.554	3215.81
967.856	3212.42
968.158	3176.48
968.46	3138.52
968.761	3130.38
969.063	3189.59
969.365	3143.72
969.666	3121.57
969.968	3086.09
970.269	3119.31
970.571	3098.07
970.872	3042.25
971.174	3065.07
971.475	3016.04
971.776	3048.35
972.077	3023.27
972.378	3023.72
972.679	3004.74
972.98	2982.37
973.281	2974.23
973.582	2900.79
973.883	2936.04
974.183	2951.86
974.484	2921.12
974.785	2889.03
975.085	2888.36
975.386	2894.46
975.686	2842.26
975.986	2856.94
976.287	2865.08
976.587	2816.04
976.887	2805.19
977.187	2807.45
977.487	2786.66
977.787	2788.92
978.087	2726.78
978.387	2725.87
978.687	2753.9
978.987	2736.04
979.286	2681.13
979.586	2765.65
979.885	2699.21
980.185	2665.09
980.484	2693.79
980.784	2648.14
981.083	2661.02
981.382	2648.81
981.682	2649.94
981.981	2616.72
982.28	2630.06
982.579	2573.56
982.878	2593.67
983.177	2533.56
983.475	2572.21
983.774	2554.13
984.073	2533.56
984.372	2492.43
984.67	2513.45
984.969	2492.21
985.267	2488.14
985.566	2484.53
985.864	2508.25
986.162	2455.37
986.461	2435.26
986.759	2428.03
987.057	2398.88
987.355	2388.93
987.653	2374.92
987.951	2439.78
988.249	2394.81
988.547	2344.64
988.844	2320.01
989.142	2366.34
989.44	2347.35
989.737	2325.43
990.035	2322.5
990.332	2301.93
990.63	2266.9
990.927	2293.34
991.224	2306.68
991.521	2273.46
991.819	2277.98
992.116	2242.95
992.413	2235.49
992.71	2231.88
993.006	2202.72
993.303	2176.74
993.6	2196.85
993.897	2155.04
994.193	2177.64
994.49	2146
994.787	2151.65
995.083	2149.84
995.379	2128.6
995.676	2098.32
995.972	2113.69
996.268	2088.83
996.565	2089.28
996.861	2070.07
997.157	2067.36
997.453	2080.47
997.749	2056.06
998.044	2037.98
998.34	2014.25
998.636	2043.18
998.932	2007.02
999.227	1974.48
999.523	1990.75
999.818	1976.29
1000.114	1949.85
1000.409	1960.7
1000.704	1906.69
1001	1910.98
1001.295	1926.35
1001.59	1908.72
1001.885	1877.54
1002.18	1884.09
1002.475	1876.41
1002.77	1864.65
1003.065	1839.34
1003.359	1871.21
1003.654	1884.77
1003.949	1808.38
1004.243	1842.06
1004.538	1826.69
1004.832	1811.55
1005.127	1825.56
1005.421	1783.53
1005.715	1784.66
1006.009	1785.11
1006.304	1756.18
1006.598	1729.74
1006.892	1729.29
1007.186	1725.45
1007.48	1755.73
1007.773	1709.18
1008.067	1713.47
1008.361	1708.27
1008.655	1688.16
1008.948	1659.24
1009.242	1681.83
1009.535	1673.02
1009.829	1655.17
1010.122	1615.85
1010.415	1601.38
1010.708	1610.42
1011.001	1625.34
1011.295	1620.59
1011.588	1601.84
1011.881	1591.89
1012.173	1582.85
1012.466	1531.33
1012.759	1605
1013.052	1538.56
1013.344	1542.63
1013.637	1511.67
1013.93	1507.83
1014.222	1479.35
1014.514	1511.9
1014.807	1497.21
1015.099	1486.59
1015.391	1496.3
1015.683	1480.71
1015.976	1475.74
1016.268	1448.39
1016.56	1459.24
1016.851	1431.9
1017.143	1429.86
1017.435	1444.78
1017.727	1406.14
1018.018	1409.53
1018.31	1372.01
1018.602	1378.11
1018.893	1376.08
1019.185	1376.98
1019.476	1353.48
1019.767	1353.48
1020.058	1307.61
1020.35	1337.66
1020.641	1321.84
1020.932	1332.01
1021.223	1309.41
1021.514	1293.82
1021.804	1306.7
1022.095	1271.45
1022.386	1251.34
1022.677	1249.98
1022.967	1252.47
1023.258	1259.47
1023.548	1270.77
1023.839	1253.6
1024.129	1207.5
1024.419	1212.02
1024.709	1216.54
1025	1229.19
1025.29	1193.03
1025.58	1217.89
1025.87	1186.93
1026.16	1154.16
1026.449	1167.95
1026.739	1158.23
1027.029	1144.22
1027.319	1121.62
1027.608	1163.88
1027.898	1136.54
1028.187	1127.95
1028.477	1101.74
1028.766	1117.1
1029.055	1106.48
1029.344	1101.28
1029.634	1101.28
1029.923	1079.14
1030.212	1077.56
1030.501	1063.32
1030.79	1085.47
1031.078	1064.68
1031.367	1040.72
1031.656	1038.01
1031.945	1033.49
1032.233	1028.74
1032.522	1052.47
1032.81	1021.06
1033.099	1030.1
1033.387	1014.96
1033.675	994.39
1033.963	989.42
1034.251	984.23
1034.54	989.2
1034.828	974.96
1035.116	967.5
1035.403	967.73
1035.691	941.74
1035.979	942.64
1036.267	945.58
1036.554	933.83
1036.842	915.07
1037.129	914.62
1037.417	927.5
1037.704	907.84
1037.992	896.09
1038.279	925.92
1038.566	904
1038.853	904
1039.14	904
