Data from hue_00_FLMS001491_93.txt Node
Date: Mon Feb 06 15:30:41 GMT 2017
User: dcchb
Spectrometer: FLMS00149
Trigger mode: 0
Integration Time (sec): 2.000000E-2
Scans to average: 10
Electric dark correction enabled: true
Nonlinearity correction enabled: false
Boxcar width: 0
XAxis mode: Wavelengths
Number of Pixels in Spectrum: 2048
>>>>>Begin Spectral Data<<<<<
341.393	-25.56
341.776	-25.56
342.16	-25.56
342.543	-75.51
342.927	-54.04
343.31	-59.01
343.693	-58.33
344.077	-86.13
344.46	-56.98
344.843	-55.39
345.226	-50.87
345.61	-36.86
345.993	-18.33
346.376	11.95
346.759	4.04
347.142	20.54
347.525	39.74
347.908	66.41
348.291	67.31
348.674	85.39
349.057	126.52
349.44	134.88
349.823	136.01
350.206	151.15
350.588	178.95
350.971	217.14
351.354	230.47
351.737	202.45
352.119	262.11
352.502	259.4
352.884	287.2
353.267	263.24
353.65	285.61
354.032	295.78
354.414	304.14
354.797	319.06
355.179	316.57
355.562	325.39
355.944	322
356.326	325.39
356.709	340.98
357.091	324.03
357.473	319.06
357.855	348.21
358.238	352.5
358.62	345.05
359.002	326.52
359.384	351.37
359.766	338.72
360.148	345.73
360.53	350.47
360.912	342.11
361.294	321.09
361.676	329.68
362.057	322.68
362.439	333.07
362.821	319.29
363.203	332.17
363.584	325.39
363.966	337.14
364.348	309.34
364.729	306.63
365.111	307.08
365.493	306.63
365.874	321.77
366.256	298.27
366.637	322.22
367.019	320.19
367.4	309.57
367.781	294.88
368.163	295.11
368.544	304.82
368.925	322.22
369.306	306.18
369.688	306.18
370.069	304.6
370.45	309.12
370.831	322
371.212	327.65
371.593	303.24
371.974	309.57
372.355	297.59
372.736	284.94
373.117	315.67
373.498	312.96
373.879	312.73
374.26	319.29
374.641	325.16
375.021	307.99
375.402	303.47
375.783	317.7
376.163	320.19
376.544	345.95
376.925	309.34
377.305	314.77
377.686	326.52
378.066	324.03
378.447	313.64
378.827	312.96
379.208	334.88
379.588	325.84
379.968	337.14
380.349	328.78
380.729	327.87
381.109	317.93
381.489	342.79
381.87	317.25
382.25	347.31
382.63	327.19
383.01	343.92
383.39	315.67
383.77	359.74
384.15	329.68
384.53	329.45
384.91	345.73
385.29	341.43
385.67	329.91
386.049	361.54
386.429	350.92
386.809	354.09
387.189	347.53
387.568	350.7
387.948	356.57
388.328	347.76
388.707	334.65
389.087	342.79
389.466	332.39
389.846	347.53
390.225	343.69
390.605	355.67
390.984	369
391.363	343.92
391.743	349.34
392.122	362.45
392.501	327.87
392.881	340.08
393.26	371.94
393.639	368.78
394.018	364.26
394.397	356.57
394.776	362
395.155	366.29
395.534	373.3
395.913	359.51
396.292	367.65
396.671	368.55
397.05	378.49
397.429	370.36
397.808	370.58
398.186	366.29
398.565	375.56
398.944	368.55
399.323	358.61
399.701	380.75
400.08	378.27
400.458	390.7
400.837	364.03
401.215	364.93
401.594	391.37
401.972	401.54
402.351	378.04
402.729	360.19
403.107	393.63
403.486	389.79
403.864	414.42
404.242	393.86
404.62	386.85
404.999	398.38
405.377	397.7
405.755	416.23
406.133	419.62
406.511	404.03
406.889	402.45
407.267	411.49
407.645	392.73
408.023	402
408.401	419.62
408.779	443.8
409.156	426.18
409.534	421.43
409.912	451.26
410.29	452.84
410.667	431.6
411.045	447.87
411.422	425.05
411.8	450.13
412.178	466.4
412.555	444.48
412.933	444.03
413.31	435.44
413.687	449.9
414.065	474.99
414.442	458.72
414.819	465.04
415.197	466.63
415.574	463.69
415.951	473.18
416.328	469.56
416.705	464.14
417.082	468.21
417.46	501.88
417.837	490.81
418.214	488.77
418.591	509.34
418.967	494.65
419.344	496.91
419.721	497.81
420.098	484.03
420.475	490.81
420.852	515.21
421.228	493.74
421.605	501.88
421.982	515.21
422.358	548.43
422.735	510.01
423.111	542.56
423.488	519.96
423.864	540.07
424.241	528.32
424.617	532.61
424.994	527.42
425.37	533.29
425.746	532.16
426.123	563.57
426.499	545.27
426.875	543.01
427.251	553.4
427.627	558.15
428.003	553.4
428.379	562.89
428.756	598.15
429.132	569.67
429.507	591.82
429.883	590.92
430.259	594.31
430.635	566.28
431.011	605.15
431.387	613.97
431.763	605.61
432.138	594.98
432.514	606.74
432.89	638.15
433.265	621.88
433.641	644.93
434.016	635.44
434.392	642.67
434.767	652.84
435.143	654.87
435.518	656.9
435.894	670.91
436.269	658.49
436.644	653.51
437.02	681.76
437.395	685.6
437.77	673.4
438.145	714.53
438.52	681.31
438.895	680.86
439.271	712.5
439.646	729.22
440.021	686.51
440.395	733.74
440.77	728.99
441.145	714.08
441.52	737.35
441.895	735.09
442.27	740.29
442.645	724.47
443.019	741.42
443.394	759.73
443.769	766.28
444.143	759.27
444.518	754.75
444.892	765.38
445.267	747.07
445.641	762.44
446.016	781.42
446.39	794.3
446.764	797.92
447.139	793.4
447.513	816
447.887	808.09
448.262	815.54
448.636	804.02
449.01	824.58
449.384	812.15
449.758	835.66
450.132	842.21
450.506	819.84
450.88	851.7
451.254	834.75
451.628	843.34
452.002	835.43
452.376	852.6
452.75	873.17
453.123	859.16
453.497	868.2
453.871	876.78
454.244	891.93
454.618	884.24
454.992	917.69
455.365	893.28
455.739	909.78
456.112	910.91
456.486	931.47
456.859	938.03
457.232	979.61
457.606	953.39
457.979	951.36
458.352	983
458.725	953.62
459.099	995.88
459.472	975.99
459.845	1015.09
460.218	1048.53
460.591	999.49
460.964	1036.78
461.337	1047.4
461.71	1047.85
462.083	1036.78
462.456	1092.6
462.829	1089.89
463.201	1078.14
463.574	1062.54
463.947	1089.89
464.32	1139.38
464.692	1138.7
465.065	1135.99
465.438	1135.31
465.81	1162.2
466.183	1188.42
466.555	1186.61
466.928	1203.33
467.3	1186.61
467.672	1224.57
468.045	1218.47
468.417	1244.91
468.789	1277.23
469.161	1274.97
469.534	1286.04
469.906	1313.38
470.278	1338.69
470.65	1316.1
471.022	1352.7
471.394	1403.55
471.766	1392.25
472.138	1422.76
472.51	1426.15
472.882	1448.3
473.253	1515.41
473.625	1484.68
473.997	1508.18
474.369	1525.36
474.74	1568.07
475.112	1585.47
475.484	1585.01
475.855	1639.25
476.227	1659.82
476.598	1664.56
476.97	1703.66
477.341	1736.88
477.713	1758.57
478.084	1778.91
478.455	1814.61
478.827	1843.31
479.198	1881.96
479.569	1865.01
479.94	1959.47
480.311	1974.16
480.682	2008.05
481.053	2059.13
481.424	2103.42
481.795	2101.84
482.166	2102.29
482.537	2159.46
482.908	2206.69
483.279	2217.31
483.65	2300.02
484.021	2321.04
484.391	2362.62
484.762	2390.42
485.133	2412.79
485.503	2417.76
485.874	2502.05
486.244	2507.25
486.615	2582.95
486.985	2597.19
487.356	2619.11
487.726	2665.89
488.097	2705.44
488.467	2739.33
488.837	2754.02
489.207	2829.5
489.578	2843.29
489.948	2890.52
490.318	2915.38
490.688	2949.95
491.058	3018.65
491.428	3051.42
491.798	3057.52
492.168	3103.62
492.538	3144.97
492.908	3195.37
493.278	3214.8
493.648	3224.29
494.017	3289.83
494.387	3315.14
494.757	3340.67
495.126	3365.08
495.496	3396.27
495.866	3469.03
496.235	3514.68
496.605	3487.79
496.974	3510.39
497.344	3564.85
497.713	3563.72
498.082	3632.87
498.452	3636.49
498.821	3668.58
499.19	3671.97
499.559	3702.02
499.928	3760.78
500.298	3758.07
500.667	3785.63
501.036	3775.69
501.405	3825.41
501.774	3842.36
502.143	3901.79
502.512	3869.25
502.88	3938.17
503.249	4001.45
503.618	3996.48
503.987	3968.68
504.356	4008
504.724	3983.37
505.093	4037.61
505.462	4073.99
505.83	4072.18
506.199	4133.65
506.567	4156.47
506.936	4123.71
507.304	4208.45
507.672	4216.36
508.041	4197.83
508.409	4236.47
508.777	4259.29
509.145	4294.1
509.514	4330.25
509.882	4298.39
510.25	4353.3
510.618	4367.77
510.986	4318.5
511.354	4452.06
511.722	4424.04
512.09	4475.11
512.458	4453.41
512.826	4515.11
513.193	4471.94
513.561	4513.3
513.929	4539.29
514.297	4566.41
514.664	4567.31
515.032	4616.35
515.4	4645.95
515.767	4604.82
516.135	4657.02
516.502	4639.85
516.869	4696.35
517.237	4734.76
517.604	4693.41
517.972	4750.36
518.339	4755.1
518.706	4761.43
519.073	4745.38
519.44	4789.22
519.808	4831.71
520.175	4840.3
520.542	4869.9
520.909	4901.76
521.276	4911.48
521.643	4918.03
522.009	4920.29
522.376	5024.92
522.743	5005.72
523.11	5044.13
523.477	5031.7
523.843	5072.38
524.21	5102.21
524.577	5188.31
524.943	5170.68
525.31	5225.6
525.676	5274.18
526.043	5269.21
526.409	5303.34
526.776	5327.97
527.142	5303.34
527.508	5387.17
527.874	5400.28
528.241	5396.44
528.607	5459.04
528.973	5480.51
529.339	5454.52
529.705	5532.26
530.071	5536.1
530.437	5571.35
530.803	5653.61
531.169	5668.07
531.535	5656.77
531.901	5671.46
532.267	5694.51
532.632	5807.95
532.998	5717.56
533.364	5753.04
533.73	5828.07
534.095	5822.64
534.461	5824
534.826	5842.98
535.192	5854.06
535.557	5938.12
535.923	5939.25
536.288	6002.53
536.653	5989.87
537.019	6014.05
537.384	5998.68
537.749	6095.63
538.114	6113.26
538.479	6136.08
538.845	6146.93
539.21	6093.37
539.575	6138.12
539.94	6143.31
540.305	6192.58
540.67	6229.64
541.034	6272.8
541.399	6249.52
541.764	6320.48
542.129	6292.46
542.494	6350.99
542.858	6419.69
543.223	6375.62
543.587	6463.3
543.952	6504.21
544.316	6415.85
544.681	6469.18
545.045	6522.06
545.41	6588.95
545.774	6604.09
546.138	6556.41
546.503	6633.92
546.867	6678.44
547.231	6658.33
547.595	6654.49
547.959	6724.77
548.324	6750.3
548.688	6757.53
549.052	6763.41
549.416	6773.58
549.779	6826.46
550.143	6819.91
550.507	6858.77
550.871	6901.71
551.235	6892.9
551.599	6889.51
551.962	6989.17
552.326	6918.21
552.689	7004.08
553.053	6993.91
553.417	7017.64
553.78	7090.18
554.143	7086.34
554.507	7141.25
554.87	7129.05
555.234	7190.52
555.597	7206.79
555.96	7186.9
556.323	7254.7
556.686	7264.87
557.05	7297.18
557.413	7267.8
557.776	7331.08
558.139	7359.78
558.502	7358.2
558.865	7400.23
559.228	7384.86
559.59	7445.65
559.953	7464.41
560.316	7530.17
560.679	7543.95
561.041	7609.04
561.404	7611.52
561.767	7634.8
562.129	7593.22
562.492	7690.84
562.854	7760.67
563.217	7663.73
563.579	7761.12
563.941	7790.5
564.304	7804.06
564.666	7854.91
565.028	7812.65
565.39	7909.82
565.753	7903.27
566.115	7941.68
566.477	7951.4
566.839	7944.62
567.201	8011.74
567.563	8039.31
567.925	8054.45
568.287	8085.41
568.648	8100.32
569.01	8139.42
569.372	8193.2
569.734	8203.6
570.095	8245.63
570.457	8248.57
570.819	8315.91
571.18	8371.73
571.542	8404.5
571.903	8438.62
572.265	8515.68
572.626	8567.66
572.987	8540.31
573.349	8573.76
573.71	8687.2
574.071	8658.95
574.432	8712.96
574.794	8819.85
575.155	8846.74
575.516	8902.11
575.877	8911.38
576.238	8972.39
576.599	9074.08
576.96	9100.3
577.32	9155.21
577.681	9188.2
578.042	9271.59
578.403	9352.27
578.763	9468.88
579.124	9569.44
579.485	9658.93
579.845	9711.58
580.206	9850.79
580.566	9893.04
580.927	9987.05
581.287	10116.09
581.648	10147.28
582.008	10352.92
582.368	10459.81
582.728	10590.2
583.089	10621.39
583.449	10817.99
583.809	10972.56
584.169	11125.1
584.529	11190.41
584.889	11469.95
585.249	11497.3
585.609	11701.58
585.969	11939.09
586.329	12052.08
586.688	12186.32
587.048	12437.61
587.408	12660.66
587.768	12782.46
588.127	13056.58
588.487	13236.23
588.846	13478.71
589.206	13631.25
589.565	13839.38
589.925	14084.35
590.284	14289.54
590.643	14569.08
591.003	14807.72
591.362	15066.92
591.721	15329.74
592.08	15490.86
592.44	15811.99
592.799	16054.46
593.158	16248.81
593.517	16505.75
593.876	16823.48
594.235	17105.74
594.593	17267.09
594.952	17554.76
595.311	17756.57
595.67	18170.34
596.029	18435.87
596.387	18609.88
596.746	19041.05
597.104	19110.66
597.463	19366.02
597.822	19848.49
598.18	19864.99
598.538	20251.87
598.897	20648.69
599.255	20662.03
599.613	21227.89
599.972	21363.25
600.33	21571.16
600.688	21822
601.046	22224.47
601.404	22436.44
601.762	22615.2
602.12	23056.54
602.478	23273.71
602.836	23448.39
603.194	23515.74
603.552	23826.92
603.91	23996.85
604.268	24446.33
604.625	24448.37
604.983	24967
605.341	24997.73
605.698	25356.37
606.056	25573.08
606.413	25727.2
606.771	25996.35
607.128	26366.06
607.485	26377.36
607.843	26606.28
608.2	27011.92
608.557	27279.93
608.914	27248.29
609.272	27604.9
609.629	27830.65
609.986	28149.74
610.343	28192
610.7	28524.65
611.057	28664.98
611.414	28853
611.771	29002.82
612.127	29235.81
612.484	29348.8
612.841	29628.8
613.198	29754.22
613.554	29878.51
613.911	30259.97
614.267	30375.22
614.624	30362.56
614.98	30514.2
615.337	30798.48
615.693	30875.32
616.05	31031.47
616.406	31260.62
616.762	31356.66
617.118	31482.99
617.475	31503.55
617.831	31720.04
618.187	31839.59
618.543	31955.06
618.899	32292.91
619.255	32453.13
619.611	32442.06
619.967	32717.76
620.323	32814.93
620.678	32889.95
621.034	32860.58
621.39	33007.47
621.746	33082.27
622.101	33450.84
622.457	33351.41
622.812	33363.84
623.168	33590.73
623.523	33635.02
623.879	33764.28
624.234	33658.97
624.589	33734.23
624.945	33929.48
625.3	34019.19
625.655	34064.16
626.01	34219.64
626.365	34294.21
626.72	34243.82
627.075	34400.2
627.43	34373.98
627.785	34307.77
628.14	34580.53
628.495	34593.41
628.85	34565.84
629.205	34558.61
629.559	34790.24
629.914	34602.9
630.269	34719.06
630.623	34608.78
630.978	34667.76
631.332	34946.17
631.687	34973.52
632.041	34810.81
632.396	34970.13
632.75	34787.53
633.104	34911.14
633.459	34879.51
633.813	34901.65
634.167	34966.96
634.521	34959.28
634.875	35077.69
635.229	34910.47
635.583	34863.01
635.937	34894.42
636.291	34931.26
636.645	34904.82
636.999	34883.35
637.352	35105.72
637.706	34912.5
638.06	35003.35
638.413	35016.23
638.767	35059.61
639.121	35040.18
639.474	34704.14
639.828	34896
640.181	34954.98
640.534	34903.69
640.888	34635.9
641.241	34677.25
641.594	34877.92
641.947	34919.96
642.301	34893.29
642.654	34824.59
643.007	34912.95
643.36	34740.3
643.713	34746.85
644.066	35052.61
644.419	34835.89
644.771	34498.27
645.124	34168.56
645.477	34204.27
645.83	34033.2
646.182	33758.63
646.535	33911.62
646.888	33870.95
647.24	33720.44
647.593	33816.03
647.945	33833.43
648.298	33687.45
648.65	33675.24
649.002	33425.76
649.355	33722.47
649.707	33644.06
650.059	33789.37
650.411	34183.48
650.763	34124.5
651.115	34486.52
651.467	34385.51
651.819	34290.6
652.171	34300.31
652.523	34348
652.875	34280.2
653.227	34176.47
653.578	34430.7
653.93	34389.12
654.282	34317.49
654.633	34106.65
654.985	34257.38
655.337	34237.04
655.688	34253.99
656.039	34404.49
656.391	34038.62
656.742	34197.94
657.094	34118.17
657.445	34223.7
657.796	34075.23
658.147	34087.66
658.498	34085.4
658.849	34035.46
659.2	34089.47
659.551	34000.66
659.902	34119.75
660.253	33989.59
660.604	34178.51
660.955	33949.36
661.306	34069.13
661.656	33947.55
662.007	34062.35
662.358	33975.12
662.708	34145.29
663.059	34011.73
663.409	33889.25
663.76	34029.59
664.11	34068.23
664.461	34205.17
664.811	34058.96
665.161	34024.16
665.511	33963.15
665.862	33926.09
666.212	34104.39
666.562	34098.06
666.912	33957.04
667.262	34046.31
667.612	33971.73
667.962	33921.34
668.312	33885.41
668.662	34083.14
669.011	33902.36
669.361	33826.88
669.711	33805.64
670.06	33856.26
670.41	33774.68
670.76	33771.74
671.109	33875.24
671.459	33893.77
671.808	33696.26
672.157	33865.75
672.507	33684.51
672.856	33713.21
673.205	33685.19
673.554	33852.19
673.904	33686.54
674.253	33764.28
674.602	33649.48
674.951	33301.47
675.3	33083.62
675.649	33727.9
675.998	33620.33
676.346	33644.06
676.695	33831.85
677.044	33493.55
677.393	33614.91
677.741	33635.7
678.09	33532.88
678.438	33412.43
678.787	33490.62
679.135	33513.44
679.484	33308.02
679.832	33345.99
680.181	33147.12
680.529	33216.5
680.877	33164.07
681.225	33195.94
681.573	33365.42
681.922	33140.8
682.27	32945.77
682.618	33021.48
682.966	32990.74
683.314	33121.13
683.661	32962.95
684.009	32748.04
684.357	32753.46
684.705	32774.93
685.053	32721.15
685.4	32683.41
685.748	32390.08
686.095	32510.3
686.443	32367.03
686.79	32321.83
687.138	32437.08
687.485	32379.23
687.832	32195.06
688.18	32358.22
688.527	32171.1
688.874	32180.37
689.221	32037.77
689.568	32001.16
689.915	31947.38
690.262	31891.11
690.609	31861.73
690.956	31713.94
691.303	31717.33
691.65	31523.21
691.997	31460.16
692.344	31281.86
692.69	31340.39
693.037	31278.7
693.383	31151.02
693.73	31171.81
694.077	31024.24
694.423	30929.78
694.769	30980.4
695.116	30765.26
695.462	30833.74
695.808	30723.46
696.155	30786.73
696.501	30525.5
696.847	30577.25
697.193	30360.76
697.539	30447.76
697.885	30219.97
698.231	30148.56
698.577	30177.03
698.923	30043.7
699.269	30028.11
699.614	29755.8
699.96	29755.8
700.306	29744.05
700.651	29642.81
700.997	29581.79
701.342	29552.19
701.688	29450.04
702.033	29404.17
702.379	29391.52
702.724	29281.46
703.069	29350.84
703.415	28935.93
703.76	29107.23
704.105	29039.21
704.45	28992.43
704.795	28885.77
705.14	28814.58
705.485	28686
705.83	28587.92
706.175	28655.04
706.52	28565.1
706.865	28489.39
707.209	28431.77
707.554	28355.38
707.899	28415.27
708.243	28155.62
708.588	28198.55
708.932	27994.94
709.277	28034.26
709.621	28050.31
709.966	27819.58
710.31	27940.48
710.654	27478.12
710.998	27626.82
711.342	27713.37
711.687	27615.74
712.031	27352.02
712.375	27401.29
712.719	27361.06
713.063	27403.54
713.407	27488.06
713.75	27107.06
714.094	27248.75
714.438	26985.93
714.782	27163.1
715.125	26926.27
715.469	27049.66
715.812	26768.99
716.156	26834.07
716.499	26764.01
716.843	26736.22
717.186	26682.21
717.53	26827.74
717.873	26865.48
718.216	26623
718.559	26560.86
718.902	26461.42
719.246	26423.01
719.589	26400.18
719.932	26199.28
720.275	26329
720.617	26298.94
720.96	26190.02
721.303	26213.07
721.646	26180.75
721.989	26008.33
722.331	26079.29
722.674	26041.55
723.016	25985.73
723.359	25983.02
723.701	25945.96
724.044	25771.05
724.386	25659.64
724.729	25704.61
725.071	25667.09
725.413	25657.6
725.755	25718.17
726.097	25447.21
726.439	25482.24
726.782	25401.11
727.124	25536.25
727.465	25385.07
727.807	25370.6
728.149	25287.89
728.491	25265.97
728.833	25304.39
729.175	25185.52
729.516	25191.17
729.858	25121.57
730.199	25092.65
730.541	25033.89
730.882	25088.13
731.224	25070.72
731.565	24912.76
731.906	24950.95
732.248	24995.47
732.589	24844.06
732.93	24744.86
733.271	24745.08
733.612	24783.73
733.953	24834.12
734.294	24593.9
734.635	24606.33
734.976	24649.27
735.317	24559.55
735.658	24637.74
735.999	24430.74
736.339	24540.57
736.68	24559.55
737.021	24415.37
737.361	24338.09
737.702	24470.97
738.042	24361.37
738.383	24278.66
738.723	24412.66
739.063	24174.25
739.404	24310.52
739.744	24194.82
740.084	24028.72
740.424	24189.17
740.764	24044.54
741.104	24100.81
741.444	23964.77
741.784	23951.21
742.124	24004.54
742.464	23854.26
742.804	23825.79
743.143	23745.56
743.483	23857.65
743.823	23666.24
744.162	23808.16
744.502	23721.38
744.841	23645.9
745.181	23719.57
745.52	23576.98
745.86	23565.68
746.199	23526.13
746.538	23504.89
746.877	23604.55
747.216	23501.73
747.556	23407.27
747.895	23447.26
748.234	23383.09
748.573	23300.83
748.911	23344.22
749.25	23370.88
749.589	23086.37
749.928	23185.58
750.267	23213.6
750.605	23146.48
750.944	23006.15
751.283	23072.36
751.621	23015.19
751.96	22837.11
752.298	22934.06
752.636	22914.17
752.975	22718.7
753.313	22693.84
753.651	22776.77
753.989	22579.94
754.327	22697.68
754.666	22526.84
755.004	22513.28
755.342	22549.89
755.679	22396.9
756.017	22306.96
756.355	22442.77
756.693	22396.22
757.031	22354.41
757.368	22116
757.706	22189.67
758.044	22015.21
758.381	22162.55
758.719	22090.92
759.056	22092.72
759.394	21859.74
759.731	21775.22
760.068	21859.51
760.405	21796.91
760.743	21789.46
761.08	21633.3
761.417	21511.27
761.754	21560.31
762.091	21481.89
762.428	21323.48
762.765	21258.62
763.102	21318.06
763.438	21201
763.775	21095.91
764.112	21226.76
764.449	21059.76
764.785	21039.87
765.122	20914.68
765.458	20822.25
765.795	20769.14
766.131	20781.57
766.467	20767.11
766.804	20653.44
767.14	20463.39
767.476	20467.68
767.812	20385.42
768.148	20513.56
768.485	20355.82
768.821	20125.54
769.157	20141.82
769.492	20127.35
769.828	20098.2
770.164	19989.28
770.5	20008.26
770.836	19923.06
771.171	19801.94
771.507	19722.84
771.842	19523.75
772.178	19552.45
772.513	19515.16
772.849	19513.36
773.184	19382.06
773.519	19382.29
773.855	19233.36
774.19	19196.76
774.525	19119.47
774.86	19116.98
775.195	19134.84
775.53	18943.2
775.865	18903.66
776.2	18606.04
776.535	18669.09
776.87	18714.28
777.205	18584.57
777.539	18510.45
777.874	18551.57
778.209	18486.94
778.543	18332.82
778.878	18207.18
779.212	18331.92
779.547	18101.19
779.881	18106.39
780.215	17978.26
780.55	18027.97
780.884	17908.2
781.218	17800.41
781.552	17771.71
781.886	17719.05
782.22	17627.76
782.554	17491.94
782.888	17451.26
783.222	17336.01
783.556	17226.19
783.889	17188.45
784.223	17160.65
784.557	17101.22
784.89	16997.04
785.224	17018.73
785.557	16902.13
785.891	16955.91
786.224	16927.89
786.558	16805.86
786.891	16613.09
787.224	16633.21
787.557	16540.33
787.891	16649.93
788.224	16503.72
788.557	16463.95
788.89	16419.43
789.223	16384.4
789.556	16177.63
789.888	16218.75
790.221	16189.15
790.554	16070.74
790.887	16110.73
791.219	15998.87
791.552	15982.83
791.884	15838.88
792.217	15807.24
792.549	15766.34
792.882	15673.91
793.214	15635.27
793.546	15622.16
793.879	15503.29
794.211	15419
794.543	15471.66
794.875	15368.83
795.207	15472.79
795.539	15284.32
795.871	15242.96
796.203	15149.86
796.535	15141.27
796.867	15111.66
797.198	15003.42
797.53	15086.58
797.862	15006.81
798.193	14954.15
798.525	14760.26
798.856	14861.28
799.188	14767.27
799.519	14691.56
799.85	14612.47
800.182	14664.44
800.513	14640.26
800.844	14513.04
801.175	14513.26
801.506	14410.67
801.837	14425.36
802.168	14410.67
802.499	14292.48
802.83	14297.67
803.161	14200.95
803.491	14173.84
803.822	14153.5
804.153	14054.52
804.483	14037.57
804.814	13975.2
805.145	13931.36
805.475	13990.56
805.805	13861.75
806.136	13869.89
806.466	13884.58
806.796	13803
807.126	13665.83
807.457	13680.29
807.787	13641.42
808.117	13565.26
808.447	13509.9
808.777	13621.76
809.107	13529.56
809.436	13517.81
809.766	13445.27
810.096	13453.4
810.426	13372.73
810.755	13452.5
811.085	13318.94
811.414	13294.99
811.744	13185.39
812.073	13173.64
812.403	13171.38
812.732	13023.81
813.061	13090.25
813.39	13037.37
813.719	12994.66
814.049	13040.08
814.378	13050.25
814.707	12885.06
815.036	12975.22
815.365	12898.84
815.693	12775.68
816.022	12720.77
816.351	12721.9
816.68	12636.25
817.008	12753.31
817.337	12558.06
817.665	12528
817.994	12570.04
818.322	12557.16
818.651	12483.71
818.979	12371.62
819.307	12488.46
819.636	12408.01
819.964	12316.26
820.292	12422.02
820.62	12347.44
820.948	12313.55
821.276	12351.29
821.604	12230.38
821.932	12379.08
822.259	12311.29
822.587	12223.83
822.915	12297.5
823.243	12321.46
823.57	12301.34
823.898	12330.72
824.225	12240.55
824.553	12202.81
824.88	12288.69
825.207	12328.91
825.535	12241.01
825.862	12305.64
826.189	12149.26
826.516	12301.57
826.843	12299.54
827.17	12242.14
827.497	12325.98
827.824	12246.43
828.151	12257.73
828.478	12283.26
828.805	12272.64
829.131	12251.85
829.458	12235.81
829.785	12236.26
830.111	12196.94
830.438	12285.07
830.764	12265.19
831.09	12191.06
831.417	12174.57
831.743	12205.3
832.069	12251.4
832.395	12130.05
832.722	12163.04
833.048	12220.89
833.374	12175.7
833.7	12152.42
834.026	12070.84
834.351	12177.96
834.677	12033.55
835.003	12134.57
835.329	12108.35
835.654	12014.35
835.98	11971.18
836.306	11943.16
836.631	11954.01
836.956	11966.44
837.282	12010.28
837.607	11905.2
837.932	11956.72
838.258	11930.05
838.583	11968.24
838.908	11787.01
839.233	11899.55
839.558	11843.05
839.883	11761.24
840.208	11754.01
840.533	11780.45
840.858	11695.26
841.182	11734.8
841.507	11751.53
841.832	11701.36
842.156	11635.37
842.481	11670.63
842.805	11597.63
843.13	11636.95
843.454	11601.7
843.778	11535.71
844.103	11474.25
844.427	11472.89
844.751	11435.6
845.075	11462.5
845.399	11406.45
845.723	11384.76
846.047	11358.54
846.371	11250.52
846.695	11275.61
847.019	11119.23
847.343	11121.04
847.666	11040.36
847.99	10993.13
848.313	11014.15
848.637	10944.32
848.96	10919.23
849.284	10888.27
849.607	10819.57
849.931	10812.12
850.254	10687.37
850.577	10703.65
850.9	10610.77
851.223	10615.29
851.546	10487.38
851.869	10428.4
852.192	10501.39
852.515	10462.97
852.838	10359.25
853.161	10404.67
853.483	10335.07
853.806	10211.45
854.129	10249.87
854.451	10147.73
854.774	10132.36
855.096	10154.73
855.419	10147.73
855.741	10102.98
856.063	9976.43
856.385	10093.49
856.708	10045.36
857.03	9983.89
857.352	9935.76
857.674	9911.8
857.996	9852.59
858.318	9855.76
858.64	9779.83
858.961	9805.59
859.283	9740.28
859.605	9703.67
859.926	9714.07
860.248	9711.35
860.57	9669.32
860.891	9601.08
861.212	9622.09
861.534	9597.23
861.855	9592.04
862.176	9598.59
862.498	9577.12
862.819	9500.74
863.14	9487.41
863.461	9445.6
863.782	9405.15
864.103	9453.06
864.424	9369.67
864.745	9440.85
865.065	9352.72
865.386	9341.65
865.707	9328.09
866.027	9382.32
866.348	9279.5
866.668	9381.19
866.989	9311.14
867.309	9185.72
867.63	9270.24
867.95	9260.75
868.27	9176.45
868.59	9255.55
868.91	9245.83
869.23	9197.47
869.55	9126.74
869.87	9186.17
870.19	9090.81
870.51	9107.08
870.83	9136.68
871.15	9068.21
871.469	9027.08
871.789	9093.07
872.109	9060.07
872.428	9055.55
872.748	8982.11
873.067	8999.74
873.386	8950.92
873.706	8962.22
874.025	8949.57
874.344	8841.55
874.663	8902.56
874.982	8884.94
875.301	8964.48
875.62	8912.51
875.939	8882
876.258	8878.61
876.577	8821.43
876.896	8840.87
877.214	8795.22
877.533	8772.85
877.852	8762.91
878.17	8760.42
878.489	8764.04
878.807	8735.34
879.125	8667.31
879.444	8771.72
879.762	8668.44
880.08	8672.96
880.398	8574.44
880.716	8686.75
881.034	8627.09
881.352	8604.49
881.67	8581.89
881.988	8610.82
882.306	8549.8
882.624	8511.84
882.941	8527.43
883.259	8445.85
883.577	8445.17
883.894	8459.41
884.212	8418.51
884.529	8459.18
884.846	8329.02
885.164	8303.93
885.481	8316.36
885.798	8352.75
886.115	8321.11
886.432	8274.56
886.75	8255.12
887.067	8214.22
887.383	8240.89
887.7	8164.5
888.017	8072.3
888.334	8115.24
888.651	8119.98
888.967	8114.11
889.284	8104.17
889.6	8049.03
889.917	8005.41
890.233	7986.65
890.55	8000.89
890.866	8022.13
891.182	8007.22
891.498	7940.55
891.815	7937.62
892.131	7901.01
892.447	7900.78
892.763	7811.52
893.079	7786.43
893.395	7775.81
893.71	7771.97
894.026	7800.22
894.342	7754.57
894.657	7743.27
894.973	7715.02
895.289	7726.32
895.604	7681.35
895.92	7670.5
896.235	7562.48
896.55	7557.29
896.865	7591.41
897.181	7514.35
897.496	7515.93
897.811	7493.11
898.126	7436.84
898.441	7404.3
898.756	7390.51
899.071	7381.92
899.386	7381.02
899.7	7264.41
900.015	7291.31
900.33	7237.97
900.644	7222.61
900.959	7167.92
901.273	7247.24
901.588	7149.39
901.902	7101.03
902.216	7046.79
902.531	7067.36
902.845	7062.16
903.159	7005.66
903.473	7017.41
903.787	6946.68
904.101	6928.83
904.415	6925.67
904.729	6891.32
905.042	6845.67
905.356	6843.63
905.67	6762.28
905.984	6829.4
906.297	6737.65
906.611	6734.26
906.924	6768.83
907.237	6712.79
907.551	6671.21
907.864	6661.04
908.177	6660.36
908.491	6605
908.804	6581.49
909.117	6522.51
909.43	6520.7
909.743	6449.97
910.056	6539.01
910.368	6418.56
910.681	6385.57
910.994	6385.79
911.307	6347.38
911.619	6336.75
911.932	6295.4
912.244	6328.17
912.557	6240.03
912.869	6246.14
913.181	6160.94
913.494	6201.39
913.806	6183.31
914.118	6160.71
914.43	6088.63
914.742	6060.6
915.054	6042.75
915.366	6071.9
915.678	6028.29
915.99	6018.8
916.302	5960.27
916.613	5932.47
916.925	5974.73
917.236	5914.39
917.548	5842.76
917.859	5855.64
918.171	5831.91
918.482	5762.53
918.794	5769.76
919.105	5754.17
919.416	5714.62
919.727	5724.12
920.038	5728.63
920.349	5661.52
920.66	5650.44
920.971	5599.6
921.282	5574.74
921.593	5553.5
921.903	5491.35
922.214	5482.31
922.525	5463.56
922.835	5511.24
923.146	5457.91
923.456	5424.91
923.767	5414.29
924.077	5454.07
924.387	5346.05
924.697	5359.15
925.008	5328.42
925.318	5338.36
925.628	5280.74
925.938	5307.4
926.248	5221.98
926.558	5207.07
926.867	5186.95
927.177	5201.87
927.487	5136.11
927.796	5153.96
928.106	5108.54
928.416	5029.67
928.725	5068.09
929.034	5023.79
929.344	5010.01
929.653	5093.62
929.962	5007.3
930.271	4962.33
930.581	4933.85
930.89	4890.92
931.199	4852.95
931.508	4851.37
931.817	4859.5
932.125	4835.55
932.434	4865.61
932.743	4764.37
933.051	4739.51
933.36	4704.48
933.669	4744.03
933.977	4702.45
934.286	4670.13
934.594	4672.84
934.902	4669.45
935.21	4613.86
935.519	4587.42
935.827	4588.55
936.135	4577.7
936.443	4558.72
936.751	4522.56
937.059	4494.09
937.367	4493.19
937.674	4497.25
937.982	4525.05
938.29	4493.19
938.597	4427.2
938.905	4356.24
939.213	4395.11
939.52	4341.33
939.827	4387.43
940.135	4347.2
940.442	4293.19
940.749	4297.26
941.056	4267.43
941.363	4243.7
941.67	4226.75
941.977	4171.84
942.284	4189.69
942.591	4177.04
942.898	4139.07
943.205	4153.31
943.511	4119.64
943.818	4170.26
944.125	4081.22
944.431	4051.84
944.738	4069.7
945.044	4020.21
945.35	3988.57
945.657	3969.36
945.963	3981.34
946.269	4018.85
946.575	3925.74
946.881	3941.56
947.187	3965.29
947.493	3917.38
947.799	3892.52
948.105	3843.26
948.41	3880.1
948.716	3839.19
949.022	3804.39
949.327	3829.02
949.633	3740.66
949.938	3794.9
950.244	3746.31
950.549	3726.43
950.854	3743.38
951.16	3697.5
951.465	3679.2
951.77	3664.06
952.075	3662.25
952.38	3649.59
952.685	3661.8
952.99	3606.2
953.294	3604.17
953.599	3550.16
953.904	3525.08
954.209	3581.12
954.513	3558.52
954.818	3499.09
955.122	3528.24
955.426	3525.3
955.731	3508.13
956.035	3438.98
956.339	3451.63
956.643	3493.67
956.948	3421.8
957.252	3422.48
957.556	3422.71
957.86	3355.82
958.163	3352.43
958.467	3382.26
958.771	3330.51
959.075	3331.64
959.378	3296.61
959.682	3313.33
959.985	3285.99
960.289	3272.65
960.592	3273.78
960.896	3239.21
961.199	3236.27
961.502	3239.89
961.805	3204.41
962.108	3170.28
962.411	3180.91
962.714	3164.86
963.017	3143.39
963.32	3118.08
963.623	3126.22
963.926	3099.33
964.228	3096.39
964.531	3083.28
964.833	3074.69
965.136	3035.15
965.438	3020.91
965.741	3032.21
966.043	2998.09
966.345	3053.9
966.648	3007.8
966.95	2974.36
967.252	2942.49
967.554	2958.31
967.856	2933.91
968.158	2926.45
968.46	2920.12
968.761	2907.47
969.063	2869.27
969.365	2873.34
969.666	2829.5
969.968	2833.8
970.269	2871.99
970.571	2843.96
970.872	2812.1
971.174	2792.21
971.475	2775.72
971.776	2782.05
972.077	2772.78
972.378	2763.74
972.679	2717.19
972.98	2736.62
973.281	2726.68
973.582	2708.83
973.883	2692.56
974.183	2711.99
974.484	2636.06
974.785	2687.58
975.085	2655.95
975.386	2636.96
975.686	2625.21
975.986	2618.43
976.287	2644.2
976.587	2612.11
976.887	2608.72
977.187	2599.23
977.487	2560.36
977.787	2519.91
978.087	2538.21
978.387	2519.91
978.687	2534.14
978.987	2498.21
979.286	2527.59
979.586	2506.57
979.885	2466.8
980.185	2491.43
980.484	2421.38
980.784	2454.37
981.083	2434.26
981.382	2432
981.682	2442.85
981.981	2393.58
982.28	2391.32
982.579	2379.57
982.878	2376.41
983.177	2370.08
983.475	2368.5
983.774	2332.79
984.073	2362.62
984.372	2300.25
984.67	2316.75
984.969	2293.02
985.267	2299.8
985.566	2296.18
985.864	2281.04
986.162	2250.76
986.461	2278.1
986.759	2267.48
987.057	2222.51
987.355	2266.35
987.653	2218.44
987.951	2182.74
988.249	2188.61
988.547	2193.81
988.844	2187.94
989.142	2164.43
989.44	2128.28
989.737	2165.34
990.035	2124.44
990.332	2130.76
990.63	2147.03
990.927	2096.64
991.224	2085.57
991.521	2107.94
991.819	2096.64
992.116	2058.45
992.413	2046.25
992.71	2024.55
993.006	2059.58
993.303	2038.34
993.6	1983.42
993.897	2005.34
994.193	2021.84
994.49	2016.64
994.787	1983.2
995.083	1998.34
995.379	1968.06
995.676	1999.24
995.972	1993.59
996.268	1941.16
996.565	1961.73
996.861	1949.07
997.157	1934.61
997.453	1898.45
997.749	1895.97
998.044	1874.5
998.34	1870.21
998.636	1888.74
998.932	1865.46
999.227	1834.73
999.523	1855.97
999.818	1853.71
1000.114	1818.23
1000.409	1815.07
1000.704	1812.58
1001	1829.3
1001.295	1802.41
1001.59	1773.48
1001.885	1784.56
1002.18	1742.07
1002.475	1762.41
1002.77	1734.39
1003.065	1742.75
1003.359	1740.26
1003.654	1706.82
1003.949	1715.63
1004.243	1690.1
1004.538	1669.08
1004.832	1675.63
1005.127	1676.76
1005.421	1633.38
1005.715	1681.06
1006.009	1657.1
1006.304	1626.14
1006.598	1623.66
1006.892	1639.93
1007.186	1588.63
1007.48	1598.35
1007.773	1594.96
1008.067	1578.01
1008.361	1559.7
1008.655	1571.23
1008.948	1563.55
1009.242	1542.98
1009.535	1544.56
1009.829	1522.19
1010.122	1525.36
1010.415	1520.38
1010.708	1514.06
1011.001	1487.62
1011.295	1475.87
1011.588	1489.88
1011.881	1445.36
1012.173	1472.48
1012.466	1470.89
1012.759	1448.97
1013.052	1425.47
1013.344	1439.03
1013.637	1418.69
1013.93	1424.12
1014.222	1438.35
1014.514	1403.55
1014.807	1397.68
1015.099	1389.99
1015.391	1382.53
1015.683	1374.4
1015.976	1364
1016.268	1344.8
1016.56	1342.76
1016.851	1329.88
1017.143	1324.23
1017.435	1336.66
1017.727	1331.69
1018.018	1309.99
1018.31	1309.54
1018.602	1297.34
1018.893	1267.28
1019.185	1282.65
1019.476	1285.81
1019.767	1257.11
1020.058	1251.01
1020.35	1237.91
1020.641	1224.57
1020.932	1232.26
1021.223	1242.2
1021.514	1224.8
1021.804	1211.47
1022.095	1198.81
1022.386	1203.78
1022.677	1187.06
1022.967	1199.94
1023.258	1185.25
1023.548	1166.27
1023.839	1134.18
1024.129	1133.5
1024.419	1143.22
1024.709	1112.26
1025	1120.85
1025.29	1142.77
1025.58	1127.85
1025.87	1088.08
1026.16	1113.84
1026.449	1107.29
1026.739	1081.07
1027.029	1093.73
1027.319	1060.51
1027.608	1079.49
1027.898	1038.36
1028.187	1061.19
1028.477	1044.46
1028.766	1049.66
1029.055	1032.26
1029.344	1040.62
1029.634	1011.02
1029.923	1021.87
1030.212	1020.74
1030.501	984.13
1030.79	998.36
1031.078	964.24
1031.367	1001.08
1031.656	989.78
1031.945	961.53
1032.233	954.3
1032.522	957.69
1032.81	954.3
1033.099	947.97
1033.387	933.51
1033.675	929.44
1033.963	913.62
1034.251	908.2
1034.54	941.19
1034.828	942.09
1035.116	912.49
1035.403	888.54
1035.691	891.93
1035.979	893.28
1036.267	886.73
1036.554	898.93
1036.842	880.17
1037.129	891.7
1037.417	855.09
1037.704	875.65
1037.992	826.62
1038.279	815.32
1038.566	844.47
1038.853	844.47
1039.14	844.47
