Data from hue_260_FLMS001491_00006.txt Node
Date: Tue Feb 07 15:58:29 GMT 2017
User: dcchb
Spectrometer: FLMS00149
Trigger mode: 0
Integration Time (sec): 2.000000E-2
Scans to average: 10
Electric dark correction enabled: true
Nonlinearity correction enabled: false
Boxcar width: 0
XAxis mode: Wavelengths
Number of Pixels in Spectrum: 2048
>>>>>Begin Spectral Data<<<<<
341.393	-18.9
341.776	-18.9
342.16	-18.9
342.543	-50.54
342.927	-57.54
343.31	-74.04
343.693	-60.48
344.077	-60.03
344.46	-62.06
344.843	-38.78
345.226	-45.11
345.61	-43.53
345.993	-23.19
346.376	-18.22
346.759	17.26
347.142	44.15
347.525	28.78
347.908	67.43
348.291	62.46
348.674	87.99
349.057	117.37
349.44	106.3
349.823	142.45
350.206	161.21
350.588	182
350.971	211.15
351.354	214.09
351.737	207.54
352.119	268.1
352.502	238.95
352.884	273.3
353.267	252.28
353.65	278.95
354.032	276.24
354.414	303.58
354.797	306.29
355.179	292.28
355.562	326.4
355.944	308.33
356.326	309.23
356.709	327.99
357.091	320.08
357.473	332.96
357.855	331.38
358.238	316.69
358.62	323.24
359.002	340.19
359.384	332.73
359.766	319.62
360.148	305.39
360.53	331.38
360.912	334.54
361.294	330.7
361.676	327.31
362.057	305.84
362.439	293.18
362.821	320.75
363.203	312.17
363.584	310.81
363.966	293.18
364.348	306.29
364.729	307.2
365.111	303.13
365.493	315.1
365.874	313.97
366.256	298.16
366.637	294.99
367.019	294.99
367.4	303.58
367.781	300.87
368.163	300.64
368.544	298.83
368.925	294.31
369.306	315.56
369.688	293.41
370.069	302.9
370.45	283.24
370.831	307.87
371.212	299.96
371.593	317.36
371.974	312.84
372.355	309.23
372.736	293.86
373.117	316.91
373.498	288.89
373.879	318.95
374.26	316.46
374.641	302.9
375.021	316.23
375.402	318.27
375.783	325.5
376.163	316.91
376.544	314.43
376.925	319.4
377.305	307.2
377.686	315.1
378.066	332.28
378.447	316.46
378.827	316.69
379.208	319.17
379.588	324.37
379.968	328.44
380.349	310.59
380.729	346.97
381.109	347.65
381.489	327.76
381.87	339.51
382.25	332.51
382.63	356.23
383.01	323.24
383.39	325.5
383.77	318.27
384.15	343.58
384.53	355.1
384.91	334.31
385.29	344.26
385.67	345.61
386.049	367.31
386.429	337.93
386.809	356.91
387.189	360.08
387.568	346.29
387.948	351.94
388.328	346.29
388.707	350.81
389.087	340.87
389.466	377.7
389.846	359.85
390.225	362.34
390.605	369.11
390.984	390.13
391.363	384.71
391.743	370.47
392.122	377.48
392.501	373.41
392.881	381.77
393.26	384.93
393.639	366.85
394.018	367.98
394.397	384.71
394.776	386.06
395.155	388.78
395.534	390.13
395.913	389.45
396.292	373.41
396.671	391.26
397.05	392.84
397.429	399.85
397.808	422.9
398.186	403.69
398.565	417.93
398.944	402.79
399.323	422.22
399.701	411.6
400.08	414.54
400.458	400.98
400.837	408.66
401.215	415.44
401.594	416.12
401.972	431.94
402.351	436.01
402.729	441.88
403.107	421.99
403.486	442.56
403.864	442.56
404.242	435.1
404.62	444.37
404.999	449.56
405.377	458.15
405.755	463.12
406.133	459.28
406.511	455.21
406.889	441.66
407.267	468.55
407.645	474.2
408.023	468.77
408.401	490.92
408.779	503.57
409.156	482.56
409.534	523.01
409.912	523.23
410.29	537.7
410.667	538.15
411.045	539.28
411.422	529.34
411.8	561.2
412.178	541.31
412.555	560.52
412.933	574.53
413.31	568.88
413.687	597.58
414.065	569.79
414.442	592.84
414.819	594.65
415.197	597.81
415.574	599.62
415.951	619.28
416.328	627.41
416.705	629.9
417.082	643.68
417.46	664.7
417.837	673.97
418.214	659.73
418.591	671.25
418.967	672.84
419.344	676.45
419.721	676
420.098	689.33
420.475	721.2
420.852	723.68
421.228	705.83
421.605	733.62
421.982	752.16
422.358	747.41
422.735	749.9
423.111	779.5
423.488	809.55
423.864	791.48
424.241	812.49
424.617	826.96
424.994	824.92
425.37	845.26
425.746	843.68
426.123	881.64
426.499	856.33
426.875	877.12
427.251	907.41
427.627	929.78
428.003	920.51
428.379	938.14
428.756	912.15
429.132	958.48
429.507	988.76
429.883	985.6
430.259	991.25
430.635	982.66
431.011	993.05
431.387	1014.97
431.763	1036.22
432.138	1072.6
432.514	1043.22
432.89	1075.08
433.265	1101.52
433.641	1090.9
434.016	1114.18
434.392	1156.44
434.767	1182.2
435.143	1178.36
435.518	1191.01
435.894	1231.46
436.269	1233.5
436.644	1243.44
437.02	1279.15
437.395	1270.11
437.77	1317.11
438.145	1304.23
438.52	1336.77
438.895	1364.79
439.271	1342.65
439.646	1413.15
440.021	1385.13
440.395	1429.65
440.77	1397.34
441.145	1434.17
441.52	1446.37
441.895	1471.01
442.27	1466.03
442.645	1476.88
443.019	1497.45
443.394	1529.08
443.769	1521.63
444.143	1498.8
444.518	1539.93
444.892	1558.01
445.267	1605.24
445.641	1601.4
446.016	1618.12
446.39	1564.11
446.764	1617.44
447.139	1591.23
447.513	1663.77
447.887	1649.31
448.262	1652.02
448.636	1658.12
449.01	1682.3
449.384	1703.77
449.758	1684.56
450.132	1706.25
450.506	1756.65
450.88	1757.55
451.254	1727.72
451.628	1784.22
452.002	1829.19
452.376	1785.35
452.75	1831.9
453.123	1837.55
453.497	1876.42
453.871	1864.89
454.244	1906.48
454.618	1920.03
454.992	1953.71
455.365	1926.59
455.739	1988.96
456.112	2025.57
456.486	2033.25
456.859	2033.25
457.232	2067.38
457.606	2084.78
457.979	2079.8
458.352	2122.51
458.725	2133.81
459.099	2156.64
459.472	2189.63
459.845	2236.86
460.218	2223.53
460.591	2242.96
460.964	2219.01
461.337	2298.56
461.71	2342.85
462.083	2354.37
462.456	2383.98
462.829	2393.92
463.201	2416.07
463.574	2438.66
463.947	2468.49
464.32	2501.71
464.692	2532.45
465.065	2547.36
465.438	2560.7
465.81	2611.54
466.183	2607.47
466.555	2687.02
466.928	2673.23
467.3	2681.14
467.672	2729.73
468.045	2801.82
468.417	2788.71
468.789	2824.87
469.161	2897.86
469.534	2861.03
469.906	2930.63
470.278	3005.43
470.65	2995.26
471.022	3048.14
471.394	3089.95
471.766	3098.76
472.138	3139.44
472.51	3178.08
472.882	3219.21
473.253	3273.9
473.625	3300.56
473.997	3386.21
474.369	3420.11
474.74	3419.43
475.112	3429.83
475.484	3524.51
475.855	3546.43
476.227	3667.11
476.598	3683.6
476.97	3715.92
477.341	3779.19
477.713	3864.39
478.084	3838.18
478.455	3951.17
478.827	3941.22
479.198	4093.54
479.569	4070.94
479.94	4217.83
480.311	4221.44
480.682	4306.41
481.053	4383.92
481.424	4408.33
481.795	4450.59
482.166	4461.66
482.537	4530.36
482.908	4625.05
483.279	4696.68
483.65	4725.38
484.021	4809
484.391	4846.06
484.762	4881.76
485.133	4922.44
485.503	4961.31
485.874	5116.79
486.244	5135.54
486.615	5214.18
486.985	5246.95
487.356	5343.67
487.726	5357.68
488.097	5456.21
488.467	5499.15
488.837	5604.01
489.207	5635.42
489.578	5706.38
489.948	5714.28
490.318	5827.28
490.688	5815.07
491.058	5885.58
491.428	5939.36
491.798	6005.12
492.168	6096.65
492.538	6117.66
492.908	6174.39
493.278	6261.62
493.648	6246.7
494.017	6303.65
494.387	6317.43
494.757	6363.99
495.126	6491.67
495.496	6448.05
495.866	6463.42
496.235	6550.87
496.605	6590.19
496.974	6646.24
497.344	6668.61
497.713	6687.14
498.082	6716.74
498.452	6752.68
498.821	6813.69
499.19	6825.67
499.559	6879.45
499.928	6910.41
500.298	6915.61
500.667	7024.31
501.036	6959.22
501.405	7025.44
501.774	7015.72
502.143	7106.79
502.512	7123.29
502.88	7249.84
503.249	7181.36
503.618	7250.52
503.987	7244.19
504.356	7294.36
504.724	7361.47
505.093	7281.93
505.462	7347.46
505.83	7332.55
506.199	7404.64
506.567	7481.92
506.936	7422.71
507.304	7516.72
507.672	7493.9
508.041	7522.15
508.409	7624.29
508.777	7628.13
509.145	7706.55
509.514	7631.07
509.882	7655.02
510.25	7693.22
510.618	7746.1
510.986	7726.89
511.354	7771.18
511.722	7820.22
512.09	7845.08
512.458	7847.56
512.826	7912.87
513.193	7943.6
513.561	7942.7
513.929	7954.68
514.297	7977.95
514.664	8003.26
515.032	8010.95
515.4	8049.14
515.767	8080.55
516.135	8156.71
516.502	8056.82
516.869	8087.56
517.237	8147.22
517.604	8111.51
517.972	8166.42
518.339	8224.73
518.706	8124.84
519.073	8250.72
519.44	8279.87
519.808	8351.5
520.175	8234.22
520.542	8307.66
520.909	8316.25
521.276	8349.7
521.643	8406.42
522.009	8432.18
522.376	8434.21
522.743	8488
523.11	8512.63
523.477	8499.07
523.843	8550.37
524.21	8551.95
524.577	8633.08
524.943	8665.39
525.31	8681.44
525.676	8720.76
526.043	8744.04
526.409	8731.38
526.776	8798.27
527.142	8714.21
527.508	8728.89
527.874	8865.61
528.241	8895.9
528.607	8793.75
528.973	8909.68
529.339	8828.1
529.705	8853.41
530.071	8935.67
530.437	8928.66
530.803	8933.41
531.169	8972.5
531.535	8970.92
531.901	8924.14
532.267	9007.76
532.632	8941.54
532.998	8995.33
533.364	9002.56
533.73	9012.28
534.095	8997.81
534.461	9004.37
534.826	9081.65
535.192	9081.43
535.557	9097.92
535.923	9054.31
536.288	9038.49
536.653	9071.71
537.019	9052.73
537.384	9102.67
537.749	9072.84
538.114	9089.79
538.479	9064.93
538.845	9076.46
539.21	9007.53
539.575	9010.7
539.94	9017.47
540.305	9115.78
540.67	9074.2
541.034	9049.11
541.399	9063.12
541.764	9067.19
542.129	9040.07
542.494	9069.22
542.858	9030.13
543.223	9029.45
543.587	9046.17
543.952	9050.92
544.316	9078.72
544.681	9010.02
545.045	9049.56
545.41	9008.66
545.774	9112.84
546.138	9006.85
546.503	9056.34
546.867	9032.16
547.231	9014.99
547.595	9030.81
547.959	9048.66
548.324	9030.58
548.688	9066.29
549.052	9015.89
549.416	9028.77
549.779	8982.67
550.143	8976.12
550.507	9001.66
550.871	9030.36
551.235	8968.66
551.599	9051.6
551.962	8951.26
552.326	9041.2
552.689	9042.56
553.053	8907.87
553.417	9005.95
553.78	9065.38
554.143	9029.23
554.507	9059.96
554.87	9031.03
555.234	9137.47
555.597	8995.78
555.96	9007.98
556.323	9020.64
556.686	8988.1
557.05	9090.69
557.413	9075.1
557.776	9094.08
558.139	9098.15
558.502	9123.91
558.865	9088.43
559.228	9140.86
559.59	9196.91
559.953	9134.76
560.316	9254.3
560.679	9180.86
561.041	9213.4
561.404	9225.6
561.767	9309.44
562.129	9230.35
562.492	9304.92
562.854	9292.5
563.217	9367.75
563.579	9298.37
563.941	9326.85
564.304	9384.47
564.666	9344.02
565.028	9436.67
565.39	9440.51
565.753	9421.98
566.115	9454.07
566.477	9476.9
566.839	9503.79
567.201	9545.82
567.563	9602.32
567.925	9588.76
568.287	9551.92
568.648	9626.27
569.01	9627.85
569.372	9651.13
569.734	9694.97
570.095	9680.51
570.457	9783.1
570.819	9783.1
571.18	9743.11
571.542	9819.71
571.903	9861.97
572.265	9814.06
572.626	9920.28
572.987	9977.22
573.349	9979.48
573.71	10033.95
574.071	9993.27
574.432	9931.8
574.794	10012.93
575.155	9978.58
575.516	10028.52
575.877	10104.68
576.238	10122.08
576.599	10150.78
576.96	10130.21
577.32	10138.8
577.681	10259.25
578.042	10219.25
578.403	10186.48
578.763	10286.82
579.124	10247.27
579.485	10296.31
579.845	10373.82
580.206	10272.36
580.566	10356.2
580.927	10366.37
581.287	10377.21
581.648	10351.68
582.008	10385.12
582.368	10464.22
582.728	10470.09
583.089	10502.63
583.449	10443.65
583.809	10543.54
584.169	10549.19
584.529	10530.2
584.889	10554.16
585.249	10545.8
585.609	10505.57
585.969	10565.68
586.329	10637.32
586.688	10604.1
587.048	10617.66
587.408	10623.53
587.768	10695.17
588.127	10659.01
588.487	10710.09
588.846	10734.04
589.206	10743.31
589.565	10736.53
589.925	10743.53
590.284	10748.95
590.643	10765
591.003	10763.64
591.362	10756.64
591.721	10813.59
592.08	10783.08
592.44	10821.27
592.799	10885
593.158	10864.21
593.517	10895.39
593.876	10926.58
594.235	10899.01
594.593	10861.72
594.952	10895.17
595.311	10880.48
595.67	10926.58
596.029	11003.86
596.387	11032.79
596.746	11001.38
597.104	10936.07
597.463	11024.2
597.822	11041.6
598.18	11007.03
598.538	10981.04
598.897	11013.81
599.255	10929.97
599.613	11189.17
599.972	11048.38
600.33	11032.11
600.688	11021.72
601.046	11062.62
601.404	11170.86
601.762	11121.15
602.12	11136.52
602.478	11163.41
602.836	11116.85
603.194	11137.42
603.552	11124.99
603.91	11102.39
604.268	11173.12
604.625	11028.27
604.983	11244.53
605.341	11090.41
605.698	11144.2
606.056	11193.91
606.413	11189.17
606.771	11223.97
607.128	11228.04
607.485	11157.98
607.843	11191.43
608.2	11262.16
608.557	11303.52
608.914	11218.55
609.272	11290.64
609.629	11340.35
609.986	11392.55
610.343	11286.79
610.7	11459.9
611.057	11389.62
611.414	11285.21
611.771	11403.63
612.127	11413.57
612.484	11480.46
612.841	11438.2
613.198	11385.55
613.554	11378.09
613.911	11508.48
614.267	11474.36
614.624	11466.68
614.98	11454.92
615.337	11495.83
615.693	11500.8
616.05	11466.68
616.406	11524.3
616.762	11510.29
617.118	11539.67
617.475	11502.38
617.831	11555.49
618.187	11458.99
618.543	11544.87
618.899	11642.94
619.255	11632.55
619.611	11507.8
619.967	11599.33
620.323	11542.83
620.678	11491.08
621.034	11513
621.39	11501.93
621.746	11564.3
622.101	11723.84
622.457	11511.19
622.812	11581.93
623.168	11582.83
623.523	11629.38
623.879	11737.63
624.234	11631.42
624.589	11636.39
624.945	11639.78
625.3	11618.08
625.655	11564.98
626.01	11597.29
626.365	11701.47
626.72	11607.24
627.075	11541.02
627.43	11619.67
627.785	11516.84
628.14	11557.07
628.495	11613.79
628.85	11632.32
629.205	11464.42
629.559	11564.07
629.914	11574.7
630.269	11546.22
630.623	11488.14
630.978	11528.37
631.332	11477.07
631.687	11508.71
632.041	11425.55
632.396	11483.4
632.75	11436.85
633.104	11412.89
633.459	11321.37
633.813	11345.32
634.167	11423.74
634.521	11299
634.875	11421.93
635.229	11323.63
635.583	11364.76
635.937	11348.71
636.291	11392.78
636.645	11399.79
636.999	11252.67
637.352	11350.75
637.706	11248.83
638.06	11304.65
638.413	11204.31
638.767	11280.47
639.121	11196.63
639.474	11179.68
639.828	11108.27
640.181	11128.38
640.534	11180.36
640.888	11158.21
641.241	11090.64
641.594	11112.79
641.947	11194.82
642.301	11077.99
642.654	11098.32
643.007	11098.78
643.36	11105.56
643.713	11071.43
644.066	11044.31
644.419	11084.31
644.771	10985.33
645.124	10855.84
645.477	10871.66
645.83	10777.2
646.182	10724.77
646.535	10736.53
646.888	10795.28
647.24	10720.03
647.593	10732.91
647.945	10705.79
648.298	10717.77
648.65	10634.61
649.002	10687.49
649.355	10621.05
649.707	10654.27
650.059	10713.48
650.411	10845.45
650.763	10839.8
651.115	10905.56
651.467	10912.57
651.819	10896.75
652.171	10896.07
652.523	10857.43
652.875	10865.34
653.227	10917.54
653.578	10947.82
653.93	10906.46
654.282	10868.5
654.633	10826.47
654.985	10860.59
655.337	10900.59
655.688	10844.55
656.039	10834.6
656.391	10781.5
656.742	10869.63
657.094	10915.05
657.445	10792.8
657.796	10889.97
658.147	10794.15
658.498	10914.37
658.849	10863.53
659.2	10864.66
659.551	10840.03
659.902	10887.48
660.253	10880.25
660.604	10887.71
660.955	10837.54
661.306	10831.89
661.656	10802.06
662.007	10826.24
662.358	10845.68
662.708	10841.16
663.059	10929.51
663.409	10860.36
663.76	10947.82
664.11	10906.69
664.461	10874.15
664.811	10949.85
665.161	10857.65
665.511	10899.69
665.862	10839.35
666.212	10951.21
666.562	10919.8
666.912	10883.87
667.262	10955.95
667.612	10899.23
667.962	10854.26
668.312	10878.22
668.662	10874.6
669.011	10884.32
669.361	10848.84
669.711	10899.23
670.06	10775.62
670.41	10800.93
670.76	10849.74
671.109	10857.43
671.459	10804.77
671.808	10777.88
672.157	10745.79
672.507	10755.73
672.856	10795.96
673.205	10731.33
673.554	10862.4
673.904	10702.18
674.253	10803.64
674.602	10735.4
674.951	10616.53
675.3	10585.8
675.649	10748.95
675.998	10718.45
676.346	10649.52
676.695	10754.38
677.044	10543.54
677.393	10602.07
677.741	10687.04
678.09	10635.74
678.438	10592.12
678.787	10695.85
679.135	10544.67
679.484	10519.58
679.832	10558.45
680.181	10488.17
680.529	10537.66
680.877	10510.99
681.225	10486.59
681.573	10535.63
681.922	10483.88
682.27	10405.69
682.618	10455.18
682.966	10444.56
683.314	10401.62
683.661	10372.47
684.009	10293.6
684.357	10328.4
684.705	10246.59
685.053	10367.72
685.4	10293.6
685.748	10179.7
686.095	10165.24
686.443	10243.66
686.79	10149.2
687.138	10077.33
687.485	10135.86
687.832	10091.12
688.18	10108.29
688.527	10054.06
688.874	10042.53
689.221	9977
689.568	9924.8
689.915	9906.72
690.262	9941.97
690.609	9899.94
690.956	9884.12
691.303	9808.19
691.65	9819.94
691.997	9828.53
692.344	9722.54
692.69	9733.61
693.037	9714.63
693.383	9611.58
693.73	9642.77
694.077	9615.88
694.423	9549.89
694.769	9529.55
695.116	9467.18
695.462	9477.58
695.808	9433.74
696.155	9526.61
696.501	9354.64
696.847	9349.22
697.193	9301.99
697.539	9328.88
697.885	9305.38
698.231	9245.94
698.577	9222.89
698.923	9270.8
699.269	9053.41
699.614	9137.02
699.96	9133.18
700.306	9071.48
700.651	8976.12
700.997	8987.65
701.342	9014.09
701.688	9014.76
702.033	8910.36
702.379	8936.57
702.724	8893.41
703.069	8896.57
703.415	8772.74
703.76	8778.39
704.105	8739.74
704.45	8778.61
704.795	8670.59
705.14	8663.36
705.485	8676.01
705.83	8607.77
706.175	8567.77
706.52	8544.72
706.865	8518.73
707.209	8539.07
707.554	8494.55
707.899	8478.05
708.243	8421.56
708.588	8425.17
708.932	8360.54
709.277	8372.07
709.621	8349.24
709.966	8271.73
710.31	8311.5
710.654	8222.47
710.998	8245.07
711.342	8279.87
711.687	8241.68
712.031	8172.53
712.375	8153.32
712.719	8177.95
713.063	8148.57
713.407	8136.37
713.75	8169.14
714.094	8137.5
714.438	8107.89
714.782	8070.16
715.125	8083.94
715.469	8084.39
715.812	8047.33
716.156	8030.83
716.499	7962.36
716.843	7975.24
717.186	8000.33
717.53	8045.3
717.873	7981.8
718.216	7971.63
718.559	7937.05
718.902	7943.38
719.246	7912.87
719.589	7857.28
719.932	7806.89
720.275	7857.51
720.617	7861.57
720.96	7859.99
721.303	7830.16
721.646	7805.76
721.989	7810.95
722.331	7783.83
722.674	7849.6
723.016	7819.54
723.359	7809.37
723.701	7836.49
724.044	7711.07
724.386	7790.84
724.729	7758.3
725.071	7701.35
725.413	7747
725.755	7735.25
726.097	7767.79
726.439	7641.01
726.782	7572.32
727.124	7705.87
727.465	7661.8
727.807	7629.04
728.149	7643.5
728.491	7682.82
728.833	7712.2
729.175	7583.84
729.516	7649.38
729.858	7632.65
730.199	7613.44
730.541	7583.16
730.882	7592.43
731.224	7637.85
731.565	7575.03
731.906	7565.99
732.248	7550.62
732.589	7566.21
732.93	7506.33
733.271	7543.39
733.612	7612.54
733.953	7583.39
734.294	7519.66
734.635	7542.94
734.976	7585.42
735.317	7520.56
735.658	7625.65
735.999	7520.56
736.339	7539.77
736.68	7608.92
737.021	7543.84
737.361	7452.09
737.702	7502.49
738.042	7553.56
738.383	7523.05
738.723	7622.48
739.063	7566.44
739.404	7612.77
739.744	7532.09
740.084	7583.84
740.424	7548.36
740.764	7575.03
741.104	7660.22
741.444	7590.17
741.784	7610.05
742.124	7595.37
742.464	7641.69
742.804	7683.5
743.143	7685.31
743.483	7715.36
743.823	7642.6
744.162	7680.79
744.502	7758.3
744.841	7705.64
745.181	7742.93
745.52	7796.26
745.86	7815.92
746.199	7795.81
746.538	7841.01
746.877	7847.79
747.216	7920.33
747.556	7911.97
747.895	7983.83
748.234	8003.94
748.573	8051.85
748.911	8062.02
749.25	8162.36
749.589	8189.02
749.928	8191.51
750.267	8345.85
750.605	8345.63
750.944	8396.7
751.283	8445.29
751.621	8512.86
751.96	8579.29
752.298	8587.2
752.636	8672.17
752.975	8769.57
753.313	8836.46
753.651	8926.4
753.989	8967.98
754.327	9046.4
754.666	9159.84
755.004	9266.73
755.342	9360.74
755.679	9463.34
756.017	9548.53
756.355	9598.02
756.693	9765.48
757.031	9879.37
757.368	9954.85
757.706	10022.87
758.044	10110.33
758.381	10327.04
758.719	10417.44
759.056	10601.39
759.394	10651.56
759.731	10747.37
760.068	10901.72
760.405	10958.89
760.743	11168.38
761.08	11254.7
761.417	11341.71
761.754	11425.1
762.091	11524.53
762.428	11740.79
762.765	11705.31
763.102	11925.42
763.438	12131.52
763.775	12163.83
764.112	12378.29
764.449	12589.13
764.785	12634.1
765.122	12580.32
765.458	12755.91
765.795	12932.85
766.131	13049.23
766.467	13111.38
766.804	13196.12
767.14	13321.77
767.476	13491.93
767.812	13545.94
768.148	13634.75
768.485	13740.29
768.821	13767.86
769.157	13944.12
769.492	14067.96
769.828	14167.4
770.164	14180.5
770.5	14199.03
770.836	14267.05
771.171	14338.92
771.507	14487.84
771.842	14449.65
772.178	14580.27
772.513	14592.7
772.849	14691.68
773.184	14705.69
773.519	14826.59
773.855	14733.48
774.19	14936.42
774.525	14887.83
774.86	14972.35
775.195	15030.65
775.53	15030.88
775.865	15066.58
776.2	14995.4
776.535	14973.02
776.87	15145.9
777.205	15069.97
777.539	15152.23
777.874	15210.53
778.209	15172.79
778.543	15186.35
778.878	15145.9
779.212	15164.88
779.547	15143.19
779.881	15299.12
780.215	15193.58
780.55	15303.86
780.884	15232.9
781.218	15200.82
781.552	15328.72
781.886	15344.99
782.22	15203.07
782.554	15300.25
782.888	15143.42
783.222	15105.45
783.556	15183.41
783.889	15141.83
784.223	15026.81
784.557	15044.66
784.89	15153.36
785.224	15109.74
785.557	15044.89
785.891	15046.24
786.224	15040.14
786.558	14954.04
786.891	14960.37
787.224	14872.46
787.557	14874.95
787.891	14841.05
788.224	14869.98
788.557	14958.34
788.89	14947.04
789.223	14912.69
789.556	14945.23
789.888	14866.13
790.221	14782.97
790.554	14677.21
790.887	14743.88
791.219	14679.25
791.552	14632.92
791.884	14698.91
792.217	14613.71
792.549	14548.18
792.882	14423.89
793.214	14470.21
793.546	14611.68
793.879	14429.08
794.211	14321.52
794.543	14388.41
794.875	14362.64
795.207	14490.55
795.539	14368.29
795.871	14258.92
796.203	14245.36
796.535	14197
796.867	14129.43
797.198	14062.54
797.53	14144.8
797.862	14023.67
798.193	14051.01
798.525	14055.53
798.856	14046.27
799.188	13916.78
799.519	13855.09
799.85	13813.28
800.182	13870.68
800.513	13861.64
800.844	13686.73
801.175	13811.02
801.506	13775.99
801.837	13686.96
802.168	13736.67
802.499	13612.83
802.83	13620.74
803.161	13595.43
803.491	13528.54
803.822	13620.52
804.153	13437.25
804.483	13349.11
804.814	13307.98
805.145	13409.9
805.475	13395.66
805.805	13336.01
806.136	13267.98
806.466	13280.19
806.796	13272.73
807.126	13151.6
807.457	13133.3
807.787	13041.78
808.117	13117.03
808.447	12979.18
808.777	13019.18
809.107	13027.31
809.436	13010.59
809.766	12980.99
810.096	12923.36
810.426	12940.08
810.755	12906.64
811.085	12892.18
811.414	12865.28
811.744	12788
812.073	12700.99
812.403	12773.76
812.732	12740.09
813.061	12707.1
813.39	12604.05
813.719	12658.96
814.049	12630.71
814.378	12555.91
814.707	12557.49
815.036	12524.5
815.365	12503.03
815.693	12425.97
816.022	12405.18
816.351	12383.71
816.68	12382.81
817.008	12448.35
817.337	12208.13
817.665	12251.97
817.994	12277.05
818.322	12316.6
818.651	12221.91
818.979	12180.33
819.307	12215.81
819.636	12258.52
819.964	12115.02
820.292	12196.15
820.62	12257.62
820.948	12056.94
821.276	12187.33
821.604	12123.83
821.932	12085.42
822.259	12143.95
822.587	12191.85
822.915	12157.05
823.243	12141.69
823.57	12115.47
823.898	12065.53
824.225	12017.17
824.553	12056.94
824.88	12156.83
825.207	12088.35
825.535	12079.77
825.862	12099.43
826.189	12104.17
826.516	12089.26
826.843	12135.81
827.17	12153.21
827.497	12171.74
827.824	12117.28
828.151	12169.48
828.478	12176.71
828.805	12185.53
829.131	12105.98
829.458	12086.09
829.785	12099.88
830.111	12043.38
830.438	12173.78
830.764	12104.63
831.09	12201.57
831.417	12046.55
831.743	12070.5
832.069	12025.08
832.395	12064.17
832.722	12087.68
833.048	12059.88
833.374	12043.61
833.7	12032.76
834.026	12113.44
834.351	12023.95
834.677	12024.4
835.003	12065.76
835.329	11959.54
835.654	12028.24
835.98	11933.33
836.306	11859.89
836.631	11890.17
836.956	11963.84
837.282	11908.7
837.607	11883.61
837.932	11808.36
838.258	11892.2
838.583	11872.09
838.908	11807.91
839.233	11760.91
839.558	11795.03
839.883	11727.69
840.208	11725.43
840.533	11665.09
840.858	11682.26
841.182	11671.42
841.507	11687.69
841.832	11596.84
842.156	11610.4
842.481	11619.89
842.805	11520.01
843.13	11497.18
843.454	11534.02
843.778	11452.66
844.103	11440.91
844.427	11447.92
844.751	11456.73
845.075	11373.35
845.399	11309.39
845.723	11254.25
846.047	11247.25
846.371	11269.17
846.695	11234.82
847.019	11129.51
847.343	11153.92
847.666	11022.39
847.99	10952.79
848.313	11089.28
848.637	10909.63
848.96	10901.04
849.284	10826.92
849.607	10819.24
849.931	10808.84
850.254	10636.87
850.577	10645.23
850.9	10538.56
851.223	10581.73
851.546	10545.12
851.869	10517.77
852.192	10471.9
852.515	10414.05
852.838	10354.16
853.161	10385.35
853.483	10374.5
853.806	10321.62
854.129	10231.91
854.451	10250.21
854.774	10215.86
855.096	10137.22
855.419	10100.16
855.741	10085.02
856.063	10071.46
856.385	10036.66
856.708	10011.12
857.03	9936.09
857.352	9924.12
857.674	9901.75
857.996	9913.5
858.318	9793.73
858.64	9897
858.961	9748.98
859.283	9756.21
859.605	9713.73
859.926	9781.97
860.248	9732.03
860.57	9629.89
860.891	9645.03
861.212	9597.35
861.534	9596.22
861.855	9634.63
862.176	9569.32
862.498	9531.13
862.819	9560.29
863.14	9508.31
863.461	9470.8
863.782	9401.65
864.103	9490.68
864.424	9479.61
864.745	9368.43
865.065	9354.87
865.386	9414.75
865.707	9320.29
866.027	9384.7
866.348	9334.98
866.668	9358.26
866.989	9315.55
867.309	9249.33
867.63	9287.75
867.95	9262.21
868.27	9240.07
868.59	9145.83
868.91	9227.86
869.23	9200.29
869.55	9206.17
869.87	9164.82
870.19	9208.88
870.51	9158.04
870.83	9148.32
871.15	9090.02
871.469	9116.46
871.789	9105.61
872.109	9098.38
872.428	9021.54
872.748	9051.82
873.067	9045.27
873.386	9070.81
873.706	8976.57
874.025	8945.84
874.344	8970.02
874.663	8973.86
874.982	8878.5
875.301	8935.67
875.62	8889.34
875.939	8902.45
876.258	8841.89
876.577	8883.24
876.896	8874.65
877.214	8844.6
877.533	8862.45
877.852	8765.73
878.17	8878.95
878.489	8854.09
878.807	8744.94
879.125	8748.56
879.444	8742
879.762	8692.29
880.08	8687.54
880.398	8671.5
880.716	8663.59
881.034	8659.74
881.352	8654.77
881.67	8668.33
881.988	8621.33
882.306	8589.24
882.624	8595.56
882.941	8501.56
883.259	8469.69
883.577	8516.25
883.894	8495.91
884.212	8479.86
884.529	8488
884.846	8485.29
885.164	8446.42
885.481	8420.43
885.798	8427.43
886.115	8330.49
886.432	8374.55
886.75	8303.82
887.067	8322.58
887.383	8266.99
887.7	8227.44
888.017	8270.38
888.334	8288.23
888.651	8177.27
888.967	8193.32
889.284	8193.32
889.6	8078.06
889.917	8078.06
890.233	8065.64
890.55	8075.13
890.866	8039.42
891.182	8003.72
891.498	8032.19
891.815	7882.59
892.131	7942.02
892.447	7887.11
892.763	7870.61
893.079	7869.93
893.395	7861.35
893.71	7840.56
894.026	7833.33
894.342	7777.51
894.657	7742.71
894.973	7713.1
895.289	7742.25
895.604	7675.82
895.92	7657.51
896.235	7632.88
896.55	7610.51
896.865	7549.26
897.181	7568.93
897.496	7480.34
897.811	7555.37
898.126	7455.26
898.441	7429.49
898.756	7434.01
899.071	7417.52
899.386	7293.9
899.7	7361.93
900.015	7311.76
900.33	7186.34
900.644	7249.84
900.959	7257.75
901.273	7224.98
901.588	7153.57
901.902	7110.86
902.216	7116.28
902.531	7100.91
902.845	7091.88
903.159	7028.6
903.473	6960.13
903.787	6989.05
904.101	6922.61
904.415	6940.02
904.729	6930.3
905.042	6829.06
905.356	6828.15
905.67	6898.21
905.984	6837.19
906.297	6845.1
906.611	6792.45
906.924	6821.15
907.237	6747.03
907.551	6700.47
907.864	6704.77
908.177	6695.73
908.491	6605.56
908.804	6633.58
909.117	6568.27
909.43	6577.31
909.743	6509.74
910.056	6507.94
910.368	6511.78
910.681	6521.27
910.994	6422.29
911.307	6402.85
911.619	6340.26
911.932	6337.55
912.244	6270.88
912.557	6304.55
912.869	6232.24
913.181	6149.3
913.494	6196.53
913.806	6152.01
914.118	6193.82
914.43	6124.44
914.742	6102.75
915.054	6100.04
915.366	6053.71
915.678	6051.68
915.99	6032.02
916.302	5981.17
916.613	5935.75
916.925	6005.58
917.236	5970.1
917.548	5890.78
917.859	5922.87
918.171	5815.53
918.482	5767.39
918.794	5822.98
919.105	5775.3
919.416	5765.36
919.727	5767.16
920.038	5672.25
920.349	5658.24
920.66	5648.52
920.971	5637.68
921.282	5644.46
921.593	5556.55
921.903	5582.99
922.214	5585.25
922.525	5561.07
922.835	5519.71
923.146	5465.03
923.456	5481.3
923.767	5390.9
924.077	5394.52
924.387	5406.72
924.697	5322.43
925.008	5313.39
925.318	5299.38
925.628	5289.44
925.938	5280.85
926.248	5245.82
926.558	5255.31
926.867	5219.83
927.177	5174.64
927.487	5174.41
927.796	5129.67
928.106	5085.37
928.416	5108.43
928.725	5138.03
929.034	5075.66
929.344	5077.01
929.653	5022.78
929.962	4964.02
930.271	4990.01
930.581	5003.34
930.89	4926.06
931.199	4948.2
931.508	4905.49
931.817	4887.87
932.125	4891.48
932.434	4854.65
932.743	4838.83
933.051	4874.76
933.36	4805.16
933.669	4776
933.977	4765.38
934.286	4698.72
934.594	4725.16
934.902	4683.58
935.21	4704.59
935.519	4679.06
935.827	4647.87
936.135	4616.69
936.443	4578.04
936.751	4593.41
937.059	4569.23
937.367	4527.42
937.674	4508.89
937.982	4471.15
938.29	4471.15
938.597	4458.95
938.905	4449.91
939.213	4433.19
939.52	4436.35
939.827	4404.49
940.135	4343.25
940.442	4356.13
940.749	4353.42
941.056	4347.77
941.363	4296.69
941.67	4233.19
941.977	4264.83
942.284	4243.14
942.591	4249.92
942.898	4177.83
943.205	4189.13
943.511	4268.22
943.818	4132.86
944.125	4117.49
944.431	4134.67
944.738	4093.08
945.044	4059.87
945.35	4072.52
945.657	4058.74
945.963	4037.49
946.269	4021.22
946.575	3977.16
946.881	3950.26
947.187	3973.54
947.493	3949.81
947.799	3979.19
948.105	3894.9
948.41	3932.64
948.716	3896.71
949.022	3859.64
949.327	3905.52
949.633	3825.75
949.938	3822.13
950.244	3819.42
950.549	3802.24
950.854	3732.64
951.16	3757.05
951.465	3755.92
951.77	3715.02
952.075	3692.42
952.38	3734.22
952.685	3710.5
952.99	3645.86
953.294	3610.61
953.599	3624.85
953.904	3590.27
954.209	3574.91
954.513	3599.09
954.818	3565.19
955.122	3567.9
955.426	3546.43
955.731	3504.63
956.035	3532.65
956.339	3484.29
956.643	3498.75
956.948	3457.85
957.252	3488.35
957.556	3440.45
957.86	3393.89
958.163	3409.03
958.467	3402.48
958.771	3396.15
959.075	3403.84
959.378	3340.11
959.682	3347.34
959.985	3328.13
960.289	3309.6
960.592	3321.58
960.896	3274.57
961.199	3266.44
961.502	3277.06
961.805	3223.73
962.108	3265.76
962.411	3182.83
962.714	3199.55
963.017	3174.46
963.32	3208.59
963.623	3157.29
963.926	3141.25
964.228	3140.79
964.531	3120.68
964.833	3108.48
965.136	3093.34
965.438	3091.98
965.741	3067.8
966.043	3035.03
966.345	3025.99
966.648	3010.4
966.95	2992.77
967.252	2969.95
967.554	2977.41
967.856	2967.46
968.158	2927.24
968.46	2960.68
968.761	2957.52
969.063	2930.86
969.365	2943.06
969.666	2926.56
969.968	2896.73
970.269	2861.7
970.571	2853.57
970.872	2861.03
971.174	2833
971.475	2812.89
971.776	2831.65
972.077	2849.5
972.378	2783.29
972.679	2764.31
972.98	2778.77
973.281	2785.55
973.582	2750.07
973.883	2750.75
974.183	2719.11
974.484	2710.52
974.785	2715.72
975.085	2701.48
975.386	2652.67
975.686	2667.59
975.986	2672.1
976.287	2642.05
976.587	2640.69
976.887	2639.11
977.187	2609.51
977.487	2601.15
977.787	2574.71
978.087	2550.98
978.387	2554.59
978.687	2569.28
978.987	2533.58
979.286	2525.22
979.586	2520.92
979.885	2481.38
980.185	2460.36
980.484	2439.34
980.784	2479.57
981.083	2463.97
981.382	2444.09
981.682	2426.24
981.981	2442.51
982.28	2416.07
982.579	2415.84
982.878	2407.03
983.177	2379.46
983.475	2393.24
983.774	2424.43
984.073	2362.28
984.372	2345.11
984.67	2315.28
984.969	2340.36
985.267	2280.7
985.566	2329.29
985.864	2284.32
986.162	2287.03
986.461	2274.6
986.759	2280.93
987.057	2243.87
987.355	2245.9
987.653	2241.38
987.951	2191.44
988.249	2188.05
988.547	2190.99
988.844	2188.05
989.142	2185.34
989.44	2169.29
989.737	2137.43
990.035	2145.57
990.332	2150.76
990.63	2142.85
990.927	2111.44
991.224	2119.13
991.521	2095.62
991.819	2110.09
992.116	2092.69
992.413	2084.1
992.71	2065.57
993.006	2041.61
993.303	2055.4
993.6	2035.51
993.897	2072.57
994.193	2030.09
994.49	2020.37
994.787	1996.87
995.083	1973.14
995.379	1995.29
995.676	1965.68
995.972	1959.81
996.268	1962.97
996.565	1916.42
996.861	1934.95
997.157	1918.23
997.453	1924.78
997.749	1929.07
998.044	1908.06
998.34	1878
998.636	1882.3
998.932	1862.41
999.227	1861.5
999.523	1860.37
999.818	1838
1000.114	1863.31
1000.409	1795.07
1000.704	1826.03
1001	1857.89
1001.295	1779.7
1001.59	1767.72
1001.885	1790.09
1002.18	1769.08
1002.475	1770.66
1002.77	1757.55
1003.065	1725.69
1003.359	1718.46
1003.654	1718.01
1003.949	1693.37
1004.243	1742.86
1004.538	1716.42
1004.832	1709.64
1005.127	1672.13
1005.421	1663.77
1005.715	1649.98
1006.009	1662.64
1006.304	1638.91
1006.598	1623.54
1006.892	1629.65
1007.186	1613.38
1007.48	1620.38
1007.773	1627.16
1008.067	1578.8
1008.361	1559.37
1008.655	1593.49
1008.948	1573.15
1009.242	1549.42
1009.535	1539.93
1009.829	1551.46
1010.122	1519.37
1010.415	1520.27
1010.708	1517.78
1011.001	1497.22
1011.295	1511.46
1011.588	1513.94
1011.881	1471.91
1012.173	1488.86
1012.466	1474.85
1012.759	1478.46
1013.052	1457
1013.344	1451.35
1013.637	1435.75
1013.93	1454.96
1014.222	1428.97
1014.514	1403.66
1014.807	1390.33
1015.099	1386.04
1015.391	1381.07
1015.683	1358.69
1015.976	1371.57
1016.268	1356.43
1016.56	1375.64
1016.851	1342.65
1017.143	1354.4
1017.435	1327.06
1017.727	1325.93
1018.018	1307.4
1018.31	1286.38
1018.602	1272.82
1018.893	1287.06
1019.185	1310.56
1019.476	1253.61
1019.767	1278.24
1020.058	1276.21
1020.35	1229.66
1020.641	1240.05
1020.932	1233.95
1021.223	1235.31
1021.514	1208.19
1021.804	1197.34
1022.095	1200.05
1022.386	1194.18
1022.677	1192.14
1022.967	1153.73
1023.258	1159.83
1023.548	1164.57
1023.839	1163.22
1024.129	1142.65
1024.419	1132.26
1024.709	1133.16
1025	1121.64
1025.29	1136.78
1025.58	1110.79
1025.87	1100.85
1026.16	1116.67
1026.449	1103.33
1026.739	1095.65
1027.029	1079.15
1027.319	1070.11
1027.608	1059.72
1027.898	1051.58
1028.187	1062.66
1028.477	1038.7
1028.766	1022.43
1029.055	1039.83
1029.344	1033.96
1029.634	1031.47
1029.923	1012.49
1030.212	1029.66
1030.501	1008.42
1030.79	995.99
1031.078	1015.43
1031.367	990.12
1031.656	975.88
1031.945	983.34
1032.233	960.96
1032.522	964.35
1032.81	958.93
1033.099	937.24
1033.387	947.86
1033.675	938.59
1033.963	958.03
1034.251	933.85
1034.54	944.01
1034.828	930.91
1035.116	903.79
1035.403	924.13
1035.691	911.47
1035.979	886.39
1036.267	869.89
1036.554	899.27
1036.842	904.02
1037.129	863.11
1037.417	865.82
1037.704	878.03
1037.992	841.42
1038.279	850.68
1038.566	837.8
1038.853	837.8
1039.14	837.8
