Data from hue_150_FLMS001491_00061.txt Node
Date: Tue Feb 07 16:54:21 GMT 2017
User: dcchb
Spectrometer: FLMS00149
Trigger mode: 0
Integration Time (sec): 2.000000E-2
Scans to average: 10
Electric dark correction enabled: true
Nonlinearity correction enabled: false
Boxcar width: 0
XAxis mode: Wavelengths
Number of Pixels in Spectrum: 2048
>>>>>Begin Spectral Data<<<<<
341.393	-3.22
341.776	-3.22
342.16	-3.22
342.543	-53.39
342.927	-68.98
343.31	-72.37
343.693	-65.82
344.077	-66.95
344.46	-64.01
344.843	-32.6
345.226	-54.52
345.61	-23.78
345.993	-28.3
346.376	-9.1
346.759	-3.45
347.142	25.48
347.525	47.17
347.908	64.35
348.291	70.68
348.674	91.47
349.057	121.75
349.44	127.17
349.823	148.19
350.206	180.5
350.588	199.26
350.971	203.1
351.354	216.66
351.737	232.03
352.119	250.33
352.502	262.54
352.884	280.16
353.267	283.78
353.65	289.65
354.032	295.75
354.414	307.73
354.797	316.32
355.179	314.29
355.562	313.83
355.944	325.36
356.326	333.27
356.709	335.08
357.091	325.58
357.473	336.88
357.855	333.72
358.238	353.83
358.62	345.92
359.002	361.52
359.384	352.93
359.766	349.99
360.148	330.33
360.53	344.79
360.912	338.92
361.294	351.12
361.676	354.06
362.057	317
362.439	324.45
362.821	327.39
363.203	323.78
363.584	324.23
363.966	310.9
364.348	329.65
364.729	318.35
365.111	328.75
365.493	318.13
365.874	324.23
366.256	331.01
366.637	323.1
367.019	307.05
367.4	316.77
367.781	329.2
368.163	323.78
368.544	313.83
368.925	308.86
369.306	317.68
369.688	322.87
370.069	313.61
370.45	324.45
370.831	314.74
371.212	323.32
371.593	320.16
371.974	323.55
372.355	312.25
372.736	327.39
373.117	326.04
373.498	313.16
373.879	319.48
374.26	327.84
374.641	313.38
375.021	300.73
375.402	317.9
375.783	336.21
376.163	323.1
376.544	345.47
376.925	313.16
377.305	350.44
377.686	340.73
378.066	333.72
378.447	313.16
378.827	344.12
379.208	339.6
379.588	337.11
379.968	335.3
380.349	321.29
380.729	344.34
381.109	347.28
381.489	337.56
381.87	338.69
382.25	345.25
382.63	339.14
383.01	352.93
383.39	343.44
383.77	351.35
384.15	332.59
384.53	357.9
384.91	353.15
385.29	347.28
385.67	358.8
386.049	349.76
386.429	333.95
386.809	357.45
387.189	349.31
387.568	364.91
387.948	350.44
388.328	385.47
388.707	360.16
389.087	357.67
389.466	353.38
389.846	364.45
390.225	385.92
390.605	374.62
390.984	376.43
391.363	392.25
391.743	395.19
392.122	393.38
392.501	376.2
392.881	397.9
393.26	375.75
393.639	388.63
394.018	378.92
394.397	395.41
394.776	408.52
395.155	404.23
395.534	399.26
395.913	384.57
396.292	388.18
396.671	378.01
397.05	383.21
397.429	390.22
397.808	401.51
398.186	401.29
398.565	388.63
398.944	402.42
399.323	408.52
399.701	434.96
400.08	421.18
400.458	420.27
400.837	416.2
401.215	421.85
401.594	425.47
401.972	418.01
402.351	423.66
402.729	424.79
403.107	425.02
403.486	443.55
403.864	421.63
404.242	437.22
404.62	441.06
404.999	430.89
405.377	426.82
405.755	449.2
406.133	453.49
406.511	428.63
406.889	469.08
407.267	439.93
407.645	440.84
408.023	456.88
408.401	484.9
408.779	479.7
409.156	462.76
409.534	481.29
409.912	493.94
410.29	498.69
410.667	475.64
411.045	482.64
411.422	513.38
411.8	504.11
412.178	500.04
412.555	514.96
412.933	507.5
413.31	514.28
413.687	508.63
414.065	522.19
414.442	514.05
414.819	534.84
415.197	547.95
415.574	547.5
415.951	525.35
416.328	553.38
416.705	538.23
417.082	533.94
417.46	558.35
417.837	559.25
418.214	557.67
418.591	560.38
418.967	574.39
419.344	580.04
419.721	586.59
420.098	583.21
420.475	576.2
420.852	596.09
421.228	572.13
421.605	578.46
421.982	584.56
422.358	596.54
422.735	640.38
423.111	625.69
423.488	626.59
423.864	620.72
424.241	623.43
424.617	623.88
424.994	620.94
425.37	636.08
425.746	641.51
426.123	644.45
426.499	650.32
426.875	661.17
427.251	643.99
427.627	649.87
428.003	649.19
428.379	697.33
428.756	660.72
429.132	695.29
429.507	703.65
429.883	705.69
430.259	691
430.635	705.69
431.011	726.03
431.387	737.78
431.763	727.16
432.138	752.47
432.514	747.72
432.89	735.97
433.265	759.25
433.641	774.84
434.016	784.78
434.392	798.34
434.767	805.35
435.143	794.95
435.518	812.35
435.894	788.4
436.269	845.12
436.644	853.93
437.02	835.85
437.395	852.58
437.77	848.96
438.145	846.93
438.52	862.29
438.895	864.1
439.271	882.86
439.646	890.77
440.021	896.19
440.395	888.06
440.77	893.25
441.145	910.65
441.52	924.44
441.895	925.79
442.27	926.25
442.645	931.44
443.019	947.72
443.394	926.92
443.769	951.1
444.143	941.39
444.518	965.12
444.892	966.02
445.267	973.25
445.641	998.79
446.016	973.25
446.39	1018.22
446.764	996.53
447.139	992.01
447.513	1032.23
447.887	1024.78
448.262	1023.42
448.636	1033.14
449.01	1043.08
449.384	1050.54
449.758	1053.48
450.132	1067.71
450.506	1062.51
450.88	1069.75
451.254	1081.05
451.628	1097.32
452.002	1117.2
452.376	1105.23
452.75	1153.36
453.123	1126.02
453.497	1154.26
453.871	1169.18
454.244	1183.42
454.618	1206.24
454.992	1207.37
455.365	1236.07
455.739	1252.11
456.112	1243.75
456.486	1261.83
456.859	1289.63
457.232	1292.11
457.606	1290.08
457.979	1319.46
458.352	1342.28
458.725	1318.33
459.099	1370.98
459.472	1387.03
459.845	1406.23
460.218	1413.47
460.591	1401.04
460.964	1436.52
461.337	1471.54
461.71	1506.8
462.083	1515.61
462.456	1528.72
462.829	1549.06
463.201	1555.16
463.574	1556.96
463.947	1575.04
464.32	1637.41
464.692	1651.65
465.065	1637.19
465.438	1669.73
465.81	1721.93
466.183	1722.16
466.555	1770.07
466.928	1805.55
467.3	1782.72
467.672	1813.46
468.045	1882.38
468.417	1911.53
468.789	1894.81
469.161	1952.21
469.534	1997.63
469.906	2033.56
470.278	2038.53
470.65	2102.49
471.022	2144.07
471.394	2173.9
471.766	2180.68
472.138	2221.81
472.51	2273.56
472.882	2337.51
473.253	2392.2
473.625	2441.46
473.997	2458.18
474.369	2521.69
474.74	2567.33
475.112	2586.77
475.484	2697.5
475.855	2741.34
476.227	2813.2
476.598	2864.27
476.97	2949.24
477.341	3023.59
477.713	3068.34
478.084	3118.28
478.455	3194.66
478.827	3310.82
479.198	3398.72
479.569	3409.12
479.94	3561.21
480.311	3637.14
480.682	3744.93
481.053	3872.61
481.424	3938.15
481.795	4052.72
482.166	4133.39
482.537	4201.87
482.908	4360.51
483.279	4431.47
483.65	4551.91
484.021	4679.82
484.391	4783.32
484.762	4900.83
485.133	4978.12
485.503	5096.31
485.874	5256.3
486.244	5350.99
486.615	5512.11
486.985	5612
487.356	5770.64
487.726	5890.86
488.097	6073.23
488.467	6147.13
488.837	6310.51
489.207	6454.24
489.578	6591.18
489.948	6788.69
490.318	6835.7
490.688	6957.5
491.058	7105.07
491.428	7307.77
491.798	7474.55
492.168	7578.5
492.538	7743.92
492.908	7879.74
493.278	8070.92
493.648	8135.77
494.017	8316.11
494.387	8423.9
494.757	8572.6
495.126	8686.04
495.496	8778.92
495.866	8853.27
496.235	9093.49
496.605	9201.74
496.974	9291.9
497.344	9465.68
497.713	9568.05
498.082	9649.63
498.452	9810.53
498.821	9916.97
499.19	9917.65
499.559	10122.16
499.928	10222.73
500.298	10307.02
500.667	10514.7
501.036	10486.9
501.405	10628.36
501.774	10614.13
502.143	10781.58
502.512	10900.67
502.88	11056.38
503.249	11012.54
503.618	11168.92
503.987	11239.65
504.356	11328.01
504.724	11347.89
505.093	11446.87
505.462	11558.06
505.83	11630.82
506.199	11831.5
506.567	11926.64
506.936	11950.14
507.304	12054.54
507.672	12142.9
508.041	12149.68
508.409	12243.24
508.777	12293.86
509.145	12424.02
509.514	12505.6
509.882	12442.33
510.25	12608.2
510.618	12631.02
510.986	12638.71
511.354	12872.15
511.722	12820.85
512.09	12985.82
512.458	12868.53
512.826	13025.82
513.193	13036.89
513.561	13104.01
513.929	13178.58
514.297	13298.35
514.664	13312.14
515.032	13392.59
515.4	13466.26
515.767	13500.61
516.135	13508.29
516.502	13313.49
516.869	13633.26
517.237	13707.83
517.604	13654.73
517.972	13762.29
518.339	13820.15
518.706	13805.68
519.073	13865.34
519.44	13907.15
519.808	13926.13
520.175	13964.1
520.542	14086.58
520.909	14169.06
521.276	14058.56
521.643	14133.13
522.009	14246.12
522.376	14300.13
522.743	14266.69
523.11	14397.31
523.477	14472.78
523.843	14493.8
524.21	14623.97
524.577	14605.44
524.943	14609.28
525.31	14677.98
525.676	14790.29
526.043	14793.68
526.409	14853.34
526.776	14907.8
527.142	14856.73
527.508	14913.9
527.874	14906.67
528.241	15058.98
528.607	14906.9
528.973	15116.83
529.339	14960.68
529.705	15146.89
530.071	15157.51
530.437	15061.24
530.803	15190.5
531.169	15098.3
531.535	15128.81
531.901	15085.65
532.267	15149.38
532.632	15092.43
532.998	15078.87
533.364	15159.32
533.73	15146.89
534.095	15258.07
534.461	15182.6
534.826	15183.5
535.192	15139.88
535.557	15196.61
535.923	15140.79
536.288	15164.29
536.653	15188.7
537.019	15075.03
537.384	15126.78
537.749	15114.8
538.114	15148.7
538.479	15031.86
538.845	15002.49
539.21	14953.9
539.575	14981.7
539.94	15009.94
540.305	15007.23
540.67	14893.11
541.034	14935.37
541.399	14869.38
541.764	14874.13
542.129	14835.26
542.494	14791.87
542.858	14793
543.223	14727.69
543.587	14738.77
543.952	14726.79
544.316	14682.27
544.681	14592.1
545.045	14608.37
545.41	14698.99
545.774	14580.35
546.138	14654.7
546.503	14559.33
546.867	14493.57
547.231	14628.49
547.595	14542.16
547.959	14441.15
548.324	14388.04
548.688	14435.5
549.052	14378.55
549.416	14375.38
549.779	14442.28
550.143	14377.42
550.507	14321.83
550.871	14381.03
551.235	14199.12
551.599	14230.98
551.962	14301.94
552.326	14253.58
552.689	14279.34
553.053	14176.97
553.417	14051.78
553.78	14342.39
554.143	14104.88
554.507	14113.24
554.87	14118.67
555.234	14244.31
555.597	14076.64
555.96	14096.07
556.323	14143.07
556.686	14106.01
557.05	14172.68
557.413	14182.85
557.776	14141.27
558.139	14122.51
558.502	14093.58
558.865	14031.66
559.228	14211.1
559.59	14068.05
559.953	14093.81
560.316	14202.06
560.679	14115.05
561.041	14261.72
561.404	14202.96
561.767	14189.85
562.129	14162.73
562.492	14268.72
562.854	14248.38
563.217	14189.4
563.579	14146.69
563.941	14257.42
564.304	14232.56
564.666	14252.45
565.028	14326.35
565.39	14325.67
565.753	14373.58
566.115	14355.95
566.477	14377.42
566.839	14373.35
567.201	14489.28
567.563	14402.73
567.925	14437.53
568.287	14440.92
568.648	14526.34
569.01	14472.33
569.372	14608.6
569.734	14562.27
570.095	14629.84
570.457	14624.64
570.819	14651.31
571.18	14642.95
571.542	14664.19
571.903	14636.62
572.265	14717.75
572.626	14679.56
572.987	14740.8
573.349	14755.49
573.71	14703.06
574.071	14776.05
574.432	14781.02
574.794	14765.66
575.155	14863.06
575.516	14754.13
575.877	14847.24
576.238	14963.84
576.599	14870.06
576.96	14924.07
577.32	14916.39
577.681	14834.81
578.042	14913.45
578.403	14941.02
578.763	14925.43
579.124	14877.07
579.485	14991.64
579.845	14938.76
580.206	14900.79
580.566	14958.87
580.927	14922.04
581.287	14919.33
581.648	14898.76
582.008	15044.29
582.368	14934.24
582.728	14908.93
583.089	14910.29
583.449	14903.51
583.809	14854.24
584.169	14851.76
584.529	14858.76
584.889	14889.27
585.249	14910.51
585.609	14797.52
585.969	14823.96
586.329	14868.25
586.688	14921.13
587.048	14841.14
587.408	14841.81
587.768	14841.59
588.127	14936.5
588.487	14856.5
588.846	14855.37
589.206	14757.3
589.565	14759.56
589.925	14811.31
590.284	14767.69
590.643	14827.58
591.003	14853.79
591.362	14894.69
591.721	14812.89
592.08	14783.74
592.44	14832.32
592.799	14815.83
593.158	14754.58
593.517	14672.1
593.876	14784.64
594.235	14792.77
594.593	14694.7
594.952	14819.21
595.311	14675.72
595.67	14774.47
596.029	14743.74
596.387	14769.72
596.746	14835.26
597.104	14771.98
597.463	14657.19
597.822	14674.36
598.18	14683.17
598.538	14729.95
598.897	14757.75
599.255	14603.18
599.613	14791.42
599.972	14737.86
600.33	14733.34
600.688	14731.31
601.046	14802.72
601.404	14815.37
601.762	14707.58
602.12	14822.15
602.478	14780.8
602.836	14891.3
603.194	14722.49
603.552	14713.68
603.91	14666.9
604.268	14838.2
604.625	14734.02
604.983	14824.41
605.341	14692.21
605.698	14788.48
606.056	14798.65
606.413	14821.02
606.771	14732.66
607.128	14843.62
607.485	14708.48
607.843	14774.92
608.2	14884.75
608.557	14779.44
608.914	14842.04
609.272	14844.3
609.629	14916.61
609.986	14908.25
610.343	14899.44
610.7	14942.38
611.057	14861.93
611.414	14844.75
611.771	14850.63
612.127	14918.2
612.484	14958.87
612.841	15000.23
613.198	14970.62
613.554	14969.04
613.911	14993.67
614.267	14955.71
614.624	14941.92
614.98	14980.34
615.337	15069.6
615.693	14972.66
616.05	14970.17
616.406	14989.15
616.762	14954.58
617.118	15010.62
617.475	15107.34
617.831	15179.21
618.187	15115.25
618.543	15053.33
618.899	15184.63
619.255	15144.63
619.611	15149.6
619.967	15259.66
620.323	15229.37
620.678	15200.22
621.034	15135.59
621.39	15099.66
621.746	15097.4
622.101	15216.04
622.457	15149.15
622.812	15166.55
623.168	15204.74
623.523	15190.73
623.879	15226.21
624.234	15113.9
624.589	15200.67
624.945	15205.42
625.3	15195.93
625.655	15217.85
626.01	15248.81
626.365	15185.53
626.72	15183.05
627.075	15240.9
627.43	15137.4
627.785	15155.48
628.14	15248.81
628.495	15244.51
628.85	15212.65
629.205	15119.77
629.559	15188.24
629.914	15127
630.269	15108.25
630.623	15086.33
630.978	15083.61
631.332	15206.1
631.687	15140.56
632.041	15098.08
632.396	15043.84
632.75	15075.03
633.104	15089.26
633.459	15014.46
633.813	15069.6
634.167	15014.46
634.521	15000
634.875	15000.68
635.229	14955.93
635.583	14845.88
635.937	14910.74
636.291	14887.46
636.645	14820.34
636.999	14884.52
637.352	14796.39
637.706	14731.76
638.06	14732.21
638.413	14706
638.767	14663.29
639.121	14671.2
639.474	14660.57
639.828	14614.02
640.181	14638.88
640.534	14684.98
640.888	14558.66
641.241	14579.22
641.594	14515.04
641.947	14660.8
642.301	14607.7
642.654	14615.15
643.007	14602.05
643.36	14584.64
643.713	14515.95
644.066	14569.5
644.419	14435.27
644.771	14406.57
645.124	14304.2
645.477	14248.38
645.83	14252.45
646.182	14228.95
646.535	14102.17
646.888	14104.66
647.24	13985.56
647.593	14035.51
647.945	14068.27
648.298	13976.75
648.65	13987.82
649.002	13900.82
649.355	14095.17
649.707	14021.5
650.059	14077.99
650.411	14260.36
650.763	14260.59
651.115	14356.4
651.467	14251.32
651.819	14325.67
652.171	14322.28
652.523	14354.14
652.875	14343.75
653.227	14223.3
653.578	14308.04
653.93	14377.87
654.282	14282.05
654.633	14257.87
654.985	14168.61
655.337	14280.7
655.688	14294.71
656.039	14323.63
656.391	14168.16
656.742	14290.64
657.094	14318.89
657.445	14342.62
657.796	14254.26
658.147	14196.63
658.498	14311.21
658.849	14317.53
659.2	14291.77
659.551	14239.34
659.902	14325.44
660.253	14267.14
660.604	14364.09
660.955	14178.33
661.306	14256.97
661.656	14245.44
662.007	14268.27
662.358	14345.56
662.708	14283.18
663.059	14287.7
663.409	14241.83
663.76	14328.38
664.11	14379.45
664.461	14351.43
664.811	14288.83
665.161	14249.29
665.511	14248.61
665.862	14284.77
666.212	14311.88
666.562	14376.29
666.912	14326.8
667.262	14308.04
667.612	14360.7
667.962	14337.19
668.312	14291.32
668.662	14308.27
669.011	14291.09
669.361	14307.36
669.711	14330.64
670.06	14268.27
670.41	14275.27
670.76	14249.29
671.109	14359.34
671.459	14228.5
671.808	14171.55
672.157	14218.33
672.507	14164.99
672.856	14149.85
673.205	14097.65
673.554	14208.16
673.904	14077.77
674.253	14232.34
674.602	14143.53
674.951	13993.25
675.3	13846.81
675.649	14187.82
675.998	14167.03
676.346	14067.6
676.695	14123.64
677.044	14003.64
677.393	13970.65
677.741	14059.23
678.09	14038.22
678.438	13946.47
678.787	14104.88
679.135	13926.81
679.484	13913.02
679.832	13965.45
680.181	13896.53
680.529	13896.3
680.877	13761.16
681.225	13774.95
681.573	13850.88
681.922	13771.56
682.27	13702.86
682.618	13762.07
682.966	13691.56
683.314	13635.07
683.661	13642.07
684.009	13595.52
684.357	13578.57
684.705	13650.21
685.053	13601.39
685.4	13603.65
685.748	13478.91
686.095	13456.76
686.443	13409.53
686.79	13411.57
687.138	13372.47
687.485	13355.98
687.832	13422.19
688.18	13361.17
688.527	13259.48
688.874	13294.74
689.221	13237.11
689.568	13168.64
689.915	13151.69
690.262	13173.83
690.609	13182.65
690.956	13039.83
691.303	12941.52
691.65	12952.37
691.997	12914.63
692.344	12847.29
692.69	12810.68
693.037	12774.75
693.383	12705.82
693.73	12754.18
694.077	12615.21
694.423	12671.02
694.769	12569.56
695.116	12538.37
695.462	12584.92
695.808	12399.39
696.155	12493.17
696.501	12411.59
696.847	12424.93
697.193	12266.06
697.539	12370.24
697.885	12257.47
698.231	12188.78
698.577	12192.17
698.923	12135.9
699.269	12020.87
699.614	12069
699.96	11937.71
700.306	11986.97
700.651	11939.52
700.997	11854.32
701.342	11833.98
701.688	11802.8
702.033	11729.13
702.379	11716.25
702.724	11710.14
703.069	11746.98
703.415	11531.84
703.76	11609.81
704.105	11580.2
704.45	11577.94
704.795	11450.49
705.14	11398.97
705.485	11389.93
705.83	11357.16
706.175	11360.77
706.52	11288.46
706.865	11215.02
707.209	11282.81
707.554	11198.75
707.899	11145.64
708.243	11158.07
708.588	11100.22
708.932	11000.78
709.277	11032.87
709.621	11098.63
709.966	10900.45
710.31	10976.15
710.654	10855.25
710.998	10861.35
711.342	10907.45
711.687	10817.96
712.031	10785.42
712.375	10733.22
712.719	10760.11
713.063	10744.29
713.407	10666.33
713.75	10684.41
714.094	10695.26
714.438	10695.71
714.782	10738.64
715.125	10618.87
715.469	10617.52
715.812	10613.68
716.156	10520.12
716.499	10542.94
716.843	10496.16
717.186	10413.23
717.53	10506.11
717.873	10461.59
718.216	10518.99
718.559	10420.46
718.902	10326.23
719.246	10346.79
719.589	10283.29
719.932	10310.63
720.275	10330.75
720.617	10348.37
720.96	10276.51
721.303	10328.26
721.646	10300.24
721.989	10211.88
722.331	10246.23
722.674	10200.58
723.016	10188.83
723.359	10170.52
723.701	10250.52
724.044	10221.37
724.386	10125.1
724.729	10182.73
725.071	10119
725.413	10150.64
725.755	10190.64
726.097	10067.02
726.439	9998.32
726.782	10007.59
727.124	10105.44
727.465	10037.19
727.807	10038.55
728.149	10084.88
728.491	9997.87
728.833	10012.79
729.175	9980.7
729.516	10046.91
729.858	9995.16
730.199	10071.54
730.541	9965.11
730.882	9934.15
731.224	10019.12
731.565	9927.59
731.906	9959
732.248	10003.52
732.589	9927.82
732.93	9941.83
733.271	9917.87
733.612	9998.1
733.953	9984.09
734.294	9964.65
734.635	9940.7
734.976	9949.29
735.317	9891.21
735.658	9844.66
735.999	9886.46
736.339	9875.62
736.68	9875.39
737.021	9894.82
737.361	9847.59
737.702	9920.81
738.042	9844.88
738.383	9934.37
738.723	9912.68
739.063	9842.62
739.404	9971.43
739.744	9944.54
740.084	9922.39
740.424	9954.26
740.764	9946.35
741.104	10041.26
741.444	9945.44
741.784	9897.99
742.124	9956.52
742.464	10012.11
742.804	10065.22
743.143	10050.75
743.483	10149.96
743.823	10050.3
744.162	10060.92
744.502	10137.53
744.841	10081.26
745.181	10211.2
745.52	10226.12
745.86	10265.21
746.199	10224.99
746.538	10252.1
746.877	10384.08
747.216	10382.5
747.556	10410.52
747.895	10500.68
748.234	10511.53
748.573	10483.96
748.911	10554.24
749.25	10657.06
749.589	10728.25
749.928	10832.2
750.267	10871.75
750.605	10907.68
750.944	10916.04
751.283	10914.23
751.621	11049.14
751.96	11150.38
752.298	11160.33
752.636	11335.69
752.975	11409.14
753.313	11542.46
753.651	11582.46
753.989	11545.85
754.327	11749.01
754.666	11804.83
755.004	11983.81
755.342	12120.98
755.679	12228.32
756.017	12316.91
756.355	12475.55
756.693	12621.76
757.031	12732.72
757.368	12818.36
757.706	12880.73
758.044	13016.32
758.381	13275.53
758.719	13353.94
759.056	13604.78
759.394	13685.46
759.731	13818.34
760.068	13965.45
760.405	14064.21
760.743	14226.01
761.08	14454.03
761.417	14551.88
761.754	14661.48
762.091	14779.89
762.428	15004.52
762.765	15102.15
763.102	15395.92
763.438	15318.18
763.775	15547.11
764.112	15728.34
764.449	15933.76
764.785	15985.06
765.122	16100.99
765.458	16296.46
765.795	16404.48
766.131	16571.94
766.467	16630.69
766.804	16729.22
767.14	16879.5
767.476	17014.41
767.812	17108.87
768.148	17367.85
768.485	17242.2
768.821	17428.41
769.157	17490.11
769.492	17785.46
769.828	17998.11
770.164	17879.47
770.5	17946.36
770.836	18225.23
771.171	18192.91
771.507	18298.67
771.842	18251.89
772.178	18420.48
772.513	18517.42
772.849	18553.13
773.184	18565.56
773.519	18708.83
773.855	18723.52
774.19	18852.33
774.525	18888.03
774.86	18885.55
775.195	18967.35
775.53	18920.12
775.865	18992.66
776.2	18958.77
776.535	19012.78
776.87	19065.43
777.205	19181.36
777.539	19155.6
777.874	19288.7
778.209	19184.07
778.543	19187.69
778.878	19137.97
779.212	19243.96
779.547	19224.3
779.881	19370.06
780.215	19282.15
780.55	19441.92
780.884	19325.09
781.218	19440.56
781.552	19349.94
781.886	19345.42
782.22	19275.82
782.554	19344.07
782.888	19157.18
783.222	19253.9
783.556	19140.01
783.889	19147.24
784.223	19165.32
784.557	19077.86
784.89	19181.59
785.224	19050.06
785.557	19064.53
785.891	19073.57
786.224	18989.73
786.558	19157.86
786.891	18904.98
787.224	18836.51
787.557	18877.19
787.891	18836.51
788.224	18958.54
788.557	18983.85
788.89	18876.74
789.223	18942.5
789.556	18749.28
789.888	18784.31
790.221	18744.76
790.554	18604.65
790.887	18642.62
791.219	18567.36
791.552	18546.57
791.884	18435.16
792.217	18490.98
792.549	18459.35
792.882	18333.02
793.214	18284.89
793.546	18421.15
793.879	18307.71
794.211	18208.5
794.543	18231.1
794.875	18197.66
795.207	18281.95
795.539	18113.14
795.871	18128.51
796.203	18099.58
796.535	17929.42
796.867	17973.03
797.198	17894.16
797.53	17937.1
797.862	17792.7
798.193	17807.38
798.525	17688.07
798.856	17724.22
799.188	17609.2
799.519	17534.62
799.85	17447.39
800.182	17559.03
800.513	17484.46
800.844	17375.76
801.175	17499.82
801.506	17415.76
801.837	17286.72
802.168	17201.3
802.499	17303.44
802.83	17201.98
803.161	17135.54
803.491	17193.16
803.822	17124.46
804.153	17091.25
804.483	16954.53
804.814	16848.99
805.145	16906.39
805.475	16876.11
805.805	16766.73
806.136	16752.95
806.466	16776.9
806.796	16737.13
807.126	16624.59
807.457	16512.28
807.787	16589.11
808.117	16484.03
808.447	16396.57
808.777	16500.53
809.107	16447.19
809.436	16406.29
809.766	16402.22
810.096	16343.02
810.426	16242.68
810.755	16348.67
811.085	16250.82
811.414	16296.24
811.744	16159.29
812.073	16093.98
812.403	16136.69
812.732	15992.29
813.061	16013.76
813.39	15988.22
813.719	15961.11
814.049	15980.09
814.378	15944.61
814.707	15863.93
815.036	15906.87
815.365	15803.14
815.693	15603.83
816.022	15748.91
816.351	15695.35
816.68	15586.88
817.008	15652.41
817.337	15460.78
817.665	15504.85
817.994	15562.47
818.322	15472.76
818.651	15459.42
818.979	15387.34
819.307	15371.52
819.636	15305.53
819.964	15280.45
820.292	15469.37
820.62	15431.85
820.948	15264.4
821.276	15298.07
821.604	15289.03
821.932	15387.79
822.259	15327.68
822.587	15254.01
822.915	15284.97
823.243	15326.09
823.57	15229.37
823.898	15226.66
824.225	15131.3
824.553	15211.52
824.88	15205.87
825.207	15348.47
825.535	15261.92
825.862	15364.96
826.189	15235.25
826.516	15257.17
826.843	15325.19
827.17	15388.92
827.497	15286.77
827.824	15317.96
828.151	15343.72
828.478	15314.57
828.805	15358.86
829.131	15334.46
829.458	15337.39
829.785	15255.59
830.111	15233.44
830.438	15331.07
830.764	15311.63
831.09	15357.51
831.417	15156.38
831.743	15251.07
832.069	15269.37
832.395	15259.2
832.722	15274.12
833.048	15180.79
833.374	15278.64
833.7	15252.42
834.026	15216.94
834.351	15198.41
834.677	15062.15
835.003	15188.47
835.329	15185.76
835.654	15085.2
835.98	15078.42
836.306	15108.25
836.631	15035.03
836.956	15173.33
837.282	15070.28
837.607	15037.51
837.932	14912.32
838.258	14986.67
838.583	14923.39
838.908	14823.73
839.233	14817.41
839.558	14906.22
839.883	14801.59
840.208	14788.93
840.533	14788.03
840.858	14795.26
841.182	14759.1
841.507	14701.03
841.832	14702.61
842.156	14686.79
842.481	14666.9
842.805	14577.41
843.13	14610.63
843.454	14556.4
843.778	14437.76
844.103	14454.93
844.427	14395.72
844.751	14405.44
845.075	14371.09
845.399	14349.62
845.723	14280.7
846.047	14246.57
846.371	14077.31
846.695	14195.95
847.019	14071.21
847.343	13983.98
847.666	13853.59
847.99	13842.52
848.313	13828.05
848.637	13771.33
848.96	13734.95
849.284	13711
849.607	13570.21
849.931	13536.54
850.254	13456.31
850.577	13422.87
850.9	13249.99
851.223	13292.7
851.546	13203.66
851.869	13148.07
852.192	13241.18
852.515	13097.23
852.838	12983.78
853.161	13118.69
853.483	12926.61
853.806	12938.36
854.129	12971.13
854.451	12843.9
854.774	12767.52
855.096	12788.08
855.419	12717.12
855.741	12704.92
856.063	12663.34
856.385	12675.54
856.708	12644.36
857.03	12539.95
857.352	12586.73
857.674	12472.16
857.996	12421.09
858.318	12353.74
858.64	12357.36
858.961	12334.99
859.283	12319.85
859.605	12177.7
859.926	12245.95
860.248	12200.53
860.57	12172.73
860.891	12160.98
861.212	12069.68
861.534	12063.58
861.855	12054.54
862.176	12052.28
862.498	11993.3
862.819	11932.29
863.14	11873.3
863.461	11954.21
863.782	11833.53
864.103	11948.33
864.424	11910.59
864.745	11843.93
865.065	11769.35
865.386	11698.62
865.707	11773.42
866.027	11779.07
866.348	11639.19
866.668	11765.96
866.989	11745.4
867.309	11550.15
867.63	11611.16
867.95	11644.16
868.27	11551.28
868.59	11544.05
868.91	11507.89
869.23	11519.19
869.55	11516.02
869.87	11560.77
870.19	11543.82
870.51	11513.31
870.83	11502.01
871.15	11417.72
871.469	11455.01
871.789	11453.88
872.109	11385.63
872.428	11343.15
872.748	11394.22
873.067	11380.89
873.386	11351.06
873.706	11295.47
874.025	11251.63
874.344	11197.62
874.663	11243.49
874.982	11269.48
875.301	11169.82
875.62	11074.45
875.939	11116.04
876.258	11118.52
876.577	11099.09
876.896	11106.32
877.214	11099.76
877.533	11018.18
877.852	11031.74
878.17	11056.6
878.489	11069.71
878.807	11001.69
879.125	10938.19
879.444	11018.41
879.762	10930.05
880.08	10921.69
880.398	10894.12
880.716	10896.83
881.034	10890.73
881.352	10843.95
881.67	10778.64
881.988	10864.74
882.306	10763.95
882.624	10759.66
882.941	10698.42
883.259	10649.16
883.577	10644.18
883.894	10636.5
884.212	10587.24
884.529	10594.69
884.846	10602.83
885.164	10514.02
885.481	10479.89
885.798	10496.84
886.115	10403.96
886.432	10443.06
886.75	10463.85
887.067	10352.21
887.383	10323.97
887.7	10404.64
888.017	10307.92
888.334	10394.02
888.651	10322.38
888.967	10220.69
889.284	10243.52
889.6	10176.63
889.917	10085.78
890.233	10180.69
890.55	10071.09
890.866	10099.79
891.182	10055.95
891.498	10034.03
891.815	9999.68
892.131	9938.89
892.447	9919
892.763	9916.52
893.079	9819.35
893.395	9805.34
893.71	9858.44
894.026	9879.91
894.342	9785
894.657	9693.93
894.973	9725.11
895.289	9689.41
895.604	9607.15
895.92	9520.82
896.235	9549.75
896.55	9535.06
896.865	9490.77
897.181	9453.03
897.496	9462.75
897.811	9403.31
898.126	9427.72
898.441	9328.29
898.756	9303.2
899.071	9182.3
899.386	9270.66
899.7	9075.64
900.015	9104.79
900.33	9111.57
900.644	9079.03
900.959	9065.24
901.273	9050.78
901.588	8972.59
901.902	8894.62
902.216	8921.29
902.531	8866.38
902.845	8882.2
903.159	8797.68
903.473	8862.54
903.787	8723.78
904.101	8684.23
904.415	8687.85
904.729	8651.47
905.042	8531.92
905.356	8593.16
905.67	8539.83
905.984	8554.52
906.297	8460.74
906.611	8492.83
906.924	8457.57
907.237	8401.76
907.551	8338.71
907.864	8328.76
908.177	8312.95
908.491	8291.25
908.804	8249.22
909.117	8202.67
909.43	8196.56
909.743	8134.87
910.056	8132.16
910.368	8101.88
910.681	7996.57
910.994	8017.59
911.307	7945.95
911.619	7838.61
911.932	7886.97
912.244	7859.17
912.557	7839.51
912.869	7795.22
913.181	7750.02
913.494	7691.27
913.806	7665.73
914.118	7728.55
914.43	7584.6
914.742	7588.22
915.054	7548.22
915.366	7553.42
915.678	7512.29
915.99	7494.21
916.302	7407.21
916.613	7395.23
916.925	7376.25
917.236	7377.38
917.548	7255.57
917.859	7364.72
918.171	7253.31
918.482	7254.89
918.794	7162.92
919.105	7172.86
919.416	7139.42
919.727	7099.19
920.038	7084.05
920.349	7040.89
920.66	7032.07
920.971	6985.07
921.282	6966.77
921.593	6962.02
921.903	6912.98
922.214	6884.06
922.525	6870.05
922.835	6813.32
923.146	6791.63
923.456	6828.92
923.767	6786.43
924.077	6792.76
924.387	6687.9
924.697	6661.46
925.008	6615.36
925.318	6650.62
925.628	6584.18
925.938	6579.88
926.248	6482.48
926.558	6522.03
926.867	6464.41
927.177	6432.99
927.487	6391.64
927.796	6375.6
928.106	6402.71
928.416	6347.57
928.725	6311.19
929.034	6294.24
929.344	6306.22
929.653	6331.53
929.962	6194.13
930.271	6147.35
930.581	6152.55
930.89	6121.36
931.199	6095.38
931.508	6073.91
931.817	6063.51
932.125	6002.95
932.434	6035.72
932.743	6040.01
933.051	5939.9
933.36	5979
933.669	5916.62
933.977	5868.72
934.286	5875.04
934.594	5889.96
934.902	5789.4
935.21	5800.92
935.519	5741.26
935.827	5705.33
936.135	5718.66
936.443	5709.4
936.751	5679.79
937.059	5627.37
937.367	5588.72
937.674	5589.63
937.982	5572
938.29	5561.61
938.597	5557.09
938.905	5497.65
939.213	5461.95
939.52	5426.47
939.827	5461.49
940.135	5399.58
940.442	5369.07
940.749	5352.57
941.056	5386.69
941.363	5304.89
941.67	5322.29
941.977	5231.67
942.284	5180.6
942.591	5187.38
942.898	5185.57
943.205	5181.73
943.511	5183.54
943.818	5135.4
944.125	5113.26
944.431	5060.15
944.738	5103.54
945.044	5031.45
945.35	5046.36
945.657	4961.17
945.963	4965.24
946.269	4898.57
946.575	4932.92
946.881	4934.28
947.187	4898.12
947.493	4871.45
947.799	4801.63
948.105	4782.87
948.41	4794.62
948.716	4781.51
949.022	4771.57
949.327	4783.09
949.633	4718.69
949.938	4717.56
950.244	4737.9
950.549	4664
950.854	4602.31
951.16	4659.03
951.465	4588.75
951.77	4594.85
952.075	4553.04
952.38	4546.94
952.685	4579.26
952.99	4518.92
953.294	4542.2
953.599	4482.54
953.904	4451.58
954.209	4418.13
954.513	4419.26
954.818	4380.62
955.122	4342.2
955.426	4338.36
955.731	4352.15
956.035	4286.84
956.339	4320.51
956.643	4277.35
956.948	4268.08
957.252	4252.26
957.556	4211.13
957.86	4181.08
958.163	4191.92
958.467	4152.15
958.771	4153.51
959.075	4148.99
959.378	4055.43
959.682	4101.53
959.985	4111.02
960.289	4078.71
960.592	4098.59
960.896	4023.34
961.199	4010.91
961.502	4001.87
961.805	3994.19
962.108	3951.7
962.411	3947.64
962.714	3908.09
963.017	3895.89
963.32	3906.73
963.623	3885.49
963.926	3897.47
964.228	3859.73
964.531	3836.68
964.833	3800.52
965.136	3802.78
965.438	3766.85
965.741	3735.66
966.043	3766.85
966.345	3723.46
966.648	3682.78
966.95	3717.81
967.252	3701.99
967.554	3695.89
967.856	3638.49
968.158	3638.49
968.46	3593.97
968.761	3601.43
969.063	3621.32
969.365	3580.41
969.666	3563.24
969.968	3551.94
970.269	3535.9
970.571	3487.76
970.872	3534.09
971.174	3469
971.475	3438.5
971.776	3452.73
972.077	3430.36
972.378	3442.56
972.679	3413.64
972.98	3380.87
973.281	3386.3
973.582	3360.76
973.883	3341.32
974.183	3345.17
974.484	3308.33
974.785	3298.84
975.085	3321.89
975.386	3293.64
975.686	3300.87
975.986	3258.84
976.287	3231.04
976.587	3248.67
976.887	3214.77
977.187	3200.99
977.487	3186.75
977.787	3217.26
978.087	3117.38
978.387	3124.16
978.687	3108.11
978.987	3104.72
979.286	3081.44
979.586	3109.01
979.885	3075.12
980.185	3054.55
980.484	3000.99
980.784	3002.12
981.083	3016.59
981.382	2996.7
981.682	2988.34
981.981	2953.09
982.28	2995.57
982.579	2965.29
982.878	2927.32
983.177	2924.61
983.475	2891.17
983.774	2936.36
984.073	2884.61
984.372	2876.25
984.67	2838.06
984.969	2869.92
985.267	2864.05
985.566	2819.53
985.864	2792.64
986.162	2779.76
986.461	2791.73
986.759	2767.33
987.057	2739.98
987.355	2732.08
987.653	2734.56
987.951	2747.44
988.249	2681.45
988.547	2709.02
988.844	2676.94
989.142	2678.97
989.44	2655.47
989.737	2628.35
990.035	2624.73
990.332	2621.57
990.63	2607.33
990.927	2609.82
991.224	2593.77
991.521	2565.75
991.819	2546.54
992.116	2547.45
992.413	2537.96
992.71	2525.07
993.006	2524.62
993.303	2521.23
993.6	2505.41
993.897	2486.43
994.193	2437.39
994.49	2469.94
994.787	2410.05
995.083	2412.54
995.379	2386.55
995.676	2403.95
995.972	2391.75
996.268	2382.71
996.565	2382.93
996.861	2341.8
997.157	2361.01
997.453	2334.12
997.749	2306.78
998.044	2308.81
998.34	2308.36
998.636	2285.08
998.932	2295.02
999.227	2264.29
999.523	2269.71
999.818	2228.36
1000.114	2255.7
1000.409	2193.78
1000.704	2213.67
1001	2187
1001.295	2156.05
1001.59	2177.29
1001.885	2149.49
1002.18	2142.26
1002.475	2108.59
1002.77	2138.19
1003.065	2084.86
1003.359	2102.94
1003.654	2130.73
1003.949	2093.67
1004.243	2048.7
1004.538	2060.91
1004.832	2030.4
1005.127	2045.31
1005.421	2006.22
1005.715	2006.67
1006.009	2008.7
1006.304	1977.29
1006.598	1983.39
1006.892	1935.03
1007.186	1931.64
1007.48	1929.61
1007.773	1898.65
1008.067	1929.84
1008.361	1932.32
1008.655	1886.45
1008.948	1899.33
1009.242	1879.89
1009.535	1860.91
1009.829	1853.91
1010.122	1827.24
1010.415	1840.8
1010.708	1836.05
1011.001	1806.45
1011.295	1816.62
1011.588	1809.16
1011.881	1761.93
1012.173	1767.13
1012.466	1779.56
1012.759	1743.85
1013.052	1724.19
1013.344	1752.44
1013.637	1735.27
1013.93	1735.27
1014.222	1697.07
1014.514	1691.88
1014.807	1702.72
1015.099	1694.14
1015.391	1672.67
1015.683	1676.96
1015.976	1654.14
1016.268	1613.01
1016.56	1590.86
1016.851	1617.08
1017.143	1599
1017.435	1582.5
1017.727	1554.7
1018.018	1555.16
1018.31	1553.8
1018.602	1547.93
1018.893	1526.68
1019.185	1531.88
1019.476	1543.18
1019.767	1518.32
1020.058	1511.09
1020.35	1495.95
1020.641	1500.02
1020.932	1487.14
1021.223	1486.68
1021.514	1435.39
1021.804	1432.22
1022.095	1425.22
1022.386	1418.66
1022.677	1415.27
1022.967	1414.14
1023.258	1422.96
1023.548	1383.64
1023.839	1405.56
1024.129	1380.02
1024.419	1364.65
1024.709	1335.95
1025	1328.04
1025.29	1330.76
1025.58	1326.91
1025.87	1320.59
1026.16	1299.8
1026.449	1303.64
1026.739	1297.08
1027.029	1259.57
1027.319	1245.79
1027.608	1281.27
1027.898	1263.41
1028.187	1249.63
1028.477	1237.65
1028.766	1252.57
1029.055	1213.47
1029.344	1224.32
1029.634	1214.83
1029.923	1182.51
1030.212	1175.28
1030.501	1191.55
1030.79	1177.09
1031.078	1142.29
1031.367	1166.24
1031.656	1148.16
1031.945	1167.14
1032.233	1142.06
1032.522	1134.83
1032.81	1128.05
1033.099	1122.4
1033.387	1104.77
1033.675	1112
1033.963	1083.53
1034.251	1100.48
1034.54	1071.1
1034.828	1061.16
1035.116	1078.11
1035.403	1075.85
1035.691	1055.28
1035.979	1068.39
1036.267	1056.19
1036.554	1020.03
1036.842	1020.48
1037.129	1010.31
1037.417	1012.57
1037.704	1018.9
1037.992	1003.53
1038.279	997.66
1038.566	999.24
1038.853	999.24
1039.14	999.24
