Data from hue_34_FLMS001491_00033.txt Node
Date: Tue Feb 07 17:25:32 GMT 2017
User: dcchb
Spectrometer: FLMS00149
Trigger mode: 0
Integration Time (sec): 2.000000E-2
Scans to average: 10
Electric dark correction enabled: true
Nonlinearity correction enabled: false
Boxcar width: 0
XAxis mode: Wavelengths
Number of Pixels in Spectrum: 2048
>>>>>Begin Spectral Data<<<<<
341.393	2.12
341.776	2.12
342.16	2.12
342.543	-57.31
342.927	-61.83
343.31	-70.65
343.693	-74.04
344.077	-75.62
344.46	-69.74
344.843	-54.15
345.226	-39.24
345.61	-33.59
345.993	-24.32
346.376	-16.64
346.759	43.93
347.142	37.37
347.525	17.03
347.908	60.2
348.291	100.65
348.674	85.05
349.057	113.75
349.44	127.77
349.823	161.21
350.206	168.67
350.588	205.5
350.971	226.97
351.354	210.02
351.737	236.91
352.119	248.89
352.502	285.27
352.884	277.37
353.267	276.46
353.65	278.5
354.032	288.66
354.414	318.95
354.797	313.97
355.179	333.18
355.562	326.86
355.944	304.71
356.326	335.22
356.709	333.86
357.091	334.09
357.473	354.43
357.855	327.08
358.238	336.8
358.62	353.07
359.002	317.14
359.384	371.15
359.766	353.07
360.148	308.33
360.53	342.67
360.912	356.23
361.294	340.41
361.676	338.38
362.057	351.49
362.439	334.31
362.821	339.28
363.203	343.58
363.584	322.34
363.966	316.01
364.348	336.8
364.729	344.03
365.111	296.57
365.493	313.97
365.874	315.1
366.256	310.36
366.637	309.46
367.019	313.97
367.4	295.9
367.781	306.29
368.163	335.67
368.544	323.24
368.925	309.46
369.306	318.49
369.688	307.2
370.069	326.86
370.45	285.73
370.831	305.61
371.212	324.37
371.593	298.38
371.974	313.3
372.355	325.5
372.736	298.16
373.117	338.38
373.498	284.15
373.879	339.51
374.26	318.95
374.641	320.98
375.021	320.75
375.402	321.43
375.783	337.03
376.163	332.51
376.544	338.38
376.925	330.92
377.305	333.41
377.686	323.92
378.066	332.73
378.447	337.25
378.827	317.82
379.208	351.26
379.588	329.12
379.968	337.93
380.349	331.15
380.729	330.02
381.109	334.54
381.489	355.78
381.87	365.27
382.25	342.22
382.63	351.04
383.01	346.29
383.39	351.26
383.77	343.13
384.15	349.91
384.53	353.75
384.91	357.59
385.29	347.19
385.67	357.36
386.049	362.34
386.429	350.13
386.809	346.29
387.189	367.53
387.568	328.89
387.948	331.6
388.328	342.22
388.707	367.98
389.087	348.78
389.466	362.11
389.846	365.27
390.225	345.61
390.605	365.5
390.984	377.93
391.363	355.1
391.743	384.93
392.122	381.54
392.501	360.08
392.881	375.67
393.26	374.54
393.639	372.28
394.018	384.48
394.397	384.26
394.776	361.21
395.155	388.32
395.534	381.54
395.913	368.21
396.292	405.05
396.671	374.09
397.05	374.76
397.429	401.2
397.808	381.32
398.186	393.97
398.565	403.46
398.944	381.54
399.323	381.77
399.701	403.01
400.08	370.47
400.458	393.07
400.837	397.59
401.215	400.98
401.594	383.35
401.972	412.96
402.351	390.58
402.729	416.8
403.107	423.12
403.486	420.86
403.864	413.86
404.242	399.17
404.62	408.89
404.999	414.09
405.377	433.07
405.755	440.3
406.133	429.68
406.511	430.81
406.889	423.8
407.267	426.29
407.645	415.67
408.023	424.71
408.401	403.69
408.779	421.09
409.156	407.08
409.534	433.52
409.912	445.72
410.29	436.91
410.667	441.43
411.045	454.99
411.422	442.11
411.8	468.1
412.178	451.6
412.555	459.51
412.933	441.66
413.31	490.02
413.687	488.43
414.065	465.61
414.442	497.7
414.819	456.8
415.197	480.98
415.574	480.98
415.951	483.69
416.328	478.94
416.705	483.91
417.082	485.72
417.46	488.89
417.837	493.41
418.214	491.37
418.591	478.04
418.967	513.52
419.344	513.07
419.721	511.26
420.098	508.77
420.475	513.52
420.852	508.09
421.228	522.1
421.605	525.04
421.982	531.82
422.358	516.46
422.735	533.63
423.111	542.22
423.488	543.12
423.864	530.01
424.241	532.5
424.617	542.44
424.994	553.74
425.37	542.44
425.746	547.19
426.123	554.87
426.499	554.65
426.875	551.26
427.251	561.43
427.627	559.84
428.003	567.75
428.379	576.79
428.756	564.36
429.132	598.71
429.507	593.06
429.883	597.58
430.259	602.1
430.635	599.39
431.011	586.06
431.387	586.96
431.763	610.92
432.138	624.48
432.514	624.7
432.89	624.25
433.265	648.66
433.641	645.27
434.016	642.78
434.392	648.2
434.767	667.41
435.143	662.89
435.518	667.19
435.894	663.12
436.269	667.64
436.644	688.65
437.02	665.15
437.395	673.51
437.77	654.76
438.145	696.11
438.52	700.63
438.895	691.82
439.271	696.56
439.646	698.82
440.021	698.37
440.395	692.27
440.77	713.74
441.145	716
441.52	722.33
441.895	728.65
442.27	724.81
442.645	727.07
443.019	748.31
443.394	746.28
443.769	740.63
444.143	743.12
444.518	733.17
444.892	755.77
445.267	763.91
445.641	758.71
446.016	770.46
446.39	774.3
446.764	760.52
447.139	757.35
447.513	781.76
447.887	777.24
448.262	791.93
448.636	796
449.01	803.45
449.384	802.55
449.758	819.5
450.132	842.77
450.506	834.41
450.88	824.92
451.254	835.32
451.628	835.77
452.002	845.94
452.376	847.52
452.75	854.07
453.123	844.36
453.497	852.72
453.871	861.98
454.244	870.57
454.618	900.17
454.992	923.68
455.365	892.04
455.739	940.17
456.112	930.91
456.486	941.08
456.859	954.64
457.232	951.25
457.606	947.86
457.979	969.78
458.352	969.32
458.725	1002.09
459.099	993.28
459.472	1012.94
459.845	1021.3
460.218	1049.1
460.591	1009.55
460.964	1017.46
461.337	1059.49
461.71	1073.5
462.083	1097.46
462.456	1100.85
462.829	1107.63
463.201	1116.44
463.574	1101.52
463.947	1108.3
464.32	1146.95
464.692	1148.98
465.065	1179.04
465.438	1189.43
465.81	1197.57
466.183	1224.01
466.555	1220.62
466.928	1240.05
467.3	1253.61
467.672	1275.53
468.045	1275.53
468.417	1305.81
468.789	1308.98
469.161	1305.36
469.534	1381.52
469.906	1373.61
470.278	1421.29
470.65	1412.93
471.022	1418.35
471.394	1462.42
471.766	1498.35
472.138	1513.27
472.51	1548.52
472.882	1551
473.253	1591.91
473.625	1588.52
473.997	1663.32
474.369	1661.06
474.74	1692.02
475.112	1735.41
475.484	1749.19
475.855	1780.38
476.227	1810.66
476.598	1844.1
476.97	1885.01
477.341	1949.64
477.713	1998.68
478.084	2015.17
478.455	2102.18
478.827	2101.72
479.198	2176.98
479.569	2191.89
479.94	2249.29
480.311	2292.23
480.682	2384.2
481.053	2382.39
481.424	2493.35
481.795	2514.37
482.166	2611.09
482.537	2614.03
482.908	2693.57
483.279	2761.14
483.65	2842.27
484.021	2880.91
484.391	2960.46
484.762	2988.71
485.133	3087.46
485.503	3177.4
485.874	3230.51
486.244	3302.82
486.615	3388.92
486.985	3441.12
487.356	3528.81
487.726	3562.02
488.097	3653.32
488.467	3718.63
488.837	3838.63
489.207	3864.84
489.578	4007.44
489.948	4081.56
490.318	4116.81
490.688	4186.42
491.058	4346.19
491.428	4381.21
491.798	4458.5
492.168	4564.48
492.538	4604.48
492.908	4689.9
493.278	4759.96
493.648	4817.36
494.017	4958.82
494.387	5024.13
494.757	5029.78
495.126	5145.94
495.496	5209.21
495.866	5246.73
496.235	5354.97
496.605	5390.45
496.974	5408.53
497.344	5568.98
497.713	5606.04
498.082	5654.17
498.452	5788.86
498.821	5811.68
499.19	5880.61
499.559	5942.3
499.928	5957.67
500.298	6038.57
500.667	6139.81
501.036	6201.28
501.405	6280.15
501.774	6255.97
502.143	6320.14
502.512	6389.52
502.88	6431.33
503.249	6476.52
503.618	6497.99
503.987	6582.28
504.356	6648.05
504.724	6665.9
505.093	6712.45
505.462	6801.71
505.83	6829.96
506.199	6846.91
506.567	6995.16
506.936	6995.38
507.304	7055.04
507.672	7123.06
508.041	7144.98
508.409	7204.87
508.777	7238.09
509.145	7279.22
509.514	7349.04
509.882	7467.23
510.25	7413.45
510.618	7488.48
510.986	7558.08
511.354	7584.29
511.722	7700
512.09	7710.84
512.458	7776.6
512.826	7760.78
513.193	7861.35
513.561	7923.27
513.929	7952.64
514.297	7960.55
514.664	8048.46
515.032	8008.24
515.4	8107.44
515.767	8145.18
516.135	8238.29
516.502	8149.47
516.869	8257.95
517.237	8325.52
517.604	8294.78
517.972	8344.05
518.339	8429.92
518.706	8391.28
519.073	8477.38
519.44	8485.51
519.808	8604.38
520.175	8616.58
520.542	8677.82
520.909	8680.08
521.276	8660.42
521.643	8802.57
522.009	8846.86
522.376	8873.07
522.743	9003.01
523.11	9023.35
523.477	9100.18
523.843	9097.92
524.21	9206.85
524.577	9291.82
524.943	9261.31
525.31	9343.79
525.676	9432.61
526.043	9438.03
526.409	9518.7
526.776	9617.46
527.142	9556.22
527.508	9691.81
527.874	9805.02
528.241	9811.58
528.607	9800.96
528.973	9921.63
529.339	9946.26
529.705	10013.15
530.071	10017.67
530.437	10118.24
530.803	10155.3
531.169	10205.92
531.535	10222.19
531.901	10272.58
532.267	10295.63
532.632	10313.71
532.998	10415.18
533.364	10430.77
533.73	10507.83
534.095	10618.79
534.461	10605.23
534.826	10640.48
535.192	10678.22
535.557	10814.94
535.923	10737.66
536.288	10772.46
536.653	10813.81
537.019	10855.17
537.384	10877.76
537.749	11056.52
538.114	10998.67
538.479	11019.91
538.845	11084.54
539.21	11016.74
539.575	11141.71
539.94	11221.03
540.305	11316.85
540.67	11327.7
541.034	11316.4
541.399	11411.08
541.764	11384.19
542.129	11475.04
542.494	11518.65
542.858	11625.54
543.223	11595.71
543.587	11662.38
543.952	11597.75
544.316	11705.54
544.681	11831.19
545.045	11874.8
545.41	11845.87
545.774	11949.38
546.138	11944.63
546.503	11996.15
546.867	12008.58
547.231	12101.69
547.595	12169.71
547.959	12277.95
548.324	12191.18
548.688	12188.69
549.052	12263.49
549.416	12297.61
549.779	12389.14
550.143	12374.67
550.507	12487.21
550.871	12574.44
551.235	12552.3
551.599	12596.14
551.962	12711.16
552.326	12664.84
552.689	12778.05
553.053	12773.76
553.417	12808.79
553.78	12892.85
554.143	12879.75
554.507	12896.92
554.87	12977.6
555.234	13140.98
555.597	13017.82
555.96	13011.04
556.323	13094.66
556.686	13166.97
557.05	13221.66
557.413	13183.47
557.776	13277.02
558.139	13365.38
558.502	13403.57
558.865	13448.09
559.228	13403.35
559.59	13538.03
559.953	13587.07
560.316	13728.76
560.679	13667.52
561.041	13796.78
561.404	13833.39
561.767	13861.64
562.129	13866.39
562.492	14005.82
562.854	13932.37
563.217	14023.9
563.579	14043.11
563.941	14069.55
564.304	14212.14
564.666	14256.21
565.028	14224.57
565.39	14281.74
565.753	14387.05
566.115	14411.68
566.477	14511.12
566.839	14469.31
567.201	14595.18
567.563	14605.8
567.925	14768.06
568.287	14730.32
568.648	14777.55
569.01	14865.91
569.372	15007.15
569.734	14942.52
570.095	15001.95
570.457	15078.56
570.819	15096.64
571.18	15202.4
571.542	15274.71
571.903	15330.3
572.265	15357.87
572.626	15533.24
572.987	15491.88
573.349	15680.35
573.71	15660.69
574.071	15788.37
574.432	15861.81
574.794	16048.25
575.155	16063.17
575.516	16034.92
575.877	16197.4
576.238	16290.05
576.599	16338.41
576.96	16474.68
577.32	16616.15
577.681	16733.43
578.042	16817.04
578.403	16889.81
578.763	17010.48
579.124	17126.87
579.485	17377.03
579.845	17446.63
580.206	17602.56
580.566	17656.34
580.927	17873.97
581.287	18083.23
581.648	18171.58
582.008	18406.61
582.368	18558.69
582.728	18726.82
583.089	18841.85
583.449	19102.63
583.809	19283.87
584.169	19523.41
584.529	19601.38
584.889	19994.14
585.249	20073.23
585.609	20252.43
585.969	20468.25
586.329	20531.97
586.688	20966.09
587.048	21168.79
587.408	21402.69
587.768	21585.28
588.127	21926.29
588.487	21934.65
588.846	22353.4
589.206	22487.18
589.565	22865.7
589.925	23123.54
590.284	23314.05
590.643	23535.74
591.003	23922.39
591.362	24098.89
591.721	24244.87
592.08	24615.71
592.44	24887.11
592.799	25160.55
593.158	25422.24
593.517	25720.99
593.876	25971.61
594.235	26094.99
594.593	26445.27
594.952	26689.33
595.311	26888.42
595.67	27178.81
596.029	27570.66
596.387	27765.91
596.746	28152.56
597.104	28156.41
597.463	28438.89
597.822	28782.38
598.18	28847.69
598.538	29129.71
598.897	29533.77
599.255	29561.79
599.613	30213.3
599.972	30132.4
600.33	30513.41
600.688	30562.22
601.046	30959.27
601.404	31251.47
601.762	31298.24
602.12	31799.47
602.478	32025.46
602.836	32124.66
603.194	32187.26
603.552	32484.88
603.91	32450.53
604.268	32839.9
604.625	33047.35
604.983	33383.84
605.341	33346.33
605.698	33730.27
606.056	33924.62
606.413	34144.72
606.771	34429.46
607.128	34573.41
607.485	34553.75
607.843	34858.38
608.2	34946.96
608.557	35235.54
608.914	35302.21
609.272	35645.02
609.629	35812.93
609.986	36081.62
610.343	36107.61
610.7	36358.45
611.057	36452.69
611.414	36565
611.771	36748.27
612.127	36967.93
612.484	37049.96
612.841	37275.71
613.198	37180.58
613.554	37336.73
613.911	37739.66
614.267	37809.26
614.624	37841.58
614.98	38015.81
615.337	38247.44
615.693	38419.19
616.05	38508.45
616.406	38636.81
616.762	38646.07
617.118	38801.32
617.475	38809.46
617.831	39093.75
618.187	39185.04
618.543	39338.49
618.899	39518.82
619.255	39524.24
619.611	39626.16
619.967	39833.39
620.323	40041.74
620.678	39907.96
621.034	39879.26
621.39	39862.09
621.746	39894.18
622.101	40446.7
622.457	40216.65
622.812	40359.02
623.168	40340.27
623.523	40566.02
623.879	40683.08
624.234	40534.16
624.589	40809.63
624.945	40832.68
625.3	40915.39
625.655	40950.87
626.01	40948.39
626.365	41113.58
626.72	41095.95
627.075	41122.17
627.43	41107.7
627.785	41049.17
628.14	41178.89
628.495	41120.36
628.85	41324.65
629.205	41143.86
629.559	41410.52
629.914	41178.66
630.269	41440.8
630.623	41305.21
630.978	41153.8
631.332	41387.25
631.687	41524.19
632.041	41364.65
632.396	41464.98
632.75	41334.37
633.104	41474.7
633.459	41313.8
633.813	41343.4
634.167	41476.06
634.521	41355.16
634.875	41393.8
635.229	41349.73
635.583	41208.49
635.937	41266.34
636.291	41259.79
636.645	41228.83
636.999	41141.15
637.352	41349.28
637.706	40977.31
638.06	41300.02
638.413	41231.77
638.767	41221.83
639.121	41329.17
639.474	41156.97
639.828	41147.03
640.181	41152.22
640.534	41227.7
640.888	41054.37
641.241	40868.61
641.594	41147.7
641.947	41213.69
642.301	40979.8
642.654	41067.93
643.007	40988.84
643.36	41051.21
643.713	40886.47
644.066	41125.56
644.419	40805.57
644.771	40734.61
645.124	40300.72
645.477	40312.25
645.83	39993.16
646.182	39879.04
646.535	39747.97
646.888	39814.18
647.24	39740.96
647.593	39909.09
647.945	39853.05
648.298	39782.09
648.65	39818.02
649.002	39487.86
649.355	39732.15
649.707	39654.18
650.059	39857.79
650.411	40366.93
650.763	40427.5
651.115	40728.73
651.467	40580.26
651.819	40503.88
652.171	40544.1
652.523	40500.04
652.875	40430.89
653.227	40215.98
653.578	40605.12
653.93	40468.85
654.282	40264.79
654.633	40332.81
654.985	40350.21
655.337	40326.71
655.688	40344.11
656.039	40403.32
656.391	40214.62
656.742	40238.35
657.094	40301.4
657.445	40379.14
657.796	40247.16
658.147	40261.62
658.498	40199.48
658.849	40364.9
659.2	40213.49
659.551	40109.99
659.902	40328.52
660.253	40053.27
660.604	40310.89
660.955	40005.13
661.306	40385.92
661.656	40028.18
662.007	40180.95
662.358	39946.15
662.708	40106.15
663.059	40016.43
663.409	39855.08
663.76	40122.42
664.11	40072.48
664.461	40197.22
664.811	40052.82
665.161	40117.67
665.511	40012.14
665.862	39970.79
666.212	40089.88
666.562	40170.78
666.912	39963.33
667.262	39947.73
667.612	39969.66
667.962	39899.15
668.312	39965.59
668.662	40060.05
669.011	40124
669.361	39884.23
669.711	39837.91
670.06	39908.87
670.41	39923.1
670.76	39804.91
671.109	40079.48
671.459	39916.55
671.808	39718.14
672.157	39868.64
672.507	39497.13
672.856	39700.51
673.205	39700.74
673.554	39778.02
673.904	39636.1
674.253	39751.58
674.602	39662.32
674.951	39209.9
675.3	39124.71
675.649	39703.22
675.998	39592.72
676.346	39610.12
676.695	39713.39
677.044	39526.96
677.393	39396.11
677.741	39514.3
678.09	39576.67
678.438	39359.28
678.787	39494.64
679.135	39387.07
679.484	39077.25
679.832	39348.2
680.181	39117.47
680.529	39205.61
680.877	39215.32
681.225	39177.81
681.573	39406.05
681.922	39016.91
682.27	38924.49
682.618	38975.56
682.966	38933.52
683.314	38872.28
683.661	38778.5
684.009	38583.25
684.357	38734.43
684.705	38606.98
685.053	38613.31
685.4	38497.15
685.748	38388.91
686.095	38315.01
686.443	38238.63
686.79	38230.49
687.138	38240.21
687.485	38183.26
687.832	38045.19
688.18	38196.37
688.527	37967.22
688.874	37838.64
689.221	37801.58
689.568	37788.24
689.915	37623.95
690.262	37481.59
690.609	37553
690.956	37487.91
691.303	37426.22
691.65	37148.71
691.997	37270.29
692.344	37073.46
692.69	37031.43
693.037	37086.79
693.383	36720.93
693.73	36905.1
694.077	36672.79
694.423	36690.65
694.769	36547.37
695.116	36329.52
695.462	36448.17
695.808	36285.01
696.155	36454.95
696.501	35991.68
696.847	36013.15
697.193	35720.5
697.539	35915.3
697.885	35699.26
698.231	35652.93
698.577	35702.42
698.923	35522.77
699.269	35426.05
699.614	35243.9
699.96	35204.13
700.306	35175.21
700.651	35052.04
700.997	34976.11
701.342	34928.88
701.688	34812.5
702.033	34693.18
702.379	34653.18
702.724	34647.76
703.069	34719.62
703.415	34367.09
703.76	34352.18
704.105	34232.63
704.45	34196.7
704.795	34004.39
705.14	33971.39
705.485	33914.67
705.83	33745.64
706.175	33913.54
706.52	33677.84
706.865	33709.71
707.209	33638.97
707.554	33543.38
707.899	33518.07
708.243	33326.21
708.588	33251.19
708.932	33112.66
709.277	32986.11
709.621	33083.28
709.966	33000.57
710.31	32911.76
710.654	32722.84
710.998	32812.1
711.342	32824.76
711.687	32651.43
712.031	32385.9
712.375	32294.83
712.719	32438.78
713.063	32351.1
713.407	32403.75
713.75	32299.12
714.094	32403.07
714.438	32123.53
714.782	32179.58
715.125	32001.05
715.469	32187.94
715.812	31966.48
716.156	31669.76
716.499	31869.76
716.843	31799.02
717.186	31522.87
717.53	31743.2
717.873	31667.05
718.216	31694.62
718.559	31415.98
718.902	31383.21
719.246	31239.72
719.589	31147.51
719.932	31155.88
720.275	31229.09
720.617	31097.8
720.96	30983.45
721.303	30910.68
721.646	30989.33
721.989	30826.17
722.331	30867.07
722.674	30756.79
723.016	30856.22
723.359	30619.39
723.701	30889.44
724.044	30565.83
724.386	30544.37
724.729	30536.01
725.071	30474.09
725.413	30517.02
725.755	30301.89
726.097	30297.37
726.439	30085.4
726.782	30114.55
727.124	30395.44
727.465	30092.63
727.807	30111.38
728.149	30073.64
728.491	29970.37
728.833	30055.34
729.175	29840.43
729.516	29911.84
729.858	29828.45
730.199	29855.12
730.541	29764.73
730.882	29740.09
731.224	29710.49
731.565	29510.72
731.906	29669.14
732.248	29517.73
732.589	29465.3
732.93	29263.04
733.271	29337.84
733.612	29324.29
733.953	29452.19
734.294	29378.75
734.635	29220.33
734.976	29285.87
735.317	29086.1
735.658	29021.02
735.999	28960.23
736.339	29093.78
736.68	28974.92
737.021	28929.95
737.361	28796.39
737.702	28910.96
738.042	28841.36
738.383	28785.77
738.723	28749.84
739.063	28546.45
739.404	28825.77
739.744	28585.55
740.084	28541.26
740.424	28644.3
740.764	28580.35
741.104	28579.9
741.444	28506
741.784	28381.26
742.124	28368.38
742.464	28330.41
742.804	28283.63
743.143	28074.6
743.483	28259.68
743.823	28184.43
744.162	28080.48
744.502	28251.32
744.841	28132.45
745.181	28102.4
745.52	28006.81
745.86	28069.4
746.199	27981.27
746.538	27931.55
746.877	27992.57
747.216	27906.24
747.556	27870.99
747.895	27848.84
748.234	27755.29
748.573	27710.99
748.911	27587.83
749.25	27548.74
749.589	27347.84
749.928	27438.01
750.267	27492.02
750.605	27425.13
750.944	27252.7
751.283	27381.51
751.621	27351.46
751.96	27131.57
752.298	27167.51
752.636	27148.3
752.975	26967.29
753.313	26886.16
753.651	27051.8
753.989	26859.49
754.327	26753.51
754.666	26796.44
755.004	26748.53
755.342	26793.73
755.679	26635.09
756.017	26685.71
756.355	26637.58
756.693	26452.95
757.031	26586.5
757.368	26332.95
757.706	26376.34
758.044	26239.17
758.381	26256.34
758.719	26206.85
759.056	26212.05
759.394	26038.5
759.731	25990.36
760.068	25923.02
760.405	25765.73
760.743	25743.14
761.08	25642.35
761.417	25604.38
761.754	25621.11
762.091	25616.36
762.428	25385.18
762.765	25302.7
763.102	25395.8
763.438	25172.53
763.775	25124.4
764.112	25167.56
764.449	25131.18
764.785	25008.47
765.122	24825.19
765.458	24742.03
765.795	24706.78
766.131	24699.32
766.467	24512.21
766.804	24563.73
767.14	24354.47
767.476	24484.41
767.812	24265.21
768.148	24335.49
768.485	24179.56
768.821	24003.3
769.157	23960.36
769.492	23938.44
769.828	23879
770.164	23580.93
770.5	23660.71
770.836	23741.83
771.171	23488.73
771.507	23394.05
771.842	23277.21
772.178	23213.49
772.513	23121.28
772.849	23159.93
773.184	23039.48
773.519	22992.47
773.855	22863.21
774.19	22801.75
774.525	22769.88
774.86	22722.2
775.195	22582.54
775.53	22526.27
775.865	22426.61
776.2	22288.31
776.535	22174.19
776.87	22121.99
777.205	22020.97
777.539	22015.78
777.874	21968.77
778.209	21759.06
778.543	21781.43
778.878	21700.08
779.212	21643.13
779.547	21467.77
779.881	21618.5
780.215	21371.73
780.55	21487.2
780.884	21237.72
781.218	21178.28
781.552	20990.95
781.886	21058.51
782.22	21010.38
782.554	20898.74
782.888	20694.91
783.222	20560.67
783.556	20543.5
783.889	20505.99
784.223	20410.17
784.557	20279.33
784.89	20381.92
785.224	20187.35
785.557	20112.1
785.891	20048.37
786.224	20025.77
786.558	20014.02
786.891	19789.17
787.224	19750.53
787.557	19643.86
787.891	19710.98
788.224	19614.03
788.557	19672.11
788.89	19492.23
789.223	19571.55
789.556	19308.96
789.888	19343.53
790.221	19185.12
790.554	19051.56
790.887	19056.08
791.219	19011.34
791.552	18856.31
791.884	18920.72
792.217	18774.73
792.549	18753.26
792.882	18684.11
793.214	18618.58
793.546	18611.12
793.879	18405.7
794.211	18293.84
794.543	18390.34
794.875	18374.52
795.207	18351.92
795.539	18318.02
795.871	18293.39
796.203	18021.08
796.535	17949.22
796.867	17993.74
797.198	17900.86
797.53	17941.53
797.862	17932.72
798.193	17852.95
798.525	17658.38
798.856	17675.78
799.188	17498.83
799.519	17511.04
799.85	17334.54
800.182	17434.2
800.513	17360.08
800.844	17170.25
801.175	17151.05
801.506	17217.26
801.837	17141.33
802.168	17038.05
802.499	17011.61
802.83	16873.09
803.161	16920.77
803.491	16914.22
803.822	16864.95
804.153	16742.92
804.483	16700.44
804.814	16640.78
805.145	16618.63
805.475	16581.57
805.805	16458.41
806.136	16469.26
806.466	16434.45
806.796	16481.69
807.126	16394
807.457	16318.07
807.787	16304.97
808.117	16103.16
808.447	16082.37
808.777	16106.55
809.107	16041.92
809.436	16041.02
809.766	16041.92
810.096	15921.47
810.426	15938.65
810.755	15879.44
811.085	15814.13
811.414	15826.11
811.744	15623.85
812.073	15626.11
812.403	15564.65
812.732	15547.02
813.061	15566.23
813.39	15423.86
813.719	15408.49
814.049	15473.12
814.378	15454.59
814.707	15457.31
815.036	15256.86
815.365	15332.11
815.693	15139.57
816.022	15061.16
816.351	15105.22
816.68	15031.1
817.008	15068.39
817.337	14921.73
817.665	14932.57
817.994	14956.53
818.322	15001.72
818.651	14936.42
818.979	14733.71
819.307	14814.38
819.636	14832.69
819.964	14659.81
820.292	14700.26
820.62	14773.48
820.948	14629.76
821.276	14739.36
821.604	14622.3
821.932	14726.7
822.259	14673.15
822.587	14608.74
822.915	14496.2
823.243	14666.59
823.57	14623.66
823.898	14569.42
824.225	14612.81
824.553	14628.63
824.88	14554.05
825.207	14587.27
825.535	14608.74
825.862	14660.49
826.189	14525.58
826.516	14551.57
826.843	14626.14
827.17	14580.94
827.497	14579.14
827.824	14578.91
828.151	14576.42
828.478	14578.68
828.805	14560.61
829.131	14560.61
829.458	14513.6
829.785	14408.97
830.111	14542.75
830.438	14540.27
830.764	14516.54
831.09	14461.4
831.417	14416.65
831.743	14456.88
832.069	14475.86
832.395	14420.04
832.722	14460.5
833.048	14409.2
833.374	14438.12
833.7	14413.27
834.026	14395.41
834.351	14473.83
834.677	14348.41
835.003	14344.57
835.329	14373.27
835.654	14347.5
835.98	14191.8
836.306	14305.47
836.631	14272.48
836.956	14366.26
837.282	14225.7
837.607	14157.23
837.932	14152.26
838.258	14217.79
838.583	14215.3
838.908	13981.41
839.233	14072.26
839.558	14071.13
839.883	13964.24
840.208	13964.01
840.533	14032.48
840.858	13957.68
841.182	13961.75
841.507	13931.24
841.832	13863.68
842.156	13790
842.481	13814.86
842.805	13683.11
843.13	13836.33
843.454	13783.45
843.778	13675.43
844.103	13629.33
844.427	13638.14
844.751	13643.79
845.075	13521.09
845.399	13460.97
845.723	13464.59
846.047	13524.02
846.371	13306.63
846.695	13264.59
847.019	13253.75
847.343	13126.07
847.666	13125.16
847.99	13047.88
848.313	13088.33
848.637	12991.16
848.96	12961.33
849.284	12947.31
849.607	12800.2
849.931	12801.1
850.254	12725.17
850.577	12600.88
850.9	12622.35
851.223	12572.18
851.546	12463.49
851.869	12406.76
852.192	12468.01
852.515	12373.77
852.838	12318.4
853.161	12273.21
853.483	12317.05
853.806	12190.5
854.129	12149.14
854.451	12122.25
854.774	12074.8
855.096	12071.63
855.419	11968.58
855.741	12052.65
856.063	11847.91
856.385	11894.69
856.708	11737.63
857.03	11784.18
857.352	11866.89
857.674	11794.8
857.996	11743.5
858.318	11589.84
858.64	11646.56
858.961	11565.2
859.283	11633.23
859.605	11541.93
859.926	11569.95
860.248	11566.11
860.57	11463.74
860.891	11524.53
861.212	11412.21
861.534	11392.1
861.855	11352.78
862.176	11306.45
862.498	11365.44
862.819	11304.42
863.14	11230.3
863.461	11256.74
863.782	11213.12
864.103	11166.57
864.424	11209.73
864.745	11137.42
865.065	11084.77
865.386	10997.08
865.707	11124.99
866.027	11052
866.348	11078.89
866.668	11029.4
866.989	11020.36
867.309	10990.08
867.63	10892.68
867.95	10937.65
868.27	10946.69
868.59	10908.72
868.91	10875.05
869.23	10857.88
869.55	10817.65
869.87	10878.22
870.19	10887.03
870.51	10863.53
870.83	10750.31
871.15	10683.87
871.469	10765.68
871.789	10760.03
872.109	10669.41
872.428	10631.67
872.748	10726.13
873.067	10746.02
873.386	10692.46
873.706	10628.96
874.025	10555.51
874.344	10522.29
874.663	10605.46
874.982	10464.22
875.301	10546.02
875.62	10441.39
875.939	10520.94
876.258	10466.25
876.577	10404.33
876.896	10452.01
877.214	10441.84
877.533	10365.01
877.852	10406.36
878.17	10394.39
878.489	10393.94
878.807	10345.12
879.125	10310.55
879.444	10308.51
879.762	10310.1
880.08	10233.49
880.398	10257.89
880.716	10240.04
881.034	10187.39
881.352	10184.68
881.67	10159.14
881.988	10155.52
882.306	10041.85
882.624	10042.08
882.941	10014.74
883.259	9999.37
883.577	10070.1
883.894	9982.2
884.212	9973.38
884.529	9835.08
884.846	9888.86
885.164	9899.71
885.481	9882.08
885.798	9899.03
886.115	9841.18
886.432	9809.77
886.75	9742.2
887.067	9805.02
887.383	9783.1
887.7	9697.68
888.017	9646.16
888.334	9718.02
888.651	9639.83
888.967	9688.42
889.284	9572.04
889.6	9574.3
889.917	9512.6
890.233	9551.25
890.55	9471.7
890.866	9497.46
891.182	9434.41
891.498	9367.3
891.815	9391.93
892.131	9347.41
892.447	9326.62
892.763	9243.68
893.079	9245.94
893.395	9260.18
893.71	9264.25
894.026	9160.75
894.342	9131.37
894.657	9118.04
894.973	9040.3
895.289	9165.27
895.604	9055.89
895.92	9077.81
896.235	8978.15
896.55	8941.54
896.865	8914.88
897.181	8923.92
897.496	8909.46
897.811	8815.22
898.126	8823.36
898.441	8810.47
898.756	8751.95
899.071	8740.19
899.386	8720.08
899.7	8643.25
900.015	8633.53
900.33	8563.25
900.644	8575.68
900.959	8566.64
901.273	8516.25
901.588	8466.75
901.902	8451.84
902.216	8404.16
902.531	8425.17
902.845	8400.09
903.159	8279.42
903.473	8300.66
903.787	8255.23
904.101	8223.82
904.415	8213.88
904.729	8226.31
905.042	8127.78
905.356	8102.7
905.67	8073.77
905.984	8085.52
906.297	7967.11
906.611	8021.57
906.924	7983.83
907.237	7930.05
907.551	7910.39
907.864	7912.87
908.177	7851.86
908.491	7816.6
908.804	7773.67
909.117	7746.1
909.43	7666.55
909.743	7678.98
910.056	7630.84
910.368	7611.64
910.681	7579.09
910.994	7532.77
911.307	7572.09
911.619	7453.67
911.932	7528.47
912.244	7426.1
912.557	7417.29
912.869	7330.51
913.181	7295.94
913.494	7321.47
913.806	7296.39
914.118	7251.65
914.43	7205.09
914.742	7235.83
915.054	7092.1
915.366	7135.26
915.678	7163.51
915.99	7042.84
916.302	7007.13
916.613	7005.55
916.925	7036.96
917.236	6962.61
917.548	6953.8
917.859	6933.46
918.171	6904.31
918.482	6866.34
918.794	6781.83
919.105	6793.8
919.416	6730.76
919.727	6729.63
920.038	6719.23
920.349	6650.08
920.66	6668.84
920.971	6625.67
921.282	6609.63
921.593	6558.78
921.903	6517.2
922.214	6494.38
922.525	6451.21
922.835	6473.36
923.146	6409.41
923.456	6362.4
923.767	6373.93
924.077	6292.35
924.387	6328.51
924.697	6272.24
925.008	6242.86
925.318	6221.84
925.628	6164.89
925.938	6220.94
926.248	6102.75
926.558	6120.15
926.867	6100.49
927.177	6036.54
927.487	6056.42
927.796	6020.94
928.106	6055.52
928.416	5999.93
928.725	5977.55
929.034	5917.44
929.344	5940.95
929.653	5957.22
929.962	5853.72
930.271	5822.76
930.581	5817.11
930.89	5750.22
931.199	5739.37
931.508	5709.09
931.817	5778.92
932.125	5738.46
932.434	5651.01
932.743	5618.47
933.051	5634.29
933.36	5603.78
933.669	5564.23
933.977	5547.96
934.286	5506.61
934.594	5508.87
934.902	5460.51
935.21	5457.79
935.519	5389.55
935.827	5370.79
936.135	5348.19
936.443	5276.56
936.751	5291.92
937.059	5304.8
937.367	5285.6
937.674	5261.19
937.982	5273.62
938.29	5184.81
938.597	5206.73
938.905	5182.1
939.213	5120.85
939.52	5114.3
939.827	5088.31
940.135	5051.7
940.442	5033.85
940.749	5034.75
941.056	5023.91
941.363	4983.46
941.67	4988.88
941.977	4928.54
942.284	4935.32
942.591	4906.17
942.898	4886.74
943.205	4855.78
943.511	4850.13
943.818	4843.57
944.125	4750.47
944.431	4730.58
944.738	4756.34
945.044	4742.78
945.35	4725.38
945.657	4690.58
945.963	4640.41
946.269	4675.67
946.575	4680.19
946.881	4658.27
947.187	4626.63
947.493	4597.03
947.799	4567.65
948.105	4557.71
948.41	4497.59
948.716	4533.98
949.022	4487.65
949.327	4467.99
949.633	4407.2
949.938	4414.66
950.244	4418.73
950.549	4407.65
950.854	4380.76
951.16	4339.41
951.465	4306.64
951.77	4324.26
952.075	4287.43
952.38	4241.33
952.685	4281.1
952.99	4243.36
953.294	4206.75
953.599	4206.98
953.904	4189.81
954.209	4131.73
954.513	4164.95
954.818	4123.82
955.122	4104.16
955.426	4126.98
955.731	4134.89
956.035	4043.37
956.339	4031.62
956.643	4065.06
956.948	3981.22
957.252	3988
957.556	3999.75
957.86	3970.6
958.163	3929.02
958.467	3944.61
958.771	3913.43
959.075	3920.89
959.378	3852.19
959.682	3860.77
959.985	3839.53
960.289	3839.31
960.592	3815.58
960.896	3787.78
961.199	3796.82
961.502	3765.18
961.805	3737.16
962.108	3746.65
962.411	3694.9
962.714	3654.68
963.017	3677.5
963.32	3696.26
963.623	3648.35
963.926	3651.06
964.228	3585.98
964.531	3615.81
964.833	3605.41
965.136	3548.24
965.438	3548.47
965.741	3529.26
966.043	3505.08
966.345	3536.71
966.648	3470.95
966.95	3459.43
967.252	3424.4
967.554	3444.06
967.856	3428.02
968.158	3388.02
968.46	3389.6
968.761	3388.24
969.063	3353.67
969.365	3366.78
969.666	3352.54
969.968	3337.17
970.269	3284.74
970.571	3260.11
970.872	3318.64
971.174	3238.64
971.475	3277.96
971.776	3255.14
972.077	3210.17
972.378	3209.94
972.679	3227.12
972.98	3197.06
973.281	3171.75
973.582	3177.63
973.883	3150.74
974.183	3121.36
974.484	3148.48
974.785	3082.49
975.085	3081.59
975.386	3098.08
975.686	3058.31
975.986	3022.83
976.287	3021.25
976.587	2983.96
976.887	2994.36
977.187	3002.94
977.487	2957.97
977.787	2961.59
978.087	2933.34
978.387	2957.75
978.687	2938.99
978.987	2958.65
979.286	2914.58
979.586	2918.2
979.885	2844.3
980.185	2834.36
980.484	2840.69
980.784	2859.67
981.083	2797.75
981.382	2800.69
981.682	2794.36
981.981	2772.44
982.28	2774.25
982.579	2768.15
982.878	2768.15
983.177	2729.96
983.475	2743.74
983.774	2691.09
984.073	2695.16
984.372	2723.63
984.67	2690.41
984.969	2654.48
985.267	2636.17
985.566	2651.99
985.864	2640.47
986.162	2616.74
986.461	2628.04
986.759	2600.69
987.057	2583.52
987.355	2572.45
987.653	2548.94
987.951	2575.38
988.249	2544.65
988.547	2497.87
988.844	2507.14
989.142	2530.41
989.44	2471.43
989.737	2454.03
990.035	2501.94
990.332	2461.94
990.63	2447.25
990.927	2428.5
991.224	2434.82
991.521	2431.43
991.819	2403.19
992.116	2391.21
992.413	2401.6
992.71	2393.02
993.006	2352.34
993.303	2340.14
993.6	2334.94
993.897	2350.08
994.193	2306.46
994.49	2315.73
994.787	2281.15
995.083	2278.22
995.379	2279.12
995.676	2299.69
995.972	2261.27
996.268	2248.16
996.565	2215.39
996.861	2197.77
997.157	2209.97
997.453	2181.72
997.749	2205.9
998.044	2154.38
998.34	2156.19
998.636	2137.88
998.932	2121.38
999.227	2116.19
999.523	2122.74
999.818	2124.1
1000.114	2104.89
1000.409	2092.91
1000.704	2075.96
1001	2073.25
1001.295	2056.98
1001.59	2053.36
1001.885	2055.85
1002.18	2026.47
1002.475	2004.1
1002.77	1995.06
1003.065	1982.41
1003.359	1982.41
1003.654	1979.24
1003.949	1933.14
1004.243	1958.23
1004.538	1958.23
1004.832	1935.4
1005.127	1908.74
1005.421	1927.04
1005.715	1905.57
1006.009	1894.27
1006.304	1873.26
1006.598	1899.92
1006.892	1876.87
1007.186	1829.19
1007.48	1823.54
1007.773	1828.74
1008.067	1813.6
1008.361	1812.92
1008.655	1793.48
1008.948	1805.46
1009.242	1784.9
1009.535	1758.68
1009.829	1770.21
1010.122	1765.69
1010.415	1737.67
1010.708	1710.77
1011.001	1699.93
1011.295	1709.19
1011.588	1668.29
1011.881	1683.43
1012.173	1675.29
1012.466	1690.66
1012.759	1660.83
1013.052	1681.4
1013.344	1645.24
1013.637	1639.82
1013.93	1628.74
1014.222	1605.01
1014.514	1573.83
1014.807	1569.76
1015.099	1572.7
1015.391	1579.48
1015.683	1541.97
1015.976	1560.95
1016.268	1546.03
1016.56	1553.49
1016.851	1508.75
1017.143	1526.82
1017.435	1498.8
1017.727	1519.82
1018.018	1486.83
1018.31	1484.79
1018.602	1475.53
1018.893	1453.61
1019.185	1466.03
1019.476	1440.5
1019.767	1455.41
1020.058	1452.25
1020.35	1424.68
1020.641	1419.48
1020.932	1404.12
1021.223	1410.67
1021.514	1413.38
1021.804	1362.76
1022.095	1337
1022.386	1330.45
1022.677	1354.4
1022.967	1355.98
1023.258	1306.72
1023.548	1332.48
1023.839	1325.47
1024.129	1313.04
1024.419	1291.8
1024.709	1283.44
1025	1293.38
1025.29	1301.29
1025.58	1278.7
1025.87	1260.62
1026.16	1273.5
1026.449	1253.84
1026.739	1211.58
1027.029	1222.2
1027.319	1224.46
1027.608	1219.71
1027.898	1201.41
1028.187	1215.87
1028.477	1173.16
1028.766	1165.25
1029.055	1139.04
1029.344	1153.73
1029.634	1130
1029.923	1153.05
1030.212	1133.16
1030.501	1127.96
1030.79	1137.91
1031.078	1143.78
1031.367	1130
1031.656	1090.9
1031.945	1111.47
1032.233	1096.1
1032.522	1091.13
1032.81	1071.47
1033.099	1076.67
1033.387	1071.69
1033.675	1059.27
1033.963	1060.17
1034.251	1028.98
1034.54	1014.97
1034.828	1032.6
1035.116	1029.44
1035.403	1045.26
1035.691	1013.62
1035.979	994.63
1036.267	1001.87
1036.554	968.19
1036.842	961.87
1037.129	973.17
1037.417	948.31
1037.704	993.96
1037.992	977.46
1038.279	937.91
1038.566	949.44
1038.853	949.44
1039.14	949.44
