Data from hue_80_FLMS001491_49.txt Node
Date: Mon Feb 06 15:23:04 GMT 2017
User: dcchb
Spectrometer: FLMS00149
Trigger mode: 0
Integration Time (sec): 2.000000E-2
Scans to average: 10
Electric dark correction enabled: true
Nonlinearity correction enabled: false
Boxcar width: 0
XAxis mode: Wavelengths
Number of Pixels in Spectrum: 2048
>>>>>Begin Spectral Data<<<<<
341.393	-8.59
341.776	-8.59
342.16	-8.59
342.543	-61.92
342.927	-54.01
343.31	-63.73
343.693	-47.46
344.077	-55.59
344.46	-63.95
344.843	-56.72
345.226	-39.77
345.61	-23.95
345.993	-32.09
346.376	-15.37
346.759	0.45
347.142	35.93
347.525	46.33
347.908	44.97
348.291	78.87
348.674	91.97
349.057	100.11
349.44	125.65
349.823	122.48
350.206	143.5
350.588	206.32
350.971	213.55
351.354	228.47
351.737	234.57
352.119	228.92
352.502	252.65
352.884	274.8
353.267	273.89
353.65	293.1
354.032	286.09
354.414	309.14
354.797	304.4
355.179	315.7
355.562	307.34
355.944	320.44
356.326	314.57
356.709	327.45
357.091	325.64
357.473	334.68
357.855	318.18
358.238	343.04
358.62	332.87
359.002	345.3
359.384	343.49
359.766	363.15
360.148	332.65
360.53	356.83
360.912	312.76
361.294	326.55
361.676	322.7
362.057	321.8
362.439	333.32
362.821	327.9
363.203	324.74
363.584	312.31
363.966	326.55
364.348	317.28
364.729	299.65
365.111	317.73
365.493	324.51
365.874	325.87
366.256	310.95
366.637	320.9
367.019	313.89
367.4	288.58
367.781	303.04
368.163	315.25
368.544	308.47
368.925	301.46
369.306	301.46
369.688	307.34
370.069	312.76
370.45	327.45
370.831	308.92
371.212	289.71
371.593	316.83
371.974	319.09
372.355	317.05
372.736	308.24
373.117	326.09
373.498	311.86
373.879	314.79
374.26	318.41
374.641	319.77
375.021	305.3
375.402	322.7
375.783	311.4
376.163	332.19
376.544	319.77
376.925	329.26
377.305	325.42
377.686	315.02
378.066	330.39
378.447	331.06
378.827	349.37
379.208	328.58
379.588	341.91
379.968	324.96
380.349	325.87
380.729	322.25
381.109	334.23
381.489	295.13
381.87	338.52
382.25	311.86
382.63	348.69
383.01	322.25
383.39	329.71
383.77	336.26
384.15	345.75
384.53	357.5
384.91	334.91
385.29	331.29
385.67	343.27
386.049	350.73
386.429	340.33
386.809	346.21
387.189	348.24
387.568	343.27
387.948	350.5
388.328	343.72
388.707	351.4
389.087	348.92
389.466	354.34
389.846	364.51
390.225	363.15
390.605	372.42
390.984	363.83
391.363	336.49
391.743	354.34
392.122	354.79
392.501	380.33
392.881	341.69
393.26	341.46
393.639	352.31
394.018	391.4
394.397	367.67
394.776	357.73
395.155	384.17
395.534	365.19
395.913	371.52
396.292	389.14
396.671	376.26
397.05	381.23
397.429	364.74
397.808	406.32
398.186	400.22
398.565	379.65
398.944	377.17
399.323	390.95
399.701	375.81
400.08	380.78
400.458	398.41
400.837	378.52
401.215	392.08
401.594	385.98
401.972	403.83
402.351	414.68
402.729	422.36
403.107	403.83
403.486	406.09
403.864	405.87
404.242	397.73
404.62	395.7
404.999	399.99
405.377	419.42
405.755	411.51
406.133	404.06
406.511	419.65
406.889	417.84
407.267	426.66
407.645	409.93
408.023	439.31
408.401	442.25
408.779	432.08
409.156	438.63
409.534	433.21
409.912	430.27
410.29	439.99
410.667	431.4
411.045	450.16
411.422	456.26
411.8	440.44
412.178	475.02
412.555	454.68
412.933	480.21
413.31	465.75
413.687	468.91
414.065	473.43
414.442	464.39
414.819	467.33
415.197	504.17
415.574	463.04
415.951	465.07
416.328	457.39
416.705	484.51
417.082	484.73
417.46	494.9
417.837	496.94
418.214	486.54
418.591	482.93
418.967	511.4
419.344	507.78
419.721	525.86
420.098	512.75
420.475	538.52
420.852	534.68
421.228	524.05
421.605	526.54
421.982	498.52
422.358	526.31
422.735	519.08
423.111	551.85
423.488	539.42
423.864	549.82
424.241	539.42
424.617	558.18
424.994	553.66
425.37	555.47
425.746	562.92
426.123	568.57
426.499	548.01
426.875	564.96
427.251	595.46
427.627	571.96
428.003	587.33
428.379	596.37
428.756	578.29
429.132	601.11
429.507	599.53
429.883	607.89
430.259	609.93
430.635	634.79
431.011	617.38
431.387	631.62
431.763	662.36
432.138	655.58
432.514	644.05
432.89	662.13
433.265	648.12
433.641	668.91
434.016	690.15
434.392	657.84
434.767	690.6
435.143	663.49
435.518	682.92
435.894	728.34
436.269	683.82
436.644	703.03
437.02	728.79
437.395	723.14
437.77	727.44
438.145	712.75
438.52	735.35
438.895	713.43
439.271	758.62
439.646	751.84
440.021	752.75
440.395	742.58
440.77	754.33
441.145	753.88
441.52	766.53
441.895	778.51
442.27	784.84
442.645	775.12
443.019	792.97
443.394	804.27
443.769	784.16
444.143	790.94
444.518	803.37
444.892	821.22
445.267	830.49
445.641	813.31
446.016	837.27
446.39	833.42
446.764	822.8
447.139	837.27
447.513	853.76
447.887	831.16
448.262	855.34
448.636	827.1
449.01	854.67
449.384	861.45
449.758	869.81
450.132	889.92
450.506	875.01
450.88	907.77
451.254	908.22
451.628	906.42
452.002	921.78
452.376	950.03
452.75	910.48
453.123	933.99
453.497	942.35
453.871	963.36
454.244	951.84
454.618	951.84
454.992	986.41
455.365	993.19
455.739	1022.12
456.112	1012.85
456.486	1030.26
456.859	1043.81
457.232	1069.12
457.606	1057.15
457.979	1058.05
458.352	1084.04
458.725	1083.59
459.099	1071.84
459.472	1125.39
459.845	1128.56
460.218	1142.79
460.591	1159.74
460.964	1156.81
461.337	1181.21
461.71	1204.26
462.083	1221.89
462.456	1244.26
462.829	1231.83
463.201	1269.35
463.574	1262.34
463.947	1280.87
464.32	1309.8
464.692	1306.86
465.065	1367.42
465.438	1321.1
465.81	1385.27
466.183	1382.11
466.555	1405.84
466.928	1447.65
467.3	1439.51
467.672	1463.92
468.045	1517.7
468.417	1488.55
468.789	1504.82
469.161	1535.78
469.534	1578.49
469.906	1604.93
470.278	1645.38
470.65	1666.4
471.022	1678.37
471.394	1719.95
471.766	1764.7
472.138	1804.25
472.51	1838.6
472.882	1863.45
473.253	1904.58
473.625	1936.9
473.997	1976.45
474.369	1991.36
474.74	2019.83
475.112	2080.62
475.484	2142.54
475.855	2192.03
476.227	2242.88
476.598	2275.65
476.97	2342.54
477.341	2410.11
477.713	2463.89
478.084	2484.91
478.455	2602.87
478.827	2627.73
479.198	2686.03
479.569	2726.03
479.94	2864.56
480.311	2904.78
480.682	2984.78
481.053	3108.62
481.424	3214.15
481.795	3234.72
482.166	3365.11
482.537	3416.18
482.908	3536.63
483.279	3583.63
483.65	3698.43
484.021	3846
484.391	3942.72
484.762	3981.82
485.133	4093.68
485.503	4204.41
485.874	4317.63
486.244	4422.71
486.615	4591.52
486.985	4732.98
487.356	4857.5
487.726	4949.47
488.097	5110.15
488.467	5123.71
488.837	5344.94
489.207	5420.65
489.578	5560.08
489.948	5677.82
490.318	5776.12
490.688	5925.04
491.058	6106.73
491.428	6157.13
491.798	6318.93
492.168	6554.86
492.538	6607.74
492.908	6793.27
493.278	6899.93
493.648	6982.64
494.017	7138.57
494.387	7256.98
494.757	7385.57
495.126	7501.5
495.496	7646.58
495.866	7899.23
496.235	7939.23
496.605	8069.62
496.974	8225.55
497.344	8371.53
497.713	8477.07
498.082	8577.85
498.452	8724.29
498.821	8799.77
499.19	8959.99
499.559	9120.89
499.928	9204.28
500.298	9315.91
500.667	9441.33
501.036	9434.33
501.405	9662.57
501.774	9727.65
502.143	9844.49
502.512	9922.22
502.88	10086.97
503.249	10127.42
503.618	10279.73
503.987	10319.73
504.356	10474.3
504.724	10542.32
505.093	10599.27
505.462	10811.92
505.83	10896.44
506.199	10987.73
506.567	11177.11
506.936	11250.55
507.304	11346.14
507.672	11433.37
508.041	11538.91
508.409	11562.63
508.777	11721.5
509.145	11780.26
509.514	11857.54
509.882	11985.67
510.25	12002.85
510.618	12126.69
510.986	12146.35
511.354	12335.27
511.722	12399
512.09	12590.63
512.458	12523.51
512.826	12712.66
513.193	12679.89
513.561	12706.78
513.929	12914.91
514.297	12981.81
514.664	13024.97
515.032	13134.12
515.4	13231.52
515.767	13284.85
516.135	13330.5
516.502	13258.63
516.869	13546.31
517.237	13518.97
517.604	13546.76
517.972	13678.28
518.339	13789.47
518.706	13808
519.073	13841.44
519.44	13949.01
519.808	13985.17
520.175	14139.06
520.542	14222.9
520.909	14233.52
521.276	14231.04
521.643	14354.42
522.009	14487.3
522.376	14500.64
522.743	14505.61
523.11	14774.98
523.477	14801.87
523.843	14793.06
524.21	14908.08
524.577	15034.41
524.943	15148.53
525.31	15086.38
525.676	15237.57
526.043	15356.21
526.409	15384.45
526.776	15507.16
527.142	15563.21
527.508	15546.94
527.874	15654.05
528.241	15643.88
528.607	15725.46
528.973	15774.05
529.339	15686.37
529.705	15847.04
530.071	15925
530.437	16056.07
530.803	16039.35
531.169	16120.25
531.535	16007.26
531.901	16131.33
532.267	16065.11
532.632	16114.38
532.998	16173.13
533.364	16303.75
533.73	16264.43
534.095	16308.72
534.461	16418.55
534.826	16475.95
535.192	16411.09
535.557	16475.5
535.923	16409.74
536.288	16552.79
536.653	16536.74
537.019	16434.37
537.384	16486.57
537.749	16560.69
538.114	16523.63
538.479	16492.45
538.845	16563.63
539.21	16409.29
539.575	16551.66
539.94	16495.39
540.305	16618.55
540.67	16564.31
541.034	16584.42
541.399	16585.55
541.764	16567.93
542.129	16680.47
542.494	16589.62
542.858	16571.54
543.223	16606.57
543.587	16714.81
543.952	16583.07
544.316	16625.55
544.681	16549.62
545.045	16515.72
545.41	16629.62
545.774	16576.06
546.138	16627.36
546.503	16685.44
546.867	16524.76
547.231	16696.28
547.595	16584.2
547.959	16597.3
548.324	16662.84
548.688	16691.31
549.052	16662.39
549.416	16563.41
549.779	16610.41
550.143	16544.65
550.507	16637.08
550.871	16675.49
551.235	16648.6
551.599	16715.27
551.962	16642.27
552.326	16725.66
552.689	16741.71
553.053	16671.88
553.417	16581.03
553.78	16840.24
554.143	16675.95
554.507	16677.98
554.87	16721.82
555.234	16816.28
555.597	16660.13
555.96	16676.17
556.323	16758.2
556.686	16714.36
557.05	16844.98
557.413	16891.53
557.776	16733.8
558.139	16875.49
558.502	16863.06
558.865	16913.23
559.228	17028.48
559.59	16963.85
559.953	16972.21
560.316	17119.1
560.679	17075.71
561.041	17127.69
561.404	17159.55
561.767	17152.77
562.129	17169.94
562.492	17293.56
562.854	17265.31
563.217	17278.64
563.579	17221.69
563.941	17359.32
564.304	17472.99
564.666	17469.6
565.028	17398.86
565.39	17437.96
565.753	17495.81
566.115	17612.64
566.477	17586.2
566.839	17651.29
567.201	17698.07
567.563	17705.98
567.925	17807.89
568.287	17818.29
568.648	17779.42
569.01	17950.94
569.372	17908.23
569.734	17905.52
570.095	17999.98
570.457	18086.76
570.819	18100.54
571.18	18023.48
571.542	18101.44
571.903	18165.17
572.265	18186.41
572.626	18171.27
572.987	18278.39
573.349	18253.08
573.71	18270.93
574.071	18240.65
574.432	18333.3
574.794	18406.07
575.155	18315.68
575.516	18320.65
575.877	18360.2
576.238	18348.67
576.599	18481.77
576.96	18526.52
577.32	18434.54
577.681	18566.52
578.042	18570.81
578.403	18615.78
578.763	18553.64
579.124	18642
579.485	18631.37
579.845	18714.31
580.206	18619.17
580.566	18564.03
580.927	18612.84
581.287	18624.14
581.648	18667.53
582.008	18654.42
582.368	18574.43
582.728	18657.81
583.089	18625.27
583.449	18661.88
583.809	18586.18
584.169	18692.16
584.529	18549.57
584.889	18794.76
585.249	18660.53
585.609	18609.23
585.969	18639.74
586.329	18533.98
586.688	18592.05
587.048	18564.94
587.408	18592.05
587.768	18449.23
588.127	18543.69
588.487	18504.6
588.846	18570.36
589.206	18534.43
589.565	18579.62
589.925	18622.56
590.284	18469.8
590.643	18588.89
591.003	18587.99
591.362	18630.02
591.721	18557.7
592.08	18539.4
592.44	18525.61
592.799	18548.66
593.158	18553.41
593.517	18601.32
593.876	18592.73
594.235	18546.63
594.593	18466.18
594.952	18530.13
595.311	18513.86
595.67	18522.68
596.029	18658.72
596.387	18629.57
596.746	18583.69
597.104	18469.57
597.463	18388.9
597.822	18556.35
598.18	18466.63
598.538	18473.19
598.897	18584.82
599.255	18365.62
599.613	18705.27
599.972	18550.92
600.33	18716.57
600.688	18567.87
601.046	18575.1
601.404	18582.56
601.762	18585.73
602.12	18720.64
602.478	18645.16
602.836	18622.79
603.194	18508.44
603.552	18633.86
603.91	18578.49
604.268	18674.09
604.625	18543.92
604.983	18739.85
605.341	18576.69
605.698	18660.75
606.056	18717.25
606.413	18677.47
606.771	18775.33
607.128	18775.55
607.485	18683.8
607.843	18707.08
608.2	18764.25
608.557	18853.97
608.914	18698.27
609.272	18839.73
609.629	18863.23
609.986	18917.24
610.343	18812.61
610.7	18942.55
611.057	18927.41
611.414	18926.73
611.771	18885.61
612.127	19053.06
612.484	18953.4
612.841	19151.81
613.198	19014.64
613.554	18963.12
613.911	19055.09
614.267	19127.41
614.624	19047.63
614.98	19116.56
615.337	19206.95
615.693	19137.35
616.05	19094.41
616.406	19250.57
616.762	19081.53
617.118	19210.57
617.475	19199.95
617.831	19246.95
618.187	19255.76
618.543	19248.76
618.899	19509.09
619.255	19367.63
619.611	19313.62
619.967	19300.51
620.323	19356.1
620.678	19338.02
621.034	19309.55
621.39	19284.92
621.746	19279.72
622.101	19560.16
622.457	19361.07
622.812	19382.32
623.168	19463.22
623.523	19429.09
623.879	19495.31
624.234	19327.85
624.589	19407.85
624.945	19566.27
625.3	19521.07
625.655	19457.79
626.01	19456.89
626.365	19502.09
626.72	19496.66
627.075	19452.14
627.43	19436.33
627.785	19451.69
628.14	19496.89
628.495	19490.33
628.85	19555.87
629.205	19371.24
629.559	19478.58
629.914	19435.42
630.269	19362.2
630.623	19317.23
630.978	19326.5
631.332	19387.06
631.687	19401.75
632.041	19256.44
632.396	19349.32
632.75	19296.44
633.104	19320.17
633.459	19119.05
633.813	19139.61
634.167	19222.32
634.521	19141.87
634.875	19204.92
635.229	19142.55
635.583	19124.47
635.937	19162.66
636.291	18974.87
636.645	19077.01
636.999	19032.95
637.352	19044.25
637.706	18987.98
638.06	19119.72
638.413	18924.47
638.767	18961.08
639.121	18968.77
639.474	18820.52
639.828	18913.18
640.181	18952.72
640.534	18893.74
640.888	18816.45
641.241	18748.43
641.594	18836.34
641.947	18773.74
642.301	18835.66
642.654	18867.3
643.007	18743.91
643.36	18674.31
643.713	18707.3
644.066	18816.91
644.419	18687.19
644.771	18543.02
645.124	18390.93
645.477	18378.05
645.83	18189.58
646.182	18143.48
646.535	18135.12
646.888	18237.49
647.24	18049.92
647.593	18145.29
647.945	18137.38
648.298	18080.65
648.65	18033.65
649.002	18067.55
649.355	18079.75
649.707	18092.63
650.059	18197.26
650.411	18302.8
650.763	18439.52
651.115	18583.69
651.467	18477.48
651.819	18507.08
652.171	18512.06
652.523	18489.46
652.875	18472.73
653.227	18295.79
653.578	18484.71
653.93	18416.69
654.282	18452.85
654.633	18361.78
654.985	18443.13
655.337	18361.55
655.688	18420.76
656.039	18488.33
656.391	18336.47
656.742	18400.87
657.094	18414.21
657.445	18446.97
657.796	18448.55
658.147	18417.14
658.498	18358.84
658.849	18473.86
659.2	18503.47
659.551	18321.78
659.902	18505.28
660.253	18423.92
660.604	18378.95
660.955	18357.48
661.306	18351.61
661.656	18329.69
662.007	18420.76
662.358	18430.02
662.708	18483.58
663.059	18488.33
663.409	18371.49
663.76	18509.57
664.11	18441.1
664.461	18459.85
664.811	18496.01
665.161	18536.46
665.511	18362.91
665.862	18493.07
666.212	18536.24
666.562	18533.98
666.912	18494.2
667.262	18491.04
667.612	18423.02
667.962	18482.9
668.312	18507.54
668.662	18499.17
669.011	18443.13
669.361	18526.29
669.711	18483.81
670.06	18386.86
670.41	18307.32
670.76	18382.34
671.109	18418.5
671.459	18301.89
671.808	18313.19
672.157	18327.65
672.507	18338.73
672.856	18355.45
673.205	18311.83
673.554	18336.69
673.904	18251.27
674.253	18399.52
674.602	18352.51
674.951	17999.75
675.3	17865.74
675.649	18297.15
675.998	18197.04
676.346	18249.46
676.695	18271.38
677.044	18126.53
677.393	18189.58
677.741	18242.68
678.09	18133.31
678.438	18079.07
678.787	18135.34
679.135	18086.53
679.484	17992.07
679.832	18069.81
680.181	17890.6
680.529	17963.37
680.877	17924.27
681.225	17992.3
681.573	17969.7
681.922	17925.18
682.27	17839.76
682.618	17799.31
682.966	17729.48
683.314	17775.35
683.661	17708.46
684.009	17640.89
684.357	17572.65
684.705	17582.59
685.053	17558.86
685.4	17528.13
685.748	17385.53
686.095	17457.62
686.443	17360
686.79	17378.98
687.138	17348.24
687.485	17307.79
687.832	17244.74
688.18	17263.73
688.527	17063.73
688.874	17051.53
689.221	17107.12
689.568	16925.88
689.915	17074.81
690.262	16972.44
690.609	16980.12
690.956	16898.09
691.303	16914.13
691.65	16741.93
691.997	16750.29
692.344	16629.17
692.69	16664.42
693.037	16716.85
693.383	16454.48
693.73	16555.72
694.077	16368.16
694.423	16421.26
694.769	16357.31
695.116	16345.33
695.462	16290.42
695.808	16223.53
696.155	16230.76
696.501	16150.54
696.847	16082.74
697.193	15944.67
697.539	15958
697.885	15883.65
698.231	15799.13
698.577	15817.66
698.923	15768.4
699.269	15691.11
699.614	15695.18
699.96	15540.38
700.306	15629.87
700.651	15523.43
700.997	15457.67
701.342	15351.46
701.688	15324.34
702.033	15342.42
702.379	15256.77
702.724	15211.8
703.069	15214.06
703.415	14973.84
703.76	15086.61
704.105	14980.4
704.45	14908.08
704.795	14924.58
705.14	14821.53
705.485	14865.6
705.83	14732.95
706.175	14746.73
706.52	14784.02
706.865	14674.19
707.209	14668.31
707.554	14504.93
707.899	14589.9
708.243	14538.15
708.588	14460.86
708.932	14363.24
709.277	14344.48
709.621	14288.66
709.966	14292.51
710.31	14246.63
710.654	14165.73
710.998	14202.34
711.342	14126.41
711.687	14119.18
712.031	14062.91
712.375	14012.74
712.719	14003.7
713.063	14057.71
713.407	14077.6
713.75	14015.45
714.094	13894.78
714.438	13884.61
714.782	13887.09
715.125	13797.15
715.469	13819.75
715.812	13673.99
716.156	13642.58
716.499	13638.06
716.843	13731.16
717.186	13673.99
717.53	13633.54
717.873	13598.74
718.216	13651.39
718.559	13544.5
718.902	13455.24
719.246	13562.81
719.589	13449.14
719.932	13359.2
720.275	13394.9
720.617	13448.69
720.96	13364.62
721.303	13432.64
721.646	13392.64
721.989	13311.51
722.331	13334.56
722.674	13294.79
723.016	13273.78
723.359	13244.85
723.701	13270.84
724.044	13210.27
724.386	13240.78
724.729	13228.58
725.071	13148.81
725.413	13175.47
725.755	13143.38
726.097	13173.66
726.439	13077.17
726.782	13045.31
727.124	13132.08
727.465	13001.69
727.807	13037.85
728.149	13017.28
728.491	13015.48
728.833	13068.58
729.175	13017.74
729.516	12961.02
729.858	12902.03
730.199	13003.95
730.541	12949.72
730.882	12892.32
731.224	12969.38
731.565	12876.05
731.906	12935.03
732.248	13012.99
732.589	12850.51
732.93	12890.51
733.271	12837.63
733.612	12876.27
733.953	12900.9
734.294	12877.63
734.635	12775.48
734.976	12914.24
735.317	12834.46
735.658	12864.52
735.999	12801.47
736.339	12950.39
736.68	12936.83
737.021	12850.28
737.361	12814.13
737.702	12846.67
738.042	12875.37
738.383	12807.8
738.723	12895.93
739.063	12898.42
739.404	12890.96
739.744	12846.67
740.084	12843.96
740.424	12855.26
740.764	12822.04
741.104	13037.62
741.444	12937.74
741.784	12887.8
742.124	12989.71
742.464	12974.57
742.804	13031.97
743.143	12973.9
743.483	13024.74
743.823	12949.72
744.162	12994.23
744.502	13089.15
744.841	12998.08
745.181	13117.4
745.52	13091.63
745.86	13056.61
746.199	13181.8
746.538	13191.29
746.877	13300.67
747.216	13273.55
747.556	13234.45
747.895	13288.92
748.234	13384.05
748.573	13398.07
748.911	13388.57
749.25	13438.29
749.589	13561.45
749.928	13583.37
750.267	13670.83
750.605	13732.75
750.944	13687.1
751.283	13807.77
751.621	13991.72
751.96	13897.04
752.298	13996.24
752.636	14112.62
752.975	14150.14
753.313	14226.07
753.651	14316.46
753.989	14405.5
754.327	14524.14
754.666	14471.26
755.004	14679.39
755.342	14774.53
755.679	14863.34
756.017	14922.77
756.355	15039.15
756.693	15095.87
757.031	15275.08
757.368	15322.76
757.706	15419.26
758.044	15578.57
758.381	15648.85
758.719	15705.58
759.056	15799.13
759.394	15846.81
759.731	15984.89
760.068	16036.64
760.405	16203.64
760.743	16262.62
761.08	16361.83
761.417	16378.55
761.754	16588.94
762.091	16651.31
762.428	16698.54
762.765	16760.46
763.102	16902.61
763.438	16837.07
763.775	16996.16
764.112	17117.74
764.449	17287.23
764.785	17267.34
765.122	17339.66
765.458	17363.61
765.795	17538.07
766.131	17575.13
766.467	17569.48
766.804	17723.6
767.14	17711.4
767.476	17790.27
767.812	17828.68
768.148	17814.22
768.485	17926.76
768.821	17988.45
769.157	17977.15
769.492	18067.77
769.828	18148
770.164	17982.35
770.5	18130.37
770.836	18161.78
771.171	18103.48
771.507	18192.74
771.842	18074.78
772.178	18286.75
772.513	18203.59
772.849	18265.51
773.184	18176.47
773.519	18254.66
773.855	18267.09
774.19	18261.67
774.525	18271.16
774.86	18244.94
775.195	18211.5
775.53	18274.32
775.865	18135.34
776.2	18169.47
776.535	18046.08
776.87	18075.23
777.205	18085.17
777.539	18097.15
777.874	18122.91
778.209	18015.8
778.543	18003.37
778.878	18052.18
779.212	18001.33
779.547	17942.13
779.881	17985.74
780.215	17901.68
780.55	18008.34
780.884	17788.68
781.218	17877.5
781.552	17943.03
781.886	17872.07
782.22	17702.36
782.554	17645.86
782.888	17585.3
783.222	17543.04
783.556	17606.54
783.889	17458.3
784.223	17296.95
784.557	17384.85
784.89	17346.66
785.224	17248.81
785.557	17330.17
785.891	17280.45
786.224	17172.88
786.558	17287.46
786.891	17096.05
787.224	17004.52
787.557	16985.32
787.891	16975.82
788.224	17080.45
788.557	16927.92
788.89	16917.52
789.223	16969.05
789.556	16757.98
789.888	16846.56
790.221	16721.37
790.554	16505.78
790.887	16625.33
791.219	16563.41
791.552	16550.98
791.884	16390.98
792.217	16422.85
792.549	16339.91
792.882	16299.91
793.214	16194.83
793.546	16295.39
793.879	16124.32
794.211	16085.23
794.543	16207.48
794.875	16087.71
795.207	16142.63
795.539	15994.83
795.871	16053.59
796.203	15842.97
796.535	15735.18
796.867	15853.82
797.198	15821.73
797.53	15744.9
797.862	15612.47
798.193	15585.13
798.525	15565.24
798.856	15581.29
799.188	15504.68
799.519	15448.86
799.85	15385.13
800.182	15313.04
800.513	15368.18
800.844	15191.01
801.175	15223.1
801.506	15269.2
801.837	15148.08
802.168	15163.22
802.499	15119.83
802.83	14954.18
803.161	14977.23
803.491	15010.45
803.822	14957.35
804.153	14878.03
804.483	14847.29
804.814	14706.05
805.145	14788.09
805.475	14728.2
805.805	14617.47
806.136	14713.51
806.466	14667.86
806.796	14607.07
807.126	14478.49
807.457	14432.39
807.787	14556
808.117	14382.45
808.447	14429.23
808.777	14422.45
809.107	14279.62
809.436	14311.49
809.766	14302.9
810.096	14330.24
810.426	14087.31
810.755	14144.94
811.085	14088.44
811.414	14092.28
811.744	13972.74
812.073	13895.91
812.403	13947.88
812.732	13916.92
813.061	13890.03
813.39	13793.76
813.719	13847.77
814.049	13833.53
814.378	13749.02
814.707	13772.07
815.036	13737.72
815.365	13717.15
815.693	13607.1
816.022	13566.65
816.351	13527.78
816.68	13550.83
817.008	13488.91
817.337	13376.6
817.665	13352.19
817.994	13390.38
818.322	13416.37
818.651	13260.44
818.979	13235.13
819.307	13313.77
819.636	13276.94
819.964	13179.77
820.292	13236.04
820.62	13237.39
820.948	13216.15
821.276	13174.57
821.604	13146.55
821.932	13308.12
822.259	13245.53
822.587	13082.59
822.915	13149.71
823.243	13209.6
823.57	13094.12
823.898	13209.6
824.225	13061.58
824.553	13050.5
824.88	13085.76
825.207	13124.4
825.535	13097.73
825.862	13099.99
826.189	13023.84
826.516	13169.15
826.843	13116.04
827.17	13164.4
827.497	13128.92
827.824	13139.54
828.151	13109.26
828.478	13208.01
828.805	13213.44
829.131	13050.96
829.458	13079.2
829.785	13022.93
830.111	13158.98
830.438	13177.51
830.764	13116.04
831.09	13045.53
831.417	13108.81
831.743	13072.65
832.069	13129.37
832.395	12996.49
832.722	13082.14
833.048	12989.04
833.374	13010.28
833.7	13025.87
834.026	13010.28
834.351	13001.47
834.677	12981.58
835.003	13061.13
835.329	13004.63
835.654	12928.25
835.98	12851.19
836.306	12852.32
836.631	12874.46
836.956	12842.15
837.282	12863.62
837.607	12790.17
837.932	12765.09
838.258	12811.64
838.583	12844.63
838.908	12716.28
839.233	12745.43
839.558	12729.61
839.883	12660.68
840.208	12636.96
840.533	12606.67
840.858	12650.06
841.182	12713.11
841.507	12562.83
841.832	12564.87
842.156	12500.46
842.481	12462.72
842.805	12446
843.13	12443.97
843.454	12465.43
843.778	12350.64
844.103	12315.38
844.427	12316.74
844.751	12314.7
845.075	12266.34
845.399	12303.63
845.723	12257.76
846.047	12171.21
846.371	12202.17
846.695	12017.76
847.019	11939.35
847.343	11910.42
847.666	11886.47
847.99	11896.64
848.313	11800.37
848.637	11761.27
848.96	11744.32
849.284	11745.68
849.607	11688.28
849.931	11590.88
850.254	11541.17
850.577	11498.23
850.9	11448.06
851.223	11350.66
851.546	11278.57
851.869	11171.23
852.192	11339.81
852.515	11153.83
852.838	11111.35
853.161	11159.03
853.483	11052.82
853.806	11040.39
854.129	11045.81
854.451	11021.63
854.774	10946.6
855.096	10875.19
855.419	10860.73
855.741	10837
856.063	10804.01
856.385	10754.75
856.708	10766.72
857.03	10745.48
857.352	10663.67
857.674	10630.23
857.996	10660.28
858.318	10601.3
858.64	10575.32
858.961	10588.65
859.283	10484.47
859.605	10455.09
859.926	10477.01
860.248	10457.35
860.57	10378.03
860.891	10402.66
861.212	10364.02
861.534	10234.53
861.855	10312.5
862.176	10353.17
862.498	10267.53
862.819	10340.97
863.14	10217.58
863.461	10165.16
863.782	10156.12
864.103	10180.98
864.424	10098.72
864.745	10068.21
865.065	10100.07
865.386	9990.92
865.707	10015.56
866.027	10020.98
866.348	10017.82
866.668	10009.91
866.989	10009.45
867.309	9939.85
867.63	9899.85
867.95	9942.34
868.27	9912.51
868.59	9833.41
868.91	9844.26
869.23	9828.67
869.55	9731.5
869.87	9811.95
870.19	9827.31
870.51	9863.7
870.83	9868.44
871.15	9770.36
871.469	9711.61
871.789	9808.56
872.109	9718.84
872.428	9615.11
872.748	9722.23
873.067	9700.31
873.386	9688.33
873.706	9658.05
874.025	9617.83
874.344	9630.93
874.663	9639.97
874.982	9578.96
875.301	9649.92
875.62	9545.74
875.939	9491.95
876.258	9494.89
876.577	9449.7
876.896	9513.87
877.214	9451.73
877.533	9446.53
877.852	9425.51
878.17	9423.26
878.489	9413.54
878.807	9346.65
879.125	9395.69
879.444	9411.28
879.762	9336.03
880.08	9363.6
880.398	9299.42
880.716	9309.81
881.034	9304.61
881.352	9282.24
881.67	9219.87
881.988	9268.23
882.306	9284.05
882.624	9214.67
882.941	9127.44
883.259	9101.91
883.577	9141.45
883.894	9046.99
884.212	9098.07
884.529	9031.4
884.846	9056.94
885.164	8986.2
885.481	8978.07
885.798	9031.17
886.115	8888.13
886.432	8926.54
886.75	8883.38
887.067	8926.54
887.383	8838.19
887.7	8833.89
888.017	8798.41
888.334	8810.39
888.651	8744.85
888.967	8762.71
889.284	8697.4
889.6	8715.7
889.917	8571.07
890.233	8659.89
890.55	8667.57
890.866	8620.56
891.182	8583.28
891.498	8544.41
891.815	8554.58
892.131	8519.55
892.447	8464.18
892.763	8399.55
893.079	8370.18
893.395	8411.76
893.71	8390.97
894.026	8384.19
894.342	8331.53
894.657	8261.48
894.973	8239.33
895.289	8273.68
895.604	8216.96
895.92	8147.81
896.235	8075.49
896.55	8119.56
896.865	8101.71
897.181	8090.41
897.496	8053.57
897.811	8016.06
898.126	7959.11
898.441	7959.56
898.756	7939.45
899.071	7923.18
899.386	7910.75
899.7	7856.74
900.015	7807.25
900.33	7747.82
900.644	7709.85
900.959	7796.18
901.273	7680.7
901.588	7659.91
901.902	7646.8
902.216	7614.04
902.531	7589.86
902.845	7579.46
903.159	7532.91
903.473	7489.97
903.787	7443.65
904.101	7440.93
904.415	7415.62
904.729	7382.86
905.042	7345.8
905.356	7346.93
905.67	7358.45
905.984	7345.8
906.297	7285.91
906.611	7218.57
906.924	7246.82
907.237	7251.79
907.551	7179.25
907.864	7153.26
908.177	7112.58
908.491	7129.3
908.804	7098.57
909.117	7028.06
909.43	6966.37
909.743	6965.01
910.056	6931.8
910.368	6899.03
910.681	6869.42
910.994	6872.14
911.307	6808.41
911.619	6729.77
911.932	6752.82
912.244	6709.65
912.557	6778.8
912.869	6653.16
913.181	6654.97
913.494	6636.66
913.806	6612.93
914.118	6611.8
914.43	6574.06
914.742	6556.89
915.054	6469.21
915.366	6456.78
915.678	6481.86
915.99	6419.94
916.302	6452.71
916.613	6297.69
916.925	6378.36
917.236	6355.77
917.548	6277.8
917.859	6291.59
918.171	6299.95
918.482	6222.89
918.794	6193.51
919.105	6137.24
919.416	6132.72
919.727	6123.23
920.038	6094.53
920.349	6076.22
920.66	6044.81
920.971	6059.95
921.282	5982.22
921.593	5939.5
921.903	5940.63
922.214	5921.2
922.525	5877.13
922.835	5854.08
923.146	5824.25
923.456	5834.42
923.767	5809.79
924.077	5768.44
924.387	5768.66
924.697	5685.95
925.008	5720.98
925.318	5702.9
925.628	5653.41
925.938	5643.92
926.248	5591.72
926.558	5548.33
926.867	5588.55
927.177	5497.48
927.487	5522.57
927.796	5523.47
928.106	5502
928.416	5468.1
928.725	5431.04
929.034	5406.64
929.344	5427.43
929.653	5370.25
929.962	5312.85
930.271	5287.09
930.581	5301.33
930.89	5267.21
931.199	5272.18
931.508	5267.43
931.817	5240.77
932.125	5201.67
932.434	5187.89
932.743	5121.22
933.051	5131.39
933.36	5107.21
933.669	5083.26
933.977	5060.66
934.286	5027.44
934.594	5023.37
934.902	4954.22
935.21	4953.09
935.519	4917.38
935.827	4942.47
936.135	4935.69
936.443	4854.11
936.751	4825.64
937.059	4832.87
937.367	4789.48
937.674	4792.87
937.982	4772.98
938.29	4777.5
938.597	4738.41
938.905	4754.9
939.213	4721.46
939.52	4711.74
939.827	4710.38
940.135	4622.25
940.442	4659.54
940.749	4588.81
941.056	4606.88
941.363	4564.85
941.67	4549.48
941.977	4520.11
942.284	4492.54
942.591	4499.99
942.898	4479.88
943.205	4499.54
943.511	4423.39
943.818	4383.61
944.125	4415.03
944.431	4380
944.738	4342.48
945.044	4337.06
945.35	4313.11
945.657	4282.15
945.963	4290.28
946.269	4224.75
946.575	4277.85
946.881	4222.71
947.187	4224.52
947.493	4203.96
947.799	4167.35
948.105	4130.96
948.41	4201.25
948.716	4089.16
949.022	4147.46
949.327	4100.68
949.633	4085.99
949.938	4050.97
950.244	4041.93
950.549	4059.78
950.854	4009.16
951.16	4003.28
951.465	3990.63
951.77	3966.45
952.075	3943.63
952.38	3927.13
952.685	3915.83
952.99	3893.68
953.294	3873.34
953.599	3871.08
953.904	3824.98
954.209	3823.63
954.513	3809.17
954.818	3803.97
955.122	3808.49
955.426	3751.54
955.731	3725.55
956.035	3692.11
956.339	3712.67
956.643	3707.47
956.948	3701.82
957.252	3658.43
957.556	3675.38
957.86	3638.32
958.163	3649.4
958.467	3580.02
958.771	3596.97
959.075	3617.98
959.378	3551.32
959.682	3578.66
959.985	3561.71
960.289	3523.75
960.592	3483.07
960.896	3465.9
961.199	3476.29
961.502	3405.56
961.805	3441.27
962.108	3462.06
962.411	3393.36
962.714	3359.01
963.017	3380.02
963.32	3369.18
963.623	3366.24
963.926	3362.4
964.228	3363.75
964.531	3318.33
964.833	3310.42
965.136	3266.13
965.438	3261.38
965.741	3232.91
966.043	3232.46
966.345	3255.51
966.648	3172.35
966.95	3171.22
967.252	3181.39
967.554	3167.15
967.856	3175.74
968.158	3138
968.46	3078.79
968.761	3109.97
969.063	3107.94
969.365	3076.76
969.666	3027.72
969.968	3088.73
970.269	3037.89
970.571	3003.08
970.872	3032.01
971.174	2989.53
971.475	2999.02
971.776	3043.31
972.077	2985.01
972.378	2948.62
972.679	2965.8
972.98	2962.41
973.281	2888.74
973.582	2916.53
973.883	2876.99
974.183	2848.29
974.484	2858
974.785	2857.55
975.085	2818.46
975.386	2841.96
975.686	2824.78
975.986	2825.24
976.287	2820.49
976.587	2793.6
976.887	2767.16
977.187	2789.53
977.487	2769.64
977.787	2699.36
978.087	2714.73
978.387	2739.14
978.687	2724.67
978.987	2686.94
979.286	2658.46
979.586	2664.56
979.885	2648.07
980.185	2614.39
980.484	2620.27
980.784	2595.19
981.083	2611
981.382	2609.87
981.682	2568.75
981.981	2555.86
982.28	2550.44
982.579	2522.19
982.878	2556.77
983.177	2550.67
983.475	2544.11
983.774	2476.77
984.073	2508.63
984.372	2480.16
984.67	2480.84
984.969	2462.76
985.267	2472.48
985.566	2425.7
985.864	2377.34
986.162	2403.33
986.461	2386.6
986.759	2374.63
987.057	2364.91
987.355	2377.56
987.653	2352.48
987.951	2368.98
988.249	2361.52
988.547	2354.51
988.844	2317.68
989.142	2293.95
989.44	2317.91
989.737	2319.94
990.035	2253.05
990.332	2245.59
990.63	2291.69
990.927	2265.25
991.224	2229.32
991.521	2204.69
991.819	2242.88
992.116	2206.72
992.413	2199.94
992.71	2179.6
993.006	2204.24
993.303	2171.92
993.6	2199.04
993.897	2125.37
994.193	2152.49
994.49	2132.15
994.787	2127.4
995.083	2098.02
995.379	2114.75
995.676	2084.92
995.972	2087.4
996.268	2104.58
996.565	2046.05
996.861	2005.6
997.157	2061.87
997.453	2048.08
997.749	1993.85
998.044	2013.96
998.34	1971.02
998.636	1990.68
998.932	1984.58
999.227	1961.3
999.523	1952.49
999.818	1945.49
1000.114	1951.81
1000.409	1924.92
1000.704	1933.28
1001	1917.92
1001.295	1877.46
1001.59	1905.49
1001.885	1907.29
1002.18	1856.45
1002.475	1861.65
1002.77	1820.97
1003.065	1842.89
1003.359	1813.06
1003.654	1823.68
1003.949	1792.04
1004.243	1818.94
1004.538	1792.27
1004.832	1791.59
1005.127	1789.56
1005.421	1760.18
1005.715	1734.64
1006.009	1736.9
1006.304	1707.98
1006.598	1700.52
1006.892	1729.45
1007.186	1695.1
1007.48	1673.4
1007.773	1694.64
1008.067	1674.08
1008.361	1655.1
1008.655	1664.14
1008.948	1656.23
1009.242	1657.58
1009.535	1623.23
1009.829	1606.74
1010.122	1605.61
1010.415	1607.64
1010.708	1599.73
1011.001	1601.77
1011.295	1565.38
1011.588	1545.95
1011.881	1577.13
1012.173	1550.02
1012.466	1551.15
1012.759	1538.94
1013.052	1529.9
1013.344	1479.74
1013.637	1500.53
1013.93	1526.51
1014.222	1496.23
1014.514	1480.19
1014.807	1454.88
1015.099	1467.08
1015.391	1474.76
1015.683	1457.59
1015.976	1464.37
1016.268	1420.08
1016.56	1450.58
1016.851	1411.04
1017.143	1397.93
1017.435	1406.06
1017.727	1390.7
1018.018	1380.53
1018.31	1392.05
1018.602	1378.27
1018.893	1365.39
1019.185	1354.09
1019.476	1336.46
1019.767	1325.84
1020.058	1320.42
1020.35	1311.15
1020.641	1303.92
1020.932	1302.79
1021.223	1286.75
1021.514	1268.22
1021.804	1291.94
1022.095	1296.01
1022.386	1238.16
1022.677	1250.81
1022.967	1246.07
1023.258	1253.53
1023.548	1207.43
1023.839	1213.98
1024.129	1192.06
1024.419	1213.98
1024.709	1192.51
1025	1169.23
1025.29	1168.78
1025.58	1189.8
1025.87	1136.24
1026.16	1152.51
1026.449	1176.47
1026.739	1135.56
1027.029	1118.16
1027.319	1130.14
1027.608	1145.05
1027.898	1134.66
1028.187	1110.71
1028.477	1112.29
1028.766	1091.95
1029.055	1083.14
1029.344	1120.42
1029.634	1090.82
1029.923	1072.29
1030.212	1048.33
1030.501	1051.95
1030.79	1032.74
1031.078	1032.29
1031.367	1022.35
1031.656	1040.65
1031.945	1019.41
1032.233	1018.5
1032.522	1004.04
1032.81	997.49
1033.099	1006.08
1033.387	981.44
1033.675	961.78
1033.963	971.95
1034.251	971.73
1034.54	957.94
1034.828	967.21
1035.116	948.68
1035.403	954.33
1035.691	946.19
1035.979	948.68
1036.267	930.82
1036.554	948.22
1036.842	923.14
1037.129	932.86
1037.417	911.16
1037.704	913.87
1037.992	901.22
1038.279	888.11
1038.566	884.95
1038.853	884.95
1039.14	884.95
