Data from hue_90_FLMS001491_95.txt Node
Date: Mon Feb 06 15:25:56 GMT 2017
User: dcchb
Spectrometer: FLMS00149
Trigger mode: 0
Integration Time (sec): 2.000000E-2
Scans to average: 10
Electric dark correction enabled: true
Nonlinearity correction enabled: false
Boxcar width: 0
XAxis mode: Wavelengths
Number of Pixels in Spectrum: 2048
>>>>>Begin Spectral Data<<<<<
341.393	-16.79
341.776	-16.79
342.16	-16.79
342.543	-54.08
342.927	-67.19
343.31	-72.16
343.693	-60.41
344.077	-67.19
344.46	-56.11
344.843	-52.5
345.226	-47.75
345.61	-26.06
345.993	-26.96
346.376	6.26
346.759	10.1
347.142	13.04
347.525	57.78
347.908	58.23
348.291	63.43
348.674	78.35
349.057	121.96
349.44	122.86
349.823	167.16
350.206	149.3
350.588	183.2
350.971	201.51
351.354	218.23
351.737	221.62
352.119	252.8
352.502	266.36
352.884	262.97
353.267	286.93
353.65	280.37
354.032	305.01
354.414	285.57
354.797	339.81
355.179	316.08
355.562	312.69
355.944	328.73
356.326	322.63
356.709	316.76
357.091	319.47
357.473	357.66
357.855	336.64
358.238	343.88
358.62	328.51
359.002	329.86
359.384	340.94
359.766	330.77
360.148	326.93
360.53	342.07
360.912	307.27
361.294	323.54
361.676	329.41
362.057	326.93
362.439	349.07
362.821	311.56
363.203	343.42
363.584	323.99
363.966	323.76
364.348	316.76
364.729	326.25
365.111	333.25
365.493	301.84
365.874	300.03
366.256	312.46
366.637	307.49
367.019	319.92
367.4	305.23
367.781	327.15
368.163	294.84
368.544	302.29
368.925	323.54
369.306	315.18
369.688	294.61
370.069	307.94
370.45	317.21
370.831	316.76
371.212	312.69
371.593	288.74
371.974	330.77
372.355	296.19
372.736	307.94
373.117	298
373.498	304.78
373.879	321.5
374.26	302.52
374.641	321.5
375.021	324.89
375.402	325.57
375.783	317.44
376.163	322.18
376.544	332.12
376.925	308.17
377.305	317.44
377.686	330.99
378.066	332.8
378.447	320.82
378.827	332.58
379.208	319.24
379.588	331.22
379.968	324.21
380.349	346.81
380.729	353.82
381.109	329.41
381.489	323.08
381.87	323.76
382.25	312.46
382.63	319.69
383.01	339.58
383.39	337.55
383.77	334.61
384.15	321.95
384.53	358.56
384.91	349.75
385.29	353.82
385.67	314.5
386.049	368.73
386.429	341.16
386.809	351.56
387.189	377.32
387.568	347.72
387.948	355.85
388.328	340.26
388.707	372.57
389.087	369.86
389.466	370.09
389.846	361.05
390.225	372.8
390.605	362.86
390.984	389.98
391.363	378
391.743	360.6
392.122	365.34
392.501	370.77
392.881	373.25
393.26	375.06
393.639	358.79
394.018	359.24
394.397	378.45
394.776	373.03
395.155	373.03
395.534	394.72
395.913	367.83
396.292	373.25
396.671	367.15
397.05	369.41
397.429	368.06
397.808	380.26
398.186	394.04
398.565	420.26
398.944	383.87
399.323	408.28
399.701	401.27
400.08	403.76
400.458	410.77
400.837	412.8
401.215	383.42
401.594	378.68
401.972	411.22
402.351	404.66
402.729	402.63
403.107	399.01
403.486	398.11
403.864	419.13
404.242	413.03
404.62	417.55
404.999	411.44
405.377	419.35
405.755	418.9
406.133	410.09
406.511	420.71
406.889	415.74
407.267	440.37
407.645	429.3
408.023	427.71
408.401	458
408.779	427.94
409.156	420.71
409.534	451.67
409.912	461.16
410.29	436.53
410.667	448.96
411.045	438.11
411.422	467.04
411.8	460.48
412.178	462.74
412.555	480.59
412.933	474.72
413.31	487.37
413.687	465.68
414.065	478.33
414.442	472.01
414.819	476.98
415.197	484.66
415.574	494.61
415.951	484.21
416.328	498.9
416.705	498.67
417.082	507.71
417.46	520.59
417.837	526.7
418.214	504.77
418.591	528.05
418.967	519.92
419.344	513.14
419.721	541.38
420.098	516.98
420.475	513.81
420.852	545.68
421.228	527.37
421.605	546.36
421.982	542.06
422.358	537.99
422.735	553.36
423.111	533.47
423.488	566.02
423.864	553.81
424.241	569.63
424.617	559.01
424.994	562.4
425.37	557.88
425.746	570.08
426.123	580.48
426.499	551.33
426.875	578.9
427.251	580.48
427.627	589.29
428.003	604.66
428.379	577.54
428.756	609.18
429.132	620.93
429.507	627.03
429.883	621.16
430.259	631.1
430.635	615.05
431.011	639.01
431.387	636.52
431.763	642.4
432.138	635.17
432.514	668.61
432.89	653.92
433.265	678.1
433.641	671.78
434.016	684.21
434.392	681.72
434.767	692.79
435.143	700.02
435.518	694.37
435.894	711.1
436.269	705.22
436.644	738.89
437.02	731.44
437.395	712
437.77	706.35
438.145	741.6
438.52	736.63
438.895	724.43
439.271	747.48
439.646	784.32
440.021	768.72
440.395	753.36
440.77	768.95
441.145	772.79
441.52	790.64
441.895	777.99
442.27	807.37
442.645	801.49
443.019	787.25
443.394	790.64
443.769	802.85
444.143	831.55
444.518	847.82
444.892	836.97
445.267	826.35
445.641	815.95
446.016	819.12
446.39	870.41
446.764	836.97
447.139	872
447.513	837.2
447.887	868.16
448.262	886.46
448.636	888.72
449.01	871.54
449.384	891.43
449.758	884.43
450.132	933.46
450.506	912
450.88	900.47
451.254	908.83
451.628	946.12
452.002	935.27
452.376	942.5
452.75	931.88
453.123	954.03
453.497	971.66
453.871	959.9
454.244	998.32
454.618	1002.39
454.992	1009.62
455.365	991.32
455.739	1026.34
456.112	1032.44
456.486	1055.95
456.859	1058.21
457.232	1077.42
457.606	1071.31
457.979	1071.09
458.352	1094.36
458.725	1110.41
459.099	1124.87
459.472	1118.54
459.845	1149.73
460.218	1157.19
460.591	1173.23
460.964	1183.63
461.337	1207.13
461.71	1238.31
462.083	1245.77
462.456	1243.96
462.829	1248.94
463.201	1266.11
463.574	1262.27
463.947	1317.63
464.32	1321.93
464.692	1325.77
465.065	1345.88
465.438	1368.03
465.81	1369.16
466.183	1408.25
466.555	1402.38
466.928	1450.74
467.3	1449.61
467.672	1484.64
468.045	1529.61
468.417	1520.34
468.789	1554.46
469.161	1533.22
469.534	1579.55
469.906	1622.26
470.278	1653.67
470.65	1678.08
471.022	1708.81
471.394	1731.18
471.766	1759.88
472.138	1778.64
472.51	1819.99
472.882	1887.34
473.253	1888.69
473.625	1967.11
473.997	1981.57
474.369	1991.97
474.74	2031.29
475.112	2102.47
475.484	2158.52
475.855	2167.78
476.227	2211.85
476.598	2308.57
476.97	2353.77
477.341	2437.61
477.713	2470.6
478.084	2536.13
478.455	2598.28
478.827	2663.59
479.198	2757.37
479.569	2763.25
479.94	2877.82
480.311	2868.1
480.682	3055.67
481.053	3111.49
481.424	3157.36
481.795	3206.17
482.166	3372.04
482.537	3402.78
482.908	3539.05
483.279	3598.93
483.65	3682.09
484.021	3824.24
484.391	3892.48
484.762	3947.17
485.133	4051.35
485.503	4152.59
485.874	4307.16
486.244	4386.71
486.615	4514.16
486.985	4621.05
487.356	4735.62
487.726	4781.5
488.097	4977.65
488.467	5015.16
488.837	5203.18
489.207	5305.33
489.578	5406.11
489.948	5545.77
490.318	5722.72
490.688	5792.55
491.058	5847.46
491.428	6067.34
491.798	6095.81
492.168	6249.48
492.538	6403.38
492.908	6547.1
493.278	6672.3
493.648	6718.4
494.017	6878.39
494.387	7007.88
494.757	7105.51
495.126	7234.09
495.496	7342.34
495.866	7404.48
496.235	7534.87
496.605	7738.93
496.974	7795.66
497.344	7943.9
497.713	8034.29
498.082	8128.3
498.452	8256.89
498.821	8375.98
499.19	8363.1
499.559	8573.72
499.928	8615.07
500.298	8733.26
500.667	8840.83
501.036	8849.41
501.405	8970.99
501.774	9036.75
502.143	9203.53
502.512	9231.33
502.88	9406.24
503.249	9442.62
503.618	9494.14
503.987	9622.73
504.356	9680.58
504.724	9726.23
505.093	9810.29
505.462	9914.02
505.83	9864.53
506.199	10016.62
506.567	10165.99
506.936	10138.19
507.304	10262.71
507.672	10325.76
508.041	10355.14
508.409	10448.24
508.777	10543.61
509.145	10618.41
509.514	10658.41
509.882	10737.27
510.25	10776.6
510.618	10855.01
510.986	10902.69
511.354	10921.9
511.722	11061.79
512.09	11123.93
512.458	11097.49
512.826	11193.76
513.193	11315.11
513.561	11253.42
513.929	11306.98
514.297	11429.69
514.664	11373.64
515.032	11438.72
515.4	11489.8
515.767	11563.92
516.135	11607.08
516.502	11574.31
516.869	11719.62
517.237	11803.91
517.604	11761.65
517.972	11812.5
518.339	11842.56
518.706	11828.54
519.073	11868.77
519.44	11954.87
519.808	11969.78
520.175	11949.45
520.542	12151.47
520.909	12177.91
521.276	12076.67
521.643	12195.09
522.009	12220.63
522.376	12292.49
522.743	12342.88
523.11	12367.97
523.477	12448.64
523.843	12482.99
524.21	12565.93
524.577	12528.19
524.943	12609.32
525.31	12598.02
525.676	12695.64
526.043	12678.47
526.409	12777.9
526.776	12843.21
527.142	12795.98
527.508	12870.1
527.874	12833.04
528.241	12865.58
528.607	12871.23
528.973	12949.65
529.339	12923.43
529.705	12980.38
530.071	13022.41
530.437	12995.29
530.803	12909.19
531.169	13053.82
531.535	13049.98
531.901	13022.64
532.267	12982.41
532.632	13005.92
532.998	13061.73
533.364	13005.46
533.73	12974.5
534.095	13099.47
534.461	13069.19
534.826	13060.38
535.192	13033.94
535.557	13073.71
535.923	13041.39
536.288	12968.85
536.653	13095.63
537.019	12999.59
537.384	12936.76
537.749	12914.39
538.114	13006.82
538.479	12878.91
538.845	12976.31
539.21	12871.46
539.575	12827.84
539.94	12843.66
540.305	12878.91
540.67	12770.22
541.034	12752.59
541.399	12747.84
541.764	12710.56
542.129	12714.62
542.494	12750.1
542.858	12777.67
543.223	12678.24
543.587	12716.21
543.952	12622.65
544.316	12631.69
544.681	12592.59
545.045	12622.87
545.41	12600.05
545.774	12629.43
546.138	12530.9
546.503	12519.6
546.867	12363.67
547.231	12576.77
547.595	12470.34
547.959	12414.97
548.324	12423.56
548.688	12369.77
549.052	12354.86
549.416	12307.63
549.779	12291.36
550.143	12257.91
550.507	12304.46
550.871	12193.06
551.235	12217.91
551.599	12298.59
551.962	12248.87
552.326	12256.1
552.689	12275.76
553.053	12170.91
553.417	12136.33
553.78	12278.02
554.143	12056.56
554.507	12115.54
554.87	12187.86
555.234	12239.61
555.597	11999.39
555.96	12158.25
556.323	12167.97
556.686	12061.53
557.05	11991.7
557.413	12023.57
557.776	12047.52
558.139	12038.03
558.502	12121.42
558.865	12110.35
559.228	12193.51
559.59	12111.02
559.953	12108.54
560.316	12146.5
560.679	12106.73
561.041	12149.67
561.404	12153.06
561.767	12122.32
562.129	12026.05
562.492	12169.33
562.854	12106.28
563.217	12154.41
563.579	12202.77
563.941	12175.43
564.304	12239.61
564.666	12267.63
565.028	12158.71
565.39	12229.21
565.753	12343.33
566.115	12282.09
566.477	12297.91
566.839	12328.87
567.201	12379.94
567.563	12333.39
567.925	12408.42
568.287	12365.03
568.648	12391.92
569.01	12405.7
569.372	12496.32
569.734	12414.07
570.095	12528.87
570.457	12485.25
570.819	12511.24
571.18	12500.62
571.542	12556.21
571.903	12525.93
572.265	12546.94
572.626	12501.75
572.987	12572.93
573.349	12623.1
573.71	12657.22
574.071	12653.83
574.432	12650.67
574.794	12703.55
575.155	12693.38
575.516	12579.49
575.877	12785.81
576.238	12607.73
576.599	12779.71
576.96	12737
577.32	12619.26
577.681	12763.66
578.042	12735.87
578.403	12775.64
578.763	12734.74
579.124	12784.23
579.485	12752.36
579.845	12753.94
580.206	12735.87
580.566	12779.25
580.927	12730.67
581.287	12811.34
581.648	12739.71
582.008	12803.89
582.368	12760.95
582.728	12757.56
583.089	12794.17
583.449	12692.48
583.809	12725.7
584.169	12765.7
584.529	12672.36
584.889	12774.06
585.249	12756.66
585.609	12687.51
585.969	12773.38
586.329	12725.7
586.688	12723.44
587.048	12660.16
587.408	12697.45
587.768	12612.03
588.127	12704
588.487	12576.77
588.846	12639.15
589.206	12534.06
589.565	12525.7
589.925	12643.44
590.284	12656.77
590.643	12587.62
591.003	12569.54
591.362	12693.83
591.721	12541.97
592.08	12502.88
592.44	12622.87
592.799	12566.15
593.158	12542.2
593.517	12564.57
593.876	12605.7
594.235	12517.57
594.593	12550.56
594.952	12592.59
595.311	12474.63
595.67	12554.18
596.029	12677.34
596.387	12619.03
596.746	12627.62
597.104	12515.98
597.463	12624.46
597.822	12663.55
598.18	12553.27
598.538	12487.51
598.897	12613.38
599.255	12481.64
599.613	12627.62
599.972	12588.52
600.33	12559.83
600.688	12418.13
601.046	12590.11
601.404	12603.67
601.762	12598.47
602.12	12575.42
602.478	12499.71
602.836	12549.43
603.194	12537.23
603.552	12535.42
603.91	12542.88
604.268	12555.98
604.625	12518.47
604.983	12536.77
605.341	12515.08
605.698	12558.7
606.056	12553.27
606.413	12501.97
606.771	12577.45
607.128	12595.3
607.485	12529.54
607.843	12568.86
608.2	12569.77
608.557	12561.86
608.914	12606.6
609.272	12595.98
609.629	12696.32
609.986	12677.11
610.343	12545.36
610.7	12703.32
611.057	12704.23
611.414	12699.03
611.771	12727.28
612.127	12784.23
612.484	12749.42
612.841	12765.24
613.198	12754.4
613.554	12738.8
613.911	12770.67
614.267	12773.6
614.624	12825.35
614.98	12797.11
615.337	12840.04
615.693	12833.72
616.05	12730.44
616.406	12849.31
616.762	12835.75
617.118	12806.15
617.475	12838.46
617.831	12840.5
618.187	12884.34
618.543	12829.42
618.899	13009.53
619.255	12846.82
619.611	12891.57
619.967	12963.88
620.323	12960.94
620.678	12891.12
621.034	12914.62
621.39	12850.66
621.746	12882.53
622.101	13053.15
622.457	12826.26
622.812	12952.81
623.168	12991.9
623.523	12927.05
623.879	13035.07
624.234	12934.73
624.589	13028.29
624.945	12966.82
625.3	12996.88
625.655	12988.97
626.01	12983.32
626.365	12945.35
626.72	12876.2
627.075	12931.79
627.43	12943.77
627.785	12884.79
628.14	12908.97
628.495	12874.85
628.85	12888.86
629.205	12895.18
629.559	12939.93
629.914	12866.94
630.269	12860.38
630.623	12849.76
630.978	12798.69
631.332	12851.34
631.687	12855.86
632.041	12810.44
632.396	12802.08
632.75	12746.03
633.104	12778.35
633.459	12717.56
633.813	12706.04
634.167	12745.58
634.521	12720.95
634.875	12675.98
635.229	12678.47
635.583	12565.7
635.937	12644.57
636.291	12659.94
636.645	12646.15
636.999	12583.55
637.352	12600.05
637.706	12637.34
638.06	12556.21
638.413	12545.59
638.767	12509.2
639.121	12624
639.474	12517.57
639.828	12456.33
640.181	12506.04
640.534	12502.88
640.888	12493.39
641.241	12407.51
641.594	12427.63
641.947	12456.55
642.301	12452.03
642.654	12342.66
643.007	12400.06
643.36	12329.1
643.713	12297.46
644.066	12442.77
644.419	12384.01
644.771	12261.53
645.124	12183.11
645.477	12192.6
645.83	12034.42
646.182	11979.73
646.535	11985.6
646.888	12007.98
647.24	11918.94
647.593	11932.5
647.945	12009.78
648.298	11887.98
648.65	11923.01
649.002	11858.83
649.355	11919.16
649.707	11870.8
650.059	11955.32
650.411	12075.77
650.763	12143.11
651.115	12271.92
651.467	12212.72
651.819	12264.92
652.171	12237.35
652.523	12193.51
652.875	12145.6
653.227	12165.94
653.578	12207.52
653.93	12197.35
654.282	12183.34
654.633	12197.12
654.985	12145.6
655.337	12153.73
655.688	12181.08
656.039	12255.88
656.391	12174.3
656.742	12156.22
657.094	12182.89
657.445	12215.2
657.796	12180.4
658.147	12131.14
658.498	12116.67
658.849	12170.91
659.2	12229.89
659.551	12112.15
659.902	12185.37
660.253	12149.21
660.604	12168.87
660.955	12138.14
661.306	12188.31
661.656	12163.23
662.007	12150.12
662.358	12111.93
662.708	12199.83
663.059	12146.5
663.409	12073.74
663.76	12164.36
664.11	12174.07
664.461	12254.3
664.811	12176.33
665.161	12174.52
665.511	12227.4
665.862	12218.37
666.212	12228.08
666.562	12226.27
666.912	12208.42
667.262	12163.9
667.612	12226.27
667.962	12246.84
668.312	12215.2
668.662	12313.28
669.011	12193.06
669.361	12193.51
669.711	12183.11
670.06	12213.17
670.41	12191.93
670.76	12189.21
671.109	12226.05
671.459	12169.55
671.808	12150.34
672.157	12189.44
672.507	12143.34
672.856	12167.07
673.205	12116.22
673.554	12122.77
673.904	12082.32
674.253	12128.42
674.602	12136.79
674.951	11937.02
675.3	11814.08
675.649	11959.16
675.998	11995.09
676.346	12055.21
676.695	12057.69
677.044	11941.54
677.393	11922.55
677.741	11951.71
678.09	11890.24
678.438	11933.17
678.787	11913.74
679.135	11974.3
679.484	11796.91
679.832	11923.01
680.181	11856.11
680.529	11855.66
680.877	11837.13
681.225	11784.48
681.573	11902.44
681.922	11788.77
682.27	11741.77
682.618	11728.89
682.966	11718.94
683.314	11766.17
683.661	11695.89
684.009	11570.25
684.357	11602.56
684.705	11567.99
685.053	11598.27
685.4	11481.21
685.748	11536.8
686.095	11485.73
686.443	11462
686.79	11429.46
687.138	11387.65
687.485	11443.24
687.832	11379.52
688.18	11368.44
688.527	11275.79
688.874	11208.67
689.221	11263.81
689.568	11210.26
689.915	11242.12
690.262	11159.64
690.609	11182.46
690.956	11123.93
691.303	11075.12
691.65	11071.95
691.997	10969.36
692.344	11002.35
692.69	10953.99
693.037	10944.27
693.383	10879.87
693.73	10875.8
694.077	10818.63
694.423	10833.54
694.769	10761.45
695.116	10729.59
695.462	10710.16
695.808	10704.73
696.155	10648.69
696.501	10537.28
696.847	10504.06
697.193	10535.47
697.539	10566.66
697.885	10477.39
698.231	10444.4
698.577	10385.65
698.923	10404.4
699.269	10281.24
699.614	10259.77
699.96	10266.55
700.306	10274.69
700.651	10143.39
700.997	10146.78
701.342	10089.38
701.688	10129.15
702.033	10071.98
702.379	10036.05
702.724	9993.11
703.069	9990.4
703.415	9906.56
703.76	9895.49
704.105	9810.29
704.45	9865.66
704.795	9784.98
705.14	9707.47
705.485	9746.79
705.83	9638.55
706.175	9725.78
706.52	9716.28
706.865	9641.48
707.209	9639.45
707.554	9541.15
707.899	9546.35
708.243	9530.07
708.588	9558.77
708.932	9358.55
709.277	9440.59
709.621	9389.51
709.966	9375.73
710.31	9453.92
710.654	9287.37
710.998	9350.19
711.342	9312
711.687	9296.86
712.031	9165.34
712.375	9191.1
712.719	9234.49
713.063	9185
713.407	9229.74
713.75	9196.98
714.094	9117.43
714.438	9068.62
714.782	9091.89
715.125	9032.01
715.469	9060.48
715.812	8975.29
716.156	9010.99
716.499	8994.95
716.843	9023.19
717.186	8899.58
717.53	8996.98
717.873	8961.05
718.216	8943.65
718.559	8869.3
718.902	8851.9
719.246	8860.49
719.589	8873.14
719.932	8866.14
720.275	8819.81
720.617	8844.89
720.96	8815.97
721.303	8778.23
721.646	8766.25
721.989	8748.17
722.331	8778.91
722.674	8713.15
723.016	8776.42
723.359	8721.73
723.701	8731
724.044	8683.32
724.386	8678.35
724.729	8713.82
725.071	8669.08
725.413	8716.54
725.755	8688.51
726.097	8598.57
726.439	8577.78
726.782	8600.61
727.124	8649.65
727.465	8576.43
727.807	8635.41
728.149	8580.49
728.491	8563.55
728.833	8647.61
729.175	8546.82
729.516	8518.35
729.858	8522.19
730.199	8569.2
730.541	8532.59
730.882	8564.68
731.224	8567.84
731.565	8566.26
731.906	8479.48
732.248	8537.33
732.589	8454.85
732.93	8460.72
733.271	8469.54
733.612	8422.08
733.953	8499.82
734.294	8500.95
734.635	8508.86
734.976	8542.3
735.317	8439.26
735.658	8502.08
735.999	8492.36
736.339	8512.93
736.68	8507.28
737.021	8466.83
737.361	8471.57
737.702	8521.29
738.042	8517.67
738.383	8496.66
738.723	8610.55
739.063	8496.43
739.404	8506.82
739.744	8571.46
740.084	8552.02
740.424	8572.81
740.764	8574.85
741.104	8636.09
741.444	8554.73
741.784	8565.58
742.124	8610.55
742.464	8600.61
742.804	8658.68
743.143	8645.35
743.483	8648.74
743.823	8634.05
744.162	8688.97
744.502	8735.52
744.841	8702.53
745.181	8727.16
745.52	8813.26
745.86	8847.15
746.199	8840.83
746.538	8902.97
746.877	8880.15
747.216	8934.38
747.556	8958.11
747.895	9010.54
748.234	8975.51
748.573	9053.02
748.911	9129.41
749.25	9171.21
749.589	9185.68
749.928	9295.96
750.267	9321.94
750.605	9319.23
750.944	9463.64
751.283	9436.52
751.621	9582.05
751.96	9613.46
752.298	9748.37
752.636	9737.98
752.975	9801.93
753.313	9884.64
753.651	10032.21
753.989	10092.32
754.327	10139.1
754.666	10199.21
755.004	10363.27
755.342	10543.38
755.679	10530.5
756.017	10609.14
756.355	10739.31
756.693	10885.74
757.031	11007.55
757.368	11037.83
757.706	11193.76
758.044	11328.45
758.381	11527.08
758.719	11556.24
759.056	11715.78
759.394	11869
759.731	11904.02
760.068	12030.12
760.405	12214.98
760.743	12317.35
761.08	12440.05
761.417	12576.32
761.754	12812.02
762.091	12879.59
762.428	12964.56
762.765	13024.22
763.102	13325
763.438	13375.17
763.775	13414.27
764.112	13638.67
764.449	13874.37
764.785	13886.12
765.122	13967.92
765.458	14096.51
765.795	14183.96
766.131	14434.13
766.467	14388.03
766.804	14600.22
767.14	14694.23
767.476	14776.49
767.812	14863.72
768.148	15094.22
768.485	15040.21
768.821	15128.12
769.157	15251.51
769.492	15342.8
769.828	15455.57
770.164	15507.32
770.5	15604.04
770.836	15698.5
771.171	15730.82
771.507	15856.91
771.842	15870.25
772.178	16009.68
772.513	16107.98
772.849	16118.38
773.184	16081.09
773.519	16267.98
773.855	16177.81
774.19	16307.07
774.525	16393.62
774.86	16410.8
775.195	16434.53
775.53	16415.54
775.865	16451.02
776.2	16480.63
776.535	16495.09
776.87	16564.01
777.205	16531.47
777.539	16564.69
777.874	16666.38
778.209	16616.89
778.543	16639.94
778.878	16620.06
779.212	16638.36
779.547	16650.57
779.881	16690.56
780.215	16719.72
780.55	16735.08
780.884	16681.3
781.218	16778.7
781.552	16786.15
781.886	16745.03
782.22	16706.83
782.554	16646.95
782.888	16535.09
783.222	16630.23
783.556	16588.19
783.889	16489.21
784.223	16499.16
784.557	16606.05
784.89	16568.31
785.224	16503.9
785.557	16494.18
785.891	16471.81
786.224	16484.47
786.558	16495.31
786.891	16359.27
787.224	16387.07
787.557	16397.46
787.891	16302.1
788.224	16380.97
788.557	16394.53
788.89	16381.19
789.223	16329.67
789.556	16238.82
789.888	16162.44
790.221	16214.64
790.554	16136.45
790.887	16063.91
791.219	16051.94
791.552	16053.07
791.884	15995.89
792.217	16028.21
792.549	15900.98
792.882	15877.93
793.214	15839.06
793.546	15851.04
793.879	15756.8
794.211	15701.44
794.543	15782.57
794.875	15695.79
795.207	15768.55
795.539	15707.09
795.871	15658.73
796.203	15490.82
796.535	15502.35
796.867	15483.82
797.198	15405.85
797.53	15418.73
797.862	15342.35
798.193	15317.27
798.525	15409.02
798.856	15311.17
799.188	15234.78
799.519	15184.16
799.85	15126.76
800.182	15194.78
800.513	15136.71
800.844	14977.16
801.175	15103.04
801.506	15113.66
801.837	15062.13
802.168	14921.8
802.499	14892.19
802.83	14812.87
803.161	14770.84
803.491	14855.58
803.822	14844.51
804.153	14685.42
804.483	14628.02
804.814	14631.18
805.145	14631.64
805.475	14581.01
805.805	14605.2
806.136	14538.08
806.466	14474.58
806.796	14562.71
807.126	14353.22
807.457	14400.91
807.787	14425.09
808.117	14305.77
808.447	14228.48
808.777	14250.18
809.107	14232.55
809.436	14239.33
809.766	14185.09
810.096	14140.57
810.426	14136.73
810.755	14053.12
811.085	14067.58
811.414	14017.87
811.744	14006.79
812.073	13987.58
812.403	13872.78
812.732	13888.6
813.061	13891.99
813.39	13811.77
813.719	13750.53
814.049	13870.07
814.378	13781.94
814.707	13694.71
815.036	13662.4
815.365	13614.71
815.693	13490.2
816.022	13584.43
816.351	13530.2
816.68	13398.22
817.008	13454.72
817.337	13307.15
817.665	13356.19
817.994	13413.59
818.322	13378.56
818.651	13211.56
818.979	13336.53
819.307	13322.29
819.636	13300.6
819.964	13222.18
820.292	13290.43
820.62	13287.04
820.948	13205.46
821.276	13254.27
821.604	13158.68
821.932	13241.62
822.259	13224.44
822.587	13213.37
822.915	13152.13
823.243	13227.6
823.57	13227.83
823.898	13145.8
824.225	13170.43
824.553	13153.93
824.88	13186.7
825.207	13173.14
825.535	13136.08
825.862	13208.85
826.189	13202.29
826.516	13276.42
826.843	13205.68
827.17	13171.33
827.497	13255.63
827.824	13153.26
828.151	13208.85
828.478	13230.54
828.805	13250.43
829.131	13240.03
829.458	13219.69
829.785	13149.19
830.111	13156.42
830.438	13222.86
830.764	13197.1
831.09	13191.22
831.417	13171.11
831.743	13186.48
832.069	13233.48
832.395	13114.84
832.722	13186.93
833.048	13154.16
833.374	13174.27
833.7	13115.52
834.026	13123.88
834.351	13118.68
834.677	13150.09
835.003	13163.65
835.329	13108.96
835.654	13095.63
835.98	13029.42
836.306	13002.75
836.631	12901.06
836.956	13036.65
837.282	12891.57
837.607	12972.47
837.932	12973.83
838.258	12948.52
838.583	12936.54
838.908	12834.85
839.233	12866.48
839.558	12809.08
839.883	12767.73
840.208	12791.91
840.533	12730.44
840.858	12709.88
841.182	12728.41
841.507	12651.57
841.832	12689.31
842.156	12678.24
842.481	12640.5
842.805	12668.97
843.13	12531.35
843.454	12532.71
843.778	12521.18
844.103	12499.71
844.427	12414.29
844.751	12414.74
845.075	12407.51
845.399	12316.67
845.723	12359.38
846.047	12229.66
846.371	12252.71
846.695	12186.05
847.019	12146.05
847.343	12129.1
847.666	12054.08
847.99	11911.25
848.313	11897.47
848.637	11848.66
848.96	11868.09
849.284	11870.58
849.607	11699.06
849.931	11711.03
850.254	11643.24
850.577	11581.55
850.9	11500.42
851.223	11530.7
851.546	11489.12
851.869	11486.63
852.192	11373.42
852.515	11333.64
852.838	11285.51
853.161	11282.8
853.483	11229.46
853.806	11186.08
854.129	11149.24
854.451	11167.55
854.774	11090.94
855.096	11039.64
855.419	10945.18
855.741	10958.29
856.063	10932.52
856.385	10951.51
856.708	10861.34
857.03	10826.76
857.352	10888
857.674	10780.44
857.996	10750.61
858.318	10719.87
858.64	10710.16
858.961	10698.86
859.283	10629.93
859.605	10612.76
859.926	10573.44
860.248	10499.54
860.57	10510.84
860.891	10487.11
861.212	10365.76
861.534	10463.61
861.855	10445.76
862.176	10366.21
862.498	10487.11
862.819	10394.68
863.14	10326.21
863.461	10313.56
863.782	10274.01
864.103	10325.31
864.424	10263.16
864.745	10251.19
865.065	10151.07
865.386	10173
865.707	10159.66
866.027	10155.14
866.348	10149.49
866.668	10166.44
866.989	10115.82
867.309	10068.82
867.63	10048.48
867.95	10047.35
868.27	10009.38
868.59	10034.47
868.91	10037.18
869.23	10040.57
869.55	10007.12
869.87	9990.85
870.19	9956.73
870.51	10041.47
870.83	9897.3
871.15	9913.57
871.469	9883.06
871.789	9920.12
872.109	9875.38
872.428	9840.57
872.748	9841.03
873.067	9816.85
873.386	9806.45
873.706	9869.73
874.025	9776.17
874.344	9699.56
874.663	9707.92
874.982	9716.74
875.301	9722.16
875.62	9626.12
875.939	9654.36
876.258	9577.3
876.577	9565.78
876.896	9594.25
877.214	9551.32
877.533	9618.89
877.852	9536.63
878.17	9574.37
878.489	9541.83
878.807	9579.79
879.125	9488.95
879.444	9511.77
879.762	9454.82
880.08	9496.63
880.398	9432.9
880.716	9444.65
881.034	9386.12
881.352	9367.37
881.67	9333.24
881.988	9398.1
882.306	9322.85
882.624	9293.47
882.941	9311.55
883.259	9243.98
883.577	9252.12
883.894	9159.69
884.212	9198.33
884.529	9202.85
884.846	9067.71
885.164	9138.45
885.481	9121.95
885.798	9099.35
886.115	9039.47
886.432	9116.07
886.75	8997.21
887.067	9024.55
887.383	9030.2
887.7	9016.64
888.017	8893.71
888.334	9004.66
888.651	8939.36
888.967	8889.19
889.284	8863.88
889.6	8785.91
889.917	8724.67
890.233	8757.21
890.55	8713.82
890.866	8708.63
891.182	8718.57
891.498	8666.59
891.815	8618.91
892.131	8635.18
892.447	8601.06
892.763	8574.85
893.079	8565.81
893.395	8513.83
893.71	8493.04
894.026	8482.64
894.342	8430.67
894.657	8380.05
894.973	8381.18
895.289	8317
895.604	8364.68
895.92	8268.41
896.235	8230.22
896.55	8204.46
896.865	8222.76
897.181	8213.72
897.496	8252.37
897.811	8108.64
898.126	8114.07
898.441	8109.55
898.756	8072.03
899.071	8013.28
899.386	8062.77
899.7	7969.89
900.015	7908.87
900.33	7899.16
900.644	7844.92
900.959	7867.97
901.273	7865.71
901.588	7804.7
901.902	7726.73
902.216	7743
902.531	7714.3
902.845	7744.81
903.159	7607.19
903.473	7614.64
903.787	7622.1
904.101	7568.09
904.415	7542.1
904.729	7509.79
905.042	7485.38
905.356	7445.38
905.67	7411.94
905.984	7369
906.297	7371.04
906.611	7309.34
906.924	7303.01
907.237	7253.3
907.551	7266.18
907.864	7196.12
908.177	7144.37
908.491	7174.2
908.804	7107.09
909.117	7090.82
909.43	7054.89
909.743	7058.5
910.056	6989.58
910.368	6997.71
910.681	6960.65
910.994	6933.08
911.307	6905.06
911.619	6900.54
911.932	6818.06
912.244	6802.69
912.557	6792.07
912.869	6706.65
913.181	6724.27
913.494	6700.54
913.806	6649.47
914.118	6676.82
914.43	6626.2
914.742	6613.99
915.054	6544.62
915.366	6536.71
915.678	6486.31
915.99	6490.61
916.302	6462.81
916.613	6415.58
916.925	6395.02
917.236	6394.34
917.548	6343.27
917.859	6320.89
918.171	6253.55
918.482	6283.38
918.794	6278.63
919.105	6203.61
919.416	6162.71
919.727	6136.27
920.038	6191.86
920.349	6148.47
920.66	6070.73
920.971	6068.24
921.282	6030.51
921.593	6035.02
921.903	6008.81
922.214	5984.18
922.525	5957.74
922.835	5959.55
923.146	5907.57
923.456	5867.35
923.767	5853.33
924.077	5906.21
924.387	5801.13
924.697	5810.17
925.008	5825.76
925.318	5777.86
925.628	5688.37
925.938	5794.58
926.248	5646.11
926.558	5656.05
926.867	5634.36
927.177	5630.97
927.487	5609.5
927.796	5551.87
928.106	5533.12
928.416	5555.26
928.725	5540.57
929.034	5459.22
929.344	5447.24
929.653	5458.99
929.962	5439.79
930.271	5415.15
930.581	5423.74
930.89	5369.51
931.199	5306.91
931.508	5329.96
931.817	5315.27
932.125	5295.16
932.434	5229.17
932.743	5192.79
933.051	5198.89
933.36	5148.72
933.669	5132.9
933.977	5111.21
934.286	5073.02
934.594	5052.9
934.902	5040.7
935.21	4991.21
935.519	5031.89
935.827	5014.49
936.135	5042.73
936.443	4984.21
936.751	4922.06
937.059	4911.21
937.367	4913.47
937.674	4841.38
937.982	4838.22
938.29	4798.45
938.597	4813.59
938.905	4756.19
939.213	4784.21
939.52	4745.34
939.827	4769.3
940.135	4751.22
940.442	4693.14
940.749	4695.63
941.056	4658.79
941.363	4658.56
941.67	4630.54
941.977	4629.19
942.284	4571.11
942.591	4542.41
942.898	4514.39
943.205	4539.47
943.511	4480.26
943.818	4482.75
944.125	4443.2
944.431	4462.18
944.738	4434.16
945.044	4422.41
945.35	4353.71
945.657	4376.31
945.963	4374.5
946.269	4302.87
946.575	4337.22
946.881	4290.21
947.187	4304.9
947.493	4295.64
947.799	4257.44
948.105	4239.37
948.41	4173.15
948.716	4184.68
949.022	4198.69
949.327	4212.02
949.633	4098.58
949.938	4180.84
950.244	4120.95
950.549	4115.75
950.854	4092.7
951.16	4007.28
951.465	4044.12
951.77	4019.48
952.075	3974.29
952.38	3976.1
952.685	3976.1
952.99	3944.68
953.294	3892.26
953.599	3888.64
953.904	3851.58
954.209	3870.34
954.513	3869.21
954.818	3805.71
955.122	3854.97
955.426	3779.04
955.731	3797.57
956.035	3812.94
956.339	3774.29
956.643	3737.23
956.948	3732.26
957.252	3727.06
957.556	3706.27
957.86	3741.75
958.163	3694.75
958.467	3664.69
958.771	3638.93
959.075	3645.03
959.378	3618.14
959.682	3629.21
959.985	3580.85
960.289	3519.38
960.592	3566.16
960.896	3546.5
961.199	3540.85
961.502	3520.29
961.805	3459.5
962.108	3450.69
962.411	3464.92
962.714	3456.79
963.017	3449.33
963.32	3433.51
963.623	3413.17
963.926	3369.78
964.228	3374.3
964.531	3336.56
964.833	3344.93
965.136	3329.33
965.438	3289.79
965.741	3288.2
966.043	3290.46
966.345	3279.84
966.648	3263.35
966.95	3259.05
967.252	3219.73
967.554	3266.51
967.856	3194.87
968.158	3132.5
968.46	3180.86
968.761	3149.23
969.063	3146.97
969.365	3102.9
969.666	3126.4
969.968	3089.11
970.269	3076.01
970.571	3047.76
970.872	3081.2
971.174	3051.15
971.475	3082.11
971.776	3031.71
972.077	3039.4
972.378	3010.02
972.679	3007.08
972.98	2998.95
973.281	2964.15
973.582	2937.71
973.883	2911.72
974.183	2907.2
974.484	2958.72
974.785	2899.51
975.085	2895.67
975.386	2892.73
975.686	2825.39
975.986	2859.97
976.287	2825.17
976.587	2854.32
976.887	2842.79
977.187	2843.92
977.487	2770.48
977.787	2779.74
978.087	2773.87
978.387	2772.29
978.687	2746.75
978.987	2705.85
979.286	2706.3
979.586	2717.6
979.885	2717.6
980.185	2692.74
980.484	2655.9
980.784	2665.85
981.083	2642.57
981.382	2662.68
981.682	2624.49
981.981	2630.14
982.28	2631.95
982.579	2582.69
982.878	2597.83
983.177	2561.44
983.475	2609.8
983.774	2521.45
984.073	2558.96
984.372	2528.22
984.67	2503.59
984.969	2529.35
985.267	2504.95
985.566	2510.6
985.864	2476.47
986.162	2469.47
986.461	2451.16
986.759	2450.71
987.057	2418.85
987.355	2428.34
987.653	2438.96
987.951	2411.39
988.249	2358.29
988.547	2395.35
988.844	2366.65
989.142	2363.26
989.44	2308.57
989.737	2295.24
990.035	2320.09
990.332	2337.72
990.63	2266.08
990.927	2293.65
991.224	2254.79
991.521	2245.29
991.819	2262.47
992.116	2223.6
992.413	2241
992.71	2258.85
993.006	2216.82
993.303	2212.07
993.6	2194
993.897	2181.57
994.193	2201.68
994.49	2177.05
994.787	2142.02
995.083	2129.59
995.379	2153.77
995.676	2130.27
995.972	2105.86
996.268	2071.51
996.565	2103.38
996.861	2059.08
997.157	2066.32
997.453	2052.76
997.749	2056.82
998.044	2074.68
998.34	2020.89
998.636	2030.84
998.932	2017.96
999.227	1992.42
999.523	1985.64
999.818	1984.28
1000.114	1970.5
1000.409	1966.66
1000.704	1923.72
1001	1911.29
1001.295	1924.4
1001.59	1972.76
1001.885	1907.22
1002.18	1921.91
1002.475	1888.69
1002.77	1865.42
1003.065	1854.8
1003.359	1836.72
1003.654	1856.15
1003.949	1842.82
1004.243	1843.72
1004.538	1829.49
1004.832	1820.45
1005.127	1815.47
1005.421	1798.3
1005.715	1776.38
1006.009	1771.41
1006.304	1749.49
1006.598	1744.97
1006.892	1724.4
1007.186	1755.14
1007.48	1711.75
1007.773	1729.15
1008.067	1703.39
1008.361	1681.02
1008.655	1685.31
1008.948	1678.3
1009.242	1684.4
1009.535	1651.41
1009.829	1652.54
1010.122	1649.6
1010.415	1622.03
1010.708	1606.21
1011.001	1633.11
1011.295	1611.19
1011.588	1617.06
1011.881	1570.74
1012.173	1577.29
1012.466	1560.11
1012.759	1554.46
1013.052	1561.47
1013.344	1528.25
1013.637	1565.54
1013.93	1531.19
1014.222	1505.43
1014.514	1495.48
1014.807	1479.89
1015.099	1514.69
1015.391	1476.5
1015.683	1473.79
1015.976	1481.7
1016.268	1495.71
1016.56	1407.12
1016.851	1440.57
1017.143	1445.32
1017.435	1408.25
1017.727	1393.11
1018.018	1391.76
1018.31	1409.84
1018.602	1374.58
1018.893	1379.1
1019.185	1345.66
1019.476	1350.18
1019.767	1352.21
1020.058	1361.7
1020.35	1328.03
1020.641	1327.35
1020.932	1333.91
1021.223	1314.7
1021.514	1297.97
1021.804	1265.21
1022.095	1248.26
1022.386	1254.81
1022.677	1268.14
1022.967	1255.04
1023.258	1260.24
1023.548	1237.86
1023.839	1227.02
1024.129	1231.76
1024.419	1237.41
1024.709	1203.97
1025	1196.51
1025.29	1205.1
1025.58	1176.62
1025.87	1176.62
1026.16	1147.02
1026.449	1178.66
1026.739	1156.74
1027.029	1179.33
1027.319	1139.33
1027.608	1139.33
1027.898	1154.93
1028.187	1100.69
1028.477	1105.66
1028.766	1135.27
1029.055	1118.09
1029.344	1092.1
1029.634	1111.99
1029.923	1097.53
1030.212	1097.98
1030.501	1081.71
1030.79	1073.57
1031.078	1047.81
1031.367	1066.34
1031.656	1066.12
1031.945	1028.6
1032.233	1022.05
1032.522	1031.77
1032.81	1029.05
1033.099	1011.65
1033.387	1051.65
1033.675	995.38
1033.963	992.45
1034.251	999.45
1034.54	979.79
1034.828	976.63
1035.116	968.49
1035.403	968.49
1035.691	962.84
1035.979	949.06
1036.267	948.15
1036.554	945.67
1036.842	934.37
1037.129	944.76
1037.417	943.41
1037.704	909.96
1037.992	907.02
1038.279	904.76
1038.566	887.82
1038.853	887.82
1039.14	887.82
