Data from hue_200_FLMS001491_00083.txt Node
Date: Tue Feb 07 16:44:03 GMT 2017
User: dcchb
Spectrometer: FLMS00149
Trigger mode: 0
Integration Time (sec): 2.000000E-2
Scans to average: 10
Electric dark correction enabled: true
Nonlinearity correction enabled: false
Boxcar width: 0
XAxis mode: Wavelengths
Number of Pixels in Spectrum: 2048
>>>>>Begin Spectral Data<<<<<
341.393	-10.08
341.776	-10.08
342.16	-10.08
342.543	-73.36
342.927	-62.96
343.31	-67.03
343.693	-64.09
344.077	-47.82
344.46	-55.28
344.843	-61.61
345.226	-51.21
345.61	-38.56
345.993	-18.45
346.376	-10.54
346.759	3.47
347.142	13.19
347.525	52.74
347.908	53.19
348.291	90.03
348.674	102.23
349.057	99.74
349.44	133.19
349.823	159.63
350.206	161.89
350.588	198.5
350.971	212.06
351.354	226.07
351.737	236.46
352.119	247.99
352.502	247.08
352.884	274.43
353.267	296.35
353.65	285.95
354.032	298.83
354.414	300.87
354.797	338.61
355.179	319.62
355.562	329.12
355.944	311.94
356.326	338.61
356.709	335.44
357.091	356.46
357.473	317.36
357.855	341.09
358.238	338.61
358.62	345.16
359.002	342.45
359.384	339.51
359.766	315.1
360.148	338.61
360.53	325.73
360.912	348.78
361.294	340.87
361.676	339.06
362.057	313.75
362.439	348.55
362.821	340.41
363.203	331.15
363.584	316.91
363.966	309.46
364.348	320.98
364.729	320.53
365.111	322.79
365.493	305.39
365.874	328.66
366.256	318.95
366.637	310.36
367.019	304.94
367.4	315.1
367.781	327.76
368.163	304.94
368.544	309
368.925	302.22
369.306	313.52
369.688	307.87
370.069	287.31
370.45	313.52
370.831	322.79
371.212	315.56
371.593	308.55
371.974	311.04
372.355	306.29
372.736	303.13
373.117	337.7
373.498	333.86
373.879	302.68
374.26	320.08
374.641	307.65
375.021	301.55
375.402	301.77
375.783	331.15
376.163	337.03
376.544	325.5
376.925	324.82
377.305	309.46
377.686	309.68
378.066	301.32
378.447	344.48
378.827	311.94
379.208	319.17
379.588	337.03
379.968	324.6
380.349	333.64
380.729	336.12
381.109	347.19
381.489	359.4
381.87	341.77
382.25	338.15
382.63	349.45
383.01	340.41
383.39	355.56
383.77	356.46
384.15	352.17
384.53	347.42
384.91	345.61
385.29	335.9
385.67	362.56
386.049	349.45
386.429	353.97
386.809	353.75
387.189	362.56
387.568	351.04
387.948	354.2
388.328	349.91
388.707	359.4
389.087	358.04
389.466	367.98
389.846	356.23
390.225	372.73
390.605	353.52
390.984	391.03
391.363	373.86
391.743	374.09
392.122	385.84
392.501	388.78
392.881	391.49
393.26	377.48
393.639	381.54
394.018	390.81
394.397	384.48
394.776	396.91
395.155	389.91
395.534	389.23
395.913	389
396.292	391.49
396.671	380.64
397.05	391.26
397.429	388.1
397.808	393.75
398.186	403.24
398.565	389
398.944	407.31
399.323	414.09
399.701	411.6
400.08	425.61
400.458	429.68
400.837	417.7
401.215	412.5
401.594	403.92
401.972	456.57
402.351	417.93
402.729	421.09
403.107	446.17
403.486	466.06
403.864	447.76
404.242	462.22
404.62	462.22
404.999	465.16
405.377	464.25
405.755	464.48
406.133	471.48
406.511	487.08
406.889	470.13
407.267	466.97
407.645	476.46
408.023	494.54
408.401	496.57
408.779	523.69
409.156	517.81
409.534	522.56
409.912	521.65
410.29	552.84
410.667	543.35
411.045	551.48
411.422	577.7
411.8	565.27
412.178	565.49
412.555	573.85
412.933	596.45
413.31	609.11
413.687	611.82
414.065	621.54
414.442	641.42
414.819	636.68
415.197	652.5
415.574	652.27
415.951	682.78
416.328	676.68
416.705	700.86
417.082	685.04
417.46	682.78
417.837	724.36
418.214	746.05
418.591	743.34
418.967	755.77
419.344	760.29
419.721	755.77
420.098	770.46
420.475	772.95
420.852	808.88
421.228	819.05
421.605	814.75
421.982	841.19
422.358	831.93
422.735	857.69
423.111	887.75
423.488	897.01
423.864	907.18
424.241	941.53
424.617	981.08
424.994	968.42
425.37	960.06
425.746	993.73
426.123	999.38
426.499	1018.36
426.875	1050.9
427.251	1063.33
427.627	1071.02
428.003	1071.02
428.379	1095.42
428.756	1103.78
429.132	1113.05
429.507	1128.87
429.883	1150.56
430.259	1198.92
430.635	1184.46
431.011	1198.7
431.387	1198.7
431.763	1234.4
432.138	1238.24
432.514	1290.9
432.89	1281.86
433.265	1299.71
433.641	1332.03
434.016	1348.75
434.392	1410.44
434.767	1432.36
435.143	1408.18
435.518	1450.67
435.894	1502.64
436.269	1511.23
436.644	1540.84
437.02	1584
437.395	1585.58
437.77	1615.86
438.145	1663.09
438.52	1701.28
438.895	1694.05
439.271	1711.9
439.646	1742.19
440.021	1784.67
440.395	1796.87
440.77	1776.76
441.145	1852.24
441.52	1867.15
441.895	1883.43
442.27	1916.87
442.645	1900.15
443.019	1938.56
443.394	1980.82
443.769	2017.66
444.143	1988.06
444.518	2048.84
444.892	2047.71
445.267	2087.71
445.641	2064.89
446.016	2108.96
446.39	2179.46
446.764	2150.99
447.139	2146.47
447.513	2154.15
447.887	2195.96
448.262	2185.11
448.636	2188.5
449.01	2245.68
449.384	2253.81
449.758	2316.18
450.132	2330.42
450.506	2339.46
450.88	2368.38
451.254	2376.97
451.628	2394.37
452.002	2414.03
452.376	2420.13
452.75	2433.69
453.123	2475.27
453.497	2529.06
453.871	2570.19
454.244	2579.23
454.618	2618.32
454.992	2647.02
455.365	2631.43
455.739	2708.71
456.112	2741.48
456.486	2778.09
456.859	2796.4
457.232	2813.12
457.606	2814.02
457.979	2862.16
458.352	2910.06
458.725	2964.75
459.099	2992.77
459.472	3027.8
459.845	3022.6
460.218	3088.37
460.591	3103.05
460.964	3157.52
461.337	3192.54
461.71	3239.77
462.083	3272.77
462.456	3285.42
462.829	3332.65
463.201	3373.1
463.574	3381.92
463.947	3430.05
464.32	3493.78
464.692	3565.87
465.065	3573.78
465.438	3607.9
465.81	3644.06
466.183	3733.55
466.555	3810.83
466.928	3804.05
467.3	3814.22
467.672	3831.62
468.045	3933.99
468.417	3984.84
468.789	3994.78
469.161	4078.4
469.534	4093.76
469.906	4189.13
470.278	4223.25
470.65	4242.91
471.022	4321.1
471.394	4409.01
471.766	4438.61
472.138	4456.24
472.51	4583.02
472.882	4640.87
473.253	4701.43
473.625	4719.28
473.997	4795.89
474.369	4883.35
474.74	4893.06
475.112	4977.13
475.484	5094.87
475.855	5163.34
476.227	5187.07
476.598	5288.31
476.97	5387.51
477.341	5470
477.713	5493.27
478.084	5578.24
478.455	5742.08
478.827	5716.54
479.198	5917.22
479.569	5894.62
479.94	6071.79
480.311	6081.28
480.682	6205.12
481.053	6318.79
481.424	6431.78
481.795	6479.69
482.166	6581.15
482.537	6677.65
482.908	6787.48
483.279	6796.74
483.65	6899.34
484.021	7062.5
484.391	7140.91
484.762	7242.83
485.133	7219.78
485.503	7343.17
485.874	7463.17
486.244	7482.83
486.615	7630.62
486.985	7720.11
487.356	7881.01
487.726	7869.48
488.097	8075.35
488.467	8029.25
488.837	8229.47
489.207	8312.86
489.578	8429.47
489.948	8469.24
490.318	8580.42
490.688	8586.07
491.058	8677.82
491.428	8785.39
491.798	8902.22
492.168	8991.26
492.538	9050.47
492.908	9130.24
493.278	9210.24
493.648	9179.28
494.017	9334.3
494.387	9349.9
494.757	9425.37
495.126	9490.68
495.496	9536.56
495.866	9573.39
496.235	9694.75
496.605	9743.11
496.974	9784.91
497.344	9819.26
497.713	9884.8
498.082	9939.03
498.452	10033.72
498.821	10087.28
499.19	9985.13
499.559	10112.59
499.928	10117.11
500.298	10172.25
500.667	10317.78
501.036	10266.71
501.405	10302.86
501.774	10257.44
502.143	10433.48
502.512	10408.4
502.88	10471.45
503.249	10459.47
503.618	10466.25
503.987	10576.76
504.356	10539.69
504.724	10607.72
505.093	10586.93
505.462	10644.55
505.83	10645.91
506.199	10732.01
506.567	10785.11
506.936	10827.82
507.304	10859.91
507.672	10934.26
508.041	10914.6
508.409	10943.07
508.777	10990.53
509.145	11087.7
509.514	11057.42
509.882	11094.26
510.25	11075.5
510.618	11099.68
510.986	11098.78
511.354	11102.84
511.722	11198.43
512.09	11247.25
512.458	11212.22
512.826	11227.36
513.193	11259.68
513.561	11243.63
513.929	11277.75
514.297	11351.2
514.664	11376.96
515.032	11352.33
515.4	11374.25
515.767	11404.08
516.135	11433.46
516.502	11324.08
516.869	11527.69
517.237	11562.72
517.604	11480.46
517.972	11510.06
518.339	11577.18
518.706	11565.2
519.073	11517.97
519.44	11521.36
519.808	11576.96
520.175	11544.41
520.542	11542.38
520.909	11634.58
521.276	11560.68
521.643	11635.26
522.009	11673.22
522.376	11631.64
522.743	11639.55
523.11	11828.93
523.477	11791.41
523.843	11765.2
524.21	11825.54
524.577	11873.67
524.943	11874.35
525.31	11815.82
525.676	11860.11
526.043	11891.75
526.409	11884.97
526.776	11982.37
527.142	11850.39
527.508	11887.91
527.874	11910.73
528.241	11875.7
528.607	11861.24
528.973	11955.7
529.339	11789.61
529.705	11875.7
530.071	11811.07
530.437	11918.87
530.803	11892.43
531.169	11875.25
531.535	11810.17
531.901	11840.23
532.267	11741.02
532.632	11818.08
532.998	11753.67
533.364	11709.83
533.73	11719.1
534.095	11728.36
534.461	11623.73
534.826	11709.83
535.192	11657.86
535.557	11687.69
535.923	11499.22
536.288	11580.8
536.653	11527.01
537.019	11518.65
537.384	11455.83
537.749	11441.59
538.114	11353.01
538.479	11354.81
538.845	11261.71
539.21	11267.13
539.575	11250.18
539.94	11266.46
540.305	11230.52
540.67	11093.8
541.034	11096.97
541.399	11098.55
541.764	11016.29
542.129	10960.25
542.494	10980.36
542.858	10969.51
543.223	10859.46
543.587	10882.28
543.952	10779.46
544.316	10823.98
544.681	10694.27
545.045	10702.18
545.41	10617.88
545.774	10584.67
546.138	10531.56
546.503	10555.51
546.867	10483.88
547.231	10428.29
547.595	10361.17
547.959	10419.47
548.324	10317.1
548.688	10275.97
549.052	10263.32
549.416	10167.05
549.779	10176.31
550.143	10102.64
550.507	10137.9
550.871	10094.06
551.235	10063.55
551.599	10084.34
551.962	9945.81
552.326	9962.08
552.689	9909.88
553.053	9881.86
553.417	9856.55
553.78	9898.81
554.143	9742.43
554.507	9740.85
554.87	9754.86
555.234	9790.79
555.597	9725.03
555.96	9713.05
556.323	9678.47
556.686	9614.07
557.05	9675.54
557.413	9684.35
557.776	9616.78
558.139	9591.02
558.502	9564.81
558.865	9560.51
559.228	9540.85
559.59	9525.03
559.953	9486.39
560.316	9607.74
560.679	9554.64
561.041	9549.89
561.404	9505.15
561.767	9579.27
562.129	9419.72
562.492	9525.26
562.854	9425.6
563.217	9441.19
563.579	9435.32
563.941	9435.99
564.304	9487.07
564.666	9447.75
565.028	9452.49
565.39	9477.35
565.753	9523
566.115	9466.05
566.477	9514.64
566.839	9403
567.201	9513.05
567.563	9504.02
567.925	9466.5
568.287	9435.32
568.648	9567.97
569.01	9510.57
569.372	9635.99
569.734	9477.12
570.095	9551.92
570.457	9512.38
570.819	9610.23
571.18	9558.03
571.542	9636.89
571.903	9541.53
572.265	9506.05
572.626	9589.21
572.987	9559.83
573.349	9626.72
573.71	9610.91
574.071	9567.29
574.432	9651.58
574.794	9643.9
575.155	9623.79
575.516	9545.82
575.877	9589.66
576.238	9557.35
576.599	9644.8
576.96	9576.1
577.32	9629.66
577.681	9619.27
578.042	9668.76
578.403	9630.79
578.763	9608.19
579.124	9581.53
579.485	9662.88
579.845	9624.24
580.206	9630.11
580.566	9675.54
580.927	9653.39
581.287	9608.87
581.648	9592.15
582.008	9664.24
582.368	9579.04
582.728	9556.9
583.089	9574.52
583.449	9664.46
583.809	9587.18
584.169	9590.34
584.529	9613.84
584.889	9658.14
585.249	9519.38
585.609	9471.7
585.969	9683.9
586.329	9587.4
586.688	9504.69
587.048	9534.3
587.408	9578.59
587.768	9644.35
588.127	9531.81
588.487	9545.14
588.846	9574.3
589.206	9478.71
589.565	9507.41
589.925	9593.05
590.284	9529.78
590.643	9492.26
591.003	9553.96
591.362	9584.01
591.721	9522.55
592.08	9530.23
592.44	9538.82
592.799	9543.79
593.158	9486.84
593.517	9498.37
593.876	9508.08
594.235	9466.28
594.593	9486.39
594.952	9486.84
595.311	9519.16
595.67	9522.09
596.029	9563.9
596.387	9495.43
596.746	9557.8
597.104	9432.38
597.463	9467.63
597.822	9474.86
598.18	9400.52
598.538	9411.59
598.897	9477.58
599.255	9451.59
599.613	9542.43
599.972	9452.72
600.33	9474.64
600.688	9448.88
601.046	9454.3
601.404	9478.48
601.762	9447.52
602.12	9505.6
602.478	9492.94
602.836	9439.84
603.194	9462.89
603.552	9505.37
603.91	9401.65
604.268	9412.49
604.625	9455.66
604.983	9464.24
605.341	9408.42
605.698	9383.11
606.056	9446.39
606.413	9443.9
606.771	9412.27
607.128	9430.8
607.485	9443.68
607.843	9405.04
608.2	9469.67
608.557	9484.13
608.914	9477.58
609.272	9516.9
609.629	9534.3
609.986	9548.08
610.343	9485.03
610.7	9562.77
611.057	9595.09
611.414	9549.89
611.771	9545.37
612.127	9611.81
612.484	9577.23
612.841	9535.43
613.198	9524.81
613.554	9568.42
613.911	9649.77
614.267	9618.59
614.624	9558.03
614.98	9540.85
615.337	9612.26
615.693	9647.74
616.05	9582.66
616.406	9704.46
616.762	9603.67
617.118	9646.61
617.475	9635.09
617.831	9644.12
618.187	9627.63
618.543	9654.07
618.899	9668.53
619.255	9711.69
619.611	9639.38
619.967	9720.06
620.323	9687.74
620.678	9674.86
621.034	9649.77
621.39	9642.54
621.746	9606.61
622.101	9780.39
622.457	9637.35
622.812	9720.06
623.168	9729.55
623.523	9613.17
623.879	9698.13
624.234	9654.52
624.589	9638.93
624.945	9745.59
625.3	9631.7
625.655	9681.86
626.01	9648.19
626.365	9701.52
626.72	9654.97
627.075	9678.02
627.43	9673.28
627.785	9676.67
628.14	9690.68
628.495	9684.58
628.85	9649.77
629.205	9603
629.559	9634.18
629.914	9634.63
630.269	9635.76
630.623	9584.92
630.978	9596.44
631.332	9571.13
631.687	9622.2
632.041	9514.41
632.396	9650
632.75	9520.29
633.104	9525.48
633.459	9436.67
633.813	9513.28
634.167	9515.09
634.521	9482.55
634.875	9503.11
635.229	9463.56
635.583	9348.99
635.937	9452.94
636.291	9426.28
636.645	9406.17
636.999	9403.68
637.352	9484.81
637.706	9370.46
638.06	9378.6
638.413	9352.16
638.767	9274.19
639.121	9364.36
639.474	9372.27
639.828	9383.57
640.181	9344.25
640.534	9273.29
640.888	9302.21
641.241	9219.73
641.594	9294.08
641.947	9331.36
642.301	9274.64
642.654	9205.49
643.007	9186.28
643.36	9219.5
643.713	9192.61
644.066	9243.01
644.419	9172.5
644.771	9196.68
645.124	9040.98
645.477	9013.63
645.83	8960.08
646.182	8990.81
646.535	8890.7
646.888	8965.95
647.24	8882.34
647.593	8955.78
647.945	8905.84
648.298	8958.95
648.65	8905.16
649.002	8824.49
649.355	8946.74
649.707	8852.06
650.059	8940.64
650.411	9061.09
650.763	9037.14
651.115	9161.43
651.467	9097.02
651.819	9137.7
652.171	9103.12
652.523	9046.17
652.875	9124.82
653.227	9039.17
653.578	9157.58
653.93	9075.55
654.282	9063.35
654.633	9119.39
654.985	9059.73
655.337	9052.95
655.688	9136.57
656.039	9069.45
656.391	9110.35
656.742	8972.5
657.094	9085.95
657.445	9142.67
657.796	9104.03
658.147	9098.15
658.498	9047.76
658.849	9111.03
659.2	9069.45
659.551	9076.68
659.902	9125.72
660.253	9078.49
660.604	9184.7
660.955	9079.39
661.306	9134.99
661.656	9113.52
662.007	9137.25
662.358	9083.91
662.708	9141.09
663.059	9137.02
663.409	9047.08
663.76	9167.53
664.11	9178.6
664.461	9108.55
664.811	9157.58
665.161	9174.31
665.511	9142.44
665.862	9146.51
666.212	9192.16
666.562	9186.96
666.912	9156.23
667.262	9104.93
667.612	9137.7
667.962	9127.53
668.312	9092.28
668.662	9237.58
669.011	9093.63
669.361	9129.56
669.711	9101.31
670.06	9114.87
670.41	9069.68
670.76	9073.07
671.109	9141.77
671.459	9101.54
671.808	9044.37
672.157	9136.57
672.507	9071.48
672.856	9077.13
673.205	9061.54
673.554	9097.02
673.904	9067.19
674.253	9117.36
674.602	9029.23
674.951	9002.79
675.3	8928.21
675.649	9024.71
675.998	9012.73
676.346	9019.96
676.695	9001.88
677.044	8965.95
677.393	8951.94
677.741	8928.21
678.09	9009.34
678.438	8980.41
678.787	8909.91
679.135	8915.78
679.484	8812.73
679.832	8889.12
680.181	8839.85
680.529	8950.58
680.877	8828.33
681.225	8795.11
681.573	8893.41
681.922	8795.11
682.27	8783.58
682.618	8773.41
682.966	8759.85
683.314	8799.4
683.661	8715.79
684.009	8734.32
684.357	8747.2
684.705	8614.32
685.053	8673.53
685.4	8649.35
685.748	8551.72
686.095	8596.47
686.443	8582.23
686.79	8538.62
687.138	8570.71
687.485	8556.7
687.832	8466.75
688.18	8475.34
688.527	8447.09
688.874	8385.4
689.221	8392.86
689.568	8367.1
689.915	8423.14
690.262	8381.56
690.609	8300.88
690.956	8358.28
691.303	8289.81
691.65	8182.24
691.997	8203.48
692.344	8157.84
692.69	8175.91
693.037	8173.66
693.383	8119.87
693.73	8139.76
694.077	8045.3
694.423	8032.42
694.769	8027.44
695.116	8009.59
695.462	8035.58
695.808	7950.61
696.155	7963.94
696.501	7907.22
696.847	7885.3
697.193	7822.7
697.539	7748.81
697.885	7782.48
698.231	7747.9
698.577	7733.44
698.923	7681.69
699.269	7628.13
699.614	7602.82
699.96	7567.8
700.306	7611.18
700.651	7540.68
700.997	7497.74
701.342	7450.74
701.688	7474.24
702.033	7436.05
702.379	7384.98
702.724	7396.95
703.069	7388.37
703.415	7293.9
703.76	7292.1
704.105	7264.98
704.45	7288.25
704.795	7223.62
705.14	7191.08
705.485	7174.36
705.83	7123.74
706.175	7139.33
706.52	7128.48
706.865	7111.31
707.209	7091.42
707.554	7067.02
707.899	7075.83
708.243	7044.65
708.588	7034.48
708.932	6917.87
709.277	6919.22
709.621	6952.9
709.966	6902.28
710.31	6893.91
710.654	6885.55
710.998	6942.95
711.342	6877.64
711.687	6793.13
712.031	6831.32
712.375	6724.65
712.719	6790.19
713.063	6762.84
713.407	6788.15
713.75	6738.21
714.094	6776.18
714.438	6738.66
714.782	6758.78
715.125	6681.94
715.469	6726.01
715.812	6690.3
716.156	6652.11
716.499	6693.92
716.843	6610.76
717.186	6556.52
717.53	6648.72
717.873	6618.67
718.216	6591.55
718.559	6541.38
718.902	6521.5
719.246	6622.06
719.589	6560.36
719.932	6531.66
720.275	6549.29
720.617	6462.97
720.96	6484.66
721.303	6496.64
721.646	6490.99
721.989	6464.32
722.331	6511.78
722.674	6443.53
723.016	6510.2
723.359	6505.45
723.701	6481.27
724.044	6437.43
724.386	6458.67
724.729	6439.92
725.071	6452.34
725.413	6411.89
725.755	6421.38
726.097	6401.5
726.439	6321.27
726.782	6387.49
727.124	6389.97
727.465	6390.65
727.807	6383.65
728.149	6392.46
728.491	6374.61
728.833	6362.63
729.175	6334.38
729.516	6337.55
729.858	6367.6
730.199	6314.95
730.541	6350.43
730.882	6347.94
731.224	6352.23
731.565	6355.17
731.906	6387.04
732.248	6375.28
732.589	6321.73
732.93	6314.72
733.271	6317.21
733.612	6360.37
733.953	6357.21
734.294	6303.2
734.635	6317.88
734.976	6396.07
735.317	6323.76
735.658	6361.27
735.999	6338.68
736.339	6402.85
736.68	6381.16
737.021	6338.45
737.361	6306.36
737.702	6342.06
738.042	6356.3
738.383	6386.58
738.723	6373.02
739.063	6351.33
739.404	6364.44
739.744	6436.53
740.084	6459.12
740.424	6427.49
740.764	6423.19
741.104	6489.18
741.444	6458.67
741.784	6442.4
742.124	6470.42
742.464	6524.66
742.804	6495.96
743.143	6541.38
743.483	6532.79
743.823	6590.65
744.162	6572.12
744.502	6644.2
744.841	6633.36
745.181	6693.02
745.52	6623.41
745.86	6702.96
746.199	6725.11
746.538	6774.6
746.877	6812.56
747.216	6873.8
747.556	6909.06
747.895	6939.79
748.234	6934.37
748.573	7055.49
748.911	7029.96
749.25	7149.95
749.589	7122.84
749.928	7278.09
750.267	7279.22
750.605	7379.33
750.944	7438.08
751.283	7482.15
751.621	7581.81
751.96	7633.1
752.298	7756.94
752.636	7825.19
752.975	7950.61
753.313	7973.21
753.651	8113.77
753.989	8245.07
754.327	8358.06
754.666	8393.99
755.004	8583.59
755.342	8737.26
755.679	8870.81
756.017	8926.86
756.355	9125.04
756.693	9222.44
757.031	9391.48
757.368	9427.18
757.706	9585.82
758.044	9759.15
758.381	9880.5
758.719	10072.14
759.056	10247.05
759.394	10360.72
759.731	10549.86
760.068	10678
760.405	10812.23
760.743	10965.45
761.08	11195.95
761.417	11275.04
761.754	11521.82
762.091	11776.05
762.428	11846.55
762.765	12047.68
763.102	12243.83
763.438	12514.78
763.775	12513.2
764.112	12767.21
764.449	12946.64
764.785	13148.44
765.122	13287.87
765.458	13378.49
765.795	13506.17
766.131	13721.31
766.467	13860.29
766.804	14053.27
767.14	14152.93
767.476	14280.61
767.812	14441.29
768.148	14729.41
768.485	14757.21
768.821	14933.03
769.157	15082.17
769.492	15222.51
769.828	15341.38
770.164	15342.73
770.5	15614.14
770.836	15683.06
771.171	15792.66
771.507	15854.13
771.842	15844.87
772.178	15984.98
772.513	16205.31
772.849	16236.72
773.184	16461.8
773.519	16462.02
773.855	16594.9
774.19	16659.76
774.525	16765.29
774.86	16889.13
775.195	16949.02
775.53	16978.85
775.865	17036.7
776.2	17017.49
776.535	17020.43
776.87	17151.05
777.205	17103.59
777.539	17217.94
777.874	17342.68
778.209	17295
778.543	17335.45
778.878	17406.63
779.212	17469.46
779.547	17380.64
779.881	17624.93
780.215	17625.38
780.55	17685.5
780.884	17571.15
781.218	17605.72
781.552	17718.04
781.886	17676.91
782.22	17625.84
782.554	17563.01
782.888	17512.62
783.222	17477.37
783.556	17518.49
783.889	17611.83
784.223	17541.32
784.557	17590.36
784.89	17646.63
785.224	17518.27
785.557	17559.62
785.891	17496.57
786.224	17623.35
786.558	17600.07
786.891	17533.18
787.224	17544.03
787.557	17491.15
787.891	17482.34
788.224	17559.85
788.557	17523.47
788.89	17425.62
789.223	17524.6
789.556	17456.12
789.888	17432.85
790.221	17410.47
790.554	17306.07
790.887	17367.54
791.219	17311.49
791.552	17248.67
791.884	17260.65
792.217	17211.84
792.549	17231.27
792.882	17164.38
793.214	17084.38
793.546	17106.75
793.879	17086.87
794.211	17047.77
794.543	17150.14
794.875	16946.53
795.207	17066.98
795.539	16991.28
795.871	17043.03
796.203	16903.82
796.535	16817.27
796.867	16841.22
797.198	16768.01
797.53	16813.43
797.862	16607.56
798.193	16700.89
798.525	16528.92
798.856	16637.84
799.188	16466.77
799.519	16450.95
799.85	16465.87
800.182	16387
800.513	16435.81
800.844	16318.98
801.175	16345.19
801.506	16357.17
801.837	16289.83
802.168	16292.31
802.499	16262.93
802.83	16160.79
803.161	16092.09
803.491	16090.96
803.822	16121.24
804.153	16083.96
804.483	15920.34
804.814	15933.45
805.145	15895.26
805.475	15968.25
805.805	15883.73
806.136	15860.01
806.466	15841.02
806.796	15815.94
807.126	15631.54
807.457	15688.03
807.787	15662.72
808.117	15614.14
808.447	15630.18
808.777	15614.59
809.107	15560.13
809.436	15457.31
809.766	15502.73
810.096	15471.99
810.426	15396.74
810.755	15380.7
811.085	15431.32
811.414	15326.24
811.744	15283.52
812.073	15251.89
812.403	15195.39
812.732	15180.7
813.061	15145.9
813.39	15084.43
813.719	15123.98
814.049	15206.46
814.378	15086.47
814.707	14968.5
815.036	14948.39
815.365	14945
815.693	14834.5
816.022	14855.97
816.351	14829.3
816.68	14808.06
817.008	14868.17
817.337	14692.58
817.665	14669.53
817.994	14707.95
818.322	14720.6
818.651	14655.52
818.979	14571.9
819.307	14665.46
819.636	14584.33
819.964	14554.5
820.292	14575.29
820.62	14589.31
820.948	14560.83
821.276	14571.9
821.604	14514.28
821.932	14589.53
822.259	14625.24
822.587	14524.9
822.915	14546.82
823.243	14607.84
823.57	14512.25
823.898	14477.22
824.225	14425.92
824.553	14477.67
824.88	14468.63
825.207	14541.4
825.535	14511.34
825.862	14624.33
826.189	14537.56
826.516	14511.79
826.843	14570.78
827.17	14560.83
827.497	14566.71
827.824	14524.45
828.151	14700.72
828.478	14636.76
828.805	14612.13
829.131	14578.01
829.458	14539.36
829.785	14571.23
830.111	14514.73
830.438	14571.68
830.764	14526.71
831.09	14665.46
831.417	14486.26
831.743	14612.36
832.069	14562.41
832.395	14477.22
832.722	14561.74
833.048	14549.08
833.374	14520.15
833.7	14423.21
834.026	14502.98
834.351	14509.76
834.677	14455.07
835.003	14462.76
835.329	14451.46
835.654	14429.54
835.98	14373.04
836.306	14401.29
836.631	14344.34
836.956	14465.92
837.282	14441.74
837.607	14304.12
837.932	14280.61
838.258	14234.06
838.583	14291.23
838.908	14205.13
839.233	14368.07
839.558	14257.34
839.883	14217.11
840.208	14100.73
840.533	14077.91
840.858	14047.4
841.182	14077
841.507	14107.28
841.832	13980.96
842.156	13942.77
842.481	13972.6
842.805	13942.09
843.13	13971.92
843.454	13823.45
843.778	13758.14
844.103	13688.99
844.427	13783.45
844.751	13777.35
845.075	13714.53
845.399	13685.37
845.723	13621.2
846.047	13540.97
846.371	13477.92
846.695	13506.62
847.019	13401.99
847.343	13334.2
847.666	13263.01
847.99	13183.69
848.313	13180.08
848.637	13147.76
848.96	13189.34
849.284	13115.22
849.607	12951.61
849.931	13037.93
850.254	12916.58
850.577	12841.78
850.9	12765.85
851.223	12693.99
851.546	12644.05
851.869	12629.13
852.192	12630.94
852.515	12421.91
852.838	12496.71
853.161	12538.51
853.483	12425.52
853.806	12424.84
854.129	12381.91
854.451	12319.31
854.774	12256.94
855.096	12261.01
855.419	12210.84
855.741	12189.14
856.063	12103.95
856.385	12059.65
856.708	12022.82
857.03	11953.67
857.352	11985.53
857.674	11953.67
857.996	11956.38
858.318	11889.72
858.64	11863.05
858.961	11751.41
859.283	11668.7
859.605	11702.6
859.926	11697.4
860.248	11674.13
860.57	11629.16
860.891	11595.26
861.212	11549.84
861.534	11535.6
861.855	11534.92
862.176	11516.84
862.498	11537.41
862.819	11474.13
863.14	11510.52
863.461	11435.49
863.782	11403.17
864.103	11421.03
864.424	11350.75
864.745	11434.36
865.065	11300.13
865.386	11220.13
865.707	11273.23
866.027	11250.64
866.348	11293.8
866.668	11240.92
866.989	11254.25
867.309	11117.53
867.63	11163.86
867.95	11148.27
868.27	11134.26
868.59	11021.72
868.91	11067.59
869.23	11010.42
869.55	10995.05
869.87	11115.05
870.19	11000.02
870.51	11027.37
870.83	11028.95
871.15	10899.23
871.469	10961.83
871.789	10962.51
872.109	10903.53
872.428	10851.78
872.748	10959.12
873.067	10860.14
873.386	10859.46
873.706	10886.8
874.025	10876.63
874.344	10708.05
874.663	10755.73
874.982	10772
875.301	10757.32
875.62	10761.16
875.939	10741.27
876.258	10702.18
876.577	10651.1
876.896	10587.38
877.214	10633.93
877.533	10593.93
877.852	10576.3
878.17	10610.88
878.489	10574.27
878.807	10581.95
879.125	10556.42
879.444	10570.43
879.762	10453.82
880.08	10534.05
880.398	10503.76
880.716	10399.36
881.034	10403.2
881.352	10405.23
881.67	10350.1
881.988	10339.93
882.306	10325.24
882.624	10270.55
882.941	10303.54
883.259	10282.3
883.577	10195.3
883.894	10190.78
884.212	10235.3
884.529	10128.86
884.846	10151.46
885.164	10045.92
885.481	10084.11
885.798	10097.67
886.115	9956.21
886.432	10054.74
886.75	9932.7
887.067	10037.56
887.383	9955.3
887.7	9864.91
888.017	9882.08
888.334	9888.19
888.651	9847.51
888.967	9782.43
889.284	9781.52
889.6	9760.73
889.917	9658.36
890.233	9628.76
890.55	9647.97
890.866	9676.44
891.182	9681.64
891.498	9660.4
891.815	9575.43
892.131	9495.43
892.447	9481.87
892.763	9525.71
893.079	9445.94
893.395	9394.64
893.71	9460.17
894.026	9328.2
894.342	9319.16
894.657	9257.69
894.973	9273.97
895.289	9183.8
895.604	9257.47
895.92	9212.27
896.235	9102.22
896.55	9143.35
896.865	9144.03
897.181	9006.4
897.496	9063.12
897.811	8964.82
898.126	9006.85
898.441	8898.61
898.756	8974.54
899.071	8798.5
899.386	8882.56
899.7	8783.58
900.015	8771.61
900.33	8686.41
900.644	8717.6
900.959	8711.49
901.273	8633.08
901.588	8610.48
901.902	8569.35
902.216	8541.1
902.531	8522.12
902.845	8456.59
903.159	8428.56
903.473	8387.43
903.787	8397.6
904.101	8331.17
904.415	8340.88
904.729	8283.93
905.042	8264.73
905.356	8223.6
905.67	8213.43
905.984	8183.82
906.297	8113.54
906.611	8122.58
906.924	8124.84
907.237	8031.96
907.551	8010.72
907.864	7982.7
908.177	7962.81
908.491	7934.79
908.804	7916.94
909.117	7834.68
909.43	7812.53
909.743	7700.45
910.056	7757.17
910.368	7651.86
910.681	7671.52
910.994	7625.87
911.307	7635.59
911.619	7582.48
911.932	7541.58
912.244	7450.51
912.557	7520.79
912.869	7436.27
913.181	7414.81
913.494	7434.92
913.806	7371.87
914.118	7316.28
914.43	7287.8
914.742	7281.02
915.054	7232.89
915.366	7299.78
915.678	7177.07
915.99	7173.91
916.302	7134.59
916.613	7105.43
916.925	7116.06
917.236	7016.62
917.548	7007.81
917.859	7004.87
918.171	6952.67
918.482	6954.48
918.794	6901.82
919.105	6891.88
919.416	6839.45
919.727	6846.91
920.038	6849.62
920.349	6740.25
920.66	6758.55
920.971	6722.62
921.282	6686.24
921.593	6656.63
921.903	6622.06
922.214	6569.63
922.525	6596.52
922.835	6545.68
923.146	6455.28
923.456	6480.59
923.767	6478.11
924.077	6470.42
924.387	6436.98
924.697	6394.94
925.008	6358.56
925.318	6306.81
925.628	6356.08
925.938	6348.17
926.248	6257.32
926.558	6201.28
926.867	6255.97
927.177	6247.83
927.487	6168.28
927.796	6167.15
928.106	6100.04
928.416	6125.35
928.725	6119.02
929.034	6008.51
929.344	6036.99
929.653	6027.5
929.962	5970.1
930.271	5939.59
930.581	5951.34
930.89	5908.4
931.199	5875.41
931.508	5861.17
931.817	5833.38
932.125	5807.39
932.434	5813.72
932.743	5733.27
933.051	5726.26
933.36	5698.24
933.669	5615.76
933.977	5653.72
934.286	5655.98
934.594	5672.03
934.902	5599.49
935.21	5529.43
935.519	5542.31
935.827	5511.58
936.135	5512.93
936.443	5524.23
936.751	5442.65
937.059	5450.56
937.367	5385.03
937.674	5400.85
937.982	5364.46
938.29	5338.02
938.597	5327.85
938.905	5254.41
939.213	5258.7
939.52	5234.52
939.827	5241.75
940.135	5178.03
940.442	5188.65
940.749	5196.11
941.056	5167.18
941.363	5125.15
941.67	5136.67
941.977	5110.46
942.284	5047.18
942.591	5034.3
942.898	4947.07
943.205	5032.72
943.511	4944.81
943.818	4940.97
944.125	4888.54
944.431	4873.4
944.738	4940.75
945.044	4899.39
945.35	4798.83
945.657	4802.9
945.963	4718.83
946.269	4759.06
946.575	4794.53
946.881	4727.42
947.187	4734.65
947.493	4706.4
947.799	4729.45
948.105	4683.13
948.41	4642.9
948.716	4649.23
949.022	4619.4
949.327	4611.71
949.633	4533.98
949.938	4530.59
950.244	4526.52
950.549	4501.89
950.854	4477.26
951.16	4414.88
951.465	4467.54
951.77	4437.03
952.075	4415.79
952.38	4392.29
952.685	4379.4
952.99	4315.9
953.294	4348.22
953.599	4282.91
953.904	4295.57
954.209	4288.79
954.513	4269.58
954.818	4223.7
955.122	4218.96
955.426	4195.91
955.731	4146.42
956.035	4140.09
956.339	4159.07
956.643	4140.77
956.948	4112.29
957.252	4078.17
957.556	4064.16
957.86	4050.15
958.163	4085.4
958.467	4000.88
958.771	4001.79
959.075	4005.18
959.378	3989.36
959.682	3980.55
959.985	3933.77
960.289	3913.88
960.592	3949.36
960.896	3862.81
961.199	3855.58
961.502	3872.53
961.805	3876.37
962.108	3807.89
962.411	3810.61
962.714	3815.35
963.017	3760.66
963.32	3804.5
963.623	3714.11
963.926	3765.86
964.228	3697.84
964.531	3675.24
964.833	3636.15
965.136	3652.42
965.438	3636.15
965.741	3677.5
966.043	3617.84
966.345	3629.82
966.648	3580.56
966.95	3597.28
967.252	3516.83
967.554	3527.68
967.856	3497.85
968.158	3522.25
968.46	3505.08
968.761	3496.72
969.063	3425.53
969.365	3419.66
969.666	3453.78
969.968	3392.76
970.269	3407.9
970.571	3363.84
970.872	3374.01
971.174	3371.3
971.475	3349.15
971.776	3347.57
972.077	3305.08
972.378	3323.61
972.679	3281.58
972.98	3290.39
973.281	3271.64
973.582	3218.76
973.883	3231.19
974.183	3197.29
974.484	3194.13
974.785	3226.67
975.085	3203.16
975.386	3177.63
975.686	3133.56
975.986	3150.74
976.287	3141.7
976.587	3056.95
976.887	3108.25
977.187	3057.63
977.487	3097.63
977.787	3051.76
978.087	3046.11
978.387	3026.22
978.687	2981.48
978.987	2989.61
979.286	2969.05
979.586	2988.25
979.885	2958.65
980.185	2970.85
980.484	2913.45
980.784	2924.08
981.083	2896.51
981.382	2889.95
981.682	2892.21
981.981	2850.86
982.28	2842.95
982.579	2827.58
982.878	2848.15
983.177	2813.8
983.475	2839.78
983.774	2777.41
984.073	2761.59
984.372	2759.33
984.67	2743.74
984.969	2756.62
985.267	2737.41
985.566	2727.24
985.864	2694.93
986.162	2663.97
986.461	2642.5
986.759	2668.04
987.057	2641.6
987.355	2615.38
987.653	2606.8
987.951	2578.55
988.249	2637.08
988.547	2597.53
988.844	2583.07
989.142	2547.81
989.44	2578.55
989.737	2536.29
990.035	2528.38
990.332	2513.24
990.63	2516.4
990.927	2486.35
991.224	2499.68
991.521	2482.28
991.819	2454.03
992.116	2461.26
992.413	2427.82
992.71	2420.13
993.006	2422.85
993.303	2404.77
993.6	2407.93
993.897	2400.47
994.193	2347.82
994.49	2400.25
994.787	2315.05
995.083	2313.02
995.379	2300.59
995.676	2330.64
995.972	2306.01
996.268	2275.96
996.565	2272.12
996.861	2256.07
997.157	2246.35
997.453	2259.01
997.749	2256.75
998.044	2252.45
998.34	2219.46
998.636	2225.56
998.932	2174.72
999.227	2181.72
999.523	2200.7
999.818	2163.64
1000.114	2148.73
1000.409	2133.59
1000.704	2118
1001	2141.5
1001.295	2079.58
1001.59	2141.5
1001.885	2086.13
1002.18	2068.5
1002.475	2047.26
1002.77	2059.92
1003.065	2018.34
1003.359	2011.11
1003.654	2047.71
1003.949	2008.17
1004.243	1954.16
1004.538	1985.8
1004.832	1941.05
1005.127	1953.03
1005.421	1964.33
1005.715	1942.86
1006.009	1908.74
1006.304	1899.02
1006.598	1885.68
1006.892	1925.23
1007.186	1894.72
1007.48	1880.26
1007.773	1840.26
1008.067	1863.54
1008.361	1818.57
1008.655	1852.92
1008.948	1825.8
1009.242	1802.52
1009.535	1826.48
1009.829	1774.95
1010.122	1786.7
1010.415	1792.35
1010.708	1756.42
1011.001	1761.39
1011.295	1725.46
1011.588	1733.6
1011.881	1730.43
1012.173	1704.45
1012.466	1685.01
1012.759	1683.88
1013.052	1692.47
1013.344	1649.53
1013.637	1653.6
1013.93	1650.66
1014.222	1650.21
1014.514	1638.91
1014.807	1632.81
1015.099	1628.06
1015.391	1593.49
1015.683	1595.3
1015.976	1584.9
1016.268	1583.09
1016.56	1572.92
1016.851	1556.88
1017.143	1536.32
1017.435	1552.59
1017.727	1514.17
1018.018	1512.59
1018.31	1531.57
1018.602	1480.5
1018.893	1477.79
1019.185	1485.24
1019.476	1481.4
1019.767	1482.76
1020.058	1452.25
1020.35	1459.26
1020.641	1422.19
1020.932	1412.7
1021.223	1417.67
1021.514	1395.3
1021.804	1372.93
1022.095	1373.16
1022.386	1362.53
1022.677	1378.13
1022.967	1359.82
1023.258	1333.38
1023.548	1353.04
1023.839	1332.93
1024.129	1347.62
1024.419	1326.83
1024.709	1311.91
1025	1303.33
1025.29	1305.36
1025.58	1257.68
1025.87	1260.16
1026.16	1279.15
1026.449	1271.46
1026.739	1254.29
1027.029	1261.52
1027.319	1250.45
1027.608	1223.56
1027.898	1226.04
1028.187	1222.2
1028.477	1206.61
1028.766	1202.09
1029.055	1189.43
1029.344	1198.02
1029.634	1167.74
1029.923	1166.83
1030.212	1167.74
1030.501	1136.55
1030.79	1157.57
1031.078	1126.61
1031.367	1117.8
1031.656	1118.93
1031.945	1127.74
1032.233	1092.26
1032.522	1100.62
1032.81	1091.81
1033.099	1078.47
1033.387	1070.79
1033.675	1094.97
1033.963	1074.86
1034.251	1066.05
1034.54	1029.89
1034.828	1054.29
1035.116	1039.15
1035.403	1041.19
1035.691	1016.56
1035.979	1007.06
1036.267	1019.72
1036.554	1008.42
1036.842	984.47
1037.129	1017.23
1037.417	1002.54
1037.704	975.65
1037.992	964.35
1038.279	967.06
1038.566	950.34
1038.853	950.34
1039.14	950.34
