Data from hue_00_FLMS001491_71.txt Node
Date: Mon Feb 06 15:30:11 GMT 2017
User: dcchb
Spectrometer: FLMS00149
Trigger mode: 0
Integration Time (sec): 2.000000E-2
Scans to average: 10
Electric dark correction enabled: true
Nonlinearity correction enabled: false
Boxcar width: 0
XAxis mode: Wavelengths
Number of Pixels in Spectrum: 2048
>>>>>Begin Spectral Data<<<<<
341.393	-18.21
341.776	-18.21
342.16	-18.21
342.543	-61.14
342.927	-74.02
343.31	-55.72
343.693	-78.77
344.077	-57.07
344.46	-58.2
344.843	-51.88
345.226	-21.6
345.61	-52.33
345.993	-19.79
346.376	-7.13
346.759	4.17
347.142	30.61
347.525	50.04
347.908	50.04
348.291	66.99
348.674	86.42
349.057	114.22
349.44	113.54
349.823	139.3
350.206	162.81
350.588	216.82
350.971	216.82
351.354	231.28
351.737	231.05
352.119	244.84
352.502	251.39
352.884	258.62
353.267	265.85
353.65	283.48
354.032	309.47
354.414	296.36
354.797	334.78
355.179	299.53
355.562	324.16
355.944	306.08
356.326	313.31
356.709	331.39
357.091	349.92
357.473	363.25
357.855	339.75
358.238	333.88
358.62	344.5
359.002	335.46
359.384	337.27
359.766	325.51
360.148	351.73
360.53	317.6
360.912	323.25
361.294	316.7
361.676	329.13
362.057	334.78
362.439	314.21
362.821	341.33
363.203	323.71
363.584	308.57
363.966	316.47
364.348	320.54
364.729	319.19
365.111	321.67
365.493	318.51
365.874	324.16
366.256	318.28
366.637	305.18
367.019	307.89
367.4	310.15
367.781	322.8
368.163	334.33
368.544	328
368.925	309.7
369.306	319.41
369.688	331.84
370.069	294.78
370.45	308.34
370.831	300.2
371.212	313.08
371.593	297.94
371.974	302.46
372.355	320.32
372.736	317.15
373.117	309.7
373.498	285.74
373.879	289.81
374.26	297.27
374.641	329.13
375.021	298.4
375.402	310.37
375.783	308.11
376.163	334.78
376.544	304.27
376.925	313.76
377.305	343.37
377.686	324.84
378.066	313.31
378.447	302.24
378.827	326.87
379.208	329.81
379.588	322.8
379.968	329.36
380.349	303.14
380.729	321.67
381.109	330.03
381.489	317.15
381.87	322.35
382.25	342.69
382.63	325.97
383.01	347.89
383.39	353.31
383.77	344.27
384.15	312.86
384.53	341.33
384.91	331.39
385.29	343.59
385.67	312.63
386.049	338.62
386.429	334.78
386.809	343.37
387.189	337.72
387.568	345.4
387.948	352.18
388.328	359.41
388.707	349.24
389.087	338.17
389.466	334.1
389.846	356.47
390.225	340.88
390.605	350.15
390.984	355.34
391.363	335.91
391.743	336.81
392.122	356.7
392.501	330.03
392.881	329.58
393.26	354.89
393.639	344.72
394.018	365.29
394.397	350.6
394.776	349.47
395.155	354.67
395.534	388.11
395.913	345.4
396.292	351.73
396.671	367.77
397.05	366.19
397.429	348.79
397.808	374.55
398.186	384.04
398.565	365.51
398.944	369.35
399.323	354.89
399.701	351.95
400.08	381.56
400.458	377.72
400.837	373.2
401.215	384.5
401.594	375.46
401.972	361.67
402.351	391.28
402.729	372.97
403.107	396.02
403.486	385.17
403.864	381.78
404.242	392.63
404.62	394.21
404.999	377.72
405.377	397.15
405.755	389.69
406.133	389.92
406.511	413.2
406.889	393.99
407.267	389.69
407.645	388.34
408.023	408
408.401	435.57
408.779	420.88
409.156	399.41
409.534	410.03
409.912	420.2
410.29	416.81
410.667	408
411.045	417.26
411.422	431.5
411.8	431.73
412.178	427.21
412.555	417.72
412.933	432.4
413.31	434.21
413.687	446.87
414.065	434.66
414.442	443.25
414.819	438.05
415.197	449.35
415.574	463.36
415.951	451.39
416.328	460.88
416.705	446.19
417.082	458.62
417.46	473.53
417.837	467.88
418.214	449.8
418.591	481.44
418.967	469.24
419.344	461.1
419.721	499.07
420.098	474.66
420.475	467.66
420.852	503.14
421.228	493.19
421.605	487.32
421.982	512.18
422.358	500.2
422.735	506.98
423.111	516.24
423.488	506.3
423.864	517.6
424.241	490.48
424.617	513.53
424.994	518.28
425.37	525.96
425.746	526.41
426.123	509.24
426.499	520.76
426.875	535.68
427.251	546.3
427.627	539.52
428.003	547.2
428.379	541.78
428.756	523.02
429.132	559.86
429.507	553.53
429.883	545.17
430.259	538.62
430.635	556.02
431.011	570.03
431.387	569.8
431.763	585.85
432.138	613.87
432.514	584.72
432.89	593.3
433.265	614.32
433.641	609.35
434.016	593.08
434.392	608.67
434.767	620.65
435.143	616.58
435.518	624.94
435.894	639.18
436.269	617.94
436.644	648.44
437.02	626.52
437.395	606.86
437.77	646.64
438.145	666.97
438.52	650.25
438.895	661.32
439.271	666.97
439.646	655.22
440.021	677.82
440.395	680.53
440.77	661.1
441.145	667.65
441.52	692.28
441.895	703.81
442.27	703.36
442.645	698.84
443.019	718.95
443.394	711.72
443.769	733.41
444.143	713.07
444.518	709.91
444.892	707.2
445.267	694.54
445.641	730.93
446.016	738.38
446.39	713.3
446.764	716.69
447.139	726.41
447.513	733.41
447.887	689.12
448.262	736.8
448.636	728.89
449.01	752.85
449.384	776.12
449.758	746.97
450.132	744.03
450.506	754.2
450.88	762.11
451.254	754.43
451.628	778.38
452.002	776.58
452.376	779.51
452.75	770.47
453.123	774.54
453.497	772.73
453.871	797.37
454.244	818.83
454.618	819.06
454.992	818.61
455.365	824.94
455.739	839.4
456.112	826.52
456.486	860.87
456.859	834.65
457.232	853.18
457.606	854.09
457.979	869.91
458.352	893.63
458.725	879.62
459.099	909
459.472	895.67
459.845	912.17
460.218	938.15
460.591	909
460.964	927.08
461.337	930.7
461.71	920.53
462.083	930.24
462.456	960.75
462.829	966.85
463.201	985.61
463.574	964.59
463.947	1004.59
464.32	996.68
464.692	1009.34
465.065	1012.05
465.438	1027.19
465.81	1031.26
466.183	1054.31
466.555	1049.11
466.928	1068.55
467.3	1079.84
467.672	1074.87
468.045	1103.57
468.417	1118.26
468.789	1121.43
469.161	1141.99
469.534	1137.7
469.906	1161.65
470.278	1184.47
470.65	1192.84
471.022	1219.5
471.394	1222.21
471.766	1214.98
472.138	1229.45
472.51	1291.36
472.882	1309.22
473.253	1282.33
473.625	1332.49
473.997	1362.32
474.369	1323.45
474.74	1399.38
475.112	1388.08
475.484	1406.62
475.855	1438.48
476.227	1466.73
476.598	1488.65
476.97	1496.33
477.341	1548.76
477.713	1542.43
478.084	1576.78
478.455	1610.23
478.827	1622.88
479.198	1658.13
479.569	1679.15
479.94	1725.93
480.311	1734.97
480.682	1766.15
481.053	1816.1
481.424	1852.48
481.795	1843.89
482.166	1907.85
482.537	1924.34
482.908	1979.48
483.279	2010.22
483.65	2029.65
484.021	2071.46
484.391	2067.16
484.762	2122.08
485.133	2160.72
485.503	2196.65
485.874	2208.18
486.244	2251.11
486.615	2289.53
486.985	2313.48
487.356	2344.67
487.726	2383.31
488.097	2433.26
488.467	2451.79
488.837	2508.06
489.207	2484.55
489.578	2577.88
489.948	2612.23
490.318	2671.89
490.688	2665.57
491.058	2683.64
491.428	2743.53
491.798	2772.23
492.168	2819.46
492.538	2820.14
492.908	2843.87
493.278	2904.88
493.648	2930.64
494.017	2993.92
494.387	2997.76
494.757	3033.69
495.126	3049.28
495.496	3088.15
495.866	3043.63
496.235	3143.75
496.605	3169.96
496.974	3155.04
497.344	3193.69
497.713	3245.89
498.082	3245.21
498.452	3290.41
498.821	3289.73
499.19	3345.77
499.559	3332.44
499.928	3370.63
500.298	3386.68
500.667	3413.34
501.036	3439.56
501.405	3469.16
501.774	3506.45
502.143	3524.3
502.512	3501.93
502.88	3528.37
503.249	3550.29
503.618	3571.3
503.987	3571.3
504.356	3627.35
504.724	3645.43
505.093	3640.68
505.462	3633.45
505.83	3666.67
506.199	3690.85
506.567	3713.22
506.936	3698.76
507.304	3778.08
507.672	3783.73
508.041	3829.83
508.409	3819.21
508.777	3830.73
509.145	3844.97
509.514	3855.82
509.882	3883.16
510.25	3909.6
510.618	3929.04
510.986	3917.28
511.354	3977.4
511.722	4010.39
512.09	3971.75
512.458	3982.82
512.826	4008.36
513.193	4029.37
513.561	4016.72
513.929	4044.51
514.297	4051.74
514.664	4084.06
515.032	4067.56
515.4	4080.22
515.767	4102.36
516.135	4103.72
516.502	4101.46
516.869	4206.32
517.237	4183.49
517.604	4155.7
517.972	4206.77
518.339	4224.85
518.706	4221.68
519.073	4214.68
519.44	4257.39
519.808	4275.01
520.175	4315.47
520.542	4313.43
520.909	4337.16
521.276	4271.17
521.643	4369.02
522.009	4336.03
522.376	4344.39
522.743	4402.02
523.11	4440.43
523.477	4470.26
523.843	4456.93
524.21	4496.03
524.577	4503.26
524.943	4530.83
525.31	4522.01
525.676	4596.36
526.043	4577.38
526.409	4639.52
526.776	4647.43
527.142	4662.12
527.508	4655.12
527.874	4734.66
528.241	4754.1
528.607	4776.7
528.973	4770.59
529.339	4763.14
529.705	4824.15
530.071	4827.99
530.437	4883.81
530.803	4885.62
531.169	4930.36
531.535	4907.99
531.901	4959.97
532.267	4953.41
532.632	4985.5
532.998	5025.5
533.364	5038.61
533.73	5060.08
534.095	5056.01
534.461	5089.46
534.826	5141.43
535.192	5136.69
535.557	5204.93
535.923	5127.42
536.288	5177.36
536.653	5215.1
537.019	5182.79
537.384	5237.25
537.749	5272.5
538.114	5257.59
538.479	5309.56
538.845	5339.39
539.21	5329.22
539.575	5350.92
539.94	5359.05
540.305	5375.55
540.67	5433.18
541.034	5436.57
541.399	5471.14
541.764	5442.44
542.129	5486.51
542.494	5533.51
542.858	5565.83
543.223	5486.51
543.587	5598.6
543.952	5588.43
544.316	5584.36
544.681	5648.76
545.045	5678.59
545.41	5695.32
545.774	5722.21
546.138	5700.74
546.503	5781.42
546.867	5730.8
547.231	5889.21
547.595	5815.09
547.959	5868.42
548.324	5853.96
548.688	5814.41
549.052	5918.14
549.416	5905.48
549.779	5891.47
550.143	5942.09
550.507	5984.8
550.871	5972.6
551.235	5966.27
551.599	6058.02
551.962	6071.13
552.326	6091.24
552.689	6120.39
553.053	6044.69
553.417	6091.24
553.78	6167.17
554.143	6142.08
554.507	6155.87
554.87	6207.62
555.234	6285.81
555.597	6219.14
555.96	6255.75
556.323	6311.12
556.686	6245.81
557.05	6316.99
557.413	6315.64
557.776	6311.35
558.139	6416.88
558.502	6385.02
558.865	6407.61
559.228	6484.9
559.59	6449.42
559.953	6493.71
560.316	6479.93
560.679	6489.19
561.041	6555.86
561.404	6621.17
561.767	6593.37
562.129	6607.83
562.492	6644.67
562.854	6624.56
563.217	6655.52
563.579	6644.67
563.941	6723.99
564.304	6729.19
564.666	6741.39
565.028	6760.15
565.39	6786.59
565.753	6788.85
566.115	6816.87
566.477	6897.54
566.839	6918.11
567.201	6919.24
567.563	6857.77
567.925	6981.16
568.287	6952.01
568.648	6937.09
569.01	7002.85
569.372	7092.34
569.734	7147.48
570.095	7103.41
570.457	7150.42
570.819	7166.69
571.18	7185.45
571.542	7232.23
571.903	7227.71
572.265	7315.84
572.626	7300.92
572.987	7402.16
573.349	7458.66
573.71	7510.64
574.071	7495.5
574.432	7594.48
574.794	7620.92
575.155	7724.19
575.516	7703.17
575.877	7738.2
576.238	7850.29
576.599	7927.57
576.96	7962.6
577.32	8026.55
577.681	8123.73
578.042	8118.3
578.403	8269.26
578.763	8295.02
579.124	8427
579.485	8563.26
579.845	8638.74
580.206	8723.94
580.566	8797.38
580.927	8903.14
581.287	9069.92
581.648	9154.43
582.008	9227.43
582.368	9407.31
582.728	9499.74
583.089	9737.47
583.449	9764.81
583.809	9932.95
584.169	10109.44
584.529	10168.87
584.889	10468.98
585.249	10553.72
585.609	10764.34
585.969	11023.54
586.329	11148.51
586.688	11376.75
587.048	11579.23
587.408	11711.88
587.768	11960.01
588.127	12258.99
588.487	12404.07
588.846	12689.26
589.206	12840.89
589.565	13047.21
589.925	13300.99
590.284	13537.37
590.643	13871.15
591.003	14145.26
591.362	14425.71
591.721	14619.38
592.08	14912.48
592.44	15146.14
592.799	15376.64
593.158	15721.04
593.517	16006.46
593.876	16250.75
594.235	16503.85
594.593	16765.53
594.952	17200.1
595.311	17356.48
595.67	17722.12
596.029	18039.62
596.387	18213.41
596.746	18615.65
597.104	18877.34
597.463	19040.73
597.822	19455.86
598.18	19677.1
598.538	19966.35
598.897	20345.1
599.255	20445.66
599.613	21027.34
599.972	21126.32
600.33	21364.28
600.688	21641.11
601.046	21991.61
601.404	22265.28
601.762	22583.69
602.12	22987.74
602.478	23223.9
602.836	23420.5
603.194	23541.63
603.552	23893.71
603.91	24098.9
604.268	24353.13
604.625	24384.77
604.983	24829.73
605.341	25008.71
605.698	25389.49
606.056	25688.91
606.413	25847.78
606.771	26091.16
607.128	26391.27
607.485	26455
607.843	26770.02
608.2	27040.74
608.557	27337.91
608.914	27461.52
609.272	27801.4
609.629	27895.86
609.986	28221.5
610.343	28365.68
610.7	28605
611.057	28764.54
611.414	28932.9
611.771	29169.28
612.127	29465.09
612.484	29695.59
612.841	29874.79
613.198	30052.64
613.554	30042.47
613.911	30347.55
614.267	30588.67
614.624	30638.39
614.98	30893.07
615.337	31247.19
615.693	31260.07
616.05	31226.62
616.406	31553.17
616.762	31653.73
617.118	31666.38
617.475	31945.93
617.831	32097.79
618.187	32244.67
618.543	32312.7
618.899	32673.59
619.255	32585.23
619.611	32754.49
619.967	33034.03
620.323	33167.59
620.678	33022.28
621.034	33155.16
621.39	33285.1
621.746	33339.56
622.101	33824.52
622.457	33622.72
622.812	33730.96
623.168	33913.56
623.523	34071.07
623.879	34211.85
624.234	33972.31
624.589	34147.68
624.945	34256.15
625.3	34435.58
625.655	34440.32
626.01	34511.28
626.365	34604.39
626.72	34631.73
627.075	34681.67
627.43	34749.47
627.785	34757.6
628.14	34932.06
628.495	34942.46
628.85	34971.16
629.205	34901.55
629.559	35153.75
629.914	35000.99
630.269	35081.89
630.623	34950.37
630.978	35063.36
631.332	35176.35
631.687	35287.98
632.041	35223.35
632.396	35323.01
632.75	35278.04
633.104	35293.41
633.459	35283.69
633.813	35301.77
634.167	35303.58
634.521	35224.48
634.875	35479.17
635.229	35369.34
635.583	35111.94
635.937	35173.19
636.291	35196.24
636.645	35194.2
636.999	35072.62
637.352	35410.69
637.706	35098.61
638.06	35423.57
638.413	35241.88
638.767	35215.22
639.121	35277.14
639.474	35071.95
639.828	35214.77
640.181	35340.19
640.534	35202.56
640.888	35184.03
641.241	35058.39
641.594	35132.28
641.947	35299.06
642.301	35191.26
642.654	35144.94
643.007	35130.93
643.36	35280.3
643.713	35076.46
644.066	35225.16
644.419	35065.17
644.771	34718.28
645.124	34526.65
645.477	34530.26
645.83	34359.87
646.182	34191.29
646.535	34029.71
646.888	34156.71
647.24	33993.56
647.593	34220.44
647.945	33976.15
648.298	33902.71
648.65	33917.63
649.002	33968.92
649.355	33972.09
649.707	34015.48
650.059	34091.18
650.411	34309.48
650.763	34503.82
651.115	34906.07
651.467	34786.08
651.819	34724.16
652.171	34746.98
652.523	34606.65
652.875	34750.37
653.227	34609.81
653.578	34780.43
653.93	34673.76
654.282	34535.69
654.633	34465.63
654.985	34499.53
655.337	34639.87
655.688	34512.64
656.039	34713.54
656.391	34415.69
656.742	34441.45
657.094	34353.09
657.445	34556.48
657.796	34547.89
658.147	34401.45
658.498	34289.37
658.849	34503.37
659.2	34351.74
659.551	34329.59
659.902	34439.65
660.253	34434.22
660.604	34393.54
660.955	34329.59
661.306	34378.86
661.656	34343.15
662.007	34425.18
662.358	34349.48
662.708	34332.76
663.059	34382.02
663.409	34172.08
663.76	34362.13
664.11	34225.87
664.461	34210.72
664.811	34444.39
665.161	34355.35
665.511	34346.77
665.862	34366.43
666.212	34346.09
666.562	34392.41
666.912	34340.21
667.262	34295.02
667.612	34342.92
667.962	34267.67
668.312	34203.95
668.662	34402.81
669.011	34349.03
669.361	34202.14
669.711	34267.22
670.06	34151.29
670.41	34124.63
670.76	34065.19
671.109	34162.36
671.459	34086.66
671.808	34149.71
672.157	34082.82
672.507	33931.18
672.856	33917.85
673.205	34050.95
673.554	34168.69
673.904	33942.71
674.253	34171.63
674.602	33991.75
674.951	33582.72
675.3	33389.05
675.649	33981.58
675.998	33888.93
676.346	33932.77
676.695	34009.83
677.044	33746.78
677.393	33856.61
677.741	33869.04
678.09	33854.12
678.438	33757.63
678.787	33747.91
679.135	33839.44
679.484	33541.59
679.832	33640.57
680.181	33450.74
680.529	33681.7
680.877	33637.63
681.225	33452.78
681.573	33711.98
681.922	33312.44
682.27	33288.72
682.618	33406.23
682.966	33228.15
683.314	33335.27
683.661	33073.58
684.009	33162.39
684.357	32957.88
684.705	33005.33
685.053	32928.05
685.4	33008.95
685.748	32884.21
686.095	32816.64
686.443	32763.31
686.79	32567.38
687.138	32636.3
687.485	32783.87
687.832	32550.43
688.18	32646.25
688.527	32503.65
688.874	32429.53
689.221	32422.98
689.568	32100.05
689.915	32215.07
690.262	32253.26
690.609	32080.61
690.956	31948.86
691.303	31887.4
691.65	31853.72
691.997	31865.7
692.344	31604.92
692.69	31711.36
693.037	31663.22
693.383	31409.22
693.73	31394.53
694.077	31310.01
694.423	31368.09
694.769	31236.11
695.116	31160.41
695.462	31124.25
695.808	30878.16
696.155	31026.4
696.501	30673.64
696.847	30790.93
697.193	30520.2
697.539	30692.17
697.885	30500.54
698.231	30376.93
698.577	30437.49
698.923	30440.43
699.269	30208.34
699.614	29969.25
699.96	29979.65
700.306	30098.06
700.651	29825.08
700.997	29805.64
701.342	29781.24
701.688	29743.05
702.033	29618.98
702.379	29692.88
702.724	29359.1
703.069	29583.95
703.415	29098.77
703.76	29263.96
704.105	29225.32
704.45	29156.62
704.795	29068.04
705.14	29134.47
705.485	28991.43
705.83	28827.59
706.175	28840.47
706.52	28771.55
706.865	28605.22
707.209	28655.84
707.554	28406.13
707.899	28556.41
708.243	28339.92
708.588	28329.52
708.932	28237.32
709.277	28154.84
709.621	28219.7
709.966	28126.82
710.31	28060.38
710.654	27866.94
710.998	28065.8
711.342	27930.66
711.687	27740.84
712.031	27716.21
712.375	27594.85
712.719	27650.67
713.063	27552.37
713.407	27658.81
713.75	27441.19
714.094	27542.88
714.438	27329.78
714.782	27440.73
715.125	27281.64
715.469	27332.04
715.812	27260.17
716.156	27005.49
716.499	26958.26
716.843	27007.75
717.186	26889.56
717.53	26955.32
717.873	26838.94
718.216	26978.37
718.559	26808.21
718.902	26515.79
719.246	26710.13
719.589	26516.92
719.932	26415.9
720.275	26481.21
720.617	26499.74
720.96	26354.21
721.303	26451.83
721.646	26373.87
721.989	26303.36
722.331	26367.09
722.674	26174.55
723.016	26256.81
723.359	26119.64
723.701	26109.92
724.044	26049.81
724.386	25868.35
724.729	26036.02
725.071	25944.28
725.413	25834
725.755	25805.07
726.097	25821.79
726.439	25544.06
726.782	25537.51
727.124	25863.83
727.465	25544.96
727.807	25556.04
728.149	25508.81
728.491	25456.15
728.833	25511.07
729.175	25370.28
729.516	25319.21
729.858	25267.68
730.199	25512.42
730.541	25292.77
730.882	25183.17
731.224	25338.87
731.565	25081.25
731.906	25168.48
732.248	25132.09
732.589	24991.98
732.93	25005.77
733.271	24926.68
733.612	25017.97
733.953	24943.62
734.294	24865.66
734.635	24801.93
734.976	24890.97
735.317	24730.52
735.658	24683.29
735.999	24614.59
736.339	24662.5
736.68	24668.83
737.021	24659.56
737.361	24494.82
737.702	24638.1
738.042	24571.66
738.383	24387.03
738.723	24501.38
739.063	24380.7
739.404	24459.57
739.744	24452.79
740.084	24316.3
740.424	24326.01
740.764	24323.53
741.104	24359.23
741.444	24094.38
741.784	24072.91
742.124	24082.86
742.464	24116.98
742.804	23966.7
743.143	24018.9
743.483	24011.22
743.823	23877.44
744.162	23987.94
744.502	23879.25
744.841	23775.52
745.181	23816.2
745.52	23784.33
745.86	23775.29
746.199	23668.63
746.538	23714.28
746.877	23698.46
747.216	23739.14
747.556	23610.33
747.895	23585.02
748.234	23555.86
748.573	23423.89
748.911	23413.27
749.25	23480.61
749.589	23401.97
749.928	23316.32
750.267	23303.21
750.605	23265.93
750.944	23249.43
751.283	23206.27
751.621	23173.73
751.96	23166.72
752.298	23001.53
752.636	23144.12
752.975	22947.97
753.313	22865.03
753.651	22906.62
753.989	22777.13
754.327	22797.01
754.666	22773.51
755.004	22768.09
755.342	22775.77
755.679	22714.08
756.017	22592.5
756.355	22692.16
756.693	22559.05
757.031	22570.8
757.368	22343.01
757.706	22274.32
758.044	22270.93
758.381	22360.87
758.719	22234.09
759.056	22245.16
759.394	22175.11
759.731	22089.24
760.068	22034.77
760.405	21904.83
760.743	21904.83
761.08	21983.7
761.417	21769.7
761.754	21765.85
762.091	21620.32
762.428	21651.28
762.765	21506.2
763.102	21529.93
763.438	21489.7
763.775	21310.05
764.112	21425.3
764.449	21364.28
764.785	21158.41
765.122	21126.1
765.458	21064.4
765.795	21000.22
766.131	20947.12
766.467	20864.41
766.804	20772.21
767.14	20780.57
767.476	20724.53
767.812	20624.42
768.148	20588.26
768.485	20528.6
768.821	20383.97
769.157	20376.06
769.492	20255.61
769.828	20245.67
770.164	20156.41
770.5	20074.37
770.836	20110.76
771.171	19913.93
771.507	19917.77
771.842	19841.39
772.178	19670.99
772.513	19752.57
772.849	19669.19
773.184	19559.13
773.519	19576.76
773.855	19518.23
774.19	19368.18
774.525	19414.73
774.86	19350.55
775.195	19295.64
775.53	19137.22
775.865	19065.36
776.2	18897
776.535	18889.09
776.87	18855.42
777.205	18811.58
777.539	18724.8
777.874	18704.92
778.209	18645.48
778.543	18526.17
778.878	18420.86
779.212	18352.84
779.547	18241.43
779.881	18344.02
780.215	18075.78
780.55	18171.37
780.884	18022
781.218	18070.36
781.552	18011.38
781.886	17864.04
782.22	17873.3
782.554	17737.49
782.888	17605.74
783.222	17592.63
783.556	17405.52
783.889	17458.85
784.223	17331.17
784.557	17337.72
784.89	17268.35
785.224	17231.06
785.557	17051.4
785.891	17192.87
786.224	17021.12
786.558	17077.16
786.891	16839.2
787.224	16789.94
787.557	16735.7
787.891	16678.3
788.224	16665.88
788.557	16708.59
788.89	16667.91
789.223	16668.14
789.556	16443.73
789.888	16397.63
790.221	16318.77
790.554	16188.37
790.887	16258.2
791.219	16248.94
791.552	16053.46
791.884	15999.9
792.217	16047.13
792.549	15948.61
792.882	15928.27
793.214	15819.57
793.546	15855.95
793.879	15745.9
794.211	15653.02
794.543	15752
794.875	15632.68
795.207	15633.36
795.539	15581.16
795.871	15463.87
796.203	15374.84
796.535	15270.43
796.867	15240.15
797.198	15194.5
797.53	15208.06
797.862	15125.35
798.193	15041.51
798.525	14947.95
798.856	15040.16
799.188	14879.26
799.519	14835.87
799.85	14760.61
800.182	14791.57
800.513	14786.6
800.844	14620.05
801.175	14671.8
801.506	14605.36
801.837	14601.97
802.168	14480.62
802.499	14474.75
802.83	14430.23
803.161	14404.24
803.491	14335.32
803.822	14324.69
804.153	14273.85
804.483	14117.92
804.814	14116.56
805.145	14137.81
805.475	14120.86
805.805	14103.68
806.136	14041.76
806.466	14069.56
806.796	14018.94
807.126	13936
807.457	13898.26
807.787	13866.17
808.117	13816.01
808.447	13708.44
808.777	13766.29
809.107	13619.85
809.436	13628.44
809.766	13653.3
810.096	13538.5
810.426	13474.77
810.755	13542.79
811.085	13522
811.414	13545.96
811.744	13321.56
812.073	13287.89
812.403	13323.82
812.732	13241.78
813.061	13278.85
813.39	13121.56
813.719	13202.46
814.049	13162.69
814.378	13105.97
814.707	13079.3
815.036	13087.44
815.365	12987.78
815.693	12900.78
816.022	12881.34
816.351	12807.67
816.68	12784.17
817.008	12889.93
817.337	12680.22
817.665	12720.89
817.994	12683.61
818.322	12705.3
818.651	12707.11
818.979	12558.41
819.307	12559.09
819.636	12562.93
819.964	12474.35
820.292	12456.49
820.62	12458.53
820.948	12485.87
821.276	12479.54
821.604	12436.83
821.932	12496.04
822.259	12496.04
822.587	12414.24
822.915	12419.43
823.243	12464.63
823.57	12462.14
823.898	12498.98
824.225	12455.14
824.553	12416.72
824.88	12366.1
825.207	12454.91
825.535	12420.56
825.862	12364.07
826.189	12361.58
826.516	12383.05
826.843	12440.68
827.17	12482.71
827.497	12439.77
827.824	12409.94
828.151	12430.51
828.478	12465.53
828.805	12525.65
829.131	12391.64
829.458	12360
829.785	12293.79
830.111	12301.24
830.438	12450.84
830.764	12411.3
831.09	12402.71
831.417	12315.48
831.743	12403.39
832.069	12289.27
832.395	12239.33
832.722	12337.4
833.048	12290.85
833.374	12326.55
833.7	12305.99
834.026	12235.26
834.351	12277.97
834.677	12262.38
835.003	12264.86
835.329	12285.88
835.654	12246.78
835.98	12154.58
836.306	12210.63
836.631	12148.48
836.956	12134.7
837.282	12200.23
837.607	12119.78
837.932	12022.16
838.258	12045.43
838.583	11999.78
838.908	11970.41
839.233	12052.44
839.558	11931.99
839.883	11930.86
840.208	11900.8
840.533	11938.54
840.858	11880.46
841.182	11974.7
841.507	11815.38
841.832	11789.62
842.156	11783.29
842.481	11737.19
842.805	11734.48
843.13	11760.47
843.454	11666.23
843.778	11523.41
844.103	11652.9
844.427	11609.06
844.751	11655.84
845.075	11574.71
845.399	11425.79
845.723	11450.19
846.047	11448.84
846.371	11351.21
846.695	11494.71
847.019	11248.16
847.343	11239.13
847.666	11133.37
847.99	11178.56
848.313	11106.25
848.637	10995.97
848.96	11026.02
849.284	11065.57
849.607	10973.14
849.931	10908.51
850.254	10864.45
850.577	10869.19
850.9	10698.8
851.223	10729.53
851.546	10687.73
851.869	10551.01
852.192	10678.91
852.515	10532.25
852.838	10499.94
853.161	10470.78
853.483	10381.52
853.806	10409.32
854.129	10388.75
854.451	10377.45
854.774	10241.19
855.096	10279.38
855.419	10268.53
855.741	10264.01
856.063	10146.72
856.385	10160.51
856.708	10081.19
857.03	10011.81
857.352	10098.14
857.674	10080.51
857.996	10044.81
858.318	9918.03
858.64	9946.05
858.961	9878.03
859.283	9874.42
859.605	9899.27
859.926	9859.95
860.248	9872.38
860.57	9749.9
860.891	9739.96
861.212	9703.8
861.534	9684.59
861.855	9704.48
862.176	9684.14
862.498	9659.28
862.819	9684.82
863.14	9599.85
863.461	9548.55
863.782	9551.94
864.103	9579.96
864.424	9509.68
864.745	9594.87
865.065	9489.34
865.386	9452.96
865.707	9382.45
866.027	9424.26
866.348	9521.2
866.668	9399.17
866.989	9331.6
867.309	9302.91
867.63	9339.97
867.95	9303.36
868.27	9319.4
868.59	9267.65
868.91	9307.88
869.23	9250.93
869.55	9229.91
869.87	9241.89
870.19	9281.21
870.51	9190.59
870.83	9283.24
871.15	9178.39
871.469	9168.45
871.789	9164.83
872.109	9153.76
872.428	9090.93
872.748	9178.84
873.067	9143.59
873.386	9133.64
873.706	9030.6
874.025	9035.57
874.344	9015.23
874.663	9063.14
874.982	8985.63
875.301	8964.83
875.62	8954.67
875.939	8894.1
876.258	8942.24
876.577	8881.67
876.896	8866.08
877.214	8849.36
877.533	8776.59
877.852	8864.5
878.17	8883.93
878.489	8819.08
878.807	8843.93
879.125	8787.66
879.444	8766.87
879.762	8768
880.08	8746.99
880.398	8723.94
880.716	8725.07
881.034	8678.51
881.352	8662.7
881.67	8691.17
881.988	8679.19
882.306	8661.57
882.624	8665.41
882.941	8576.14
883.259	8583.6
883.577	8593.77
883.894	8527.11
884.212	8481.23
884.529	8526.88
884.846	8501.12
885.164	8428.35
885.481	8413.21
885.798	8468.58
886.115	8429.48
886.432	8472.64
886.75	8337.73
887.067	8354.46
887.383	8281.69
887.7	8330.05
888.017	8277.4
888.334	8301.35
888.651	8236.94
888.967	8262.48
889.284	8170.73
889.6	8124.41
889.917	8178.19
890.233	8177.96
890.55	8127.79
890.866	8086.21
891.182	8118.3
891.498	8076.04
891.815	8070.4
892.131	7993.34
892.447	7984.07
892.763	7952.21
893.079	7948.82
893.395	7913.11
893.71	7911.76
894.026	7832.44
894.342	7839.44
894.657	7771.87
894.973	7791.08
895.289	7782.49
895.604	7787.69
895.92	7658.88
896.235	7660.24
896.55	7670.18
896.865	7603.51
897.181	7620.01
897.496	7604.87
897.811	7574.14
898.126	7479.45
898.441	7475.61
898.756	7445.1
899.071	7394.25
899.386	7439.45
899.7	7363.52
900.015	7343.18
900.33	7282.85
900.644	7299.79
900.959	7317.87
901.273	7282.39
901.588	7162.4
901.902	7197.65
902.216	7153.13
902.531	7192.9
902.845	7139.35
903.159	7086.92
903.473	7040.14
903.787	7050.31
904.101	7017.09
904.415	6988.39
904.729	6952.46
905.042	6929.41
905.356	6919.01
905.67	6862.74
905.984	6892.12
906.297	6918.11
906.611	6822.97
906.924	6757.66
907.237	6758.79
907.551	6728.28
907.864	6707.49
908.177	6716.53
908.491	6675.86
908.804	6628.85
909.117	6618
909.43	6592.92
909.743	6537.55
910.056	6535.07
910.368	6519.02
910.681	6490.55
910.994	6453.71
911.307	6410.78
911.619	6360.61
911.932	6394.73
912.244	6324.9
912.557	6321.74
912.869	6299.59
913.181	6256.43
913.494	6312.02
913.806	6201.52
914.118	6230.9
914.43	6201.97
914.742	6185.47
915.054	6076.78
915.366	6093.27
915.678	6078.81
915.99	6046.72
916.302	6022.09
916.613	6003.33
916.925	5971.92
917.236	5995.87
917.548	5932.82
917.859	5935.08
918.171	5868.42
918.482	5851.7
918.794	5800.62
919.105	5851.47
919.416	5775.99
919.727	5797.91
920.038	5763.56
920.349	5692.15
920.66	5697.8
920.971	5704.81
921.282	5635.2
921.593	5608.09
921.903	5604.25
922.214	5586.39
922.525	5598.37
922.835	5486.96
923.146	5500.52
923.456	5481.76
923.767	5472.95
924.077	5469.56
924.387	5441.99
924.697	5340.98
925.008	5334.42
925.318	5354.53
925.628	5332.84
925.938	5308.43
926.248	5285.38
926.558	5285.61
926.867	5267.76
927.177	5211.26
927.487	5189.57
927.796	5173.07
928.106	5122
928.416	5113.64
928.725	5103.69
929.034	5110.7
929.344	5130.36
929.653	5033.19
929.962	5033.86
930.271	4987.31
930.581	4915.45
930.89	4940.08
931.199	4925.39
931.508	4928.56
931.817	4893.76
932.125	4880.42
932.434	4837.26
932.743	4827.54
933.051	4811.5
933.36	4760.65
933.669	4763.59
933.977	4721.56
934.286	4766.53
934.594	4745.74
934.902	4696.92
935.21	4663.71
935.519	4634.55
935.827	4601.79
936.135	4578.74
936.443	4554.33
936.751	4503.71
937.059	4542.35
937.367	4571.73
937.674	4519.3
937.982	4503.71
938.29	4524.05
938.597	4454.67
938.905	4405.86
939.213	4376.25
939.52	4369.7
939.827	4380.55
940.135	4352.07
940.442	4372.87
940.749	4304.39
941.056	4343.26
941.363	4267.56
941.67	4291.06
941.977	4229.14
942.284	4248.35
942.591	4196.6
942.898	4217.16
943.205	4188.92
943.511	4171.51
943.818	4148.69
944.125	4133.32
944.431	4096.26
944.738	4137.39
945.044	4099.43
945.35	4057.17
945.657	4047
945.963	4016.49
946.269	3997.51
946.575	3961.35
946.881	3941.24
947.187	4002.48
947.493	3951.18
947.799	3933.1
948.105	3934.23
948.41	3897.85
948.716	3893.33
949.022	3841.35
949.327	3861.01
949.633	3839.55
949.938	3826.44
950.244	3798.42
950.549	3788.02
950.854	3734.01
951.16	3724.29
951.465	3726.78
951.77	3699.66
952.075	3723.39
952.38	3698.76
952.685	3692.21
952.99	3621.02
953.294	3628.03
953.599	3618.53
953.904	3655.82
954.209	3581.93
954.513	3583.51
954.818	3555.94
955.122	3574.92
955.426	3522.04
955.731	3502.38
956.035	3494.24
956.339	3468.71
956.643	3434.81
956.948	3462.61
957.252	3449.73
957.556	3460.35
957.86	3400.91
958.163	3435.49
958.467	3391.87
958.771	3366.11
959.075	3361.59
959.378	3319.79
959.682	3364.98
959.985	3312.55
960.289	3291.99
960.592	3302.84
960.896	3274.82
961.199	3242.05
961.502	3219.22
961.805	3216.74
962.108	3209.28
962.411	3215.38
962.714	3153.01
963.017	3156.85
963.32	3157.08
963.623	3150.07
963.926	3114.82
964.228	3118.66
964.531	3083.41
964.833	3100.58
965.136	3058.55
965.438	3069.17
965.741	3044.54
966.043	3020.13
966.345	3043.63
966.648	3020.13
966.95	2995.27
967.252	3001.6
967.554	2951.89
967.856	2953.69
968.158	2948.5
968.46	2921.15
968.761	2915.73
969.063	2933.36
969.365	2872.57
969.666	2877.54
969.968	2862.17
970.269	2842.06
970.571	2840.02
970.872	2832.79
971.174	2817.2
971.475	2800.03
971.776	2777.65
972.077	2804.09
972.378	2790.31
972.679	2773.59
972.98	2762.51
973.281	2753.25
973.582	2714.83
973.883	2718.45
974.183	2722.06
974.484	2692.23
974.785	2679.8
975.085	2691.78
975.386	2685.45
975.686	2678.45
975.986	2640.03
976.287	2641.39
976.587	2609.3
976.887	2603.42
977.187	2602.74
977.487	2590.09
977.787	2595.96
978.087	2537.89
978.387	2529.98
978.687	2531.33
978.987	2541.5
979.286	2514.16
979.586	2491.11
979.885	2468.06
980.185	2486.14
980.484	2466.93
980.784	2435.52
981.083	2428.74
981.382	2448.85
981.682	2415.63
981.981	2431.9
982.28	2372.24
982.579	2386.93
982.878	2387.38
983.177	2380.83
983.475	2399.81
983.774	2355.29
984.073	2348.96
984.372	2307.38
984.67	2324.11
984.969	2280.49
985.267	2327.95
985.566	2317.1
985.864	2279.59
986.162	2271
986.461	2264.45
986.759	2243.88
987.057	2244.56
987.355	2207.72
987.653	2214.05
987.951	2242.53
988.249	2229.87
988.547	2185.58
988.844	2182.19
989.142	2167.27
989.44	2160.04
989.737	2151.23
990.035	2169.99
990.332	2128.18
990.63	2127.95
990.927	2124.79
991.224	2122.75
991.521	2099.48
991.819	2073.26
992.116	2085.92
992.413	2049.99
992.71	2073.94
993.006	2052.93
993.303	2053.6
993.6	2050.21
993.897	2056.54
994.193	2014.28
994.49	2001.4
994.787	2013.38
995.083	1988.07
995.379	1981.52
995.676	1964.34
995.972	1971.57
996.268	1935.42
996.565	1947.39
996.861	1948.52
997.157	1953.95
997.453	1919.82
997.749	1911.24
998.044	1898.13
998.34	1876.89
998.636	1865.36
998.932	1853.16
999.227	1896.09
999.523	1840.28
999.818	1819.49
1000.114	1839.6
1000.409	1835.3
1000.704	1828.53
1001	1817.23
1001.295	1781.75
1001.59	1786.49
1001.885	1798.24
1002.18	1779.04
1002.475	1743.78
1002.77	1740.39
1003.065	1728.42
1003.359	1729.54
1003.654	1737.68
1003.949	1710.56
1004.243	1709.43
1004.538	1684.12
1004.832	1703.78
1005.127	1701.3
1005.421	1682.31
1005.715	1654.74
1006.009	1685.48
1006.304	1637.12
1006.598	1610.23
1006.892	1616.55
1007.186	1599.38
1007.48	1607.29
1007.773	1607.74
1008.067	1606.16
1008.361	1570.45
1008.655	1570
1008.948	1567.97
1009.242	1569.55
1009.535	1562.32
1009.829	1547.18
1010.122	1530.23
1010.415	1525.93
1010.708	1499.27
1011.001	1499.27
1011.295	1462.43
1011.588	1487.74
1011.881	1479.61
1012.173	1473.96
1012.466	1465.6
1012.759	1467.4
1013.052	1441.42
1013.344	1443.22
1013.637	1435.09
1013.93	1429.67
1014.222	1412.94
1014.514	1380.63
1014.807	1401.19
1015.099	1401.19
1015.391	1370.91
1015.683	1408.2
1015.976	1370.68
1016.268	1361.64
1016.56	1358.93
1016.851	1353.74
1017.143	1324.13
1017.435	1345.6
1017.727	1298.6
1018.018	1334.3
1018.31	1298.6
1018.602	1301.31
1018.893	1304.7
1019.185	1280.74
1019.476	1279.84
1019.767	1259.27
1020.058	1254.76
1020.35	1274.42
1020.641	1231.03
1020.932	1251.59
1021.223	1224.25
1021.514	1222.44
1021.804	1209.56
1022.095	1204.14
1022.386	1199.16
1022.677	1214.08
1022.967	1196.23
1023.258	1175.21
1023.548	1169.56
1023.839	1135.44
1024.129	1145.61
1024.419	1184.25
1024.709	1130.69
1025	1146.06
1025.29	1117.36
1025.58	1094.76
1025.87	1120.97
1026.16	1093.4
1026.449	1120.52
1026.739	1099.5
1027.029	1087.98
1027.319	1083.23
1027.608	1074.65
1027.898	1076
1028.187	1040.3
1028.477	1052.73
1028.766	1068.09
1029.055	1024.93
1029.344	1019.73
1029.634	1053.4
1029.923	1050.01
1030.212	1048.66
1030.501	997.59
1030.79	978.6
1031.078	1008.43
1031.367	992.39
1031.656	975.67
1031.945	962.79
1032.233	1009.34
1032.522	978.83
1032.81	958.49
1033.099	948.32
1033.387	927.31
1033.675	934.76
1033.963	930.02
1034.251	942
1034.54	925.05
1034.828	923.46
1035.116	923.92
1035.403	918.27
1035.691	927.76
1035.979	897.7
1036.267	861.09
1036.554	872.62
1036.842	892.28
1037.129	868.1
1037.417	873.97
1037.704	886.86
1037.992	852.51
1038.279	864.93
1038.566	847.53
1038.853	847.53
1039.14	847.53
