Data from hue_110_FLMS001491_00089.txt Node
Date: Tue Feb 07 17:01:57 GMT 2017
User: dcchb
Spectrometer: FLMS00149
Trigger mode: 0
Integration Time (sec): 2.000000E-2
Scans to average: 10
Electric dark correction enabled: true
Nonlinearity correction enabled: false
Boxcar width: 0
XAxis mode: Wavelengths
Number of Pixels in Spectrum: 2048
>>>>>Begin Spectral Data<<<<<
341.393	-3.45
341.776	-3.45
342.16	-3.45
342.543	-66.27
342.927	-49.09
343.31	-59.72
343.693	-68.08
344.077	-66.27
344.46	-57.68
344.843	-39.38
345.226	-51.13
345.61	-29.21
345.993	-2.09
346.376	-24.46
346.759	11.24
347.142	17.57
347.525	41.07
347.908	47.85
348.291	65.48
348.674	84.01
349.057	130.79
349.44	127.17
349.823	151.8
350.206	189.09
350.588	206.27
350.971	206.49
351.354	215.98
351.737	237.68
352.119	277
352.502	260.28
352.884	267.28
353.267	283.1
353.65	296.21
354.032	319.94
354.414	294.4
354.797	315.87
355.179	319.71
355.562	311.12
355.944	330.33
356.326	334.4
356.709	348.41
357.091	367.39
357.473	327.84
357.855	338.69
358.238	335.3
358.62	344.79
359.002	328.97
359.384	341.18
359.766	323.78
360.148	292.14
360.53	359.26
360.912	339.82
361.294	334.17
361.676	331.46
362.057	338.24
362.439	330.1
362.821	314.06
363.203	312.03
363.584	324.23
363.966	321.74
364.348	331.23
364.729	317
365.111	306.15
365.493	323.1
365.874	309.77
366.256	292.14
366.637	312.25
367.019	297.11
367.4	302.53
367.781	321.29
368.163	309.31
368.544	321.07
368.925	309.09
369.306	325.13
369.688	305.47
370.069	311.12
370.45	302.99
370.831	321.29
371.212	316.55
371.593	307.28
371.974	327.17
372.355	324
372.736	325.58
373.117	314.51
373.498	312.03
373.879	316.32
374.26	307.28
374.641	320.84
375.021	297.79
375.402	315.87
375.783	318.13
376.163	322.65
376.544	319.48
376.925	335.3
377.305	335.3
377.686	323.55
378.066	340.95
378.447	309.31
378.827	328.07
379.208	323.55
379.588	333.95
379.968	350.44
380.349	344.79
380.729	349.09
381.109	325.58
381.489	329.88
381.87	348.18
382.25	340.95
382.63	336.21
383.01	335.98
383.39	336.66
383.77	332.14
384.15	322.65
384.53	334.85
384.91	354.28
385.29	345.7
385.67	356.09
386.049	371.46
386.429	352.7
386.809	342.76
387.189	368.75
387.568	358.13
387.948	371.23
388.328	332.36
388.707	366.49
389.087	359.48
389.466	372.36
389.846	346.6
390.225	382.76
390.605	370.56
390.984	353.83
391.363	378.24
391.743	376.66
392.122	384.57
392.501	364
392.881	395.87
393.26	381.85
393.639	370.56
394.018	381.85
394.397	375.98
394.776	380.27
395.155	381.63
395.534	378.69
395.913	373.72
396.292	380.95
396.671	385.24
397.05	367.62
397.429	387.28
397.808	378.46
398.186	396.32
398.565	387.5
398.944	402.19
399.323	385.92
399.701	391.35
400.08	393.38
400.458	375.98
400.837	393.38
401.215	393.83
401.594	408.52
401.972	404.68
402.351	405.81
402.729	399.93
403.107	398.35
403.486	425.02
403.864	427.5
404.242	416.88
404.62	415.07
404.999	425.47
405.377	433.6
405.755	415.75
406.133	442.42
406.511	436.77
406.889	428.63
407.267	438.12
407.645	432.02
408.023	428.18
408.401	445.81
408.779	451.91
409.156	433.6
409.534	439.71
409.912	455.98
410.29	442.42
410.667	446.26
411.045	462.76
411.422	461.4
411.8	459.37
412.178	462.76
412.555	476.32
412.933	457.33
413.31	482.87
413.687	474.06
414.065	500.95
414.442	485.13
414.819	494.85
415.197	480.16
415.574	499.59
415.951	509.99
416.328	504.34
416.705	509.76
417.082	487.61
417.46	498.91
417.837	505.47
418.214	511.57
418.591	519.48
418.967	508.63
419.344	515.64
419.721	540.95
420.098	524.22
420.475	531
420.852	512.47
421.228	534.39
421.605	523.55
421.982	540.49
422.358	552.92
422.735	543.66
423.111	537.78
423.488	551.79
423.864	542.3
424.241	580.04
424.617	555.64
424.994	563.32
425.37	547.95
425.746	563.09
426.123	575.52
426.499	567.61
426.875	594.5
427.251	578.46
427.627	589.76
428.003	603.09
428.379	594.5
428.756	603.32
429.132	626.82
429.507	607.16
429.883	625.69
430.259	620.49
430.635	625.01
431.011	631.57
431.387	652.13
431.763	661.85
432.138	642.19
432.514	663.65
432.89	665.46
433.265	681.73
433.641	680.6
434.016	701.17
434.392	705.91
434.767	693.03
435.143	683.99
435.518	702.52
435.894	715.4
436.269	709.98
436.644	736.87
437.02	741.62
437.395	731
437.77	733.48
438.145	752.69
438.52	742.52
438.895	765.8
439.271	762.86
439.646	797.21
440.021	776.19
440.395	772.58
440.77	766.25
441.145	783.65
441.52	797.44
441.895	802.86
442.27	816.65
442.645	806.93
443.019	789.3
443.394	824.33
443.769	857.1
444.143	827.72
444.518	851.22
444.892	840.6
445.267	828.85
445.641	852.12
446.016	845.35
446.39	862.07
446.764	873.37
447.139	851.67
447.513	879.24
447.887	883.54
448.262	875.4
448.636	872.46
449.01	889.64
449.384	908.17
449.758	900.26
450.132	899.81
450.506	925.57
450.88	931.44
451.254	938.22
451.628	938.22
452.002	962.63
452.376	933.25
452.75	952.01
453.123	979.13
453.497	966.47
453.871	1023.19
454.244	1018
454.618	993.59
454.992	1018.67
455.365	1029.97
455.739	1019.58
456.112	1048.73
456.486	1042.85
456.859	1073.36
457.232	1080.37
457.606	1102.06
457.979	1106.13
458.352	1120.59
458.725	1139.57
459.099	1157.88
459.472	1158.78
459.845	1171.89
460.218	1194.49
460.591	1200.82
460.964	1204.21
461.337	1234.04
461.71	1248.05
462.083	1266.58
462.456	1272.68
462.829	1310.19
463.201	1293.47
463.574	1328.5
463.947	1325.33
464.32	1376.4
464.692	1365.56
465.065	1376.18
465.438	1389.29
465.81	1420.92
466.183	1418.89
466.555	1467.48
466.928	1519.45
467.3	1500.7
467.672	1530.98
468.045	1556.74
468.417	1594.03
468.789	1587.7
469.161	1616.4
469.534	1640.35
469.906	1694.59
470.278	1719.67
470.65	1740.69
471.022	1743.85
471.394	1796.28
471.766	1848.26
472.138	1861.36
472.51	1917.41
472.882	1933.45
473.253	1999.66
473.625	1994.24
473.997	2077.4
474.369	2085.54
474.74	2121.92
475.112	2198.76
475.484	2265.19
475.855	2282.6
476.227	2348.58
476.598	2433.1
476.97	2483.27
477.341	2560.78
477.713	2581.34
478.084	2605.75
478.455	2729.59
478.827	2763.71
479.198	2873.54
479.569	2906.31
479.94	3016.36
480.311	3088.22
480.682	3193.08
481.053	3280.54
481.424	3363.92
481.795	3442.56
482.166	3530.02
482.537	3627.87
482.908	3706.29
483.279	3851.37
483.65	3957.58
484.021	4055.2
484.391	4103.11
484.762	4210.68
485.133	4277.8
485.503	4414.97
485.874	4566.15
486.244	4633.04
486.615	4808.18
486.985	4924.33
487.356	5029.19
487.726	5152.35
488.097	5285.23
488.467	5365.23
488.837	5589.18
489.207	5686.35
489.578	5847.93
489.948	5947.36
490.318	6122.72
490.688	6174.24
491.058	6270.29
491.428	6472.54
491.798	6586.66
492.168	6787.11
492.538	6840.44
492.908	7002.7
493.278	7176.93
493.648	7252.18
494.017	7383.03
494.387	7616.01
494.757	7733.07
495.126	7821.43
495.496	7964.25
495.866	8001.32
496.235	8121.99
496.605	8334.87
496.974	8418.03
497.344	8537.35
497.713	8666.83
498.082	8788.64
498.452	8868.64
498.821	8999.93
499.19	9137.56
499.559	9249.87
499.928	9300.26
500.298	9471.11
500.667	9576.19
501.036	9655.06
501.405	9719.69
501.774	9772.34
502.143	9884.66
502.512	10027.48
502.88	10158.32
503.249	10194.93
503.618	10302.72
503.987	10326.23
504.356	10451.19
504.724	10629.72
505.093	10549.27
505.462	10668.59
505.83	10667.46
506.199	10874.69
506.567	10985.87
506.936	10995.36
507.304	11175.69
507.672	11190.84
508.041	11312.41
508.409	11408.46
508.777	11459.53
509.145	11498.85
509.514	11592.86
509.882	11635.8
510.25	11705.4
510.618	11737.94
510.986	11866.3
511.354	11901.78
511.722	11968.89
512.09	12117.37
512.458	12081.89
512.826	12153.52
513.193	12211.83
513.561	12282.56
513.929	12346.51
514.297	12450.24
514.664	12441.65
515.032	12513.29
515.4	12605.71
515.767	12651.14
516.135	12654.3
516.502	12593.06
516.869	12807.52
517.237	12867.18
517.604	12740.85
517.972	12873.28
518.339	12917.12
518.706	12900.4
519.073	12983.1
519.44	13057.45
519.808	13175.64
520.175	13163.67
520.542	13194.85
520.909	13318.69
521.276	13132.71
521.643	13290.89
522.009	13374.96
522.376	13353.94
522.743	13378.57
523.11	13494.73
523.477	13577.89
523.843	13559.14
524.21	13703.99
524.577	13701.73
524.943	13706.7
525.31	13810.65
525.676	13800.71
526.043	13911.22
526.409	13917.09
526.776	13916.41
527.142	13955.28
527.508	14030.54
527.874	14021.27
528.241	14032.34
528.607	14011.78
528.973	14093.81
529.339	14037.31
529.705	14059.46
530.071	14136.29
530.437	14175.16
530.803	14141.04
531.169	14193.47
531.535	14182.85
531.901	14202.73
532.267	14161.38
532.632	14171.77
532.998	14157.09
533.364	14176.29
533.73	14183.98
534.095	14222.17
534.461	14299
534.826	14220.13
535.192	14230.76
535.557	14188.95
535.923	14280.7
536.288	14145.79
536.653	14205.9
537.019	14093.81
537.384	14119.35
537.749	14192.79
538.114	14136.52
538.479	14058.78
538.845	13983.98
539.21	14052.68
539.575	13941.72
539.94	13971.33
540.305	14000.48
540.67	13957.77
541.034	13928.16
541.399	13972.01
541.764	13885.68
542.129	13937.2
542.494	13765.68
542.858	13885.23
543.223	13788.96
543.587	13851.1
543.952	13695.85
544.316	13727.49
544.681	13736.31
545.045	13665.35
545.41	13685.23
545.774	13649.75
546.138	13542.41
546.503	13531.79
546.867	13513.71
547.231	13581.73
547.595	13516.88
547.959	13525.92
548.324	13424
548.688	13406.82
549.052	13362.08
549.416	13376.31
549.779	13350.33
550.143	13314.85
550.507	13303.32
550.871	13277.33
551.235	13249.76
551.599	13302.19
551.962	13245.7
552.326	13181.97
552.689	13231.23
553.053	13092.25
553.417	13086.83
553.78	13300.16
554.143	13176.55
554.507	13125.7
554.87	13190.56
555.234	13260.61
555.597	13053.61
555.96	13129.99
556.323	13092.93
556.686	13046.15
557.05	13075.53
557.413	13022.65
557.776	12986.72
558.139	13057
558.502	12978.36
558.865	13016.78
559.228	13045.02
559.59	13043.44
559.953	13059.04
560.316	13144.91
560.679	12998.47
561.041	13184.91
561.404	13019.94
561.767	13123.44
562.129	12969.32
562.492	13168.41
562.854	13078.24
563.217	13039.6
563.579	13129.32
563.941	13183.33
564.304	13163.44
564.666	13166.38
565.028	13177.68
565.39	13196.66
565.753	13174.96
566.115	13210.9
566.477	13269.65
566.839	13256.77
567.201	13308.29
567.563	13298.58
567.925	13360.27
568.287	13328.86
568.648	13292.48
569.01	13349.42
569.372	13341.74
569.734	13351.68
570.095	13373.15
570.457	13356.65
570.819	13415.18
571.18	13410.89
571.542	13464.22
571.903	13470.55
572.265	13475.75
572.626	13496.54
572.987	13467.84
573.349	13548.74
573.71	13555.29
574.071	13614.27
574.432	13565.91
574.794	13654.27
575.155	13634.16
575.516	13482.53
575.877	13577.89
576.238	13613.37
576.599	13645.01
576.96	13607.72
577.32	13589.42
577.681	13647.95
578.042	13600.26
578.403	13632.58
578.763	13658.57
579.124	13577.21
579.485	13741.96
579.845	13650.88
580.206	13659.02
580.566	13644.1
580.927	13630.32
581.287	13740.37
581.648	13592.35
582.008	13705.8
582.368	13669.64
582.728	13650.66
583.089	13626.25
583.449	13631.9
583.809	13631.68
584.169	13607.27
584.529	13547.38
584.889	13646.59
585.249	13571.11
585.609	13596.2
585.969	13564.56
586.329	13599.81
586.688	13582.19
587.048	13507.84
587.408	13478.46
587.768	13542.64
588.127	13478.46
588.487	13486.37
588.846	13612.47
589.206	13515.52
589.565	13453.38
589.925	13538.57
590.284	13583.54
590.643	13475.75
591.003	13526.82
591.362	13497.67
591.721	13446.37
592.08	13421.51
592.44	13515.52
592.799	13456.31
593.158	13384.45
593.517	13448.63
593.876	13471.45
594.235	13409.53
594.593	13426.03
594.952	13410.89
595.311	13357.56
595.67	13345.81
596.029	13492.92
596.387	13437.1
596.746	13324.56
597.104	13345.58
597.463	13342.87
597.822	13402.75
598.18	13315.07
598.538	13323.21
598.897	13404.34
599.255	13311.68
599.613	13479.82
599.972	13341.06
600.33	13506.26
600.688	13352.81
601.046	13401.63
601.404	13503.77
601.762	13470.55
602.12	13445.24
602.478	13414.73
602.836	13363.66
603.194	13327.95
603.552	13400.04
603.91	13298.35
604.268	13393.94
604.625	13305.81
604.983	13390.78
605.341	13302.87
605.698	13458.12
606.056	13409.53
606.413	13382.42
606.771	13433.49
607.128	13434.39
607.485	13432.58
607.843	13406.6
608.2	13502.19
608.557	13440.04
608.914	13420.61
609.272	13525.69
609.629	13463.32
609.986	13528.85
610.343	13430.1
610.7	13565.01
611.057	13513.49
611.414	13480.94
611.771	13518.91
612.127	13581.96
612.484	13546.48
612.841	13661.28
613.198	13629.19
613.554	13516.88
613.911	13663.54
614.267	13667.83
614.624	13638.68
614.98	13652.47
615.337	13632.58
615.693	13665.8
616.05	13665.12
616.406	13744.44
616.762	13708.96
617.118	13716.64
617.475	13734.5
617.831	13724.1
618.187	13710.54
618.543	13700.83
618.899	13854.95
619.255	13780.15
619.611	13853.14
619.967	13818.11
620.323	13832.35
620.678	13874.38
621.034	13720.49
621.39	13792.35
621.746	13740.6
622.101	13942.4
622.457	13781.5
622.812	13795.51
623.168	13865.79
623.523	13871.22
623.879	13852.23
624.234	13772.01
624.589	13850.65
624.945	13893.36
625.3	13882.52
625.655	13817.21
626.01	13863.76
626.365	13819.47
626.72	13771.11
627.075	13856.3
627.43	13805.23
627.785	13790.54
628.14	13786.93
628.495	13825.57
628.85	13742.41
629.205	13786.93
629.559	13780.37
629.914	13672.35
630.269	13734.27
630.623	13772.46
630.978	13571.34
631.332	13704.67
631.687	13812.69
632.041	13645.91
632.396	13649.98
632.75	13682.3
633.104	13767.04
633.459	13635.29
633.813	13656.76
634.167	13622.41
634.521	13651.56
634.875	13633.71
635.229	13614.27
635.583	13533.6
635.937	13496.31
636.291	13498.8
636.645	13458.8
636.999	13511.45
637.352	13460.38
637.706	13413.83
638.06	13411.79
638.413	13458.35
638.767	13421.29
639.121	13440.27
639.474	13374.96
639.828	13279.14
640.181	13310.78
640.534	13358.91
640.888	13303.1
641.241	13288.41
641.594	13280.72
641.947	13401.63
642.301	13322.08
642.654	13343.77
643.007	13312.59
643.36	13336.54
643.713	13304
644.066	13329.99
644.419	13237.79
644.771	13169.09
645.124	13016.55
645.477	13062.42
645.83	12980.62
646.182	12899.27
646.535	12852.26
646.888	12909.43
647.24	12785.37
647.593	12882.09
647.945	12779.95
648.298	12774.07
648.65	12739.95
649.002	12683.68
649.355	12824.01
649.707	12766.61
650.059	12873.96
650.411	12963.9
650.763	12973.61
651.115	13091.58
651.467	13057.68
651.819	13016.32
652.171	13098.58
652.523	13024.46
652.875	13069.2
653.227	13031.47
653.578	13130.9
653.93	13063.33
654.282	12982.65
654.633	13058.36
654.985	13077.57
655.337	13102.42
655.688	13020.39
656.039	13002.99
656.391	12984.69
656.742	13026.49
657.094	13071.46
657.445	13105.59
657.796	13012.93
658.147	13076.44
658.498	13094.29
658.849	13154.17
659.2	13019.49
659.551	13068.75
659.902	13127.51
660.253	13091.8
660.604	13136.32
660.955	13006.83
661.306	13169.54
661.656	13125.47
662.007	13097.45
662.358	13126.6
662.708	13048.41
663.059	13134.51
663.409	13057.68
663.76	13194.62
664.11	13182.2
664.461	13141.07
664.811	13130.22
665.161	13151.46
665.511	13075.31
665.862	13119.15
666.212	13121.86
666.562	13127.51
666.912	13130.45
667.262	13115.3
667.612	13153.95
667.962	13186.94
668.312	13113.95
668.662	13193.72
669.011	13154.85
669.361	13017.45
669.711	13144.68
670.06	13171.12
670.41	13083.22
670.76	13031.47
671.109	13087.73
671.459	13085.48
671.808	13083.67
672.157	13166.83
672.507	13071.92
672.856	13048.19
673.205	13121.18
673.554	13099.03
673.904	13009.09
674.253	13078.24
674.602	12993.5
674.951	12867.18
675.3	12787.63
675.649	13016.55
675.998	12901.3
676.346	12993.5
676.695	13004.35
677.044	12884.35
677.393	12899.72
677.741	12914.86
678.09	12883.45
678.438	12864.92
678.787	12892.49
679.135	12853.39
679.484	12716.67
679.832	12861.53
680.181	12710.12
680.529	12807.06
680.877	12795.09
681.225	12722.77
681.573	12835.09
681.922	12623.79
682.27	12746.95
682.618	12670.8
682.966	12636.45
683.314	12703.79
683.661	12604.13
684.009	12556.68
684.357	12449.79
684.705	12499.28
685.053	12534.53
685.4	12490.01
685.748	12395.1
686.095	12359.84
686.443	12318.49
686.79	12325.72
687.138	12393.29
687.485	12359.62
687.832	12301.99
688.18	12345.83
688.527	12212.05
688.874	12228.32
689.221	12129.34
689.568	12073.3
689.915	12092.05
690.262	12025.62
690.609	12057.48
690.956	11999.4
691.303	11945.62
691.65	11957.82
691.997	11870.37
692.344	11721.67
692.69	11743.36
693.037	11746.98
693.383	11637.38
693.73	11701.56
694.077	11688.45
694.423	11609.81
694.769	11522.8
695.116	11438.74
695.462	11461.56
695.808	11388.12
696.155	11466.99
696.501	11306.31
696.847	11339.31
697.193	11339.31
697.539	11258.18
697.885	11262.7
698.231	11110.16
698.577	11188.35
698.923	11154.9
699.269	11069.71
699.614	10983.38
699.96	11035.36
700.306	10983.84
700.651	10910.39
700.997	10894.35
701.342	10842.37
701.688	10835.59
702.033	10775.71
702.379	10767.34
702.724	10748.36
703.069	10789.72
703.415	10588.14
703.76	10602.38
704.105	10589.27
704.45	10575.94
704.795	10543.17
705.14	10468.59
705.485	10441.48
705.83	10402.38
706.175	10374.13
706.52	10367.81
706.865	10302.27
707.209	10354.7
707.554	10282.84
707.899	10296.17
708.243	10228.15
708.588	10170.98
708.932	10034.03
709.277	10106.57
709.621	10083.97
709.966	10057.98
710.31	10055.27
710.654	9968.04
710.998	10011.21
711.342	10015.05
711.687	9929.85
712.031	9884.43
712.375	9839.23
712.719	9913.81
713.063	9908.61
713.407	9866.58
713.75	9823.41
714.094	9760.14
714.438	9751.78
714.782	9739.8
715.125	9705
715.469	9797.88
715.812	9636.3
716.156	9653.7
716.499	9645.34
716.843	9663.87
717.186	9554.72
717.53	9614.61
717.873	9671.33
718.216	9533.93
718.559	9532.57
718.902	9452.8
719.246	9503.2
719.589	9467.49
719.932	9471.78
720.275	9448.96
720.617	9453.03
720.96	9435.4
721.303	9469.53
721.646	9474.72
721.989	9407.15
722.331	9400.37
722.674	9346.14
723.016	9392.24
723.359	9359.7
723.701	9340.49
724.044	9370.77
724.386	9272.47
724.729	9354.73
725.071	9346.14
725.413	9273.15
725.755	9336.65
726.097	9289.42
726.439	9253.71
726.782	9240.38
727.124	9276.08
727.465	9248.97
727.807	9352.47
728.149	9218.68
728.491	9158.8
728.833	9242.41
729.175	9233.6
729.516	9171.91
729.858	9239.02
730.199	9202.19
730.541	9137.33
730.882	9196.54
731.224	9213.49
731.565	9142.08
731.906	9111.12
732.248	9188.63
732.589	9180.49
732.93	9174.17
733.271	9148.63
733.612	9157.44
733.953	9185.69
734.294	9091.23
734.635	9122.19
734.976	9152.02
735.317	9126.03
735.658	9157.22
735.999	9185.92
736.339	9189.53
736.68	9211.45
737.021	9145.01
737.361	9147.05
737.702	9211.23
738.042	9152.47
738.383	9201.96
738.723	9177.1
739.063	9125.81
739.404	9202.41
739.744	9222.75
740.084	9183.88
740.424	9168.29
740.764	9232.47
741.104	9278.8
741.444	9177.33
741.784	9256.2
742.124	9314.95
742.464	9269.98
742.804	9253.94
743.143	9320.6
743.483	9332.58
743.823	9328.74
744.162	9452.35
744.502	9391.56
744.841	9390.43
745.181	9483.76
745.52	9454.38
745.86	9479.69
746.199	9550.65
746.538	9537.32
746.877	9616.41
747.216	9664.32
747.556	9698.9
747.895	9752.23
748.234	9761.27
748.573	9847.37
748.911	9954.48
749.25	9922.17
749.589	9996.97
749.928	10058.44
750.267	10171.88
750.605	10191.54
750.944	10276.96
751.283	10327.13
751.621	10497.07
751.96	10516.5
752.298	10605.09
752.636	10670.62
752.975	10724.63
753.313	10843.73
753.651	10970.5
753.989	11056.15
754.327	11206.2
754.666	11245.98
755.004	11373.43
755.342	11558.74
755.679	11606.19
756.017	11717.38
756.355	11895.9
756.693	11951.72
757.031	12127.99
757.368	12292.5
757.706	12355.55
758.044	12461.76
758.381	12602.32
758.719	12826.5
759.056	12921.19
759.394	13144.46
759.731	13186.04
760.068	13333.38
760.405	13503.09
760.743	13629.87
761.08	13804.1
761.417	13880.03
761.754	14011.33
762.091	14250.19
762.428	14370.64
762.765	14506.68
763.102	14756.17
763.438	14809.5
763.775	14899.44
764.112	15130.62
764.449	15331.74
764.785	15387.34
765.122	15475.02
765.458	15609.25
765.795	15861.45
766.131	15928.11
766.467	16078.39
766.804	16111.84
767.14	16267.76
767.476	16464.6
767.812	16512.73
768.148	16624.14
768.485	16747.75
768.821	16882.21
769.157	16905.71
769.492	17043.56
769.828	17083.56
770.164	17173.28
770.5	17257.12
770.836	17363.55
771.171	17518.58
771.507	17504.79
771.842	17529.65
772.178	17650.78
772.513	17795.18
772.849	17783.43
773.184	17856.2
773.519	17926.48
773.855	18086.7
774.19	17948.85
774.525	18048.96
774.86	18160.14
775.195	18203.31
775.53	18198.11
775.865	18108.17
776.2	18268.16
776.535	18141.84
776.87	18276.75
777.205	18311.1
777.539	18212.8
777.874	18409.18
778.209	18318.78
778.543	18299.58
778.878	18427.03
779.212	18461.6
779.547	18368.05
779.881	18467.48
780.215	18374.83
780.55	18489.63
780.884	18397.88
781.218	18431.55
781.552	18417.54
781.886	18481.27
782.22	18372.12
782.554	18408.05
782.888	18276.07
783.222	18262.06
783.556	18254.15
783.889	18212.57
784.223	18083.54
784.557	18125.57
784.89	18251.67
785.224	18122.86
785.557	18072.69
785.891	18184.78
786.224	18067.49
786.558	18224.55
786.891	18079.24
787.224	17973.93
787.557	18051.9
787.891	17993.59
788.224	18105.68
788.557	18033.59
788.89	17945.91
789.223	18025.91
789.556	17839.7
789.888	17788.4
790.221	17811
790.554	17778.69
790.887	17757.89
791.219	17667.05
791.552	17688.52
791.884	17668.86
792.217	17545.92
792.549	17511.35
792.882	17550.22
793.214	17427.28
793.546	17429.77
793.879	17385.25
794.211	17213.28
794.543	17296.66
794.875	17288.98
795.207	17328.08
795.539	17209.21
795.871	17217.8
796.203	17086.27
796.535	16967.86
796.867	17067.52
797.198	16970.12
797.53	17001.76
797.862	16836.56
798.193	16900.97
798.525	16778.94
798.856	16787.52
799.188	16728.09
799.519	16680.63
799.85	16548.66
800.182	16586.4
800.513	16579.17
800.844	16468.44
801.175	16498.04
801.506	16572.39
801.837	16407.87
802.168	16461.43
802.499	16326.29
802.83	16243.36
803.161	16250.14
803.491	16230.03
803.822	16310.48
804.153	16177.82
804.483	16071.84
804.814	16123.81
805.145	16062.8
805.475	16042.46
805.805	15962.01
806.136	16000.2
806.466	15968.11
806.796	15985.29
807.126	15766.53
807.457	15778.29
807.787	15856.02
808.117	15782.35
808.447	15687.44
808.777	15772.18
809.107	15641.57
809.436	15600.89
809.766	15578.52
810.096	15543.94
810.426	15411.29
810.755	15545.75
811.085	15333.55
811.414	15465.75
811.744	15324.29
812.073	15251.52
812.403	15237.28
812.732	15135.82
813.061	15183.27
813.39	15177.62
813.719	15060.11
814.049	15137.4
814.378	15103.73
814.707	15126.78
815.036	15078.87
815.365	14887.69
815.693	14917.52
816.022	14904.18
816.351	14863.51
816.68	14766.79
817.008	14820.12
817.337	14741.25
817.665	14738.77
817.994	14735.6
818.322	14664.19
818.651	14594.14
818.979	14559.11
819.307	14593.23
819.636	14546.68
819.964	14506.68
820.292	14531.09
820.62	14546.45
820.948	14463.07
821.276	14533.12
821.604	14458.55
821.932	14537.19
822.259	14476.63
822.587	14527.92
822.915	14438.43
823.243	14578.77
823.57	14489.28
823.898	14485.21
824.225	14508.94
824.553	14427.36
824.88	14466.91
825.207	14458.77
825.535	14501.94
825.862	14503.06
826.189	14456.74
826.516	14486.34
826.843	14485.44
827.17	14460.13
827.497	14484.76
827.824	14489.73
828.151	14506.91
828.478	14452.67
828.805	14550.75
829.131	14456.96
829.458	14480.92
829.785	14446.8
830.111	14429.62
830.438	14528.83
830.764	14538.54
831.09	14442.73
831.417	14455.83
831.743	14414.48
832.069	14488.83
832.395	14396.4
832.722	14511.65
833.048	14458.77
833.374	14437.76
833.7	14345.1
834.026	14456.51
834.351	14392.11
834.677	14301.71
835.003	14289.96
835.329	14324.31
835.654	14346.23
835.98	14259.91
836.306	14286.35
836.631	14174.71
836.956	14277.53
837.282	14331.09
837.607	14193.02
837.932	14180.36
838.258	14167.25
838.583	14244.31
838.908	14086.13
839.233	14049.74
839.558	14055.39
839.883	13919.13
840.208	14007.48
840.533	13997.09
840.858	13969.97
841.182	13906.02
841.507	13835.96
841.832	13855.4
842.156	13816.3
842.481	13913.25
842.805	13807.26
843.13	13799.13
843.454	13735.18
843.778	13723.2
844.103	13681.39
844.427	13621.28
844.751	13648.17
845.075	13639.36
845.399	13651.34
845.723	13486.37
846.047	13549.64
846.371	13388.52
846.695	13374.06
847.019	13320.5
847.343	13316.43
847.666	13102.88
847.99	13075.53
848.313	13147.85
848.637	13033.5
848.96	12953.95
849.284	12986.95
849.607	12853.84
849.931	12906.04
850.254	12744.92
850.577	12680.29
850.9	12583.12
851.223	12666.05
851.546	12529.33
851.869	12478.71
852.192	12607.52
852.515	12428.77
852.838	12402.78
853.161	12378.6
853.483	12284.14
853.806	12301.77
854.129	12261.77
854.451	12134.09
854.774	12171.37
855.096	12092.28
855.419	12100.87
855.741	11947.43
856.063	11960.31
856.385	11992.4
856.708	11897.71
857.03	11916.47
857.352	11887.31
857.674	11847.32
857.996	11695.23
858.318	11726.41
858.64	11742.01
858.961	11623.14
859.283	11578.17
859.605	11534.33
859.926	11586.53
860.248	11547.44
860.57	11411.17
860.891	11495.01
861.212	11463.37
861.534	11361.9
861.855	11404.62
862.176	11448.68
862.498	11323.26
862.819	11376.59
863.14	11344.28
863.461	11332.07
863.782	11248.01
864.103	11294.11
864.424	11164.62
864.745	11291.17
865.065	11207.11
865.386	11132.76
865.707	11082.14
866.027	11118.07
866.348	11150.38
866.668	11160.55
866.989	11099.76
867.309	11013.44
867.63	11015.93
867.95	11049.82
868.27	10954.23
868.59	11012.99
868.91	10933.44
869.23	10858.64
869.55	10833.78
869.87	10919.88
870.19	10881.92
870.51	10929.6
870.83	10959.43
871.15	10743.62
871.469	10805.31
871.789	10814.35
872.109	10847.34
872.428	10771.86
872.748	10778.64
873.067	10700.23
873.386	10739.55
873.706	10779.55
874.025	10623.62
874.344	10606.67
874.663	10674.47
874.982	10573.9
875.301	10598.08
875.62	10535.03
875.939	10520.57
876.258	10568.93
876.577	10449.61
876.896	10522.15
877.214	10429.73
877.533	10471.53
877.852	10446.9
878.17	10491.87
878.489	10440.8
878.807	10423.62
879.125	10382.72
879.444	10358.09
879.762	10375.26
880.08	10352.44
880.398	10303.18
880.716	10363.96
881.034	10257.07
881.352	10228.38
881.67	10257.98
881.988	10224.76
882.306	10187.25
882.624	10206.91
882.941	10227.02
883.259	10191.99
883.577	10130.3
883.894	10129.62
884.212	10005.1
884.529	10086.68
884.846	10012.11
885.164	10043.75
885.481	9972.11
885.798	9981.83
886.115	9910.87
886.432	9881.72
886.75	9920.59
887.067	9945.9
887.383	9758.56
887.7	9809.86
888.017	9783.19
888.334	9712.91
888.651	9745
888.967	9752.23
889.284	9730.31
889.6	9619.13
889.917	9607.83
890.233	9592.69
890.55	9540.71
890.866	9558.34
891.182	9604.89
891.498	9490.09
891.815	9495.74
892.131	9401.96
892.447	9443.54
892.763	9384.1
893.079	9360.6
893.395	9318.12
893.71	9235.63
894.026	9328.29
894.342	9199.93
894.657	9174.39
894.973	9110.66
895.289	9145.92
895.604	9139.36
895.92	9072.93
896.235	9040.84
896.55	8999.71
896.865	8921.97
897.181	9014.17
897.496	9004.68
897.811	8960.39
898.126	8841.74
898.441	8784.35
898.756	8744.8
899.071	8755.42
899.386	8704.35
899.7	8660.96
900.015	8671.13
900.33	8582.99
900.644	8592.49
900.959	8638.13
901.273	8582.54
901.588	8495.77
901.902	8507.97
902.216	8479.49
902.531	8454.18
902.845	8445.15
903.159	8368.31
903.473	8301.65
903.787	8263.23
904.101	8220.29
904.415	8192.27
904.729	8231.59
905.042	8180.75
905.356	8113.85
905.67	8099.62
905.984	8144.36
906.297	8105.49
906.611	7989.11
906.924	7999.06
907.237	8053.74
907.551	7939.85
907.864	7918.38
908.177	7874.99
908.491	7845.16
908.804	7807.2
909.117	7842
909.43	7704.15
909.743	7691.94
910.056	7688.33
910.368	7646.07
910.681	7621.21
910.994	7557.48
911.307	7510.25
911.619	7490.37
911.932	7528.11
912.244	7440.43
912.557	7412.18
912.869	7421.44
913.181	7335.12
913.494	7371.28
913.806	7314.78
914.118	7225.29
914.43	7214.67
914.742	7283.59
915.054	7171.51
915.366	7149.81
915.678	7117.95
915.99	7097.16
916.302	7068.68
916.613	6991.85
916.925	7014.9
917.236	7033.66
917.548	6951.4
917.859	6938.29
918.171	6941.91
918.482	6868.24
918.794	6849.03
919.105	6837.96
919.416	6741.91
919.727	6728.35
920.038	6731.97
920.349	6718.18
920.66	6723.38
920.971	6619.88
921.282	6627.79
921.593	6578.75
921.903	6575.59
922.214	6566.32
922.525	6538.3
922.835	6524.29
923.146	6464.63
923.456	6419.66
923.767	6387.57
924.077	6409.49
924.387	6381.02
924.697	6359.32
925.008	6267.35
925.318	6242.94
925.628	6244.53
925.938	6243.85
926.248	6145.09
926.558	6113.23
926.867	6150.97
927.177	6144.19
927.487	6093.34
927.796	5978.54
928.106	6047.69
928.416	6044.98
928.725	6044.53
929.034	5968.6
929.344	5989.62
929.653	5930.41
929.962	5914.82
930.271	5826.01
930.581	5826.46
930.89	5740.81
931.199	5731.54
931.508	5783.52
931.817	5824.2
932.125	5713.92
932.434	5723.18
932.743	5694.71
933.051	5654.26
933.36	5607.71
933.669	5627.14
933.977	5622.39
934.286	5590.3
934.594	5548.05
934.902	5490.19
935.21	5506.24
935.519	5471.89
935.827	5471.89
936.135	5423.76
936.443	5369.07
936.751	5371.55
937.059	5398.67
937.367	5361.16
937.674	5395.06
937.982	5345.79
938.29	5245
938.597	5279.58
938.905	5227.38
939.213	5209.98
939.52	5176.08
939.827	5176.76
940.135	5118.68
940.442	5109.64
940.749	5124.55
941.056	5105.12
941.363	5027.61
941.67	5017.44
941.977	5035.74
942.284	4962.75
942.591	4956.42
942.898	4912.13
943.205	4945.12
943.511	4888.4
943.818	4943.32
944.125	4824.9
944.431	4819.25
944.738	4878.01
945.044	4799.82
945.35	4758.91
945.657	4758.69
945.963	4716.43
946.269	4717.11
946.575	4714.4
946.881	4642.08
947.187	4685.47
947.493	4645.02
947.799	4643.89
948.105	4618.81
948.41	4571.12
948.716	4566.83
949.022	4555.98
949.327	4532.25
949.633	4466.94
949.938	4495.19
950.244	4504.46
950.549	4443.67
950.854	4436.44
951.16	4389.43
951.465	4369.32
951.77	4379.26
952.075	4362.54
952.38	4326.61
952.685	4331.81
952.99	4281.64
953.294	4299.49
953.599	4259.94
953.904	4238.48
954.209	4219.72
954.513	4247.52
954.818	4151.92
955.122	4175.88
955.426	4163.68
955.731	4097.46
956.035	4117.35
956.339	4137.24
956.643	4097.69
956.948	4055.66
957.252	4031.7
957.556	4048.65
957.86	4001.87
958.163	3981.53
958.467	3975.21
958.771	3969.78
959.075	3972.49
959.378	3885.04
959.682	3887.3
959.985	3929.78
960.289	3868.77
960.592	3865.83
960.896	3848.2
961.199	3832.39
961.502	3791.71
961.805	3804.59
962.108	3756.45
962.411	3762.78
962.714	3726.17
963.017	3737.47
963.32	3742.44
963.623	3684.14
963.926	3663.8
964.228	3630.81
964.531	3688.43
964.833	3627.87
965.136	3600.53
965.438	3626.51
965.741	3573.63
966.043	3556.23
966.345	3553.07
966.648	3525.05
966.95	3542.9
967.252	3530.47
967.554	3493.86
967.856	3490.7
968.158	3420.87
968.46	3412.51
968.761	3427.65
969.063	3407.31
969.365	3413.87
969.666	3405.96
969.968	3396.46
970.269	3365.28
970.571	3327.77
970.872	3365.28
971.174	3304.04
971.475	3322.57
971.776	3264.04
972.077	3247.32
972.378	3259.97
972.679	3233.76
972.98	3263.36
973.281	3224.94
973.582	3224.94
973.883	3180.88
974.183	3132.52
974.484	3132.74
974.785	3151.73
975.085	3142.46
975.386	3144.95
975.686	3104.95
975.986	3108.56
976.287	3103.14
976.587	3062.91
976.887	3026.98
977.187	3067.89
977.487	3043.48
977.787	3003.03
978.087	2979.53
978.387	2965.29
978.687	2988.11
978.987	2956.02
979.286	2937.72
979.586	2931.17
979.885	2907.66
980.185	2896.82
980.484	2877.83
980.784	2869.25
981.083	2852.3
981.382	2849.81
981.682	2871.73
981.981	2855.01
982.28	2820.89
982.579	2808.91
982.878	2807.33
983.177	2784.05
983.475	2784.73
983.774	2753.77
984.073	2754.67
984.372	2706.76
984.67	2682.13
984.969	2709.02
985.267	2671.96
985.566	2666.99
985.864	2677.39
986.162	2694.56
986.461	2658.4
986.759	2624.73
987.057	2608.24
987.355	2600.55
987.653	2587.22
987.951	2586.99
988.249	2588.12
988.547	2551.74
988.844	2555.36
989.142	2557.62
989.44	2504.96
989.737	2528.46
990.035	2524.4
990.332	2514.91
990.63	2461.8
990.927	2447.56
991.224	2452.99
991.521	2446.88
991.819	2439.65
992.116	2411.86
992.413	2424.29
992.71	2429.71
993.006	2428.81
993.303	2391.52
993.6	2372.31
993.897	2384.06
994.193	2324.4
994.49	2335.7
994.787	2297.51
995.083	2276.72
995.379	2306.32
995.676	2291.63
995.972	2274.01
996.268	2225.65
996.565	2251.41
996.861	2258.87
997.157	2260.45
997.453	2233.56
997.749	2230.39
998.044	2208.25
998.34	2227
998.636	2195.14
998.932	2177.06
999.227	2168.02
999.523	2128.48
999.818	2117.63
1000.114	2097.97
1000.409	2113.79
1000.704	2093.22
1001	2111.98
1001.295	2085.54
1001.59	2060.68
1001.885	2060.45
1002.18	2030.62
1002.475	2050.96
1002.77	2035.37
1003.065	2052.77
1003.359	1993.79
1003.654	1976.39
1003.949	1999.66
1004.243	1980
1004.538	1964.41
1004.832	1963.06
1005.127	1918.09
1005.421	1902.27
1005.715	1916.05
1006.009	1896.62
1006.304	1897.07
1006.598	1881.48
1006.892	1854.13
1007.186	1848.03
1007.48	1830.86
1007.773	1851.87
1008.067	1835.38
1008.361	1817.3
1008.655	1784.53
1008.948	1813.91
1009.242	1790.4
1009.535	1756.28
1009.829	1764.64
1010.122	1756.51
1010.415	1769.61
1010.708	1746.56
1011.001	1728.49
1011.295	1704.31
1011.588	1699.79
1011.881	1704.08
1012.173	1706.11
1012.466	1660.24
1012.759	1681.48
1013.052	1671.54
1013.344	1674.93
1013.637	1608.26
1013.93	1629.73
1014.222	1611.2
1014.514	1605.78
1014.807	1602.61
1015.099	1595.83
1015.391	1583.4
1015.683	1568.94
1015.976	1554.48
1016.268	1569.17
1016.56	1543.86
1016.851	1540.02
1017.143	1531.65
1017.435	1547.02
1017.727	1501.6
1018.018	1496.18
1018.31	1519.45
1018.602	1487.36
1018.893	1474.03
1019.185	1463.41
1019.476	1464.99
1019.767	1442.39
1020.058	1403.3
1020.35	1431.54
1020.641	1429.51
1020.932	1402.62
1021.223	1421.83
1021.514	1382.51
1021.804	1379.57
1022.095	1343.41
1022.386	1336.18
1022.677	1378.66
1022.967	1342.96
1023.258	1345.44
1023.548	1332.79
1023.839	1343.19
1024.129	1330.08
1024.419	1304.99
1024.709	1318.33
1025	1302.73
1025.29	1249.18
1025.58	1254.6
1025.87	1269.74
1026.16	1248.72
1026.449	1223.41
1026.739	1250.53
1027.029	1226.35
1027.319	1245.33
1027.608	1216.41
1027.898	1209.86
1028.187	1195.84
1028.477	1222.28
1028.766	1211.44
1029.055	1169.63
1029.344	1167.82
1029.634	1169.4
1029.923	1140.93
1030.212	1153.59
1030.501	1147.03
1030.79	1138.22
1031.078	1102.74
1031.367	1114.26
1031.656	1121.95
1031.945	1119.46
1032.233	1080.59
1032.522	1082.85
1032.81	1099.58
1033.099	1079.92
1033.387	1085.34
1033.675	1074.49
1033.963	1049.63
1034.251	1031.55
1034.54	1046.47
1034.828	1019.58
1035.116	1036.07
1035.403	1040.82
1035.691	1016.64
1035.979	1036.75
1036.267	1000.37
1036.554	999.92
1036.842	995.4
1037.129	986.13
1037.417	967.38
1037.704	956.53
1037.992	957.66
1038.279	939.58
1038.566	939.35
1038.853	939.35
1039.14	939.35
