Data from hue_34_FLMS001491_00034.txt Node
Date: Tue Feb 07 17:25:32 GMT 2017
User: dcchb
Spectrometer: FLMS00149
Trigger mode: 0
Integration Time (sec): 2.000000E-2
Scans to average: 10
Electric dark correction enabled: true
Nonlinearity correction enabled: false
Boxcar width: 0
XAxis mode: Wavelengths
Number of Pixels in Spectrum: 2048
>>>>>Begin Spectral Data<<<<<
341.393	-8.26
341.776	-8.26
342.16	-8.26
342.543	-25.44
342.927	-34.48
343.31	-61.59
343.693	-63.85
344.077	-74.02
344.46	-62.72
344.843	-46.68
345.226	-52.56
345.61	-31.99
345.993	-16.85
346.376	1
346.759	15.92
347.142	15.47
347.525	57.72
347.908	73.09
348.291	66.76
348.674	80.32
349.057	99.98
349.44	139.53
349.823	160.77
350.206	163.94
350.588	206.42
350.971	213.43
351.354	226.31
351.737	246.87
352.119	246.42
352.502	285.52
352.884	282.35
353.267	288.9
353.65	306.76
354.032	301.11
354.414	315.57
354.797	312.63
355.179	326.42
355.562	319.41
355.944	338.85
356.326	342.46
356.709	347.89
357.091	336.36
357.473	346.08
357.855	360.32
358.238	349.92
358.62	357.38
359.002	354.44
359.384	342.01
359.766	333.65
360.148	355.57
360.53	347.21
360.912	337.72
361.294	342.01
361.676	357.6
362.057	353.99
362.439	336.14
362.821	312.41
363.203	348.11
363.584	327.77
363.966	328.45
364.348	315.12
364.729	319.41
365.111	330.94
365.493	323.48
365.874	321.45
366.256	320.32
366.637	339.98
367.019	303.82
367.4	320.99
367.781	309.92
368.163	303.14
368.544	311.73
368.925	333.42
369.306	336.81
369.688	330.94
370.069	317.38
370.45	335.01
370.831	326.87
371.212	305.63
371.593	325.51
371.974	318.96
372.355	309.02
372.736	318.28
373.117	306.31
373.498	311.73
373.879	318.51
374.26	311.28
374.641	323.93
375.021	332.07
375.402	332.29
375.783	306.31
376.163	309.92
376.544	338.85
376.925	336.59
377.305	344.5
377.686	313.08
378.066	328.9
378.447	336.59
378.827	334.55
379.208	354.44
379.588	336.36
379.968	337.72
380.349	363.71
380.729	332.52
381.109	337.27
381.489	335.01
381.87	335.91
382.25	310.37
382.63	338.62
383.01	335.91
383.39	368
383.77	345.17
384.15	343.14
384.53	346.3
384.91	342.46
385.29	347.66
385.67	349.69
386.049	345.4
386.429	342.24
386.809	352.86
387.189	343.37
387.568	370.48
387.948	374.55
388.328	360.77
388.707	345.17
389.087	345.63
389.466	373.87
389.846	351.05
390.225	365.96
390.605	356.47
390.984	375.68
391.363	369.81
391.743	364.61
392.122	369.13
392.501	368.9
392.881	373.87
393.26	376.59
393.639	373.42
394.018	362.35
394.397	389.92
394.776	385.63
395.155	388.34
395.534	379.98
395.913	369.13
396.292	385.17
396.671	365.96
397.05	376.13
397.429	352.63
397.808	370.26
398.186	414.1
398.565	377.49
398.944	382.24
399.323	381.33
399.701	390.37
400.08	396.02
400.458	397.15
400.837	381.11
401.215	404.83
401.594	387.66
401.972	408.22
402.351	395.34
402.729	401.22
403.107	417.26
403.486	394.89
403.864	383.82
404.242	406.19
404.62	418.62
404.999	398.73
405.377	408.45
405.755	399.64
406.133	395.34
406.511	423.14
406.889	435.34
407.267	415.68
407.645	427.88
408.023	411.16
408.401	422.01
408.779	418.62
409.156	426.98
409.534	442.8
409.912	421.78
410.29	460.2
410.667	449.35
411.045	467.43
411.422	420.88
411.8	451.16
412.178	456.81
412.555	457.71
412.933	461.78
413.31	466.98
413.687	454.78
414.065	465.17
414.442	460.43
414.819	471.27
415.197	473.31
415.574	473.76
415.951	467.21
416.328	469.01
416.705	493.65
417.082	478.96
417.46	481.44
417.837	500.88
418.214	506.3
418.591	507.88
418.967	512.85
419.344	486.87
419.721	497.26
420.098	494.1
420.475	523.25
420.852	513.31
421.228	509.69
421.605	519.63
421.982	516.02
422.358	519.18
422.735	508.79
423.111	525.96
423.488	542.91
423.864	539.52
424.241	531.16
424.617	518.73
424.994	510.37
425.37	551.04
425.746	543.59
426.123	566.41
426.499	578.84
426.875	570.71
427.251	554.89
427.627	555.11
428.003	563.47
428.379	569.8
428.756	578.84
429.132	563.47
429.507	572.06
429.883	599.86
430.259	589.46
430.635	615.22
431.011	594.89
431.387	596.24
431.763	611.83
432.138	614.32
432.514	598.28
432.89	622.68
433.265	630.82
433.641	633.75
434.016	649.57
434.392	645.96
434.767	651.61
435.143	646.86
435.518	652.51
435.894	643.47
436.269	656.8
436.644	681.21
437.02	670.59
437.395	685.73
437.77	706.07
438.145	685.5
438.52	680.08
438.895	699.52
439.271	691.61
439.646	704.26
440.021	717.59
440.395	707.88
440.77	734.32
441.145	715.11
441.52	744.26
441.895	762.79
442.27	726.18
442.645	762.79
443.019	757.82
443.394	736.35
443.769	758.27
444.143	743.13
444.518	767.54
444.892	756.46
445.267	744.49
445.641	780.64
446.016	779.74
446.39	758.95
446.764	787.65
447.139	784.94
447.513	777.25
447.887	784.94
448.262	784.26
448.636	780.19
449.01	804.82
449.384	808.44
449.758	814.77
450.132	832.62
450.506	795.33
450.88	816.8
451.254	837.59
451.628	828.33
452.002	833.07
452.376	865.84
452.75	874.65
453.123	859.29
453.497	868.32
453.871	877.82
454.244	894.31
454.618	917.59
454.992	907.87
455.365	920.53
455.739	925.05
456.112	931.15
456.486	923.24
456.859	947.19
457.232	986.74
457.606	967.08
457.979	967.08
458.352	984.71
458.725	975.44
459.099	1006.85
459.472	1005.27
459.845	1017.02
460.218	1019.28
460.591	1035.78
460.964	1032.61
461.337	1065.38
461.71	1066.96
462.083	1086.17
462.456	1083.69
462.829	1095.21
463.201	1101.31
463.574	1124.59
463.947	1146.51
464.32	1156
464.692	1152.61
465.065	1134.53
465.438	1179.73
465.81	1200.97
466.183	1208.2
466.555	1235.55
466.928	1269.44
467.3	1237.13
467.672	1276.68
468.045	1293.62
468.417	1291.59
468.789	1297.92
469.161	1333.17
469.534	1334.75
469.906	1385.37
470.278	1380.63
470.65	1395.09
471.022	1409.1
471.394	1429.89
471.766	1481.87
472.138	1506.27
472.51	1520.96
472.882	1547.63
473.253	1595.31
473.625	1589.89
473.997	1645.25
474.369	1657
474.74	1692.03
475.112	1743.1
475.484	1771.35
475.855	1799.83
476.227	1836.66
476.598	1855.64
476.97	1873.04
477.341	1949.2
477.713	1994.85
478.084	2003.89
478.455	2085.02
478.827	2092.47
479.198	2153.49
479.569	2194.84
479.94	2245.92
480.311	2270.77
480.682	2371.79
481.053	2437.77
481.424	2512.12
481.795	2515.06
482.166	2585.79
482.537	2636.64
482.908	2710.99
483.279	2733.81
483.65	2834.37
484.021	2907.37
484.391	2964.54
484.762	3001.38
485.133	3092.9
485.503	3145.78
485.874	3240.69
486.244	3296.96
486.615	3355.26
486.985	3441.82
487.356	3531.76
487.726	3604.07
488.097	3655.82
488.467	3712.77
488.837	3833.9
489.207	3900.34
489.578	4003.61
489.948	4028.92
490.318	4195.02
490.688	4185.98
491.058	4317.95
491.428	4370.83
491.798	4449.02
492.168	4487.89
492.538	4606.31
492.908	4700.31
493.278	4752.29
493.648	4835.23
494.017	4980.98
494.387	4999.97
494.757	5093.52
495.126	5158.83
495.496	5230.47
495.866	5256.68
496.235	5300.98
496.605	5389.11
496.974	5503.01
497.344	5561.99
497.713	5600.63
498.082	5679.27
498.452	5712.94
498.821	5790
499.19	5864.58
499.559	5919.49
499.928	5966.95
500.298	6044.69
500.667	6089.88
501.036	6132.37
501.405	6246.26
501.774	6273.61
502.143	6295.98
502.512	6334.85
502.88	6452.58
503.249	6517.67
503.618	6554.5
503.987	6537.78
504.356	6640.15
504.724	6696.42
505.093	6698.23
505.462	6708.4
505.83	6783.2
506.199	6922.85
506.567	6980.71
506.936	7023.19
507.304	7081.95
507.672	7133.47
508.041	7150.87
508.409	7237.2
508.777	7268.16
509.145	7366.23
509.514	7313.35
509.882	7405.33
510.25	7396.97
510.618	7477.42
510.986	7511.31
511.354	7605.55
511.722	7667.69
512.09	7779.56
512.458	7733.23
512.826	7772.1
513.193	7781.59
513.561	7845.77
513.929	7941.13
514.297	7983.17
514.664	8072.88
515.032	8026.55
515.4	8134.57
515.767	8135.93
516.135	8176.83
516.502	8153.78
516.869	8296.83
517.237	8278.53
517.604	8308.35
517.972	8385.19
518.339	8448.24
518.706	8434.23
519.073	8427.22
519.44	8434
519.808	8543.6
520.175	8560.55
520.542	8691.62
520.909	8687.78
521.276	8758.96
521.643	8825.63
522.009	8842.35
522.376	8885.29
522.743	8932.97
523.11	9009.58
523.477	9116.24
523.843	9116.02
524.21	9170.71
524.577	9276.47
524.943	9345.39
525.31	9358.04
525.676	9415.44
526.043	9544.03
526.409	9480.75
526.776	9612.73
527.142	9576.34
527.508	9633.52
527.874	9706.51
528.241	9800.97
528.607	9838.48
528.973	9871.03
529.339	9858.82
529.705	9961.64
530.071	10034.64
530.437	10150.11
530.803	10166.84
531.169	10196.89
531.535	10203.22
531.901	10209.1
532.267	10312.82
532.632	10360.28
532.998	10383.33
533.364	10520.73
533.73	10377
534.095	10674.39
534.461	10680.27
534.826	10676.65
535.192	10692.02
535.557	10775.41
535.923	10819.48
536.288	10771.79
536.653	10879.59
537.019	10881.17
537.384	10892.92
537.749	10990.32
538.114	10969.75
538.479	11010.2
538.845	11070.99
539.21	11137.43
539.575	11138.56
539.94	11204.55
540.305	11305.34
540.67	11275.96
541.034	11314.38
541.399	11392.34
541.764	11387.82
542.129	11521.6
542.494	11531.55
542.858	11582.17
543.223	11572.22
543.587	11671.43
543.952	11622.39
544.316	11753.69
544.681	11751.43
545.045	11752.78
545.41	11863.74
545.774	11961.37
546.138	11948.26
546.503	12037.52
546.867	11995.49
547.231	12077.97
547.595	12108.26
547.959	12141.02
548.324	12155.03
548.688	12148.93
549.052	12275.93
549.416	12310.06
549.779	12343.5
550.143	12362.49
550.507	12478.41
550.871	12535.36
551.235	12516.83
551.599	12609.26
551.962	12610.39
552.326	12668.01
552.689	12764.96
553.053	12807.67
553.417	12783.72
553.78	12931.06
554.143	12900.32
554.507	12946.43
554.87	12935.13
555.234	13054.22
555.597	12947.78
555.96	13031.17
556.323	13108.68
556.686	13112.97
557.05	13169.24
557.413	13292.86
557.776	13229.36
558.139	13410.14
558.502	13391.16
558.865	13386.19
559.228	13482.91
559.59	13523.59
559.953	13654.88
560.316	13731.04
560.679	13638.84
561.041	13778.49
561.404	13824.37
561.767	13904.59
562.129	13812.62
562.492	14003.35
562.854	14017.81
563.217	14004.48
563.579	14081.08
563.941	14123.34
564.304	14145.94
564.666	14295.54
565.028	14162.66
565.39	14347.97
565.753	14353.85
566.115	14423.22
566.477	14521.07
566.839	14481.53
567.201	14567.4
567.563	14652.37
567.925	14689.2
568.287	14768.07
568.648	14797
569.01	14864.11
569.372	14929.2
569.734	14844.45
570.095	15028.63
570.457	15041.06
570.819	15158.8
571.18	15168.29
571.542	15195.18
571.903	15298
572.265	15416.19
572.626	15483.31
572.987	15566.7
573.349	15562.18
573.71	15643.98
574.071	15769.85
574.432	15754.71
574.794	15981.37
575.155	16017.3
575.516	16061.37
575.877	16168.94
576.238	16227.02
576.599	16405.54
576.96	16474.24
577.32	16515.14
577.681	16674.91
578.042	16822.26
578.403	16900.67
578.763	17068.35
579.124	17113.77
579.485	17350.6
579.845	17552.63
580.206	17639.18
580.566	17738.16
580.927	17935.22
581.287	18005.05
581.648	18180.64
582.008	18395.32
582.368	18518.48
582.728	18711.7
583.089	18896.55
583.449	19015.42
583.809	19371.79
584.169	19509.64
584.529	19617.44
584.889	19919.8
585.249	19969.07
585.609	20144.65
585.969	20498.99
586.329	20585.77
586.688	20923.62
587.048	21129.94
587.408	21413.55
587.768	21572.19
588.127	21832.52
588.487	22070.7
588.846	22386.18
589.206	22557.02
589.565	22690.58
589.925	23115.42
590.284	23383.44
590.643	23566.94
591.003	23877.44
591.362	24122.18
591.721	24338.67
592.08	24545.67
592.44	24883.06
592.799	25135.94
593.158	25293.22
593.517	25575.25
593.876	25906.54
594.235	26013.2
594.593	26394.66
594.952	26657.93
595.311	26863.35
595.67	27160.06
596.029	27608.19
596.387	27798.24
596.746	28059.02
597.104	28178.34
597.463	28475.51
597.822	28871.43
598.18	28899
598.538	29219.67
598.897	29618.76
599.255	29599.09
599.613	30232.3
599.972	30160.89
600.33	30474.55
600.688	30690.37
601.046	30915.9
601.404	31318.37
601.762	31344.81
602.12	31755.2
602.478	31857.79
602.836	32215.07
603.194	32136.2
603.552	32528.74
603.91	32534.61
604.268	32935.96
604.625	32977.76
604.983	33367.13
605.341	33290.75
605.698	33710.62
606.056	33792.88
606.413	34104.29
606.771	34327.11
607.128	34555.12
607.485	34564.84
607.843	34755.57
608.2	35038.73
608.557	35252.28
608.914	35321.88
609.272	35622.67
609.629	35839.16
609.986	36055.65
610.343	35999.83
610.7	36325.25
611.057	36402.31
611.414	36530.89
611.771	36685.69
612.127	36900.15
612.484	37005.45
612.841	37208.61
613.198	37251.55
613.554	37328.16
613.911	37686.79
614.267	37786.22
614.624	37904.64
614.98	38000.23
615.337	38288.81
615.693	38352.08
616.05	38482.25
616.406	38603.83
616.762	38640.44
617.118	38742.58
617.475	38881.11
617.831	39074.1
618.187	39158.17
618.543	39292.4
618.899	39529.91
619.255	39527.65
619.611	39465.95
619.967	39807.64
620.323	40022.1
620.678	39710.69
621.034	39862.33
621.39	39987.3
621.746	39974.64
622.101	40488.53
622.457	40118.59
622.812	40382.09
623.168	40551.8
623.523	40385.48
623.879	40641.52
624.234	40506.6
624.589	40705.92
624.945	40898.46
625.3	40872.02
625.655	40839.03
626.01	40950.66
626.365	40898.91
626.72	41033.37
627.075	41015.29
627.43	41079.24
627.785	41003.09
628.14	41283.53
628.495	41252.12
628.85	41087.83
629.205	41071.11
629.559	41281.73
629.914	41256.64
630.269	41328.96
630.623	41267.94
630.978	41243.76
631.332	41508.39
631.687	41530.31
632.041	41369.41
632.396	41432.68
632.75	41404.89
633.104	41546.35
633.459	41279.69
633.813	41375.06
634.167	41276.08
634.521	41354.04
634.875	41503.19
635.229	41433.59
635.583	41355.85
635.937	41306.81
636.291	41319.92
636.645	41352.01
636.999	41213.48
637.352	41399.01
637.706	41226.81
638.06	41305.91
638.413	41197.43
638.767	41205.12
639.121	41335.96
639.474	40980.49
639.828	41089.19
640.181	41349.75
640.534	41272.46
640.888	41137.32
641.241	40952.02
641.594	41018.23
641.947	41126.7
642.301	40892.81
642.654	40905.92
643.007	41030.21
643.36	41033.6
643.713	40923.54
644.066	41279.69
644.419	40926.71
644.771	40757.22
645.124	40338.02
645.477	40310
645.83	39946.85
646.182	39881.99
646.535	39723.8
646.888	39873.63
647.24	39720.64
647.593	39800.41
647.945	39865.49
648.298	39673.63
648.65	39551.83
649.002	39492.39
649.355	39698.72
649.707	39716.34
650.059	39760.86
650.411	40373.95
650.763	40378.92
651.115	40820.49
651.467	40540.5
651.819	40627.73
652.171	40552.93
652.523	40324.91
652.875	40380.28
653.227	40370.34
653.578	40566.72
653.93	40347.06
654.282	40263.45
654.633	40139.61
654.985	40308.64
655.337	40334.18
655.688	40275.65
656.039	40445.59
656.391	40139.61
656.742	40120.85
657.094	40275.88
657.445	40341.64
657.796	40172.6
658.147	40142.77
658.498	40209.66
658.849	40201.75
659.2	40195.43
659.551	40172.83
659.902	40217.8
660.253	40164.01
660.604	40216.22
660.955	39968.31
661.306	40192.49
661.656	40047.18
662.007	40074.75
662.358	39992.72
662.708	40130.12
663.059	40174.64
663.409	39983.23
663.76	39986.39
664.11	40054.41
664.461	39935.55
664.811	40199.95
665.161	40047.86
665.511	40014.64
665.862	39881.76
666.212	39919.05
666.562	39984.81
666.912	40072.49
667.262	40062.1
667.612	39983
667.962	40026.39
668.312	39963.79
668.662	40147.29
669.011	39979.16
669.361	39886.96
669.711	39903
670.06	39900.52
670.41	39774.19
670.76	39792.95
671.109	40064.13
671.459	39795.66
671.808	39783.46
672.157	39926.51
672.507	39559.96
672.856	39713.63
673.205	39681.77
673.554	39939.84
673.904	39705.72
674.253	39742.78
674.602	39702.11
674.951	39170.82
675.3	38983.48
675.649	39585.95
675.998	39484.94
676.346	39510.25
676.695	39747.08
677.044	39437.25
677.393	39440.19
677.741	39491.49
678.09	39324.49
678.438	39314.55
678.787	39279.07
679.135	39327.2
679.484	39185.96
679.832	39428.44
680.181	39094.44
680.529	39188.9
680.877	39107.09
681.225	39093.08
681.573	39309.57
681.922	39033.2
682.27	38889.47
682.618	38952.97
682.966	38888.57
683.314	38919.75
683.661	38871.85
684.009	38646.09
684.357	38592.3
684.705	38624.85
685.053	38517.05
685.4	38407
685.748	38345.98
686.095	38275.25
686.443	38215.14
686.79	38199.32
687.138	38211.3
687.485	38195.48
687.832	38120.23
688.18	38138.08
688.527	37836.84
688.874	37908.25
689.221	37876.17
689.568	37733.12
689.915	37618.32
690.262	37596.85
690.609	37532.22
690.956	37406.57
691.303	37429.4
691.65	37264.43
691.997	37176.75
692.344	37012.68
692.69	37027.6
693.037	37038.67
693.383	36749.42
693.73	36764.78
694.077	36646.14
694.423	36583.77
694.769	36484.34
695.116	36465.81
695.462	36498.57
695.808	36199.37
696.155	36356.88
696.501	36122.09
696.847	35937.91
697.193	35730.46
697.539	35866.95
697.885	35810.23
698.231	35611.14
698.577	35693.85
698.923	35521.65
699.269	35237.82
699.614	35302.45
699.96	35174.32
700.306	35271.04
700.651	35051.61
700.997	34921.44
701.342	34841.89
701.688	34803.48
702.033	34707.21
702.379	34710.82
702.724	34663.59
703.069	34575.69
703.415	34206.88
703.76	34226.09
704.105	34244.62
704.45	34206.43
704.795	33935.48
705.14	33950.62
705.485	33962.82
705.83	33830.62
706.175	33863.16
706.52	33739.1
706.865	33615.49
707.209	33590.18
707.554	33435.38
707.899	33389.73
708.243	33244.42
708.588	33271.77
708.932	33037.65
709.277	33176.18
709.621	33114.71
709.966	32832.23
710.31	32987.03
710.654	32665
710.998	32759.92
711.342	32718.33
711.687	32535.51
712.031	32509.07
712.375	32433.14
712.719	32459.58
713.063	32333.71
713.407	32533.48
713.75	32306.37
714.094	32260.04
714.438	32095.53
714.782	32171.91
715.125	31974.4
715.469	31975.53
715.812	31782.77
716.156	31678.36
716.499	31785.48
716.843	31866.83
717.186	31458.03
717.53	31797.91
717.873	31627.06
718.216	31508.87
718.559	31559.5
718.902	31097.36
719.246	31345.94
719.589	31296
719.932	31070.47
720.275	31057.81
720.617	31196.11
720.96	31017.59
721.303	31007.19
721.646	31041.99
721.989	30686.3
722.331	30793.64
722.674	30867.99
723.016	30752.51
723.359	30642.91
723.701	30759.52
724.044	30471.39
724.386	30447.21
724.729	30609.24
725.071	30390.03
725.413	30590.25
725.755	30492.18
726.097	30257.61
726.439	30030.5
726.782	30112.08
727.124	30239.3
727.465	29999.54
727.807	30073.21
728.149	30035.92
728.491	30017.39
728.833	29963.6
729.175	29887.67
729.516	29720.9
729.858	29801.12
730.199	29835.25
730.541	29781.69
730.882	29700.33
731.224	29724.06
731.565	29553.22
731.906	29591.19
732.248	29567.91
732.589	29324.98
732.93	29357.29
733.271	29347.12
733.612	29269.84
733.953	29358.2
734.294	29202.04
734.635	29231.65
734.976	29246.56
735.317	29035.27
735.658	29096.73
735.999	29035.49
736.339	28929.28
736.68	29047.92
737.021	28834.14
737.361	28874.14
737.702	28968.83
738.042	28893.12
738.383	28744.65
738.723	28799.79
739.063	28769.74
739.404	28739.46
739.744	28606.13
740.084	28566.13
740.424	28616.52
740.764	28456.07
741.104	28525.45
741.444	28465.34
741.784	28404.78
742.124	28384.21
742.464	28429.18
742.804	28306.7
743.143	28320.94
743.483	28173.82
743.823	28119.36
744.162	28084.33
744.502	28127.04
744.841	28028.29
745.181	28154.84
745.52	27940.83
745.86	28021.28
746.199	27933.38
746.538	27886.82
746.877	27958.01
747.216	27848.18
747.556	27779.48
747.895	27868.29
748.234	27682.08
748.573	27698.81
748.911	27466.72
749.25	27574.74
749.589	27454.97
749.928	27474.63
750.267	27497.68
750.605	27478.25
750.944	27348.98
751.283	27393.05
751.621	27323.45
751.96	27140.85
752.298	27160.74
752.636	27146.05
752.975	27069.67
753.313	26989.45
753.651	27137.92
753.989	26861.54
754.327	26891.6
754.666	26722.79
755.004	26680.3
755.342	26692.05
755.679	26746.74
756.017	26646.4
756.355	26644.14
756.693	26470.59
757.031	26545.62
757.368	26316.47
757.706	26207.09
758.044	26321.44
758.381	26278.73
758.719	26223.36
759.056	26023.14
759.394	26100.43
759.731	25985.4
760.068	25953.09
760.405	25798.52
760.743	25692.53
761.08	25861.11
761.417	25604.17
761.754	25526.43
762.091	25629.93
762.428	25379.77
762.765	25281.92
763.102	25425.87
763.438	25240.57
763.775	25083.73
764.112	25149.72
764.449	25124.86
764.785	25020.01
765.122	24774.59
765.458	24686
765.795	24790.63
766.131	24627.25
766.467	24575.27
766.804	24417.31
767.14	24448.95
767.476	24384.99
767.812	24379.57
768.148	24311.32
768.485	24279.91
768.821	24006.25
769.157	24022.29
769.492	23944.55
769.828	23926.02
770.164	23611.68
770.5	23740.72
770.836	23633.83
771.171	23501.63
771.507	23406.94
771.842	23119.04
772.178	23215.31
772.513	23160.62
772.849	23191.81
773.184	22938.48
773.519	23003.79
773.855	22800.4
774.19	22702.78
774.525	22647.41
774.86	22652.16
775.195	22637.92
775.53	22519.96
775.865	22271.38
776.2	22309.12
776.535	22034.1
776.87	22225.05
777.205	22043.59
777.539	21936.02
777.874	22027.99
778.209	21784.61
778.543	21614.22
778.878	21559.53
779.212	21643.82
779.547	21437.5
779.881	21576.03
780.215	21277.28
780.55	21424.85
780.884	21204.51
781.218	21202.71
781.552	21108.47
781.886	20928.59
782.22	20855.6
782.554	20837.74
782.888	20696.5
783.222	20648.82
783.556	20593.23
783.889	20503.06
784.223	20327.93
784.557	20315.72
784.89	20293.8
785.224	20187.59
785.557	20023.98
785.891	20177.2
786.224	20068.5
786.558	19824.89
786.891	19695.4
787.224	19650.88
787.557	19734.72
787.891	19715.29
788.224	19636.64
788.557	19553.48
788.89	19460.83
789.223	19527.04
789.556	19412.92
789.888	19390.32
790.221	19227.39
790.554	19055.64
790.887	19139.48
791.219	19072.59
791.552	18942.43
791.884	18860.17
792.217	18815.42
792.549	18739.72
792.882	18616.33
793.214	18511.7
793.546	18626.28
793.879	18549.44
794.211	18292.5
794.543	18414.98
794.875	18312.61
795.207	18289.34
795.539	18219.05
795.871	18218.83
796.203	18058.83
796.535	18002.11
796.867	18028.1
797.198	17951.72
797.53	17888.44
797.862	17777.48
798.193	17857.71
798.525	17652.29
798.856	17729.12
799.188	17502.01
799.519	17494.33
799.85	17354.44
800.182	17324.62
800.513	17363.71
800.844	17178.86
801.175	17346.54
801.506	17268.8
801.837	17189.93
802.168	17067.67
802.499	17011.18
802.83	16982.03
803.161	16835.14
803.491	16915.36
803.822	16975.92
804.153	16755.36
804.483	16619.32
804.814	16577.52
805.145	16545.88
805.475	16569.15
805.805	16459.55
806.136	16472.43
806.466	16449.84
806.796	16518.31
807.126	16268.15
807.457	16251.65
807.787	16250.97
808.117	16180.69
808.447	16127.36
808.777	16105.44
809.107	16127.81
809.436	15967.14
809.766	16014.14
810.096	15920.13
810.426	15815.05
810.755	15889.4
811.085	15782.06
811.414	15813.69
811.744	15671.1
812.073	15655.51
812.403	15618.45
812.732	15630.87
813.061	15465.91
813.39	15449.41
813.719	15382.29
814.049	15405.34
814.378	15450.09
814.707	15367.15
815.036	15323.31
815.365	15207.61
815.693	15084
816.022	15138.68
816.351	15089.42
816.68	15053.04
817.008	15046.93
817.337	14907.05
817.665	14824.34
817.994	14980.5
818.322	14935.07
818.651	14914.51
818.979	14833.61
819.307	14815.08
819.636	14747.28
819.964	14691.69
820.292	14722.2
820.62	14659.6
820.948	14602.2
821.276	14638.36
821.604	14644.91
821.932	14742.54
822.259	14608.75
822.587	14633.61
822.915	14556.78
823.243	14726.72
823.57	14589.32
823.898	14630
824.225	14562.88
824.553	14714.06
824.88	14516.78
825.207	14576.89
825.535	14627.06
825.862	14716.77
826.189	14556.1
826.516	14541.86
826.843	14588.64
827.17	14620.73
827.497	14621.41
827.824	14637
828.151	14637.45
828.478	14486.72
828.805	14614.63
829.131	14614.63
829.458	14579.38
829.785	14471.58
830.111	14544.8
830.438	14545.25
830.764	14456.67
831.09	14470.23
831.417	14470.45
831.743	14541.19
832.069	14465.93
832.395	14483.33
832.722	14478.14
833.048	14435.2
833.374	14464.8
833.7	14390.45
834.026	14408.08
834.351	14378.93
834.677	14437.23
835.003	14417.8
835.329	14405.14
835.654	14302.55
835.98	14338.48
836.306	14310.01
836.631	14194.98
836.956	14220.97
837.282	14277.92
837.607	14240.85
837.932	14137.13
838.258	14130.35
838.583	14106.17
838.908	14052.61
839.233	14051.48
839.558	14005.83
839.883	13919.96
840.208	13946.4
840.533	14007.87
840.858	13933.29
841.182	13970.35
841.507	13943.24
841.832	13823.69
842.156	13812.84
842.481	13849.23
842.805	13747.08
843.13	13696.24
843.454	13783.47
843.778	13645.84
844.103	13638.16
844.427	13617.82
844.751	13631.15
845.075	13587.31
845.399	13494.21
845.723	13439.29
846.047	13516.13
846.371	13336.92
846.695	13315
847.019	13296.7
847.343	13187.77
847.666	13093.77
847.99	13091.51
848.313	13075.46
848.637	12940.32
848.96	12938.74
849.284	12877.73
849.607	12784.4
849.931	12805.41
850.254	12681.8
850.577	12633.21
850.9	12482.93
851.223	12547.79
851.546	12526.55
851.869	12401.35
852.192	12478.19
852.515	12413.56
852.838	12294.24
853.161	12241.81
853.483	12231.19
853.806	12106.9
854.129	12168.14
854.451	12120.01
854.774	12068.71
855.096	12039.1
855.419	12018.54
855.741	11906.9
856.063	11930.63
856.385	11874.36
856.708	11795.95
857.03	11757.08
857.352	11833.69
857.674	11722.05
857.996	11761.82
858.318	11687.25
858.64	11626.01
858.961	11657.87
859.283	11610.64
859.605	11619.68
859.926	11564.99
860.248	11511.66
860.57	11475.28
860.891	11474.83
861.212	11334.49
861.534	11359.35
861.855	11275.06
862.176	11383.98
862.498	11392.57
862.819	11264.44
863.14	11301.5
863.461	11261.72
863.782	11228.5
864.103	11188.05
864.424	11218.79
864.745	11119.58
865.065	11090.65
865.386	11091.78
865.707	11076.19
866.027	11078.68
866.348	11040.49
866.668	11039.36
866.989	11040.03
867.309	10927.72
867.63	10984.44
867.95	10922.52
868.27	10813.83
868.59	10899.47
868.91	10865.8
869.23	10839.36
869.55	10785.58
869.87	10854.73
870.19	10872.36
870.51	10823.54
870.83	10823.09
871.15	10724.34
871.469	10667.84
871.789	10788.97
872.109	10695.18
872.428	10690.89
872.748	10685.92
873.067	10708.74
873.386	10677.11
873.706	10645.92
874.025	10600.27
874.344	10588.07
874.663	10590.33
874.982	10586.04
875.301	10519.6
875.62	10484.34
875.939	10458.81
876.258	10491.35
876.577	10512.82
876.896	10359.83
877.214	10371.35
877.533	10312.14
877.852	10398.02
878.17	10319.15
878.489	10391.46
878.807	10331.35
879.125	10332.71
879.444	10322.09
879.762	10333.39
880.08	10278.25
880.398	10200.73
880.716	10182.66
881.034	10157.12
881.352	10184.24
881.67	10139.95
881.988	10145.14
882.306	10141.08
882.624	10048.42
882.941	10024.92
883.259	10033.96
883.577	10004.36
883.894	9968.65
884.212	9977.46
884.529	9968.65
884.846	9939.05
885.164	9934.07
885.481	9896.56
885.798	9887.52
886.115	9768.88
886.432	9816.56
886.75	9812.04
887.067	9762.78
887.383	9812.04
887.7	9737.92
888.017	9606.63
888.334	9721.2
888.651	9610.02
888.967	9688.66
889.284	9591.94
889.6	9566.63
889.917	9510.81
890.233	9503.58
890.55	9473.52
890.866	9428.33
891.182	9457.03
891.498	9392.85
891.815	9436.91
892.131	9305.62
892.447	9399.4
892.763	9273.98
893.079	9307.65
893.395	9287.54
893.71	9252.74
894.026	9205.96
894.342	9211.61
894.657	9119.41
894.973	9153.98
895.289	9128.45
895.604	9048
895.92	9055.91
896.235	8961.67
896.55	8958.96
896.865	8976.36
897.181	8962.8
897.496	8906.98
897.811	8902.69
898.126	8828.79
898.441	8805.07
898.756	8709.93
899.071	8689.14
899.386	8673.09
899.7	8645.97
900.015	8639.65
900.33	8583.15
900.644	8562.13
900.959	8525.98
901.273	8490.27
901.588	8469.48
901.902	8428.8
902.216	8469.48
902.531	8440.1
902.845	8398.07
903.159	8334.34
903.473	8307.23
903.787	8320.78
904.101	8221.58
904.415	8191.52
904.729	8187.91
905.042	8123.95
905.356	8139.32
905.67	8155.14
905.984	8073.56
906.297	8096.16
906.611	8028.14
906.924	8012.32
907.237	7940.23
907.551	7913.79
907.864	7810.74
908.177	7849.61
908.491	7815.49
908.804	7741.82
909.117	7741.82
909.43	7722.38
909.743	7582.27
910.056	7693.91
910.368	7599.9
910.681	7540.69
910.994	7530.97
911.307	7533.01
911.619	7447.59
911.932	7406.91
912.244	7368.27
912.557	7340.7
912.869	7340.24
913.181	7356.52
913.494	7287.59
913.806	7226.35
914.118	7252.79
914.43	7203.07
914.742	7196.75
915.054	7136.86
915.366	7120.59
915.678	7091.66
915.99	7079.01
916.302	7047.6
916.613	7001.95
916.925	6945.9
917.236	6953.14
917.548	6932.8
917.859	6921.27
918.171	6877.21
918.482	6870.43
918.794	6766.7
919.105	6812.35
919.416	6789.3
919.727	6763.08
920.038	6736.64
920.349	6607.61
920.66	6650.32
920.971	6626.59
921.282	6631.79
921.593	6577.33
921.903	6511.79
922.214	6496.88
922.525	6454.39
922.835	6410.33
923.146	6356.32
923.456	6443.55
923.767	6362.64
924.077	6358.35
924.387	6319.48
924.697	6312.48
925.008	6275.19
925.318	6212.36
925.628	6245.36
925.938	6167.85
926.248	6162.87
926.558	6115.64
926.867	6090.11
927.177	6107.51
927.487	6038.58
927.796	5998.81
928.106	6040.39
928.416	6010.11
928.725	5979.6
929.034	5934.18
929.344	5938.47
929.653	5904.8
929.962	5802.43
930.271	5771.25
930.581	5852.37
930.89	5753.85
931.199	5742.55
931.508	5737.8
931.817	5727.86
932.125	5691.7
932.434	5686.5
932.743	5604.25
933.051	5590.23
933.36	5547.52
933.669	5530.8
933.977	5509.33
934.286	5522.44
934.594	5481.08
934.902	5458.71
935.21	5424.14
935.519	5480.86
935.827	5440.41
936.135	5352.95
936.443	5317.25
936.751	5323.12
937.059	5361.31
937.367	5262.33
937.674	5258.49
937.982	5292.84
938.29	5242.67
938.597	5164.48
938.905	5111.15
939.213	5108.44
939.52	5139.62
939.827	5081.77
940.135	5099.4
940.442	5043.36
940.749	5043.58
941.056	5041.1
941.363	4992.96
941.67	4954.54
941.977	4930.82
942.284	4925.85
942.591	4950.7
942.898	4897.37
943.205	4834.32
943.511	4856.24
943.818	4839.52
944.125	4786.64
944.431	4769.24
944.738	4763.14
945.044	4781.22
945.35	4705.51
945.657	4695.57
945.963	4679.75
946.269	4667.55
946.575	4667.09
946.881	4607.44
947.187	4589.36
947.493	4591.84
947.799	4571.28
948.105	4571.05
948.41	4524.73
948.716	4531.96
949.022	4451.28
949.327	4448.57
949.633	4436.59
949.938	4437.27
950.244	4414.45
950.549	4409.02
950.854	4369.93
951.16	4380.77
951.465	4331.28
951.77	4311.85
952.075	4288.8
952.38	4265.07
952.685	4288.12
952.99	4177.62
953.294	4214.23
953.599	4215.58
953.904	4218.29
954.209	4184.62
954.513	4160.44
954.818	4149.37
955.122	4155.24
955.426	4067.34
955.731	4044.29
956.035	4061.69
956.339	4017.17
956.643	4109.37
956.948	3983.5
957.252	3964.74
957.556	3974.68
957.86	3992.54
958.163	3935.36
958.467	3911.18
958.771	3907.11
959.075	3868.25
959.378	3884.97
959.682	3918.19
959.985	3838.42
960.289	3821.24
960.592	3779.89
960.896	3797.29
961.199	3770.85
961.502	3779.66
961.805	3726.55
962.108	3672.32
962.411	3716.84
962.714	3674.13
963.017	3692.21
963.32	3714.35
963.623	3673.22
963.926	3635.26
964.228	3613.11
964.531	3632.09
964.833	3581.02
965.136	3548.71
965.438	3541.25
965.741	3510.74
966.043	3513.23
966.345	3490.4
966.648	3460.8
966.95	3485.66
967.252	3480.69
967.554	3431.42
967.856	3457.41
968.158	3418.99
968.46	3362.5
968.761	3333.8
969.063	3331.99
969.365	3350.97
969.666	3340.12
969.968	3354.81
970.269	3294.02
970.571	3319.79
970.872	3248.38
971.174	3285.44
971.475	3244.31
971.776	3241.37
972.077	3240.24
972.378	3230.52
972.679	3207.02
972.98	3181.26
973.281	3127.02
973.582	3146.23
973.883	3182.16
974.183	3092.45
974.484	3142.39
974.785	3102.62
975.085	3071.88
975.386	3086.8
975.686	3046.12
975.986	3029.85
976.287	3035.95
976.587	3019.45
976.887	3035.95
977.187	3018.78
977.487	3005.9
977.787	2976.74
978.087	2941.04
978.387	2945.33
978.687	2961.38
978.987	2926.8
979.286	2899.91
979.586	2915.95
979.885	2884.09
980.185	2873.47
980.484	2865.11
980.784	2821.49
981.083	2815.62
981.382	2787.37
981.682	2807.93
981.981	2783.3
982.28	2791.89
982.579	2761.16
982.878	2783.98
983.177	2740.37
983.475	2741.95
983.774	2706.92
984.073	2720.48
984.372	2661.72
984.67	2657.2
984.969	2643.19
985.267	2706.47
985.566	2605
985.864	2632.12
986.162	2638.9
986.461	2600.03
986.759	2597.77
987.057	2533.14
987.355	2586.47
987.653	2549.64
987.951	2581.27
988.249	2540.15
988.547	2511.45
988.844	2496.76
989.142	2497.89
989.44	2508.73
989.737	2460.6
990.035	2498.79
990.332	2443.2
990.63	2448.85
990.927	2450.43
991.224	2393.71
991.521	2426.7
991.819	2402.75
992.116	2388.51
992.413	2370.88
992.71	2363.2
993.006	2355.74
993.303	2330.43
993.6	2369.75
993.897	2336.31
994.193	2314.39
994.49	2255.63
994.787	2301.28
995.083	2283.65
995.379	2275.29
995.676	2267.38
995.972	2250.44
996.268	2264.45
996.565	2213.83
996.861	2206.14
997.157	2214.73
997.453	2199.82
997.749	2188.29
998.044	2191.23
998.34	2153.94
998.636	2147.61
998.932	2154.84
999.227	2156.2
999.523	2101.51
999.818	2105.13
1000.114	2129.08
1000.409	2103.09
1000.704	2072.59
1001	2072.13
1001.295	2027.39
1001.59	2048.86
1001.885	2028.29
1002.18	1977.45
1002.475	2035.53
1002.77	1971.12
1003.065	2014.74
1003.359	1963.44
1003.654	1944.45
1003.949	1951.69
1004.243	1925.25
1004.538	1943.1
1004.832	1953.72
1005.127	1928.64
1005.421	1905.81
1005.715	1896.09
1006.009	1868.98
1006.304	1875.76
1006.598	1874.4
1006.892	1863.78
1007.186	1874.4
1007.48	1836.43
1007.773	1830.33
1008.067	1819.03
1008.361	1793.05
1008.655	1809.09
1008.948	1793.72
1009.242	1779.71
1009.535	1763.89
1009.829	1763.89
1010.122	1737.91
1010.415	1728.19
1010.708	1733.61
1011.001	1727.06
1011.295	1703.33
1011.588	1695.65
1011.881	1683.44
1012.173	1649.55
1012.466	1666.04
1012.759	1654.07
1013.052	1658.36
1013.344	1643.67
1013.637	1661.52
1013.93	1641.64
1014.222	1606.38
1014.514	1593.96
1014.807	1590.57
1015.099	1576.1
1015.391	1574.29
1015.683	1574.97
1015.976	1555.31
1016.268	1558.02
1016.56	1528.42
1016.851	1534.97
1017.143	1518.7
1017.435	1523.67
1017.727	1511.02
1018.018	1483
1018.31	1497.69
1018.602	1487.07
1018.893	1444.81
1019.185	1449.1
1019.476	1483.22
1019.767	1436.67
1020.058	1438.93
1020.35	1421.98
1020.641	1425.37
1020.932	1419.5
1021.223	1402.1
1021.514	1366.39
1021.804	1387.86
1022.095	1369.33
1022.386	1362.32
1022.677	1361.42
1022.967	1346.5
1023.258	1328.43
1023.548	1343.79
1023.839	1296.56
1024.129	1323
1024.419	1287.3
1024.709	1324.58
1025	1280.52
1025.29	1289.33
1025.58	1259.95
1025.87	1283.45
1026.16	1264.25
1026.449	1221.08
1026.739	1220.18
1027.029	1228.54
1027.319	1215.43
1027.608	1208.2
1027.898	1207.52
1028.187	1186.06
1028.477	1201.2
1028.766	1181.54
1029.055	1163.68
1029.344	1149.22
1029.634	1162.55
1029.923	1157.58
1030.212	1120.3
1030.501	1113.74
1030.79	1139.96
1031.078	1120.97
1031.367	1106.96
1031.656	1116.68
1031.945	1102.44
1032.233	1111.26
1032.522	1103.57
1032.81	1047.3
1033.099	1077.13
1033.387	1081.65
1033.675	1047.08
1033.963	1076.45
1034.251	1024.48
1034.54	1015.21
1034.828	1032.16
1035.116	1042.56
1035.403	999.17
1035.691	1031.03
1035.979	1012.5
1036.267	996
1036.554	1000.3
1036.842	989.9
1037.129	948.77
1037.417	978.38
1037.704	960.07
1037.992	970.24
1038.279	947.87
1038.566	953.07
1038.853	953.07
1039.14	953.07
