Data from hue_50_FLMS001491_85.txt Node
Date: Mon Feb 06 15:11:09 GMT 2017
User: dcchb
Spectrometer: FLMS00149
Trigger mode: 0
Integration Time (sec): 2.000000E-2
Scans to average: 10
Electric dark correction enabled: true
Nonlinearity correction enabled: false
Boxcar width: 0
XAxis mode: Wavelengths
Number of Pixels in Spectrum: 2048
>>>>>Begin Spectral Data<<<<<
341.393	-17.67
341.776	-17.67
342.16	-17.67
342.543	-59.48
342.927	-54.28
343.31	-67.84
343.693	-65.8
344.077	-59.93
344.46	-59.48
344.843	-55.63
345.226	-42.3
345.61	-32.81
345.993	-10.21
346.376	15.55
346.759	6.51
347.142	26.4
347.525	36.57
347.908	49.45
348.291	71.14
348.674	87.41
349.057	100.97
349.44	130.12
349.823	150.24
350.206	174.87
350.588	171.25
350.971	192.95
351.354	226.84
351.737	238.6
352.119	279.95
352.502	278.82
352.884	303.23
353.267	293.74
353.65	289.89
354.032	308.88
354.414	318.59
354.797	330.57
355.179	320.18
355.562	337.35
355.944	346.16
356.326	339.16
356.709	337.8
357.091	348.42
357.473	350.91
357.855	358.82
358.238	335.99
358.62	349.78
359.002	342.77
359.384	364.69
359.766	369.44
360.148	333.28
360.53	333.51
360.912	349.55
361.294	339.16
361.676	342.55
362.057	350.23
362.439	338.48
362.821	349.1
363.203	350.46
363.584	364.47
363.966	327.63
364.348	335.32
364.729	361.3
365.111	312.94
365.493	318.37
365.874	319.27
366.256	340.29
366.637	347.52
367.019	317.69
367.4	315.88
367.781	341.64
368.163	303.68
368.544	341.42
368.925	326.5
369.306	341.42
369.688	312.94
370.069	331.93
370.45	319.5
370.831	333.51
371.212	314.07
371.593	327.63
371.974	318.14
372.355	329.44
372.736	325.37
373.117	345.03
373.498	324.47
373.879	343.9
374.26	314.75
374.641	318.14
375.021	337.58
375.402	321.76
375.783	335.54
376.163	329.67
376.544	337.8
376.925	343.9
377.305	328.08
377.686	309.55
378.066	308.88
378.447	330.57
378.827	343.45
379.208	357.91
379.588	340.74
379.968	315.66
380.349	334.19
380.729	337.35
381.109	338.25
381.489	336.22
381.87	335.54
382.25	343.68
382.63	355.88
383.01	363.11
383.39	337.35
383.77	339.84
384.15	369.67
384.53	360.63
384.91	346.62
385.29	356.56
385.67	360.17
386.049	357.01
386.429	349.78
386.809	353.85
387.189	337.8
387.568	338.93
387.948	370.12
388.328	365.15
388.707	367.86
389.087	357.01
389.466	375.31
389.846	366.95
390.225	357.69
390.605	352.26
390.984	372.38
391.363	367.63
391.743	364.47
392.122	374.64
392.501	371.47
392.881	380.96
393.26	398.37
393.639	374.86
394.018	363.56
394.397	355.43
394.776	381.64
395.155	368.54
395.534	386.84
395.913	405.6
396.292	392.49
396.671	369.21
397.05	386.61
397.429	391.59
397.808	382.77
398.186	373.96
398.565	377.8
398.944	389.33
399.323	390.23
399.701	396.56
400.08	416.44
400.458	405.14
400.837	417.12
401.215	399.95
401.594	409.44
401.972	388.2
402.351	394.07
402.729	419.16
403.107	404.69
403.486	418.25
403.864	421.64
404.242	419.16
404.62	402.88
404.999	413.28
405.377	431.36
405.755	428.19
406.133	404.69
406.511	417.35
406.889	409.44
407.267	427.97
407.645	439.95
408.023	419.38
408.401	428.19
408.779	446.73
409.156	430.68
409.534	457.8
409.912	446.05
410.29	449.44
410.667	462.09
411.045	471.81
411.422	441.53
411.8	479.49
412.178	453.73
412.555	493.73
412.933	449.44
413.31	475.88
413.687	486.95
414.065	466.16
414.442	448.08
414.819	480.62
415.197	472.26
415.574	488.08
415.951	507.74
416.328	479.27
416.705	484.01
417.082	505.93
417.46	481.98
417.837	492.6
418.214	510.23
418.591	494.41
418.967	520.62
419.344	511.36
419.721	526.95
420.098	535.54
420.475	517.23
420.852	515.65
421.228	526.95
421.605	534.86
421.982	519.49
422.358	537.12
422.735	534.63
423.111	552.49
423.488	535.99
423.864	551.81
424.241	574.63
424.617	564.46
424.994	551.13
425.37	553.84
425.746	559.26
426.123	570.56
426.499	576.21
426.875	561.75
427.251	558.36
427.627	572.15
428.003	602.2
428.379	590.9
428.756	583.22
429.132	610.79
429.507	608.98
429.883	602.2
430.259	618.25
430.635	628.64
431.011	615.99
431.387	649.21
431.763	622.31
432.138	595.87
432.514	647.4
432.89	641.07
433.265	637.23
433.641	661.41
434.016	645.82
434.392	663.22
434.767	690.11
435.143	646.27
435.518	664.57
435.894	704.35
436.269	713.61
436.644	683.56
437.02	698.7
437.395	707.96
437.77	690.33
438.145	710.22
438.52	706.83
438.895	698.24
439.271	696.89
439.646	747.06
440.021	726.04
440.395	721.75
440.77	722.42
441.145	748.41
441.52	752.48
441.895	761.29
442.27	748.41
442.645	751.12
443.019	767.85
443.394	757.23
443.769	773.95
444.143	777.34
444.518	795.64
444.892	786.15
445.267	785.93
445.641	782.76
446.016	806.04
446.39	789.54
446.764	795.42
447.139	797.22
447.513	846.94
447.887	822.76
448.262	829.31
448.636	824.57
449.01	825.25
449.384	819.82
449.758	821.86
450.132	823.66
450.506	863.44
450.88	859.82
451.254	874.06
451.628	879.03
452.002	862.76
452.376	864.79
452.75	896.88
453.123	876.54
453.497	889.2
453.871	923.78
454.244	911.8
454.618	927.16
454.992	940.72
455.365	935.98
455.739	964.68
456.112	973.94
456.486	976.88
456.859	965.36
457.232	1003.77
457.606	1000.84
457.979	1005.35
458.352	1019.14
458.725	1015.98
459.099	1023.89
459.472	1032.7
459.845	1086.03
460.218	1066.14
460.591	1067.95
460.964	1078.35
461.337	1089.19
461.71	1126.03
462.083	1142.07
462.456	1133.71
462.829	1149.98
463.201	1195.86
463.574	1163.32
463.947	1203.32
464.32	1252.81
464.692	1236.54
465.065	1207.16
465.438	1244.44
465.81	1256.65
466.183	1268.62
466.555	1300.49
466.928	1341.84
467.3	1349.3
467.672	1346.14
468.045	1389.98
468.417	1399.69
468.789	1375.97
469.161	1405.8
469.534	1450.99
469.906	1491.44
470.278	1516.98
470.65	1541.61
471.022	1534.61
471.394	1574.38
471.766	1605.79
472.138	1622.29
472.51	1625
472.882	1722.17
473.253	1704.32
473.625	1747.26
473.997	1827.71
474.369	1856.86
474.74	1875.84
475.112	1919.91
475.484	1963.3
475.855	2010.98
476.227	2050.07
476.598	2091.65
476.97	2169.17
477.341	2231.99
477.713	2249.84
478.084	2290.52
478.455	2383.4
478.827	2430.63
479.198	2540
479.569	2534.81
479.94	2669.04
480.311	2722.37
480.682	2785.2
481.053	2907.45
481.424	2961.24
481.795	3026.77
482.166	3113.1
482.537	3200.78
482.908	3282.13
483.279	3349.7
483.65	3473.31
484.021	3623.59
484.391	3638.96
484.762	3750.59
485.133	3826.98
485.503	3964.6
485.874	4072.39
486.244	4173.41
486.615	4339.5
486.985	4389.67
487.356	4551.48
487.726	4667.18
488.097	4816.1
488.467	4905.14
488.837	5048.64
489.207	5187.62
489.578	5318.69
489.948	5405.92
490.318	5553.94
490.688	5596.42
491.058	5801.16
491.428	5982.63
491.798	6086.35
492.168	6295.39
492.538	6385.55
492.908	6515.94
493.278	6710.97
493.648	6766.33
494.017	6896.27
494.387	7087.68
494.757	7219.65
495.126	7375.36
495.496	7427.11
495.866	7495.58
496.235	7762.01
496.605	7891.73
496.974	8049.24
497.344	8106.64
497.713	8336.24
498.082	8396.57
498.452	8604.93
498.821	8702.55
499.19	8790.69
499.559	8924.47
499.928	9009.21
500.298	9230.9
500.667	9331.24
501.036	9400.84
501.405	9579.82
501.774	9673.83
502.143	9779.14
502.512	9973.48
502.88	9980.94
503.249	10209.63
503.618	10253.47
503.987	10405.11
504.356	10516.74
504.724	10586.12
505.093	10621.37
505.462	10768.94
505.83	10927.58
506.199	11090.29
506.567	11175.26
506.936	11281.47
507.304	11464.29
507.672	11514.01
508.041	11650.72
508.409	11763.49
508.777	11901.34
509.145	12086.87
509.514	12062.24
509.882	12271.05
510.25	12271.95
510.618	12473.98
510.986	12459.74
511.354	12731.37
511.722	12763.92
512.09	12891.82
512.458	12965.04
512.826	13105.38
513.193	13242.1
513.561	13278.48
513.929	13445.48
514.297	13540.84
514.664	13569.54
515.032	13741.29
515.4	13873.49
515.767	13881.63
516.135	14056.76
516.502	13986.26
516.869	14324.33
517.237	14383.99
517.604	14334.27
517.972	14500.14
518.339	14567.26
518.706	14714.37
519.073	14844.77
519.44	14936.06
519.808	14991.65
520.175	15149.16
520.542	15278.43
520.909	15365.43
521.276	15482.26
521.643	15583.28
522.009	15737.4
522.376	15830.28
522.743	15865.53
523.11	16085.86
523.477	16228.91
523.843	16308.68
524.21	16408.34
524.577	16573.53
524.943	16763.81
525.31	16865.28
525.676	16921.77
526.043	17030.24
526.409	17095.55
526.776	17262.55
527.142	17352.72
527.508	17559.95
527.874	17604.47
528.241	17686.27
528.607	17824.12
528.973	17940.95
529.339	17953.61
529.705	18188.41
530.071	18246.94
530.437	18361.73
530.803	18452.81
531.169	18541.62
531.535	18589.53
531.901	18641.28
532.267	18723.53
532.632	18989.29
532.998	18972.34
533.364	19100.25
533.73	19164.65
534.095	19381.14
534.461	19486.45
534.826	19496.17
535.192	19573.23
535.557	19756.27
535.923	19677.63
536.288	19751.98
536.653	19960.56
537.019	19794.24
537.384	20077.62
537.749	20141.12
538.114	20182.25
538.479	20268.58
538.845	20321.01
539.21	20307.45
539.575	20462.47
539.94	20473.77
540.305	20680.54
540.67	20549.47
541.034	20719.41
541.399	20704.95
541.764	20948.79
542.129	20960.31
542.494	21020.87
542.858	21191.26
543.223	21131.38
543.587	21233.98
543.952	21359.85
544.316	21466.51
544.681	21376.34
545.045	21492.05
545.41	21641.87
545.774	21679.39
546.138	21738.6
546.503	21773.4
546.867	21838.25
547.231	21999.15
547.595	22136.1
547.959	22126.16
548.324	22125.48
548.688	22249.77
549.052	22317.11
549.416	22372.93
549.779	22446.83
550.143	22406.83
550.507	22605.69
550.871	22801.62
551.235	22572.47
551.599	22865.35
551.962	22857.89
552.326	22939.02
552.689	23168.84
553.053	23103.98
553.417	23077.99
553.78	23366.12
554.143	23326.8
554.507	23434.6
554.87	23625.1
555.234	23780.58
555.597	23628.26
555.96	23726.11
556.323	23870.52
556.686	23896.28
557.05	23978.08
557.413	24177.85
557.776	24221.02
558.139	24336.94
558.502	24418.52
558.865	24385.53
559.228	24716.14
559.59	24735.58
559.953	24777.61
560.316	25026.87
560.679	25077.72
561.041	25172.63
561.404	25358.84
561.767	25392.28
562.129	25325.62
562.492	25572.39
562.854	25661.43
563.217	25704.37
563.579	25757.47
563.941	25840.18
564.304	25901.88
564.666	26280.17
565.028	26182.32
565.39	26192.49
565.753	26477.45
566.115	26539.6
566.477	26632.93
566.839	26668.86
567.201	26907.5
567.563	26870.21
567.925	27012.58
568.287	27183.88
568.648	27145.23
569.01	27335.06
569.372	27549.52
569.734	27332.8
570.095	27625.9
570.457	27829.73
570.819	27812.11
571.18	27826.8
571.542	28061.59
571.903	27940.47
572.265	28207.8
572.626	28324.18
572.987	28430.62
573.349	28435.14
573.71	28595.36
574.071	28672.65
574.432	28839.43
574.794	29045.97
575.155	29029.48
575.516	28993.77
575.877	29186.53
576.238	29210.04
576.599	29375.46
576.96	29550.82
577.32	29448.45
577.681	29670.82
578.042	29770.47
578.403	29784.26
578.763	30001.43
579.124	29970.7
579.485	30220.86
579.845	30378.14
580.206	30304.47
580.566	30474.41
580.927	30624.69
581.287	30802.09
581.648	30674.18
582.008	30975.87
582.368	31007.05
582.728	31119.37
583.089	31175.64
583.449	31378.57
583.809	31464.22
584.169	31531.78
584.529	31641.61
584.889	32042.73
585.249	31964.77
585.609	32035.27
585.969	32262.84
586.329	32167.47
586.688	32460.57
587.048	32405.21
587.408	32580.12
587.768	32813.56
588.127	32801.36
588.487	32789.38
588.846	33178.29
589.206	33145.53
589.565	33280.66
589.925	33449.25
590.284	33440.89
590.643	33724.49
591.003	33858.28
591.362	34078.38
591.721	34026.41
592.08	34060.3
592.44	34315.67
592.799	34434.53
593.158	34449
593.517	34487.86
593.876	34654.64
594.235	34817.57
594.593	34838.14
594.952	35077.23
595.311	35029.32
595.67	35190.22
596.029	35530.77
596.387	35560.38
596.746	35763.76
597.104	35748.62
597.463	35747.49
597.822	35929.41
598.18	36088.5
598.538	36086.01
598.897	36311.55
599.255	36123.3
599.613	36705.21
599.972	36583.63
600.33	36709.27
600.688	36771.19
601.046	36878.76
601.404	37081.69
601.762	37125.08
602.12	37126.67
602.478	37414.79
602.836	37184.29
603.194	37283.5
603.552	37500.67
603.91	37339.09
604.268	37690.94
604.625	37587.9
604.983	37853.2
605.341	37656.59
605.698	38012.52
606.056	38037.15
606.413	38039.86
606.771	38341.55
607.128	38319.18
607.485	38083.7
607.843	38353.53
608.2	38428.78
608.557	38779.28
608.914	38708.77
609.272	38860.18
609.629	38998.03
609.986	39143.34
610.343	38937.92
610.7	39363.67
611.057	39123.67
611.414	39379.49
611.771	39329.54
612.127	39595.3
612.484	39569.31
612.841	39969.08
613.198	39678.24
613.554	39855.18
613.911	39999.13
614.267	39976.99
614.624	40125.68
614.98	40095.4
615.337	40384.66
615.693	40293.59
616.05	40280.48
616.406	40593.92
616.762	40277.09
617.118	40532.68
617.475	40555.5
617.831	40612.68
618.187	40719.56
618.543	40855.61
618.899	41034.36
619.255	41023.74
619.611	41092.21
619.967	41144.64
620.323	41333.33
620.678	41057.18
621.034	40981.93
621.39	41249.95
621.746	41112.55
622.101	41578.75
622.457	41236.84
622.812	41303.5
623.168	41529.04
623.523	41524.74
623.879	41732.19
624.234	41513.22
624.589	41585.3
624.945	41710.27
625.3	41629.82
625.655	41724.51
626.01	41672.99
626.365	41843.6
626.72	41747.79
627.075	41787.56
627.43	41728.58
627.785	41741.91
628.14	41831.85
628.495	41809.48
628.85	41689.93
629.205	41761.12
629.559	41933.32
629.914	41759.31
630.269	41830.5
630.623	41900.78
630.978	41625.76
631.332	41907.78
631.687	41981.68
632.041	41724.28
632.396	41973.77
632.75	41642.7
633.104	41808.35
633.459	41727
633.813	41639.99
634.167	41734.68
634.521	41607.9
634.875	41771.51
635.229	41572.65
635.583	41508.7
635.937	41589.6
636.291	41446.78
636.645	41482.48
636.999	41386.44
637.352	41581.01
637.706	41255.37
638.06	41561.35
638.413	41471.64
638.767	41354.35
639.121	41480.22
639.474	41222.6
639.828	41332.43
640.181	41281.81
640.534	41252.43
640.888	41306.67
641.241	40930.18
641.594	41111.42
641.947	41200
642.301	41027.58
642.654	41064.41
643.007	41237.74
643.36	41063.28
643.713	40900.13
644.066	41097.18
644.419	41002.95
644.771	40702.16
645.124	40348.5
645.477	40272.35
645.83	40041.16
646.182	39903.77
646.535	39618.12
646.888	39820.83
647.24	39464.46
647.593	39846.59
647.945	39704
648.298	39475.3
648.65	39455.42
649.002	39365.93
649.355	39653.38
649.707	39493.83
650.059	39728.63
650.411	40249.07
650.763	40092.46
651.115	40576.29
651.467	40359.57
651.819	40488.61
652.171	40315.73
652.523	40260.82
652.875	40172.01
653.227	40133.59
653.578	40450.42
653.93	40192.12
654.282	39987.61
654.633	40052.24
654.985	40071.9
655.337	40115.96
655.688	40049.53
656.039	40146.02
656.391	39797.78
656.742	39885.24
657.094	39951.68
657.445	40095.85
657.796	39988.51
658.147	39886.59
658.498	39942.41
658.849	39919.36
659.2	39867.84
659.551	39724.56
659.902	39911.68
660.253	39736.77
660.604	39951
660.955	39703.55
661.306	39944.67
661.656	39793.26
662.007	39755.97
662.358	39804.33
662.708	39813.83
663.059	39699.48
663.409	39549.43
663.76	39816.99
664.11	39865.35
664.461	39935.18
664.811	39873.03
665.161	39874.16
665.511	39642.76
665.862	39761.4
666.212	39898.57
666.562	39817.89
666.912	39740.83
667.262	39763.21
667.612	39688.63
667.962	39863.09
668.312	39531.8
668.662	39823.09
669.011	39702.64
669.361	39586.94
669.711	39547.17
670.06	39395.98
670.41	39357.57
670.76	39436.43
671.109	39575.64
671.459	39544.91
671.808	39415.64
672.157	39483.67
672.507	39221.75
672.856	39202.09
673.205	39330.67
673.554	39360.5
673.904	39320.73
674.253	39516.21
674.602	39296.1
674.951	38774.08
675.3	38667.64
675.649	39119.83
675.998	39200.51
676.346	39132.49
676.695	39293.61
677.044	38975.88
677.393	39085.48
677.741	39094.97
678.09	39180.4
678.438	38946.96
678.787	39019.5
679.135	38910.57
679.484	38719.17
679.832	39022.21
680.181	38737.7
680.529	38865.38
680.877	38742.44
681.225	38606.17
681.573	38893.85
681.922	38610.92
682.27	38560.3
682.618	38587.42
682.966	38520.98
683.314	38499.96
683.661	38338.84
684.009	38245.73
684.357	38010.71
684.705	38077.37
685.053	38159.18
685.4	38061.33
685.748	37829.02
686.095	37831.73
686.443	37656.59
686.79	37775.91
687.138	38028.11
687.485	37783.6
687.832	37610.72
688.18	37652.3
688.527	37388.58
688.874	37389.03
689.221	37379.54
689.568	37269.26
689.915	37224.29
690.262	37240.79
690.609	37205.08
690.956	37056.16
691.303	36880.57
691.65	36696.62
691.997	36741.59
692.344	36497.08
692.69	36537.75
693.037	36532.56
693.383	36268.83
693.73	36450.07
694.077	36171.21
694.423	36133.24
694.769	36066.35
695.116	35926.47
695.462	35939.35
695.808	35896.87
696.155	35791.33
696.501	35546.14
696.847	35700.26
697.193	35407.61
697.539	35510.89
697.885	35335.75
698.231	35153.16
698.577	35209.2
698.923	35132.37
699.269	34928.98
699.614	34610.35
699.96	34698.25
700.306	34665.26
700.651	34617.35
700.997	34424.14
701.342	34367.64
701.688	34330.35
702.033	34259.62
702.379	34163.35
702.724	34070.02
703.069	34182.79
703.415	33806.3
703.76	33805.4
704.105	33792.29
704.45	33766.08
704.795	33452.41
705.14	33561.79
705.485	33430.94
705.83	33316.37
706.175	33328.8
706.52	33265.75
706.865	33152.76
707.209	33174.45
707.554	33109.6
707.899	33104.62
708.243	32889.94
708.588	32851.07
708.932	32674.8
709.277	32561.14
709.621	32703.5
709.966	32469.39
710.31	32444.98
710.654	32190.07
710.998	32268.71
711.342	32308.71
711.687	32083.86
712.031	31982.17
712.375	31891.77
712.719	31973.58
713.063	31983.75
713.407	32048.61
713.75	31791.66
714.094	31867.59
714.438	31640.03
714.782	31700.37
715.125	31426.02
715.469	31602.74
715.812	31336.08
716.156	31315.97
716.499	31243.2
716.843	31299.02
717.186	31064.9
717.53	31137.67
717.873	31197.1
718.216	31055.64
718.559	30928.18
718.902	30729.55
719.246	30802.09
719.589	30661.52
719.932	30529.78
720.275	30544.47
720.617	30677.12
720.96	30550.34
721.303	30513.96
721.646	30618.59
721.989	30299.05
722.331	30417.91
722.674	30269.22
723.016	30318.71
723.359	30211.82
723.701	30386.5
724.044	30089.11
724.386	29946.06
724.729	30145.61
725.071	29910.58
725.413	29979.73
725.755	29920.98
726.097	29799.4
726.439	29613.19
726.782	29720.08
727.124	29828.1
727.465	29597.15
727.807	29468.79
728.149	29472.63
728.491	29482.57
728.833	29523.25
729.175	29296.81
729.516	29241.45
729.858	29281.45
730.199	29247.32
730.541	29216.82
730.882	29135.69
731.224	29227.21
731.565	29015.01
731.906	28965.75
732.248	29051.17
732.589	28852.31
732.93	28753.55
733.271	28834.23
733.612	28763.27
733.953	28849.14
734.294	28647.34
734.635	28639.2
734.976	28682.14
735.317	28525.99
735.658	28586.78
735.999	28501.36
736.339	28429.49
736.68	28513.78
737.021	28510.85
737.361	28310.85
737.702	28419.1
738.042	28369.38
738.383	28232.89
738.723	28313.79
739.063	28084.64
739.404	28150.4
739.744	28039.45
740.084	27949.28
740.424	28062.95
740.764	27980.01
741.104	28000.35
741.444	27860.02
741.784	27794.48
742.124	27781.37
742.464	27840.13
742.804	27720.36
743.143	27643.3
743.483	27663.19
743.823	27550.87
744.162	27515.62
744.502	27517.2
744.841	27399.92
745.181	27557.2
745.52	27385.68
745.86	27644.88
746.199	27342.29
746.538	27360.82
746.877	27281.95
747.216	27290.77
747.556	27148.17
747.895	27207.83
748.234	27110.66
748.573	27081.51
748.911	26967.16
749.25	26921.28
749.589	26926.26
749.928	26945.01
750.267	26898.46
750.605	26869.76
750.944	26770.78
751.283	26711.8
751.621	26679.03
751.96	26561.29
752.298	26497.57
752.636	26590.22
752.975	26335.76
753.313	26235.43
753.651	26511.8
753.989	26279.72
754.327	26300.51
754.666	26121.08
755.004	26204.92
755.342	26123.79
755.679	26072.49
756.017	25847.87
756.355	26029.56
756.693	25866.17
757.031	25928.32
757.368	25576.91
757.706	25706.85
758.044	25664.59
758.381	25628.66
758.719	25532.62
759.056	25615.78
759.394	25426.18
759.731	25209.01
760.068	25296.02
760.405	25162.91
760.743	25074.33
761.08	25114.33
761.417	24901.68
761.754	24956.82
762.091	24864.39
762.428	24802.92
762.765	24681.57
763.102	24667.33
763.438	24462.82
763.775	24339.66
764.112	24413.78
764.449	24498.97
764.785	24294.91
765.122	24138.98
765.458	24076.16
765.795	24009.27
766.131	23903.51
766.467	23939.44
766.804	23806.11
767.14	23667.36
767.476	23747.13
767.812	23576.74
768.148	23535.38
768.485	23473.92
768.821	23418.32
769.157	23277.76
769.492	23218.1
769.828	23260.36
770.164	22951.9
770.5	22962.29
770.836	22929.52
771.171	22758.68
771.507	22756.65
771.842	22506.26
772.178	22698.8
772.513	22535.18
772.849	22384.91
773.184	22305.59
773.519	22261.75
773.855	22196.44
774.19	22167.51
774.525	22062.65
774.86	22064.91
775.195	22053.16
775.53	21986.5
775.865	21714.19
776.2	21545.15
776.535	21500.64
776.87	21503.8
777.205	21488.21
777.539	21329.79
777.874	21379.96
778.209	21106.52
778.543	21080.99
778.878	20930.71
779.212	21017.26
779.547	20947.2
779.881	20901.78
780.215	20819.75
780.55	20783.82
780.884	20582.69
781.218	20631.05
781.552	20533.66
781.886	20487.55
782.22	20349.93
782.554	20179.09
782.888	20017.06
783.222	19973.44
783.556	19972.09
783.889	19941.35
784.223	19817.29
784.557	19810.28
784.89	19813.9
785.224	19615.04
785.557	19525.77
785.891	19466.11
786.224	19407.13
786.558	19429.96
786.891	19149.96
787.224	19116.52
787.557	19118.78
787.891	19066.12
788.224	19045.56
788.557	19048.5
788.89	18861.38
789.223	18946.8
789.556	18786.58
789.888	18711.78
790.221	18712.01
790.554	18578.23
790.887	18550.66
791.219	18471.79
791.552	18367.38
791.884	18285.8
792.217	18259.59
792.549	18145.02
792.882	18122.42
793.214	17990.45
793.546	18104.11
793.879	17973.5
794.211	17840.39
794.543	17876.78
794.875	17772.6
795.207	17853.05
795.539	17669.78
795.871	17641.53
796.203	17488.54
796.535	17432.72
796.867	17372.16
797.198	17381.42
797.53	17368.09
797.862	17192.95
798.193	17257.36
798.525	17119.06
798.856	17118.6
799.188	16939.85
799.519	16962.22
799.85	16903.69
800.182	16844.71
800.513	16825.73
800.844	16734.43
801.175	16797.71
801.506	16730.14
801.837	16662.8
802.168	16587.54
802.499	16496.02
802.83	16470.26
803.161	16370.37
803.491	16378.28
803.822	16355.23
804.153	16313.88
804.483	16157.05
804.814	16061.23
805.145	16138.29
805.475	16094.9
805.805	16068.01
806.136	16023.94
806.466	15940.33
806.796	15914.34
807.126	15769.94
807.457	15741.46
807.787	15770.62
808.117	15693.56
808.447	15628.25
808.777	15663.73
809.107	15626.67
809.436	15501.7
809.766	15525.2
810.096	15511.64
810.426	15379.44
810.755	15460.34
811.085	15337.41
811.414	15340.8
811.744	15254.7
812.073	15206.79
812.403	15190.52
812.732	15052.67
813.061	15047.92
813.39	14957.08
813.719	14939.9
814.049	15061.03
814.378	14860.81
814.707	14888.83
815.036	14897.42
815.365	14748.27
815.693	14677.54
816.022	14673.02
816.351	14661.49
816.68	14482.97
817.008	14590.31
817.337	14454.72
817.665	14428.05
817.994	14503.08
818.322	14451.1
818.651	14318.23
818.979	14272.8
819.307	14283.2
819.636	14293.82
819.964	14196.87
820.292	14271.22
820.62	14197.1
820.948	14129.3
821.276	14275.51
821.604	14116.87
821.932	14231.22
822.259	14205.46
822.587	14123.65
822.915	14091.34
823.243	14159.13
823.57	14112.81
823.898	14182.64
824.225	14098.8
824.553	14049.76
824.88	14087.27
825.207	14184.67
825.535	14092.02
825.862	14120.94
826.189	14044.79
826.516	14153.26
826.843	14143.09
827.17	14113.71
827.497	14093.15
827.824	14150.77
828.151	14141.51
828.478	14181.28
828.805	14100.38
829.131	14062.41
829.458	14028.74
829.785	13953.72
830.111	14071.45
830.438	14151
830.764	14117.78
831.09	14068.51
831.417	14031.23
831.743	14031.23
832.069	14055.41
832.395	13974.96
832.722	14045.24
833.048	13982.87
833.374	14006.37
833.7	13946.26
834.026	13937.44
834.351	13971.57
834.677	13989.87
835.003	13964.11
835.329	13875.75
835.654	13891.34
835.98	13805.24
836.306	13862.42
836.631	13748.75
836.956	13845.47
837.282	13838.46
837.607	13760.95
837.932	13736.77
838.258	13720.27
838.583	13726.83
838.908	13622.65
839.233	13661.75
839.558	13642.08
839.883	13558.7
840.208	13507.4
840.533	13482.54
840.858	13546.95
841.182	13517.34
841.507	13480.51
841.832	13370.45
842.156	13379.27
842.481	13351.7
842.805	13371.13
843.13	13362.77
843.454	13288.65
843.778	13238.48
844.103	13209.78
844.427	13158.71
844.751	13126.62
845.075	13170.68
845.399	13034.64
845.723	13038.71
846.047	13053.63
846.371	12899.51
846.695	12919.39
847.019	12851.15
847.343	12733.63
847.666	12706.29
847.99	12692.73
848.313	12704.48
848.637	12546.97
848.96	12519.85
849.284	12525.28
849.607	12378.16
849.931	12407.32
850.254	12279.41
850.577	12261.78
850.9	12149.69
851.223	12116.25
851.546	12151.5
851.869	11930.04
852.192	12051.62
852.515	11952.19
852.838	11930.94
853.161	11876.03
853.483	11840.78
853.806	11859.76
854.129	11873.77
854.451	11766.65
854.774	11698.18
855.096	11632.19
855.419	11574.79
855.741	11571.63
856.063	11474.01
856.385	11503.38
856.708	11467.68
857.03	11403.73
857.352	11416.83
857.674	11337.96
857.996	11315.14
858.318	11204.41
858.64	11248.25
858.961	11252.32
859.283	11231.98
859.605	11104.98
859.926	11161.02
860.248	11094.36
860.57	11096.62
860.891	11036.96
861.212	11000.57
861.534	10954.47
861.855	11015.71
862.176	10961.48
862.498	10953.79
862.819	10935.04
863.14	10869.05
863.461	10878.54
863.782	10848.71
864.103	10873.34
864.424	10730.97
864.745	10747.02
865.065	10724.42
865.386	10705.44
865.707	10696.63
866.027	10669.73
866.348	10625.89
866.668	10676.06
866.989	10699.11
867.309	10566.91
867.63	10517.2
867.95	10583.18
868.27	10481.04
868.59	10525.33
868.91	10484.88
869.23	10492.79
869.55	10447.59
869.87	10503.64
870.19	10512.68
870.51	10439.91
870.83	10467.25
871.15	10337.76
871.469	10397.42
871.789	10454.6
872.109	10401.04
872.428	10340.93
872.748	10352.23
873.067	10281.95
873.386	10394.49
873.706	10297.09
874.025	10198.79
874.344	10175.06
874.663	10255.96
874.982	10166.92
875.301	10151.33
875.62	10116.08
875.939	10090.99
876.258	10134.15
876.577	10079.01
876.896	10090.09
877.214	10038.34
877.533	10050.54
877.852	10053.03
878.17	10064.55
878.489	10016.64
878.807	10082.63
879.125	9943.88
879.444	9942.07
879.762	10001.05
880.08	9949.53
880.398	9874.5
880.716	9940.71
881.034	9845.35
881.352	9866.36
881.67	9825.01
881.988	9828.4
882.306	9743.43
882.624	9762.41
882.941	9679.48
883.259	9744.56
883.577	9679.03
883.894	9682.64
884.212	9599.93
884.529	9636.54
884.846	9588.18
885.164	9542.53
885.481	9517.67
885.798	9587.05
886.115	9518.58
886.432	9553.83
886.75	9427.51
887.067	9502.53
887.383	9421.63
887.7	9446.04
888.017	9423.89
888.334	9335.53
888.651	9295.31
888.967	9325.81
889.284	9295.31
889.6	9230.45
889.917	9146.84
890.233	9208.3
890.55	9198.36
890.866	9199.94
891.182	9155.65
891.498	9148.42
891.815	9110.9
892.131	9027.29
892.447	9008.76
892.763	8975.09
893.079	8995.65
893.395	8933.28
893.71	8920.63
894.026	8842.66
894.342	8893.28
894.657	8813.06
894.973	8833.85
895.289	8832.72
895.604	8783.91
895.92	8698.71
896.235	8663.46
896.55	8685.38
896.865	8614.19
897.181	8580.07
897.496	8637.7
897.811	8579.17
898.126	8531.26
898.441	8496.46
898.756	8435.22
899.071	8405.39
899.386	8389.57
899.7	8349.57
900.015	8323.13
900.33	8227.31
900.644	8236.13
900.959	8248.33
901.273	8199.52
901.588	8202.91
901.902	8107.77
902.216	8128.78
902.531	8083.36
902.845	8051.05
903.159	8023.25
903.473	8032.97
903.787	7997.71
904.101	7928.79
904.415	7888.11
904.729	7879.07
905.042	7861.67
905.356	7817.15
905.67	7803.59
905.984	7777.83
906.297	7815.35
906.611	7749.36
906.924	7641.56
907.237	7681.34
907.551	7652.41
907.864	7636.37
908.177	7577.61
908.491	7597.95
908.804	7483.83
909.117	7471.4
909.43	7448.35
909.743	7396.83
910.056	7404.96
910.368	7343.95
910.681	7328.8
910.994	7237.96
911.307	7217.85
911.619	7263.04
911.932	7198.86
912.244	7134.01
912.557	7177.4
912.869	7083.61
913.181	7054.46
913.494	7098.3
913.806	7072.31
914.118	7028.47
914.43	6998.19
914.742	6967.01
915.054	6938.98
915.366	6924.52
915.678	6871.19
915.99	6812.66
916.302	6816.28
916.613	6816.95
916.925	6749.84
917.236	6735.37
917.548	6700.35
917.859	6699.44
918.171	6662.61
918.482	6559.79
918.794	6584.19
919.105	6585.55
919.416	6475.27
919.727	6487.24
920.038	6488.6
920.349	6505.78
920.66	6424.42
920.971	6463.06
921.282	6373.12
921.593	6338.55
921.903	6321.37
922.214	6282.96
922.525	6267.59
922.835	6261.04
923.146	6190.08
923.456	6204.77
923.767	6171.32
924.077	6133.81
924.387	6129.74
924.697	6062.62
925.008	6100.81
925.318	6032.57
925.628	6023.98
925.938	5987.14
926.248	5948.95
926.558	5967.71
926.867	5892.23
927.177	5842.97
927.487	5849.97
927.796	5782.86
928.106	5805.45
928.416	5787.15
928.725	5829.41
929.034	5766.59
929.344	5706.7
929.653	5727.72
929.962	5616.53
930.271	5592.35
930.581	5619.24
930.89	5562.75
931.199	5566.14
931.508	5533.82
931.817	5547.61
932.125	5510.55
932.434	5479.59
932.743	5461.06
933.051	5416.99
933.36	5386.48
933.669	5365.47
933.977	5371.12
934.286	5311.46
934.594	5318.46
934.902	5293.6
935.21	5247.05
935.519	5266.03
935.827	5209.09
936.135	5192.82
936.443	5154.85
936.751	5124.12
937.059	5132.7
937.367	5092.48
937.674	5083.89
937.982	5047.28
938.29	5005.25
938.597	5041.63
938.905	4989.88
939.213	4973.61
939.52	4915.53
939.827	4943.33
940.135	4917.12
940.442	4918.7
940.749	4883.45
941.056	4855.2
941.363	4770.23
941.67	4790.34
941.977	4785.82
942.284	4710.57
942.591	4778.36
942.898	4744.01
943.205	4719.16
943.511	4704.69
943.818	4698.82
944.125	4631.93
944.431	4665.37
944.738	4647.75
945.044	4618.37
945.35	4572.04
945.657	4541.53
945.963	4489.56
946.269	4494.53
946.575	4536.56
946.881	4488.2
947.187	4440.74
947.493	4426.51
947.799	4410.01
948.105	4393.97
948.41	4321.88
948.716	4351.48
949.022	4328.21
949.327	4327.53
949.633	4261.54
949.938	4329.56
950.244	4286.62
950.549	4267.19
950.854	4277.13
951.16	4197.14
951.465	4192.16
951.77	4143.8
952.075	4172.05
952.38	4107.19
952.685	4133.41
952.99	4102.45
953.294	4066.52
953.599	4068.78
953.904	4054.77
954.209	3970.02
954.513	4027.2
954.818	3965.96
955.122	4016.12
955.426	3965.96
955.731	3947.42
956.035	3922.11
956.339	3919.63
956.643	3950.81
956.948	3856.58
957.252	3873.3
957.556	3860.42
957.86	3853.64
958.163	3807.99
958.467	3834.66
958.771	3803.25
959.075	3775.9
959.378	3705.4
959.682	3751.05
959.985	3702.23
960.289	3718.5
960.592	3715.11
960.896	3660.43
961.199	3633.53
961.502	3619.75
961.805	3637.15
962.108	3598.51
962.411	3610.48
962.714	3537.72
963.017	3533.88
963.32	3581.78
963.623	3562.12
963.926	3523.48
964.228	3511.05
964.531	3509.92
964.833	3470.6
965.136	3428.79
965.438	3464.73
965.741	3378.63
966.043	3407.1
966.345	3412.3
966.648	3403.03
966.95	3358.29
967.252	3350.83
967.554	3329.14
967.856	3326.65
968.158	3318.97
968.46	3303.37
968.761	3302.47
969.063	3293.88
969.365	3268.35
969.666	3239.87
969.968	3198.97
970.269	3179.76
970.571	3190.61
970.872	3182.25
971.174	3132.98
971.475	3147.67
971.776	3112.87
972.077	3127.78
972.378	3090.95
972.679	3130.04
972.98	3055.92
973.281	3092.53
973.582	3047.34
973.883	3055.47
974.183	3006.43
974.484	3035.58
974.785	2985.64
975.085	2987.68
975.386	3012.31
975.686	3009.14
975.986	2962.14
976.287	2956.26
976.587	2908.13
976.887	2904.97
977.187	2885.98
977.487	2852.09
977.787	2858.64
978.087	2845.31
978.387	2847.79
978.687	2829.26
978.987	2824.74
979.286	2836.72
979.586	2792.88
979.885	2786.33
980.185	2763.5
980.484	2707.01
980.784	2748.81
981.083	2707.01
981.382	2707.23
981.682	2687.8
981.981	2664.29
982.28	2684.41
982.579	2664.29
982.878	2655.93
983.177	2675.59
983.475	2635.82
983.774	2617.29
984.073	2655.03
984.372	2622.71
984.67	2561.47
984.969	2589.27
985.267	2590.85
985.566	2561.25
985.864	2532.77
986.162	2521.93
986.461	2553.34
986.759	2518.99
987.057	2464.3
987.355	2507.69
987.653	2476.5
987.951	2467.24
988.249	2463.85
988.547	2456.84
988.844	2454.58
989.142	2408.26
989.44	2416.62
989.737	2427.01
990.035	2376.17
990.332	2389.5
990.63	2361.03
990.927	2359.44
991.224	2371.42
991.521	2330.29
991.819	2343.4
992.116	2299.11
992.413	2332.78
992.71	2311.31
993.006	2273.8
993.303	2272.89
993.6	2283.74
993.897	2266.79
994.193	2227.47
994.49	2248.03
994.787	2260.46
995.083	2229.05
995.379	2204.42
995.676	2191.31
995.972	2201.26
996.268	2167.81
996.565	2157.87
996.861	2160.13
997.157	2135.27
997.453	2151.54
997.749	2155.16
998.044	2129.39
998.34	2112.9
998.636	2074.71
998.932	2088.94
999.227	2057.53
999.523	2047.59
999.818	2057.76
1000.114	2052.11
1000.409	1992.22
1000.704	1997.65
1001	2001.49
1001.295	1998.78
1001.59	1987.25
1001.885	1991.77
1002.18	1991.54
1002.475	1943.41
1002.77	1952.22
1003.065	1929.17
1003.359	1916.97
1003.654	1925.56
1003.949	1890.3
1004.243	1892.11
1004.538	1883.52
1004.832	1884.65
1005.127	1895.28
1005.421	1850.76
1005.715	1857.08
1006.009	1834.71
1006.304	1845.11
1006.598	1823.41
1006.892	1805.56
1007.186	1798.55
1007.48	1765.56
1007.773	1754.49
1008.067	1743.87
1008.361	1750.87
1008.655	1728.05
1008.948	1767.82
1009.242	1725.56
1009.535	1753.36
1009.829	1745
1010.122	1705.45
1010.415	1672.46
1010.708	1690.99
1011.001	1659.8
1011.295	1667.71
1011.588	1662.96
1011.881	1629.75
1012.173	1662.51
1012.466	1637.65
1012.759	1605.79
1013.052	1588.62
1013.344	1603.08
1013.637	1572.57
1013.93	1578.45
1014.222	1553.14
1014.514	1543.65
1014.807	1556.98
1015.099	1537.54
1015.391	1526.92
1015.683	1538.67
1015.976	1526.02
1016.268	1481.5
1016.56	1486.92
1016.851	1479.47
1017.143	1490.99
1017.435	1465.46
1017.727	1458.9
1018.018	1455.51
1018.31	1429.07
1018.602	1437.66
1018.893	1393.59
1019.185	1417.1
1019.476	1386.14
1019.767	1416.87
1020.058	1403.31
1020.35	1380.26
1020.641	1334.61
1020.932	1371.9
1021.223	1371.22
1021.514	1333.26
1021.804	1347.49
1022.095	1331
1022.386	1317.89
1022.677	1340.49
1022.967	1287.16
1023.258	1307.27
1023.548	1286.48
1023.839	1259.59
1024.129	1292.13
1024.419	1262.3
1024.709	1261.39
1025	1235.41
1025.29	1233.6
1025.58	1219.81
1025.87	1218.68
1026.16	1218
1026.449	1222.07
1026.739	1209.19
1027.029	1209.64
1027.319	1199.02
1027.608	1154.5
1027.898	1158.12
1028.187	1129.19
1028.477	1146.37
1028.766	1131.91
1029.055	1131.68
1029.344	1153.15
1029.634	1153.37
1029.923	1135.3
1030.212	1126.03
1030.501	1088.29
1030.79	1096.43
1031.078	1089.42
1031.367	1057.56
1031.656	1098.69
1031.945	1050.55
1032.233	1061.85
1032.522	1054.85
1032.81	1021.63
1033.099	1063.21
1033.387	1043.09
1033.675	1038.35
1033.963	1021.63
1034.251	1044.68
1034.54	1002.42
1034.828	1014.85
1035.116	999.03
1035.403	1018.24
1035.691	989.08
1035.979	960.38
1036.267	983.21
1036.554	963.32
1036.842	975.07
1037.129	937.56
1037.417	927.16
1037.704	972.81
1037.992	961.97
1038.279	947.5
1038.566	918.35
1038.853	918.35
1039.14	918.35
