Data from hue_60_FLMS001491_98.txt Node
Date: Mon Feb 06 15:18:14 GMT 2017
User: dcchb
Spectrometer: FLMS00149
Trigger mode: 0
Integration Time (sec): 2.000000E-2
Scans to average: 10
Electric dark correction enabled: true
Nonlinearity correction enabled: false
Boxcar width: 0
XAxis mode: Wavelengths
Number of Pixels in Spectrum: 2048
>>>>>Begin Spectral Data<<<<<
341.393	-18.29
341.776	-18.29
342.16	-18.29
342.543	-50.38
342.927	-74.79
343.31	-55.58
343.693	-66.65
344.077	-78.18
344.46	-65.07
344.843	-56.93
345.226	-50.15
345.61	-36.82
345.993	-17.39
346.376	-1.57
346.759	23.97
347.142	41.82
347.525	45.66
347.908	61.03
348.291	63.74
348.674	92.67
349.057	99.45
349.44	136.51
349.823	137.19
350.206	161.59
350.588	219.44
350.971	218.77
351.354	234.36
351.737	244.3
352.119	262.61
352.502	268.71
352.884	282.94
353.267	272.78
353.65	287.92
354.032	312.55
354.414	325.66
354.797	325.2
355.179	341.02
355.562	317.75
355.944	340.12
356.326	351.64
356.709	351.42
357.091	357.52
357.473	384.64
357.855	369.72
358.238	349.61
358.62	345.54
359.002	360
359.384	364.07
359.766	353.45
360.148	347.58
360.53	346.22
360.912	366.56
361.294	340.57
361.676	338.76
362.057	361.81
362.439	334.24
362.821	349.84
363.203	327.01
363.584	350.29
363.966	336.5
364.348	327.69
364.729	342.38
365.111	332.89
365.493	323.85
365.874	317.75
366.256	345.99
366.637	342.38
367.019	341.93
367.4	317.52
367.781	326.33
368.163	338.76
368.544	338.76
368.925	321.14
369.306	317.75
369.688	326.56
370.069	309.38
370.45	330.17
370.831	327.69
371.212	334.24
371.593	338.99
371.974	336.5
372.355	339.67
372.736	328.82
373.117	323.85
373.498	306.9
373.879	335.6
374.26	325.66
374.641	314.13
375.021	305.54
375.402	312.55
375.783	344.41
376.163	345.09
376.544	337.63
376.925	339.44
377.305	321.14
377.686	330.17
378.066	326.33
378.447	348.93
378.827	338.76
379.208	328.37
379.588	353.9
379.968	361.81
380.349	351.87
380.729	347.58
381.109	341.02
381.489	347.12
381.87	356.84
382.25	351.19
382.63	356.16
383.01	355.71
383.39	368.14
383.77	368.82
384.15	369.72
384.53	339.21
384.91	362.26
385.29	346.22
385.67	353
386.049	363.17
386.429	371.08
386.809	364.07
387.189	368.82
387.568	358.65
387.948	366.11
388.328	363.39
388.707	384.64
389.087	364.75
389.466	342.15
389.846	369.5
390.225	372.66
390.605	369.04
390.984	381.47
391.363	379.89
391.743	385.77
392.122	353
392.501	384.64
392.881	393.68
393.26	375.82
393.639	403.17
394.018	381.25
394.397	353.9
394.776	390.51
395.155	384.86
395.534	407.91
395.913	400.68
396.292	391.19
396.671	402.72
397.05	405.65
397.429	385.09
397.808	385.99
398.186	391.19
398.565	406.56
398.944	423.73
399.323	400.23
399.701	416.73
400.08	407.24
400.458	410.85
400.837	407.91
401.215	416.5
401.594	435.03
401.972	421.7
402.351	427.35
402.729	437.74
403.107	436.61
403.486	415.82
403.864	432.32
404.242	425.09
404.62	420.34
404.999	457.18
405.377	418.53
405.755	431.42
406.133	425.31
406.511	442.49
406.889	453.56
407.267	440
407.645	434.35
408.023	462.6
408.401	438.65
408.779	462.15
409.156	463.96
409.534	453.11
409.912	458.99
410.29	460.34
410.667	451.53
411.045	465.09
411.422	468.7
411.8	475.26
412.178	479.1
412.555	478.42
412.933	474.58
413.31	484.52
413.687	496.05
414.065	517.74
414.442	504.18
414.819	514.35
415.197	503.5
415.574	495.59
415.951	512.54
416.328	517.51
416.705	509.38
417.082	514.58
417.46	531.98
417.837	526.1
418.214	513.9
418.591	526.55
418.967	555.71
419.344	532.2
419.721	541.69
420.098	550.73
420.475	551.41
420.852	556.61
421.228	560.68
421.605	552.32
421.982	555.48
422.358	567.91
422.735	580.56
423.111	567
423.488	562.49
423.864	578.08
424.241	588.47
424.617	610.62
424.994	565.65
425.37	586.44
425.746	582.6
426.123	578.53
426.499	594.12
426.875	583.05
427.251	602.71
427.627	608.13
428.003	619.43
428.379	622.37
428.756	628.02
429.132	622.37
429.507	668.92
429.883	640.45
430.259	619.43
430.635	635.48
431.011	642.48
431.387	647
431.763	682.48
432.138	664.63
432.514	693.1
432.89	682.26
433.265	686.78
433.641	717.06
434.016	698.75
434.392	713.44
434.767	707.34
435.143	702.37
435.518	737.4
435.894	734.91
436.269	712.54
436.644	753.67
437.02	735.36
437.395	739.2
437.77	763.38
438.145	764.06
438.52	760.45
438.895	758.41
439.271	760.45
439.646	778.75
440.021	790.5
440.395	776.04
440.77	750.73
441.145	796.15
441.52	823.04
441.895	786.43
442.27	820.11
442.645	820.33
443.019	848.13
443.394	827.56
443.769	841.12
444.143	846.09
444.518	827.79
444.892	842.48
445.267	856.94
445.641	875.92
446.016	845.87
446.39	847.68
446.764	878.64
447.139	867.34
447.513	887.67
447.887	873.44
448.262	875.02
448.636	881.12
449.01	916.15
449.384	900.56
449.758	890.84
450.132	915.24
450.506	897.62
450.88	910.27
451.254	935.36
451.628	973.32
452.002	949.14
452.376	953.89
452.75	968.35
453.123	954.57
453.497	973.1
453.871	968.8
454.244	997.73
454.618	1003.6
454.992	1002.93
455.365	1026.2
455.739	1046.99
456.112	1069.59
456.486	1077.5
456.859	1062.36
457.232	1084.51
457.606	1071.4
457.979	1084.96
458.352	1116.37
458.725	1141
459.099	1143.94
459.472	1173.09
459.845	1162.7
460.218	1185.97
460.591	1201.34
460.964	1203.15
461.337	1224.39
461.71	1227.33
462.083	1271.39
462.456	1252.18
462.829	1256.7
463.201	1282.92
463.574	1273.2
463.947	1322.01
464.32	1365.63
464.692	1344.84
465.065	1372.63
465.438	1395.68
465.81	1391.39
466.183	1420.54
466.555	1451.95
466.928	1461.22
467.3	1475
467.672	1507.55
468.045	1543.02
468.417	1557.04
468.789	1560.88
469.161	1596.13
469.534	1636.13
469.906	1658.5
470.278	1659.18
470.65	1709.12
471.022	1782.11
471.394	1775.11
471.766	1826.18
472.138	1832.06
472.51	1863.02
472.882	1926.07
473.253	1956.57
473.625	1949.12
473.997	2043.8
474.369	2065.95
474.74	2102.78
475.112	2145.72
475.484	2205.83
475.855	2319.95
476.227	2314.08
476.598	2404.7
476.97	2439.27
477.341	2510.46
477.713	2581.64
478.084	2582.55
478.455	2752.26
478.827	2755.87
479.198	2872.93
479.569	2945.7
479.94	3019.6
480.311	3078.13
480.682	3192.92
481.053	3296.65
481.424	3380.49
481.795	3451
482.166	3524.67
482.537	3694.38
482.908	3766.69
483.279	3879.46
483.65	3982.51
484.021	4090.53
484.391	4186.34
484.762	4310.86
485.133	4405.32
485.503	4510.86
485.874	4617.07
486.244	4780.91
486.615	4944.97
486.985	5033.33
487.356	5238.07
487.726	5319.2
488.097	5493.88
488.467	5620.21
488.837	5772.52
489.207	5911.27
489.578	6098.38
489.948	6228.1
490.318	6419.51
490.688	6529.79
491.058	6744.92
491.428	6919.61
491.798	7066.27
492.168	7286.83
492.538	7390.1
492.908	7490.21
493.278	7741.96
493.648	7847.04
494.017	8110.31
494.387	8214.49
494.757	8416.74
495.126	8561.14
495.496	8699.67
495.866	8886.56
496.235	9089.49
496.605	9214.91
496.974	9412.65
497.344	9559.31
497.713	9753.43
498.082	9870.94
498.452	10151.84
498.821	10253.08
499.19	10373.3
499.559	10531.04
499.928	10692.61
500.298	10834.98
500.667	11067.75
501.036	11153.62
501.405	11391.8
501.774	11492.14
502.143	11756.09
502.512	11862.98
502.88	12020.72
503.249	12165.34
503.618	12385.9
503.987	12443.3
504.356	12637.42
504.724	12749.51
505.093	12909.51
505.462	12986.57
505.83	13166.45
506.199	13365.99
506.567	13664.29
506.936	13702.93
507.304	13914.45
507.672	13960.33
508.041	14191.05
508.409	14376.36
508.777	14530.48
509.145	14711.94
509.514	14731.83
509.882	14960.07
510.25	15027.87
510.618	15174.08
510.986	15411.81
511.354	15531.58
511.722	15594.18
512.09	15838.24
512.458	15955.07
512.826	16179.25
513.193	16285.01
513.561	16328.85
513.929	16525.91
514.297	16741.27
514.664	16924.54
515.032	17082.5
515.4	17289.73
515.767	17327.92
516.135	17475.71
516.502	17459.89
516.869	17815.36
517.237	17916.61
517.604	17945.98
517.972	18241.12
518.339	18366.54
518.706	18501
519.073	18518.17
519.44	18752.74
519.808	19049.23
520.175	18951.15
520.542	19207.19
520.909	19371.48
521.276	19393.18
521.643	19566.96
522.009	19777.57
522.376	20008.75
522.743	20157.68
523.11	20348.63
523.477	20510.44
523.843	20629.3
524.21	20964.89
524.577	21078.56
524.943	21213.24
525.31	21258.44
525.676	21574.81
526.043	21717.41
526.409	21761.02
526.776	22060.9
527.142	22121.47
527.508	22277.62
527.874	22465.86
528.241	22615.01
528.607	22803.26
528.973	23024.95
529.339	22909.24
529.705	23220.19
530.071	23293.64
530.437	23505.38
530.803	23565.04
531.169	23716.68
531.535	23810.46
531.901	23807.07
532.267	24039.83
532.632	24246.61
532.998	24299.04
533.364	24424.91
533.73	24445.93
534.095	24726.82
534.461	24799.81
534.826	24908.51
535.192	25018.11
535.557	25316.41
535.923	25193.93
536.288	25329.97
536.653	25409.97
537.019	25472.34
537.384	25616.97
537.749	25655.61
538.114	25743.74
538.479	25918.88
538.845	25966.34
539.21	25916.17
539.575	26029.61
539.94	26188.03
540.305	26409.26
540.67	26339.21
541.034	26458.75
541.399	26463.5
541.764	26668.69
542.129	26801.8
542.494	26868.23
542.858	26872.3
543.223	26975.35
543.587	27165.85
543.952	27140.77
544.316	27285.62
544.681	27150.03
545.045	27395.45
545.41	27543.24
545.774	27682.68
546.138	27723.35
546.503	27774.2
546.867	27834.08
547.231	28082.67
547.595	28110.01
547.959	28108.43
548.324	28181.42
548.688	28159.27
549.052	28312.94
549.416	28404.24
549.779	28508.19
550.143	28566.49
550.507	28775.08
550.871	28840.61
551.235	28848.97
551.599	28966.26
551.962	29136.42
552.326	29231.11
552.689	29386.81
553.053	29228.4
553.417	29429.3
553.78	29830.87
554.143	29742.73
554.507	29817.08
554.87	30031.31
555.234	30175.94
555.597	30104.99
555.96	30123.97
556.323	30322.15
556.686	30457.97
557.05	30641.24
557.413	30717.85
557.776	30777.51
558.139	30971.4
558.502	31081.46
558.865	31220.66
559.228	31345.18
559.59	31615.91
559.953	31597.15
560.316	31832.17
560.679	31928.89
561.041	32087.98
561.404	32148.55
561.767	32376.34
562.129	32205.27
562.492	32631.02
562.854	32658.36
563.217	32738.36
563.579	32765.25
563.941	33111.01
564.304	33199.37
564.666	33403.88
565.028	33422.19
565.39	33621.05
565.753	33746.02
566.115	33948.73
566.477	34050.87
566.839	34016.97
567.201	34291.54
567.563	34317.08
567.925	34480.92
568.287	34543.96
568.648	34748.7
569.01	34930.62
569.372	35042.71
569.734	34993.9
570.095	35268.92
570.457	35442.02
570.819	35489.7
571.18	35501.68
571.542	35713.43
571.903	35884.95
572.265	35949.8
572.626	35916.36
572.987	36071.61
573.349	36236.8
573.71	36429.79
574.071	36312.73
574.432	36511.6
574.794	36655.55
575.155	36640.18
575.516	36752.04
575.877	36804.7
576.238	36806.96
576.599	37002.88
576.96	37001.53
577.32	37089.43
577.681	37264.35
578.042	37294.17
578.403	37415.75
578.763	37307.51
579.124	37415.53
579.485	37588.4
579.845	37671.57
580.206	37596.54
580.566	37726.03
580.927	37602.64
581.287	37979.58
581.648	37748.63
582.008	37974.83
582.368	37853.93
582.728	38013.25
583.089	37915.63
583.449	37983.65
583.809	37936.19
584.169	38103.87
584.529	38044.66
584.889	38312.91
585.249	38220.93
585.609	38021.84
585.969	38309.74
586.329	38144.55
586.688	38205.34
587.048	38287.14
587.408	38147.26
587.768	38230.2
588.127	38221.61
588.487	38166.02
588.846	38448.95
589.206	38244.21
589.565	38117.88
589.925	38387.03
590.284	38344.77
590.643	38330.98
591.003	38437.42
591.362	38503.41
591.721	38424.54
592.08	38502.28
592.44	38560.81
592.799	38554.71
593.158	38523.75
593.517	38517.19
593.876	38711.31
594.235	38554.93
594.593	38583.41
594.952	38639.45
595.311	38645.33
595.67	38716.28
596.029	38998.31
596.387	38917.18
596.746	39038.99
597.104	38714.48
597.463	38815.94
597.822	38952.66
598.18	38863.85
598.538	38805.1
598.897	39040.57
599.255	38857.75
599.613	39358.08
599.972	39269.26
600.33	39185.88
600.688	39070.63
601.046	39231.75
601.404	39473.55
601.762	39306.33
602.12	39580.89
602.478	39586.54
602.836	39519.43
603.194	39503.61
603.552	39565.08
603.91	39359.43
604.268	39648.01
604.625	39593.55
604.983	39744.51
605.341	39555.58
605.698	39769.36
606.056	39831.96
606.413	39798.29
606.771	40035.8
607.128	40071.95
607.485	39813.88
607.843	40011.62
608.2	40186.53
608.557	40308.56
608.914	40239.41
609.272	40508.1
609.629	40549.68
609.986	40631.49
610.343	40556.24
610.7	40743.12
611.057	40764.14
611.414	40632.39
611.771	40783.57
612.127	40932.95
612.484	41030.8
612.841	41095.43
613.198	40915.32
613.554	41174.52
613.911	41205.48
614.267	41314.63
614.624	41158.48
614.98	41339.94
615.337	41611.35
615.693	41428.3
616.05	41462.65
616.406	41662.42
616.762	41588.07
617.118	41580.62
617.475	41721.18
617.831	41861.29
618.187	41823.77
618.543	41813.6
618.899	42154.16
619.255	42065.57
619.611	42083.65
619.967	42156.87
620.323	42295.63
620.678	42191
621.034	42018.8
621.39	42146.25
621.746	42019.02
622.101	42597.99
622.457	42171.79
622.812	42349.86
623.168	42509.86
623.523	42446.36
623.879	42606.13
624.234	42381.27
624.589	42442.97
624.945	42519.12
625.3	42533.59
625.655	42701.04
626.01	42599.12
626.365	42688.38
626.72	42665.11
627.075	42701.72
627.43	42484.09
627.785	42570.65
628.14	42706.69
628.495	42735.84
628.85	42694.26
629.205	42553.7
629.559	42815.84
629.914	42668.04
630.269	42604.77
630.623	42637.54
630.978	42611.78
631.332	42666.69
631.687	42804.76
632.041	42592.11
632.396	42728.16
632.75	42487.71
633.104	42660.59
633.459	42498.78
633.813	42546.24
634.167	42491.78
634.521	42524.77
634.875	42536.3
635.229	42492
635.583	42245.23
635.937	42365.91
636.291	42344.21
636.645	42323.2
636.999	42214.27
637.352	42376.3
637.706	42167.04
638.06	42303.99
638.413	42296.08
638.767	42202.07
639.121	42123.2
639.474	42037.78
639.828	41993.26
640.181	42094.73
640.534	42119.81
640.888	42036.2
641.241	41796.66
641.594	41862.64
641.947	42030.32
642.301	41877.56
642.654	41856.54
643.007	41914.17
643.36	41854.96
643.713	41851.12
644.066	41921.17
644.419	41541.75
644.771	41378.14
645.124	41005.04
645.477	40997.13
645.83	40786.96
646.182	40647.31
646.535	40475.56
646.888	40626.29
647.24	40378.39
647.593	40446.41
647.945	40554.43
648.298	40431.72
648.65	40389.01
649.002	40163.7
649.355	40230.37
649.707	40335.68
650.059	40393.98
650.411	40910.35
650.763	41007.75
651.115	41338.59
651.467	41182.21
651.819	41225.82
652.171	41057.01
652.523	40923.91
652.875	41095.43
653.227	40980.18
653.578	41167.75
653.93	41127.29
654.282	41069.22
654.633	40829.9
654.985	40970.69
655.337	40876.91
655.688	41021.76
656.039	41096.79
656.391	40696.35
656.742	40753.97
657.094	40792.84
657.445	40866.74
657.796	40765.27
658.147	40612.96
658.498	40669.23
658.849	40810.69
659.2	40634.2
659.551	40606.18
659.902	40711.26
660.253	40541.1
660.604	40757.13
660.955	40621.77
661.306	40736.34
661.656	40565.05
662.007	40550.36
662.358	40639.17
662.708	40670.36
663.059	40622.9
663.409	40397.82
663.76	40664.26
664.11	40648.66
664.461	40596.69
664.811	40706.06
665.161	40641.21
665.511	40429.23
665.862	40508.78
666.212	40500.19
666.562	40623.8
666.912	40492.06
667.262	40446.18
667.612	40385.84
667.962	40553.52
668.312	40513.75
668.662	40538.61
669.011	40406.18
669.361	40473.53
669.711	40334.77
670.06	40227.66
670.41	40134.55
670.76	40138.85
671.109	40310.37
671.459	40264.04
671.808	40233.08
672.157	40252.52
672.507	40048.45
672.856	40066.98
673.205	40111.73
673.554	40191.27
673.904	40003.93
674.253	40335.9
674.602	40087.55
674.951	39527.34
675.3	39407.11
675.649	40081.22
675.998	40048.9
676.346	39979.53
676.695	40195.57
677.044	39884.16
677.393	40039.19
677.741	40046.42
678.09	39853.88
678.438	39897.5
678.787	39909.02
679.135	39885.29
679.484	39580.22
679.832	39770.72
680.181	39457.96
680.529	39698.18
680.877	39613.66
681.225	39457.96
681.573	39749.7
681.922	39480.11
682.27	39290.51
682.618	39286.89
682.966	39291.64
683.314	39309.71
683.661	39074.24
684.009	38915.83
684.357	38882.61
684.705	39002.15
685.053	38798.09
685.4	38874.47
685.748	38625.44
686.095	38592.22
686.443	38464.09
686.79	38540.7
687.138	38551.77
687.485	38530.98
687.832	38220.7
688.18	38439.23
688.527	38188.16
688.874	38113.81
689.221	38205.56
689.568	38025.45
689.915	38028.62
690.262	37939.36
690.609	37739.13
690.956	37757.89
691.303	37824.78
691.65	37575.3
691.997	37565.58
692.344	37375.53
692.69	37455.07
693.037	37398.8
693.383	36995.43
693.73	37239.94
694.077	36942.32
694.423	36965.6
694.769	36916.33
695.116	36799.05
695.462	36681.99
695.808	36594.31
696.155	36582.33
696.501	36519.51
696.847	36516.57
697.193	36243.13
697.539	36338.72
697.885	36105.28
698.231	36030.48
698.577	35898.28
698.923	35938.73
699.269	35641.34
699.614	35597.5
699.96	35557.05
700.306	35609.93
700.651	35414.68
700.997	35326.99
701.342	35256.49
701.688	35154.8
702.033	35002.94
702.379	34953.22
702.724	35016.04
703.069	34928.14
703.415	34587.35
703.76	34616.28
704.105	34580.57
704.45	34527.02
704.795	34386.23
705.14	34336.74
705.485	34366.12
705.83	34053.58
706.175	34160.25
706.52	34097.42
706.865	33948.95
707.209	33962.28
707.554	33715.96
707.899	33666.7
708.243	33687.49
708.588	33654.27
708.932	33317.1
709.277	33256.99
709.621	33331.57
709.966	33139.48
710.31	33228.52
710.654	32907.4
710.998	33009.99
711.342	33003.21
711.687	32972.71
712.031	32893.84
712.375	32643.22
712.719	32627.18
713.063	32665.37
713.407	32650
713.75	32440.97
714.094	32407.98
714.438	32397.13
714.782	32413.17
715.125	32165.95
715.469	32292.27
715.812	32115.33
716.156	32013.86
716.499	31971.38
716.843	31955.11
717.186	31784.94
717.53	31946.29
717.873	31843.24
718.216	31805.96
718.559	31683.47
718.902	31412.3
719.246	31490.94
719.589	31460.43
719.932	31304.73
720.275	31349.47
720.617	31175.01
720.96	31175.24
721.303	31199.65
721.646	31124.85
721.989	30954
722.331	31168.69
722.674	31117.61
723.016	31034.68
723.359	30844.85
723.701	30913.33
724.044	30758.53
724.386	30578.42
724.729	30744.74
725.071	30710.39
725.413	30650.73
725.755	30596.05
726.097	30533.22
726.439	30352.89
726.782	30328.26
727.124	30481.25
727.465	30166.9
727.807	30234.7
728.149	30159.45
728.491	30065.44
728.833	30153.57
729.175	29947.7
729.516	30113.35
729.858	29915.84
730.199	29966.68
730.541	30013.91
730.882	29878.32
731.224	29871.77
731.565	29673.81
731.906	29782.51
732.248	29557.66
732.589	29608.05
732.93	29517.88
733.271	29489.86
733.612	29545
733.953	29588.84
734.294	29281.28
734.635	29447.83
734.976	29422.74
735.317	29143.65
735.658	29127.84
735.999	29197.66
736.339	29175.52
736.68	29290.32
737.021	29083.09
737.361	28910.89
737.702	29074.5
738.042	28927.16
738.383	28875.64
738.723	28994.51
739.063	28823.89
739.404	28877.9
739.744	28718.36
740.084	28605.59
740.424	28762.87
740.764	28641.52
741.104	28689.2
741.444	28417.35
741.784	28396.78
742.124	28496.89
742.464	28442.43
742.804	28375.99
743.143	28317.46
743.483	28357.69
743.823	28121.99
744.162	28136.45
744.502	28272.49
744.841	28056.9
745.181	28107.98
745.52	28102.33
745.86	28093.74
746.199	27979.39
746.538	27832.28
746.877	27917.92
747.216	27858.26
747.556	27836.12
747.895	27847.19
748.234	27609.68
748.573	27569.91
748.911	27602.23
749.25	27442.23
749.589	27503.25
749.928	27484.26
750.267	27482.23
750.605	27329.01
750.944	27350.48
751.283	27293.76
751.621	27363.14
751.96	27095.57
752.298	27050.15
752.636	27106.65
752.975	26822.59
753.313	26845.64
753.651	27012.86
753.989	26737.62
754.327	26795.69
754.666	26491.07
755.004	26572.2
755.342	26750.27
755.679	26490.62
756.017	26484.74
756.355	26486.1
756.693	26338.08
757.031	26448.81
757.368	26235.26
757.706	26154.58
758.044	26093.57
758.381	26098.31
758.719	25974.02
759.056	26018.09
759.394	25916.62
759.731	25807.7
760.068	25603.18
760.405	25681.6
760.743	25509.17
761.08	25625.78
761.417	25329.07
761.754	25492.9
762.091	25365.9
762.428	25337.65
762.765	25137.21
763.102	25140.14
763.438	24966.82
763.775	24822.19
764.112	24940.6
764.449	24885.46
764.785	24719.36
765.122	24603.66
765.458	24513.72
765.795	24481.63
766.131	24497.22
766.467	24386.27
766.804	24188.3
767.14	24136.33
767.476	24191.92
767.812	24079.38
768.148	24072.83
768.485	23907.63
768.821	23820.86
769.157	23710.13
769.492	23642.78
769.828	23669
770.164	23473.3
770.5	23433.75
770.836	23452.28
771.171	23300.19
771.507	23182.91
771.842	23029.47
772.178	23084.38
772.513	23061.33
772.849	22960.09
773.184	22878.96
773.519	22790.15
773.855	22730.72
774.19	22581.12
774.525	22562.81
774.86	22539.08
775.195	22494.79
775.53	22238.75
775.865	22122.37
776.2	21965.09
776.535	21951.75
776.87	21956.95
777.205	21900
777.539	21743.62
777.874	21822.04
778.209	21530.52
778.543	21461.14
778.878	21431.77
779.212	21466.79
779.547	21277.42
779.881	21259.12
780.215	21118.33
780.55	21137.76
780.884	20994.72
781.218	20881.5
781.552	20952.23
781.886	20783.65
782.22	20695.06
782.554	20628.17
782.888	20440.15
783.222	20385.01
783.556	20267.96
783.889	20266.6
784.223	20149.54
784.557	19984.12
784.89	20148.41
785.224	19986.61
785.557	19867.29
785.891	19822.32
786.224	19793.17
786.558	19801.53
786.891	19643.11
787.224	19523.12
787.557	19441.31
787.891	19469.33
788.224	19470.69
788.557	19347.75
788.89	19269.79
789.223	19238.83
789.556	19143.24
789.888	19127.19
790.221	19025.05
790.554	18774.66
790.887	18952.28
791.219	18762.91
791.552	18832.97
791.884	18677.04
792.217	18578.28
792.549	18622.12
792.882	18398.85
793.214	18431.39
793.546	18336.26
793.879	18291.28
794.211	18148.46
794.543	18157.05
794.875	18107.11
795.207	18073.44
795.539	18059.65
795.871	18081.8
796.203	17814.46
796.535	17760.45
796.867	17750.73
797.198	17588.48
797.53	17762.71
797.862	17555.94
798.193	17593.22
798.525	17491.98
798.856	17457.63
799.188	17322.04
799.519	17247.7
799.85	17106.23
800.182	17187.13
800.513	17112.78
800.844	16997.76
801.175	17132.22
801.506	16993.47
801.837	16859.46
802.168	16823.3
802.499	16839.35
802.83	16758.22
803.161	16708.28
803.491	16690.65
803.822	16708.73
804.153	16647.49
804.483	16429.86
804.814	16433.03
805.145	16387.38
805.475	16382.63
805.805	16335.4
806.136	16306.25
806.466	16273.94
806.796	16177.89
807.126	16103.32
807.457	16073.04
807.787	16044.56
808.117	15994.62
808.447	15942.87
808.777	16009.08
809.107	15775.87
809.436	15857
809.766	15856.32
810.096	15792.14
810.426	15624.24
810.755	15686.38
811.085	15645.03
811.414	15650
811.744	15544.01
812.073	15477.57
812.403	15484.13
812.732	15371.14
813.061	15400.74
813.39	15262.21
813.719	15192.61
814.049	15299.27
814.378	15197.81
814.707	15195.77
815.036	15142.67
815.365	15114.42
815.693	14919.4
816.022	15054.76
816.351	14891.37
816.68	14813.64
817.008	14860.19
817.337	14716.01
817.665	14740.42
817.994	14811.38
818.322	14739.29
818.651	14656.35
818.979	14607.54
819.307	14666.97
819.636	14660.42
819.964	14479.41
820.292	14541.1
820.62	14645.5
820.948	14467.43
821.276	14539.07
821.604	14516.47
821.932	14455.68
822.259	14459.07
822.587	14445.96
822.915	14418.39
823.243	14445.06
823.57	14416.58
823.898	14452.97
824.225	14388.56
824.553	14371.61
824.88	14392.86
825.207	14530.25
825.535	14352.41
825.862	14428.11
826.189	14456.13
826.516	14504.04
826.843	14444.83
827.17	14497.94
827.497	14439.63
827.824	14365.29
828.151	14452.29
828.478	14353.76
828.805	14499.75
829.131	14374.33
829.458	14344.04
829.785	14306.98
830.111	14302.69
830.438	14362.57
830.764	14362.57
831.09	14365.06
831.417	14329.58
831.743	14284.61
832.069	14321.45
832.395	14264.27
832.722	14330.71
833.048	14261.79
833.374	14265.4
833.7	14233.09
834.026	14212.07
834.351	14245.74
834.677	14204.61
835.003	14150.6
835.329	14205.29
835.654	14151.05
835.98	14124.16
836.306	14159.42
836.631	14096.59
836.956	14133.2
837.282	14139.98
837.607	14044.84
837.932	13982.92
838.258	13939.08
838.583	13955.81
838.908	13905.41
839.233	13926.65
839.558	13851.63
839.883	13784.51
840.208	13842.36
840.533	13846.2
840.858	13827
841.182	13762.36
841.507	13834.45
841.832	13658.41
842.156	13643.95
842.481	13680.33
842.805	13620.67
843.13	13520.79
843.454	13556.04
843.778	13504.07
844.103	13517.4
844.427	13432.88
844.751	13439.43
845.075	13374.8
845.399	13323.73
845.723	13277.41
846.047	13321.92
846.371	13123.06
846.695	13189.5
847.019	13020.46
847.343	13061.14
847.666	13016.62
847.99	12875.16
848.313	12980.46
848.637	12806.01
848.96	12773.92
849.284	12748.15
849.607	12706.12
849.931	12616.41
850.254	12538.67
850.577	12462.51
850.9	12421.38
851.223	12356.07
851.546	12332.12
851.869	12257.32
852.192	12294.61
852.515	12187.94
852.838	12105.68
853.161	12174.16
853.483	12068.4
853.806	12009.42
854.129	11930.1
854.451	11895.29
854.774	11898.68
855.096	11835.86
855.419	11779.82
855.741	11792.7
856.063	11753.83
856.385	11739.37
856.708	11648.52
857.03	11708.86
857.352	11717.45
857.674	11585.25
857.996	11523.55
858.318	11471.8
858.64	11509.99
858.961	11418.02
859.283	11459.15
859.605	11340.73
859.926	11421.86
860.248	11381.64
860.57	11316.1
860.891	11298.25
861.212	11172.6
861.534	11232.71
861.855	11151.36
862.176	11185.48
862.498	11118.59
862.819	11111.36
863.14	11092.83
863.461	11065.71
863.782	10998.14
864.103	11061.19
864.424	11010.12
864.745	11023.91
865.065	10917.24
865.386	10955.88
865.707	10976.22
866.027	10906.17
866.348	10916.34
866.668	10899.84
866.989	10813.52
867.309	10707.76
867.63	10735.33
867.95	10790.92
868.27	10661.2
868.59	10729
868.91	10703.01
869.23	10676.57
869.55	10691.94
869.87	10706.85
870.19	10671.37
870.51	10662.33
870.83	10667.53
871.15	10553.41
871.469	10582.79
871.789	10578.72
872.109	10572.62
872.428	10558.83
872.748	10557.7
873.067	10551.38
873.386	10506.63
873.706	10528.55
874.025	10461.21
874.344	10476.35
874.663	10519.06
874.982	10388.89
875.301	10445.39
875.62	10311.61
875.939	10351.15
876.258	10326.52
876.577	10310.7
876.896	10273.87
877.214	10259.41
877.533	10230.03
877.852	10269.57
878.17	10328.78
878.489	10299.86
878.807	10216.92
879.125	10142.35
879.444	10221.21
879.762	10119.75
880.08	10169.69
880.398	10057.83
880.716	10053.76
881.034	10029.81
881.352	10076.13
881.67	9992.97
881.988	9972.18
882.306	9871.17
882.624	9913.43
882.941	9863.94
883.259	9837.04
883.577	9890.83
883.894	9833.43
884.212	9821.9
884.529	9796.14
884.846	9821
885.164	9829.13
885.481	9714.33
885.798	9781.68
886.115	9727.44
886.432	9663.04
886.75	9665.3
887.067	9647.44
887.383	9583.26
887.7	9650.83
888.017	9524.96
888.334	9543.49
888.651	9553.89
888.967	9496.94
889.284	9411.52
889.6	9444.74
889.917	9366.77
890.233	9297.17
890.55	9340.33
890.866	9341.92
891.182	9346.44
891.498	9281.35
891.815	9178.3
892.131	9216.49
892.447	9197.51
892.763	9186.67
893.079	9127.01
893.395	9114.12
893.71	9093.79
894.026	9087.68
894.342	9056.27
894.657	8963.39
894.973	8942.6
895.289	8981.92
895.604	9019.21
895.92	8822.83
896.235	8803.4
896.55	8857.86
896.865	8821.03
897.181	8799.33
897.496	8797.97
897.811	8703.97
898.126	8693.57
898.441	8626.45
898.756	8651.54
899.071	8588.49
899.386	8624.19
899.7	8497.19
900.015	8470.3
900.33	8470.07
900.644	8472.33
900.959	8415.61
901.273	8390.75
901.588	8325.44
901.902	8355.5
902.216	8266.69
902.531	8284.77
902.845	8260.14
903.159	8148.95
903.473	8193.25
903.787	8102.4
904.101	8094.72
904.415	8053.36
904.729	8030.99
905.042	8029.18
905.356	7965.68
905.67	7930.2
905.984	7897.89
906.297	7934.72
906.611	7888.85
906.924	7809.3
907.237	7776.53
907.551	7761.62
907.864	7799.58
908.177	7751.9
908.491	7740.38
908.804	7629.19
909.117	7649.3
909.43	7594.84
909.743	7539.25
910.056	7528.63
910.368	7466.71
910.681	7493.15
910.994	7431.68
911.307	7404.34
911.619	7296.09
911.932	7345.81
912.244	7264
912.557	7275.76
912.869	7238.47
913.181	7284.57
913.494	7158.92
913.806	7171.35
914.118	7083.67
914.43	7089.77
914.742	7174.74
915.054	7029.21
915.366	7019.49
915.678	6963.45
915.99	6985.59
916.302	6936.33
916.613	6887.52
916.925	6891.58
917.236	6814.07
917.548	6866.73
917.859	6835.77
918.171	6757.35
918.482	6754.64
918.794	6709.44
919.105	6696.11
919.416	6676.45
919.727	6650.91
920.038	6619.28
920.349	6559.16
920.66	6554.64
920.971	6541.99
921.282	6515.1
921.593	6487.75
921.903	6479.17
922.214	6387.87
922.525	6362.56
922.835	6363.91
923.146	6337.02
923.456	6327.98
923.767	6270.13
924.077	6294.76
924.387	6229.45
924.697	6216.12
925.008	6171.38
925.318	6142.23
925.628	6183.58
925.938	6092.74
926.248	5998.05
926.558	6066.97
926.867	6017.93
927.177	6004.6
927.487	5953.3
927.796	5958.73
928.106	5963.47
928.416	5869.69
928.725	5889.58
929.034	5883.48
929.344	5843.48
929.653	5843.48
929.962	5745.17
930.271	5745.17
930.581	5742.01
930.89	5730.26
931.199	5668.11
931.508	5683.25
931.817	5693.42
932.125	5633.31
932.434	5605.29
932.743	5543.37
933.051	5533.43
933.36	5452.53
933.669	5486.2
933.977	5422.02
934.286	5398.52
934.594	5403.26
934.902	5391.06
935.21	5360.33
935.519	5346.77
935.827	5308.35
936.135	5314.68
936.443	5305.64
936.751	5231.06
937.059	5269.71
937.367	5249.82
937.674	5189.03
937.982	5180.67
938.29	5157.39
938.597	5168.92
938.905	5088.24
939.213	5056.38
939.52	5071.07
939.827	5047.57
940.135	4996.94
940.442	5014.35
940.749	4983.61
941.056	4951.07
941.363	4916.72
941.67	4886.44
941.977	4871.98
942.284	4866.33
942.591	4843.73
942.898	4807.12
943.205	4817.97
943.511	4792.66
943.818	4765.31
944.125	4755.82
944.431	4730.74
944.738	4710.85
945.044	4645.09
945.35	4675.82
945.657	4679.44
945.963	4614.36
946.269	4574.13
946.575	4593.79
946.881	4573.68
947.187	4530.74
947.493	4532.55
947.799	4480.57
948.105	4479.9
948.41	4445.55
948.716	4448.71
949.022	4399.22
949.327	4384.31
949.633	4367.13
949.938	4386.79
950.244	4377.3
950.549	4351.31
950.854	4318.32
951.16	4323.06
951.465	4282.16
951.77	4272.9
952.075	4236.96
952.38	4208.94
952.685	4230.41
952.99	4187.47
953.294	4184.54
953.599	4198.77
953.904	4113.8
954.209	4090.98
954.513	4135.95
954.818	4057.08
955.122	4122.62
955.426	4045.78
955.731	4042.62
956.035	3979.8
956.339	4001.49
956.643	3950.42
956.948	3936.41
957.252	3920.81
957.556	3899.8
957.86	3916.3
958.163	3885.11
958.467	3867.71
958.771	3879.01
959.075	3828.16
959.378	3813.25
959.682	3792.23
959.985	3785.68
960.289	3741.38
960.592	3774.38
960.896	3758.56
961.199	3725.57
961.502	3723.53
961.805	3702.52
962.108	3673.82
962.411	3683.08
962.714	3647.38
963.017	3607.15
963.32	3651.44
963.623	3565.57
963.926	3588.85
964.228	3566.47
964.531	3563.08
964.833	3557.89
965.136	3512.24
965.438	3495.29
965.741	3493.26
966.043	3479.47
966.345	3418.23
966.648	3438.12
966.95	3434.95
967.252	3369.64
967.554	3392.92
967.856	3395.18
968.158	3377.78
968.46	3387.04
968.761	3338.91
969.063	3326.25
969.365	3316.09
969.666	3314.05
969.968	3310.21
970.269	3281.28
970.571	3270.21
970.872	3248.29
971.174	3256.65
971.475	3231.79
971.776	3189.08
972.077	3199.03
972.378	3171.46
972.679	3159.48
972.98	3114.28
973.281	3147.5
973.582	3140.04
973.883	3107.96
974.183	3105.47
974.484	3070.67
974.785	3049.88
975.085	3061.18
975.386	3074.06
975.686	3036.32
975.986	3035.41
976.287	3029.99
976.587	2940.73
976.887	2985.7
977.187	2976.21
977.487	2970.78
977.787	2932.14
978.087	2905.25
978.387	2902.08
978.687	2903.21
978.987	2912.25
979.286	2867.96
979.586	2888.3
979.885	2836.1
980.185	2841.52
980.484	2816.21
980.784	2815.31
981.083	2774.4
981.382	2776.21
981.682	2768.75
981.981	2762.65
982.28	2724.91
982.579	2749.32
982.878	2723.33
983.177	2706.16
983.475	2682.43
983.774	2679.72
984.073	2671.36
984.372	2670.9
984.67	2658.02
984.969	2630
985.267	2648.53
985.566	2608.53
985.864	2556.56
986.162	2578.03
986.461	2549.33
986.759	2591.81
987.057	2558.36
987.355	2561.3
987.653	2528.54
987.951	2527.63
988.249	2497.58
988.547	2487.18
988.844	2470.23
989.142	2457.8
989.44	2470.91
989.737	2490.57
990.035	2441.98
990.332	2439.05
990.63	2448.31
990.927	2391.59
991.224	2400.4
991.521	2418.71
991.819	2338.26
992.116	2347.3
992.413	2385.26
992.71	2366.05
993.006	2359.73
993.303	2335.77
993.6	2315.21
993.897	2304.81
994.193	2267.53
994.49	2281.99
994.787	2291.48
995.083	2220.29
995.379	2228.66
995.676	2257.58
995.972	2254.42
996.268	2238.6
996.565	2196.57
996.861	2215.78
997.157	2185.49
997.453	2157.02
997.749	2161.09
998.044	2154.76
998.34	2135.55
998.636	2143.91
998.932	2115.21
999.227	2115.89
999.523	2104.14
999.818	2081.54
1000.114	2061.65
1000.409	2065.27
1000.704	2056.91
1001	2027.76
1001.295	2005.16
1001.59	2031.37
1001.885	2016.68
1002.18	1979.17
1002.475	2001.09
1002.77	1972.84
1003.065	1954.31
1003.359	1950.92
1003.654	1944.14
1003.949	1937.36
1004.243	1925.84
1004.538	1936.69
1004.832	1891.26
1005.127	1880.64
1005.421	1872.73
1005.715	1881.32
1006.009	1873.86
1006.304	1881.32
1006.598	1865.28
1006.892	1845.39
1007.186	1818.5
1007.48	1834.09
1007.773	1813.3
1008.067	1785.5
1008.361	1776.92
1008.655	1772.85
1008.948	1761.32
1009.242	1757.71
1009.535	1740.99
1009.829	1749.57
1010.122	1723.13
1010.415	1700.99
1010.708	1715
1011.001	1711.38
1011.295	1693.08
1011.588	1682.68
1011.881	1677.48
1012.173	1637.94
1012.466	1645.62
1012.759	1629.35
1013.052	1643.59
1013.344	1629.35
1013.637	1642
1013.93	1611.27
1014.222	1580.09
1014.514	1577.83
1014.807	1562.23
1015.099	1528.34
1015.391	1559.97
1015.683	1541.89
1015.976	1551.39
1016.268	1500.54
1016.56	1500.31
1016.851	1533.31
1017.143	1507.55
1017.435	1512.29
1017.727	1479.52
1018.018	1501.22
1018.31	1463.48
1018.602	1461.67
1018.893	1455.8
1019.185	1424.84
1019.476	1452.41
1019.767	1430.03
1020.058	1411.05
1020.35	1404.5
1020.641	1412.41
1020.932	1388.9
1021.223	1363.37
1021.514	1385.97
1021.804	1359.75
1022.095	1331.96
1022.386	1341
1022.677	1343.03
1022.967	1321.56
1023.258	1326.98
1023.548	1326.76
1023.839	1321.79
1024.129	1301.22
1024.419	1266.87
1024.709	1270.49
1025	1284.73
1025.29	1268
1025.58	1254.44
1025.87	1229.13
1026.16	1237.5
1026.449	1252.18
1026.739	1229.36
1027.029	1200.89
1027.319	1184.62
1027.608	1215.35
1027.898	1188.01
1028.187	1176.71
1028.477	1182.13
1028.766	1189.36
1029.055	1166.54
1029.344	1153.88
1029.634	1152.53
1029.923	1143.03
1030.212	1131.96
1030.501	1138.97
1030.79	1117.95
1031.078	1116.14
1031.367	1092.64
1031.656	1089.93
1031.945	1108.46
1032.233	1070.27
1032.522	1055.13
1032.81	1055.35
1033.099	1079.53
1033.387	1035.47
1033.675	1015.35
1033.963	1022.36
1034.251	1022.13
1034.54	1013.55
1034.828	1021.68
1035.116	1004.28
1035.403	997.73
1035.691	985.52
1035.979	1013.55
1036.267	991.17
1036.554	992.76
1036.842	995.24
1037.129	983.27
1037.417	978.07
1037.704	982.81
1037.992	966.32
1038.279	944.62
1038.566	954.34
1038.853	954.34
1039.14	954.34
