Data from hue_160_FLMS001491_00070.txt Node
Date: Tue Feb 07 16:51:32 GMT 2017
User: dcchb
Spectrometer: FLMS00149
Trigger mode: 0
Integration Time (sec): 2.000000E-2
Scans to average: 10
Electric dark correction enabled: true
Nonlinearity correction enabled: false
Boxcar width: 0
XAxis mode: Wavelengths
Number of Pixels in Spectrum: 2048
>>>>>Begin Spectral Data<<<<<
341.393	-12.88
341.776	-12.88
342.16	-12.88
342.543	-50.17
342.927	-71.86
343.31	-89.94
343.693	-63.5
344.077	-57.17
344.46	-60.34
344.843	-70.28
345.226	-52.2
345.61	-19.43
345.993	-15.37
346.376	-14.01
346.759	17.85
347.142	8.59
347.525	42.26
347.908	70.96
348.291	80.22
348.674	103.27
349.057	119.09
349.44	116.83
349.823	143.95
350.206	161.35
350.588	205.64
350.971	205.64
351.354	210.62
351.737	219.43
352.119	223.27
352.502	254.91
352.884	278.86
353.267	277.73
353.65	289.94
354.032	299.65
354.414	296.94
354.797	300.56
355.179	298.75
355.562	319.77
355.944	334.45
356.326	334.91
356.709	336.26
357.091	328.35
357.473	316.83
357.855	332.42
358.238	341.46
358.62	348.47
359.002	345.3
359.384	330.39
359.766	343.27
360.148	328.58
360.53	318.41
360.912	327
361.294	314.12
361.676	328.13
362.057	325.42
362.439	301.24
362.821	321.35
363.203	314.12
363.584	304.85
363.966	323.16
364.348	312.08
364.729	309.82
365.111	333.1
365.493	322.25
365.874	307.56
366.256	306.88
366.637	303.95
367.019	298.07
367.4	278.86
367.781	327.22
368.163	316.83
368.544	321.12
368.925	299.65
369.306	317.05
369.688	304.85
370.069	310.5
370.45	288.81
370.831	312.76
371.212	308.47
371.593	290.84
371.974	305.75
372.355	310.27
372.736	314.12
373.117	317.96
373.498	323.38
373.879	306.43
374.26	325.64
374.641	326.55
375.021	294.68
375.402	310.27
375.783	325.64
376.163	326.32
376.544	313.66
376.925	318.64
377.305	314.79
377.686	327.22
378.066	338.3
378.447	296.72
378.827	330.84
379.208	333.55
379.588	326.77
379.968	321.8
380.349	333.55
380.729	323.83
381.109	341.23
381.489	329.71
381.87	322.03
382.25	310.73
382.63	299.88
383.01	359.99
383.39	333.78
383.77	310.73
384.15	334.23
384.53	331.06
384.91	346.21
385.29	348.47
385.67	343.49
386.049	343.27
386.429	344.85
386.809	345.08
387.189	340.56
387.568	346.66
387.948	333.55
388.328	372.19
388.707	363.61
389.087	379.65
389.466	360.89
389.846	379.2
390.225	357.73
390.605	362.93
390.984	351.86
391.363	366.77
391.743	354.57
392.122	367.22
392.501	362.25
392.881	357.73
393.26	376.49
393.639	375.58
394.018	375.13
394.397	384.17
394.776	384.85
395.155	381.01
395.534	399.76
395.913	382.59
396.292	381.46
396.671	378.97
397.05	380.1
397.429	382.14
397.808	379.88
398.186	402.7
398.565	402.25
398.944	386.88
399.323	384.17
399.701	390.27
400.08	399.09
400.458	388.46
400.837	397.5
401.215	411.51
401.594	399.54
401.972	401.35
402.351	402.7
402.729	380.78
403.107	421.68
403.486	414.68
403.864	415.81
404.242	417.84
404.62	396.15
404.999	426.88
405.377	417.16
405.755	418.97
406.133	402.93
406.511	439.99
406.889	440.21
407.267	432.98
407.645	423.72
408.023	433.89
408.401	438.63
408.779	434.79
409.156	427.79
409.534	439.76
409.912	432.53
410.29	470.04
410.667	463.72
411.045	472.76
411.422	485.64
411.8	475.47
412.178	474.56
412.555	456.49
412.933	472.08
413.31	488.12
413.687	491.74
414.065	477.73
414.442	500.1
414.819	478.63
415.197	490.16
415.574	487.22
415.951	512.75
416.328	527.22
416.705	514.79
417.082	512.98
417.46	503.49
417.837	518.4
418.214	524.96
418.591	534.68
418.967	525.86
419.344	542.13
419.721	535.58
420.098	521.79
420.475	542.13
420.852	543.71
421.228	543.26
421.605	532.19
421.982	586.88
422.358	593.43
422.735	581.23
423.111	567.44
423.488	558.63
423.864	574
424.241	578.06
424.617	586.88
424.994	581.45
425.37	584.84
425.746	585.3
426.123	599.53
426.499	619.64
426.875	628.91
427.251	613.32
427.627	648.34
428.003	609.93
428.379	640.21
428.756	637.05
429.132	643.37
429.507	644.95
429.883	669.59
430.259	656.25
430.635	666.88
431.011	700.55
431.387	691.28
431.763	686.31
432.138	701.68
432.514	710.49
432.89	682.02
433.265	719.08
433.641	722.47
434.016	726.76
434.392	716.14
434.767	745.97
435.143	733.99
435.518	727.21
435.894	768.79
436.269	750.04
436.644	780.09
437.02	789.36
437.395	786.65
437.77	783.26
438.145	804.27
438.52	797.27
438.895	823.03
439.271	832.52
439.646	847.89
440.021	844.5
440.395	848.79
440.77	841.11
441.145	879.07
441.52	873.65
441.895	866.42
442.27	874.78
442.645	860.54
443.019	863.03
443.394	893.76
443.769	907.55
444.143	916.59
444.518	906.19
444.892	891.95
445.267	910.26
445.641	910.03
446.016	913.2
446.39	927.66
446.764	941.44
447.139	947.09
447.513	926.53
447.887	950.26
448.262	979.86
448.636	936.25
449.01	988.67
449.384	997.94
449.758	993.19
450.132	1006.75
450.506	992.97
450.88	1007.66
451.254	1017.83
451.628	1041.55
452.002	1056.02
452.376	1074.32
452.75	1066.19
453.123	1058.05
453.497	1066.86
453.871	1089.24
454.244	1114.32
454.618	1119.52
454.992	1113.64
455.365	1140.08
455.739	1157.03
456.112	1171.95
456.486	1166.07
456.859	1183.7
457.232	1184.83
457.606	1214.66
457.979	1240.87
458.352	1242.23
458.725	1272.96
459.099	1268.89
459.472	1311.6
459.845	1310.25
460.218	1306.86
460.591	1339.85
460.964	1349.57
461.337	1376.24
461.71	1433.18
462.083	1403.58
462.456	1421.43
462.829	1455.78
463.201	1467.31
463.574	1456.01
463.947	1500.3
464.32	1533.74
464.692	1551.6
465.065	1545.04
465.438	1589.56
465.81	1600.86
466.183	1622.56
466.555	1635.44
466.928	1666.62
467.3	1672.95
467.672	1721.08
468.045	1750.46
468.417	1747.07
468.789	1786.17
469.161	1819.39
469.534	1860.29
469.906	1883.79
470.278	1892.83
470.65	1931.93
471.022	1997.91
471.394	2018.7
471.766	2053.28
472.138	2109.32
472.51	2153.39
472.882	2155.88
473.253	2252.37
473.625	2277.45
473.997	2328.3
474.369	2342.54
474.74	2407.17
475.112	2463.66
475.484	2518.8
475.855	2557.67
476.227	2597.45
476.598	2668.63
476.97	2790.66
477.341	2875.4
477.713	2907.04
478.084	2948.4
478.455	3044.89
478.827	3099.58
479.198	3207.15
479.569	3252.8
479.94	3349.97
480.311	3415.05
480.682	3497.99
481.053	3632.67
481.424	3738.66
481.795	3831.76
482.166	3885.55
482.537	3983.17
482.908	4096.39
483.279	4142.26
483.65	4310.17
484.021	4391.97
484.391	4503.16
484.762	4594.23
485.133	4721.23
485.503	4791.96
485.874	4950.38
486.244	5044.16
486.615	5224.5
486.985	5263.36
487.356	5449.8
487.726	5505.62
488.097	5700.42
488.467	5762.79
488.837	5885.04
489.207	6042.78
489.578	6202.55
489.948	6237.12
490.318	6411.13
490.688	6525.7
491.058	6674.63
491.428	6822.65
491.798	6936.31
492.168	7138.57
492.538	7242.3
492.908	7344.89
493.278	7504.89
493.648	7572
494.017	7684.54
494.387	7862.39
494.757	7999.11
495.126	8092.89
495.496	8121.37
495.866	8283.4
496.235	8402.72
496.605	8552.54
496.974	8694.46
497.344	8705.76
497.713	8800.45
498.082	8930.61
498.452	9090.61
498.821	9193.66
499.19	9241.11
499.559	9365.18
499.928	9467.32
500.298	9542.8
500.667	9623.7
501.036	9706.19
501.405	9785.51
501.774	9879.06
502.143	9898.95
502.512	10013.07
502.88	10107.98
503.249	10128.1
503.618	10217.36
503.987	10297.81
504.356	10414.19
504.724	10439.73
505.093	10527.18
505.462	10639.72
505.83	10664.13
506.199	10707.52
506.567	10920.39
506.936	10864.57
507.304	11039.03
507.672	11029.31
508.041	11053.72
508.409	11173.94
508.777	11194.06
509.145	11373.26
509.514	11333.71
509.882	11431.79
510.25	11413.03
510.618	11531.45
510.986	11542.75
511.354	11632.01
511.722	11690.77
512.09	11750.43
512.458	11731.89
512.826	11818.67
513.193	11825.23
513.561	11887.37
513.929	12003.3
514.297	12073.13
514.664	12096.18
515.032	12195.84
515.4	12160.13
515.767	12205.1
516.135	12291.2
516.502	12138.44
516.869	12322.84
517.237	12346.12
517.604	12241.03
517.972	12348.38
518.339	12446.45
518.706	12546.56
519.073	12378.88
519.44	12501.82
519.808	12613
520.175	12572.78
520.542	12655.26
520.909	12666.56
521.276	12643.28
521.643	12791.75
522.009	12778.42
522.376	12723.73
522.743	12799.89
523.11	12846.44
523.477	13021.13
523.843	13004.63
524.21	13098.19
524.577	13067.9
524.943	13102.48
525.31	13096.15
525.676	13224.74
526.043	13210.95
526.409	13177.73
526.776	13261.8
527.142	13193.78
527.508	13280.1
527.874	13271.29
528.241	13288.92
528.607	13242.59
528.973	13315.36
529.339	13272.19
529.705	13363.94
530.071	13396.26
530.437	13327.33
530.803	13342.25
531.169	13395.81
531.535	13325.53
531.901	13271.74
532.267	13388.8
532.632	13353.77
532.998	13311.29
533.364	13301.35
533.73	13284.4
534.095	13334.11
534.461	13359.65
534.826	13348.12
535.192	13312.42
535.557	13312.19
535.923	13338.18
536.288	13268.8
536.653	13217.05
537.019	13186.55
537.384	13198.52
537.749	13182.03
538.114	13142.48
538.479	12963.05
538.845	13067.45
539.21	12927.34
539.575	13026.32
539.94	13107.23
540.305	12999.88
540.67	13003.95
541.034	12989.04
541.399	12885.99
541.764	12903.62
542.129	12918.98
542.494	12825.65
542.858	12860.9
543.223	12803.05
543.587	12745.65
543.952	12702.72
544.316	12656.84
544.681	12605.77
545.045	12703.85
545.41	12655.03
545.774	12614.81
546.138	12551.53
546.503	12523.74
546.867	12499.56
547.231	12513.34
547.595	12374.14
547.959	12513.8
548.324	12359.9
548.688	12317.42
549.052	12303.41
549.416	12247.14
549.779	12272.45
550.143	12202.39
550.507	12237.42
550.871	12208.49
551.235	12148.83
551.599	12224.99
551.962	12203.29
552.326	12100.47
552.689	12217.53
553.053	12040.81
553.417	12040.59
553.78	12136.4
554.143	11987.26
554.507	11996.97
554.87	11952.45
555.234	12071.1
555.597	11974.15
555.96	12053.47
556.323	11960.82
556.686	11902.51
557.05	11977.54
557.413	11873.59
557.776	11798.56
558.139	11911.55
558.502	11839.69
558.865	11798.56
559.228	11929.18
559.59	11859.58
559.953	11893.47
560.316	11916.75
560.679	11899.8
561.041	11939.57
561.404	11929.18
561.767	11930.08
562.129	11932.79
562.492	11926.47
562.854	11954.26
563.217	11893.47
563.579	11923.75
563.941	11959.91
564.304	12032
564.666	11978.89
565.028	11952
565.39	12008.05
565.753	12099.79
566.115	12078.1
566.477	12063.19
566.839	12013.02
567.201	12139.57
567.563	12083.98
567.925	12149.51
568.287	12127.59
568.648	12206.01
569.01	12117.87
569.372	12148.38
569.734	12149.96
570.095	12251.66
570.457	12283.29
570.819	12267.25
571.18	12197.42
571.542	12260.69
571.903	12246.91
572.265	12278.1
572.626	12353.35
572.987	12277.19
573.349	12356.51
573.71	12354.48
574.071	12370.52
574.432	12363.29
574.794	12436.96
575.155	12436.06
575.516	12350.64
575.877	12354.25
576.238	12398.32
576.599	12437.87
576.96	12399.45
577.32	12389.05
577.681	12356.51
578.042	12435.15
578.403	12422.27
578.763	12434.93
579.124	12365.1
579.485	12480.8
579.845	12462.27
580.206	12442.16
580.566	12438.32
580.927	12458.66
581.287	12464.76
581.648	12351.77
582.008	12487.36
582.368	12445.55
582.728	12454.36
583.089	12435.15
583.449	12459.11
583.809	12395.38
584.169	12386.11
584.529	12349.28
584.889	12375.95
585.249	12401.03
585.609	12389.5
585.969	12374.14
586.329	12387.02
586.688	12421.37
587.048	12343.4
587.408	12315.16
587.768	12276.74
588.127	12248.72
588.487	12300.47
588.846	12385.89
589.206	12261.6
589.565	12311.54
589.925	12260.47
590.284	12221.6
590.643	12352.9
591.003	12290.3
591.362	12291.88
591.721	12285.33
592.08	12254.14
592.44	12315.83
592.799	12298.66
593.158	12309.51
593.517	12294.14
593.876	12242.16
594.235	12239.45
594.593	12239.68
594.952	12242.16
595.311	12183.41
595.67	12210.53
596.029	12306.57
596.387	12260.92
596.746	12181.83
597.104	12200.36
597.463	12170.98
597.822	12237.87
598.18	12140.25
598.538	12202.17
598.897	12188.83
599.255	12129.85
599.613	12267.7
599.972	12097.99
600.33	12213.24
600.688	12091.89
601.046	12218.44
601.404	12290.07
601.762	12195.16
602.12	12210.07
602.478	12256.85
602.836	12235.84
603.194	12170.75
603.552	12203.52
603.91	12167.36
604.268	12179.57
604.625	12141.6
604.983	12211.43
605.341	12201.04
605.698	12202.39
606.056	12278.77
606.413	12226.8
606.771	12216.63
607.128	12257.08
607.485	12253.01
607.843	12212.33
608.2	12274.48
608.557	12341.6
608.914	12299.34
609.272	12300.92
609.629	12241.03
609.986	12383.4
610.343	12319.68
610.7	12378.21
611.057	12391.31
611.414	12318.55
611.771	12329.62
612.127	12391.99
612.484	12390.86
612.841	12448.03
613.198	12421.37
613.554	12437.19
613.911	12435.61
614.267	12369.62
614.624	12394.7
614.98	12447.36
615.337	12451.88
615.693	12421.37
616.05	12433.12
616.406	12507.02
616.762	12548.37
617.118	12481.03
617.475	12448.03
617.831	12465.89
618.187	12525.32
618.543	12526.68
618.899	12569.16
619.255	12542.04
619.611	12644.64
619.967	12536.17
620.323	12587.01
620.678	12569.84
621.034	12516.06
621.39	12554.25
621.746	12469.73
622.101	12558.77
622.457	12515.6
622.812	12559.44
623.168	12545.43
623.523	12588.37
623.879	12604.87
624.234	12558.09
624.589	12515.15
624.945	12556.28
625.3	12569.61
625.655	12588.6
626.01	12610.97
626.365	12629.05
626.72	12553.34
627.075	12607.8
627.43	12597.86
627.785	12587.01
628.14	12564.64
628.495	12572.78
628.85	12602.61
629.205	12512.67
629.559	12613
629.914	12553.34
630.269	12578.2
630.623	12562.83
630.978	12494.59
631.332	12528.26
631.687	12451.65
632.041	12422.5
632.396	12516.96
632.75	12435.38
633.104	12387.47
633.459	12394.25
633.813	12369.17
634.167	12370.75
634.521	12353.35
634.875	12336.17
635.229	12369.62
635.583	12301.15
635.937	12315.16
636.291	12317.42
636.645	12246.01
636.999	12321.71
637.352	12367.81
637.706	12230.86
638.06	12292.78
638.413	12215.5
638.767	12196.97
639.121	12227.48
639.474	12111.09
639.828	12129.85
640.181	12140.47
640.534	12118.78
640.888	12114.48
641.241	12015.5
641.594	12056.18
641.947	12135.95
642.301	12141.6
642.654	12056.86
643.007	12014.15
643.36	12036.29
643.713	12026.35
644.066	12033.58
644.419	11989.97
644.771	11879.01
645.124	11903.87
645.477	11851.44
645.83	11740.48
646.182	11649.64
646.535	11673.14
646.888	11639.47
647.24	11619.36
647.593	11615.51
647.945	11640.37
648.298	11506.36
648.65	11533.48
649.002	11448.74
649.355	11626.36
649.707	11553.59
650.059	11603.54
650.411	11737.09
650.763	11850.54
651.115	11930.31
651.467	11898.9
651.819	11878.78
652.171	11884.43
652.523	11869.74
652.875	11812.34
653.227	11773.7
653.578	11871.78
653.93	11854.15
654.282	11758.33
654.633	11733.93
654.985	11819.58
655.337	11835.17
655.688	11829.97
656.039	11819.58
656.391	11728.51
656.742	11732.35
657.094	11875.85
657.445	11932.34
657.796	11857.32
658.147	11836.75
658.498	11854.38
658.849	11980.02
659.2	11823.64
659.551	11826.13
659.902	11896.18
660.253	11825.23
660.604	11834.94
660.955	11849.41
661.306	11889.4
661.656	11876.3
662.007	11838.11
662.358	11904.09
662.708	11873.13
663.059	11937.99
663.409	11878.11
663.76	11893.25
664.11	11820.48
664.461	11882.85
664.811	11900.25
665.161	11890.99
665.511	11843.3
665.862	11914.26
666.212	11923.3
666.562	11898.44
666.912	11869.29
667.262	11878.11
667.612	11840.59
667.962	11837.88
668.312	11913.36
668.662	11949.52
669.011	11855.73
669.361	11789.52
669.711	11828.62
670.06	11888.5
670.41	11815.96
670.76	11704.78
671.109	11787.71
671.459	11829.29
671.808	11762.63
672.157	11839.24
672.507	11753.36
672.856	11787.03
673.205	11785
673.554	11785.23
673.904	11785.9
674.253	11849.41
674.602	11695.96
674.951	11603.08
675.3	11528.51
675.649	11807.6
675.998	11759.01
676.346	11719.69
676.695	11719.01
677.044	11619.36
677.393	11670.65
677.741	11681.95
678.09	11639.47
678.438	11681.27
678.787	11638.79
679.135	11685.12
679.484	11491.9
679.832	11628.85
680.181	11450.32
680.529	11560.6
680.877	11485.57
681.225	11424.78
681.573	11567.61
681.922	11399.93
682.27	11401.28
682.618	11395.41
682.966	11406.03
683.314	11435.86
683.661	11340.04
684.009	11296.65
684.357	11328.74
684.705	11237.9
685.053	11292.36
685.4	11241.06
685.748	11168.97
686.095	11164
686.443	11148.63
686.79	11107.28
687.138	11190.89
687.485	11127.62
687.832	11060.95
688.18	11013.72
688.527	10998.35
688.874	11018.47
689.221	10939.83
689.568	11008.07
689.915	10878.13
690.262	10939.6
690.609	10826.38
690.956	10829.09
691.303	10784.8
691.65	10697.8
691.997	10752.94
692.344	10702.77
692.69	10624.81
693.037	10671.58
693.383	10583.68
693.73	10601.08
694.077	10594.98
694.423	10449.44
694.769	10490.12
695.116	10425.94
695.462	10451.7
695.808	10330.35
696.155	10275.66
696.501	10279.28
696.847	10279.5
697.193	10153.86
697.539	10199.05
697.885	10138.94
698.231	10135.1
698.577	10052.17
698.923	10008.78
699.269	9991.6
699.614	9944.6
699.96	9923.35
700.306	9857.82
700.651	9835.45
700.997	9856.46
701.342	9843.81
701.688	9802.23
702.033	9750.93
702.379	9749.35
702.724	9706.64
703.069	9730.59
703.415	9511.16
703.76	9608.33
704.105	9627.32
704.45	9569.92
704.795	9422.13
705.14	9451.05
705.485	9486.08
705.83	9455.57
706.175	9429.13
706.52	9462.12
706.865	9333.99
707.209	9284.95
707.554	9270.49
707.899	9302.58
708.243	9329.02
708.588	9232.98
708.932	9123.15
709.277	9231.85
709.621	9204.73
709.966	9096.03
710.31	9116.6
710.654	8985.3
710.998	9005.19
711.342	9024.85
711.687	9026.2
712.031	8949.14
712.375	8999.31
712.719	8976.71
713.063	8913.21
713.407	8948.24
713.75	8879.31
714.094	8851.52
714.438	8816.27
714.782	8912.53
715.125	8848.81
715.469	8912.31
715.812	8763.61
716.156	8733.56
716.499	8784.63
716.843	8781.01
717.186	8694.91
717.53	8726.32
717.873	8735.82
718.216	8747.34
718.559	8693.33
718.902	8604.29
719.246	8585.99
719.589	8634.12
719.932	8617.63
720.275	8606.33
720.617	8567.01
720.96	8622.82
721.303	8597.74
721.646	8559.32
721.989	8540.11
722.331	8571.07
722.674	8543.73
723.016	8503.28
723.359	8503.73
723.701	8519.78
724.044	8464.86
724.386	8447.69
724.729	8462.15
725.071	8452.89
725.413	8486.78
725.755	8449.72
726.097	8458.31
726.439	8417.63
726.782	8415.82
727.124	8461.92
727.465	8377.18
727.807	8362.49
728.149	8447.69
728.491	8348.26
728.833	8440.68
729.175	8351.64
729.516	8328.59
729.858	8361.59
730.199	8381.25
730.541	8385.77
730.882	8381.47
731.224	8388.25
731.565	8309.61
731.906	8277.97
732.248	8336.5
732.589	8293.57
732.93	8307.58
733.271	8367.69
733.612	8318.65
733.953	8307.8
734.294	8313.23
734.635	8332.21
734.976	8265.09
735.317	8362.94
735.658	8302.15
735.999	8323.17
736.339	8277.52
736.68	8312.55
737.021	8341.02
737.361	8290.18
737.702	8330.63
738.042	8307.13
738.383	8287.92
738.723	8353.23
739.063	8327.92
739.404	8364.3
739.744	8287.69
740.084	8357.29
740.424	8366.79
740.764	8355.71
741.104	8416.5
741.444	8380.8
741.784	8404.3
742.124	8434.35
742.464	8425.54
742.804	8447.91
743.143	8423.73
743.483	8482.49
743.823	8492.21
744.162	8479.1
744.502	8555.26
744.841	8510.28
745.181	8586.67
745.52	8540.57
745.86	8695.59
746.199	8711.41
746.538	8660.79
746.877	8696.95
747.216	8754.8
747.556	8759.32
747.895	8876.15
748.234	8894.68
748.573	8880.9
748.911	9008.8
749.25	9044.73
749.589	9053.32
749.928	9218.97
750.267	9248.12
750.605	9236.82
750.944	9340.09
751.283	9344.61
751.621	9471.39
751.96	9465.74
752.298	9689.46
752.636	9737.37
752.975	9743.47
753.313	9847.2
753.651	10035.67
753.989	10118.83
754.327	10141.88
754.666	10229.11
755.004	10398.14
755.342	10466.17
755.679	10677.69
756.017	10719.04
756.355	10853.5
756.693	10981.18
757.031	11077.67
757.368	11179.59
757.706	11380.72
758.044	11459.81
758.381	11629.75
758.719	11806.7
759.056	11896.86
759.394	12070.87
759.731	12140.47
760.068	12292.56
760.405	12507.69
760.743	12555.38
761.08	12847.8
761.417	12978.19
761.754	13110.84
762.091	13252.31
762.428	13344.51
762.765	13534.56
763.102	13735.68
763.438	13838.05
763.775	14015.22
764.112	14156.46
764.449	14351.71
764.785	14466.96
765.122	14497.02
765.458	14605.72
765.795	14791.25
766.131	15008.87
766.467	15084.12
766.804	15207.96
767.14	15338.35
767.476	15523.66
767.812	15605.01
768.148	15785.57
768.485	15905.12
768.821	15862.86
769.157	16094.72
769.492	16237.99
769.828	16289.29
770.164	16396.41
770.5	16466.91
770.836	16649.73
771.171	16639.11
771.507	16811.54
771.842	16792.78
772.178	16946
772.513	17100.57
772.849	17068.7
773.184	17237.06
773.519	17305.31
773.855	17356.83
774.19	17390.96
774.525	17485.87
774.86	17576.94
775.195	17709.36
775.53	17755.01
775.865	17676.15
776.2	17671.85
776.535	17666.2
776.87	17770.38
777.205	17674.11
777.539	17774.45
777.874	17887.89
778.209	17894.22
778.543	17889.47
778.878	17895.12
779.212	17957.49
779.547	17955.01
779.881	17984.61
780.215	17969.25
780.55	18068
780.884	18005.18
781.218	18052.86
781.552	18085.85
781.886	18044.27
782.22	17995.69
782.554	17902.81
782.888	17858.97
783.222	17918.62
783.556	17906.2
783.889	17960.66
784.223	17863.49
784.557	17841.11
784.89	17987.32
785.224	17831.17
785.557	17839.3
785.891	17741.45
786.224	17861.9
786.558	17823.94
786.891	17796.82
787.224	17768.35
787.557	17666.65
787.891	17774.22
788.224	17722.02
788.557	17737.16
788.89	17726.54
789.223	17759.08
789.556	17637.95
789.888	17630.04
790.221	17588.01
790.554	17459.43
790.887	17548.92
791.219	17568.58
791.552	17455.13
791.884	17402.25
792.217	17348.02
792.549	17436.83
792.882	17204.75
793.214	17196.61
793.546	17248.13
793.879	17154.13
794.211	17179.66
794.543	17212.88
794.875	17102.6
795.207	17146.44
795.539	17033.68
795.871	17135.14
796.203	16895.37
796.535	16901.02
796.867	16897.18
797.198	16767.47
797.53	16872.78
797.862	16731.09
798.193	16861.93
798.525	16794.36
798.856	16800.01
799.188	16522.05
799.519	16548.04
799.85	16519.34
800.182	16586.91
800.513	16537.19
800.844	16264.43
801.175	16488.83
801.506	16404.99
801.837	16386.24
802.168	16341.94
802.499	16276.18
802.83	16253.13
803.161	16111.44
803.491	16193.02
803.822	16188.95
804.153	16100.82
804.483	15953.7
804.814	15988.73
805.145	15934.04
805.475	15908.06
805.805	15826.48
806.136	15854.05
806.466	15823.99
806.796	15787.83
807.126	15689.3
807.457	15657.89
807.787	15707.38
808.117	15586.26
808.447	15519.82
808.777	15592.81
809.107	15529.08
809.436	15479.14
809.766	15471.46
810.096	15467.16
810.426	15342.65
810.755	15348.52
811.085	15400.05
811.414	15286.83
811.744	15214.97
812.073	15152.37
812.403	15259.03
812.732	15061.52
813.061	15085.48
813.39	15105.37
813.719	15005.03
814.049	15141.75
814.378	15040.06
814.707	15011.13
815.036	15044.8
815.365	14906.5
815.693	14819.05
816.022	14752.15
816.351	14739.05
816.68	14743.79
817.008	14739.95
817.337	14625.38
817.665	14651.14
817.994	14719.84
818.322	14666.73
818.651	14553.29
818.979	14552.39
819.307	14635.32
819.636	14652.72
819.964	14536.57
820.292	14550.35
820.62	14502.44
820.948	14411.15
821.276	14575.89
821.604	14398.27
821.932	14640.52
822.259	14494.08
822.587	14371.6
822.915	14418.83
823.243	14530.69
823.57	14414.08
823.898	14490.47
824.225	14421.99
824.553	14527.53
824.88	14502.9
825.207	14506.74
825.535	14443.91
825.862	14462.9
826.189	14433.97
826.516	14531.6
826.843	14507.42
827.17	14512.84
827.497	14464.93
827.824	14506.29
828.151	14537.92
828.478	14513.52
828.805	14554.19
829.131	14447.98
829.458	14400.3
829.785	14408.89
830.111	14447.08
830.438	14509.22
830.764	14504.25
831.09	14473.29
831.417	14408.66
831.743	14490.69
832.069	14451.6
832.395	14471.48
832.722	14485.27
833.048	14357.59
833.374	14459.96
833.7	14330.7
834.026	14386.97
834.351	14400.53
834.677	14327.31
835.003	14370.7
835.329	14324.6
835.654	14303.35
835.98	14262.45
836.306	14302.67
836.631	14178.61
836.956	14296.57
837.282	14252.51
837.607	14136.8
837.932	14226.29
838.258	14187.88
838.583	14214.77
838.908	14050.48
839.233	14184.26
839.558	14072.62
839.883	14022.46
840.208	13946.98
840.533	14004.15
840.858	14031.04
841.182	13972.74
841.507	13997.82
841.832	13868.56
842.156	13905.85
842.481	13843.93
842.805	13971.84
843.13	13748.79
843.454	13774.1
843.778	13761.22
844.103	13639.42
844.427	13610.26
844.751	13617.72
845.075	13567.1
845.399	13547.44
845.723	13537.72
846.047	13518.06
846.371	13370.72
846.695	13406.2
847.019	13346.32
847.343	13309.71
847.666	13207.79
847.99	13090.05
848.313	13195.36
848.637	13036.27
848.96	13083.05
849.284	12955.37
849.607	12876.5
849.931	12841.7
850.254	12779.78
850.577	12743.62
850.9	12655.71
851.223	12615.04
851.546	12530.74
851.869	12438.99
852.192	12502.5
852.515	12455.94
852.838	12330.75
853.161	12437.64
853.483	12226.35
853.806	12319.9
854.129	12243.07
854.451	12215.95
854.774	12176.63
855.096	12078.55
855.419	11995.39
855.741	12040.81
856.063	11923.3
856.385	11949.74
856.708	11870.87
857.03	11845.79
857.352	11830.2
857.674	11795.62
857.996	11775.51
858.318	11697.77
858.64	11690.31
858.961	11637.21
859.283	11681.73
859.605	11577.55
859.926	11648.51
860.248	11580.71
860.57	11539.81
860.891	11524.89
861.212	11428.85
861.534	11408.74
861.855	11384.79
862.176	11372.13
862.498	11425.91
862.819	11338.91
863.14	11279.7
863.461	11293.04
863.782	11267.27
864.103	11276.09
864.424	11117
864.745	11285.13
865.065	11159.48
865.386	11104.57
865.707	11109.09
866.027	11173.27
866.348	11102.53
866.668	11170.33
866.989	11023.66
867.309	11010.33
867.63	11052.82
867.95	11022.99
868.27	11013.72
868.59	10942.31
868.91	10939.6
869.23	10952.48
869.55	10888.08
869.87	10911.8
870.19	10894.63
870.51	10903.44
870.83	10951.12
871.15	10779.6
871.469	10841.3
871.789	10884.23
872.109	10852.82
872.428	10733.73
872.748	10831.81
873.067	10771.24
873.386	10768.98
873.706	10712.94
874.025	10674.75
874.344	10674.75
874.663	10657.12
874.982	10603.56
875.301	10670.45
875.62	10604.92
875.939	10586.39
876.258	10585.48
876.577	10571.25
876.896	10535.32
877.214	10482.66
877.533	10536.9
877.852	10490.35
878.17	10509.1
878.489	10487.41
878.807	10435.21
879.125	10455.54
879.444	10485.37
879.762	10426.17
880.08	10366.28
880.398	10299.62
880.716	10350.69
881.034	10312.05
881.352	10329.22
881.67	10241.54
881.988	10269.11
882.306	10207.64
882.624	10219.84
882.941	10106.63
883.259	10107.08
883.577	10127.64
883.894	10084.93
884.212	10096.01
884.529	10030.24
884.846	10127.64
885.164	9936.01
885.481	9984.37
885.798	9882.45
886.115	9910.7
886.432	9851.04
886.75	9831.83
887.067	9925.16
887.383	9890.59
887.7	9889.68
888.017	9820.08
888.334	9814.88
888.651	9756.58
888.967	9762.68
889.284	9679.07
889.6	9661.89
889.917	9587.09
890.233	9644.04
890.55	9570.14
890.866	9556.58
891.182	9608.33
891.498	9482.69
891.815	9478.62
892.131	9439.53
892.447	9369.25
892.763	9317.27
893.079	9355.91
893.395	9322.01
893.71	9270.04
894.026	9287.67
894.342	9278.4
894.657	9181.45
894.973	9133.32
895.289	9180.32
895.604	9149.14
895.92	9122.25
896.235	9031.17
896.55	8992.31
896.865	9014.45
897.181	8977.39
897.496	8936.49
897.811	8947.56
898.126	8911.63
898.441	8831.41
898.756	8849.48
899.071	8743.27
899.386	8801.35
899.7	8775.14
900.015	8749.37
900.33	8694.91
900.644	8601.36
900.959	8623.28
901.273	8529.04
901.588	8514.8
901.902	8465.31
902.216	8448.82
902.531	8423.73
902.845	8408.82
903.159	8366.56
903.473	8346.22
903.787	8261.48
904.101	8238.2
904.415	8258.77
904.729	8197.98
905.042	8200.46
905.356	8124.08
905.67	8140.58
905.984	8116.85
906.297	8080.24
906.611	8027.81
906.924	7971.32
907.237	7974.48
907.551	7963.18
907.864	7891.09
908.177	7851.77
908.491	7865.1
908.804	7750.3
909.117	7743.98
909.43	7687.48
909.743	7684.09
910.056	7678.22
910.368	7645.9
910.681	7570.65
910.994	7571.1
911.307	7546.92
911.619	7478.22
911.932	7493.14
912.244	7411.1
912.557	7399.81
912.869	7313.93
913.181	7336.08
913.494	7312.35
913.806	7200.94
914.118	7283.2
914.43	7205.91
914.742	7182.64
915.054	7169.98
915.366	7140.38
915.678	7176.31
915.99	7092.69
916.302	7001.62
916.613	6990.1
916.925	6958.01
917.236	6984
917.548	6895.86
917.859	6940.61
918.171	6901.74
918.482	6828.3
918.794	6821.97
919.105	6815.64
919.416	6751.91
919.727	6803.89
920.038	6767.96
920.349	6683.21
920.66	6667.17
920.971	6656.32
921.282	6647.51
921.593	6584.23
921.903	6540.84
922.214	6552.82
922.525	6492.26
922.835	6469.21
923.146	6458.36
923.456	6481.41
923.767	6401.87
924.077	6324.58
924.387	6367.29
924.697	6316.67
925.008	6323.22
925.318	6275.54
925.628	6290.46
925.938	6250.68
926.248	6180.85
926.558	6210.68
926.867	6167.07
927.177	6090.46
927.487	6064.93
927.796	6035.77
928.106	6050.69
928.416	6029.67
928.725	6020.63
929.034	5973.18
929.344	5930.24
929.653	5952.39
929.962	5929.11
930.271	5893.86
930.581	5862.67
930.89	5873.97
931.199	5762.56
931.508	5762.11
931.817	5800.3
932.125	5780.86
932.434	5721.66
932.743	5651.83
933.051	5678.04
933.36	5617.03
933.669	5598.72
933.977	5599.63
934.286	5604.82
934.594	5580.42
934.902	5512.4
935.21	5506.07
935.519	5465.62
935.827	5470.59
936.135	5444.15
936.443	5359.18
936.751	5382.01
937.059	5338.62
937.367	5339.97
937.674	5337.94
937.982	5346.3
938.29	5259.97
938.597	5269.69
938.905	5227.89
939.213	5227.43
939.52	5169.58
939.827	5167.77
940.135	5132.52
940.442	5097.27
940.749	5095.01
941.056	5121.45
941.363	5014.11
941.67	5019.76
941.977	5005.52
942.284	5000.32
942.591	4977.04
942.898	4968.68
943.205	4966.65
943.511	4932.07
943.818	4895.24
944.125	4851.4
944.431	4859.53
944.738	4873.32
945.044	4770.27
945.35	4792.42
945.657	4725.53
945.963	4729.14
946.269	4754.68
946.575	4711.51
946.881	4707.45
947.187	4701.12
947.493	4621.57
947.799	4654.79
948.105	4663.61
948.41	4580.67
948.716	4581.57
949.022	4539.99
949.327	4556.72
949.633	4516.94
949.938	4499.77
950.244	4488.02
950.549	4468.13
950.854	4436.27
951.16	4383.16
951.465	4376.83
951.77	4421.58
952.075	4358.3
952.38	4365.31
952.685	4250.06
952.99	4308.14
953.294	4293.45
953.599	4240.11
953.904	4237.18
954.209	4256.39
954.513	4238.53
954.818	4181.81
955.122	4167.12
955.426	4154.69
955.731	4190.17
956.035	4135.71
956.339	4078.31
956.643	4108.14
956.948	4064.75
957.252	4070.18
957.556	3991.31
957.86	4027.24
958.163	3969.39
958.467	4004.87
958.771	3990.18
959.075	3948.37
959.378	3904.53
959.682	3926.45
959.985	3938.2
960.289	3895.26
960.592	3862.27
960.896	3828.83
961.199	3817.3
961.502	3825.44
961.805	3797.41
962.108	3762.16
962.411	3768.04
962.714	3747.25
963.017	3721.26
963.32	3715.16
963.623	3668.83
963.926	3695.5
964.228	3665.89
964.531	3642.62
964.833	3650.75
965.136	3602.39
965.438	3603.3
965.741	3564.2
966.043	3596.97
966.345	3577.99
966.648	3542.51
966.95	3567.82
967.252	3528.27
967.554	3495.28
967.856	3465.67
968.158	3427.71
968.46	3460.25
968.761	3416.63
969.063	3444.2
969.365	3372.34
969.666	3401.49
969.968	3369.18
970.269	3332.34
970.571	3350.65
970.872	3306.35
971.174	3322.62
971.475	3311.33
971.776	3261.38
972.077	3277.88
972.378	3258.22
972.679	3228.16
972.98	3252.57
973.281	3186.13
973.582	3222.51
973.883	3192.01
974.183	3193.59
974.484	3121.5
974.785	3166.02
975.085	3139.35
975.386	3134.83
975.686	3090.09
975.986	3072.01
976.287	3085.57
976.587	3045.12
976.887	3048.96
977.187	3072.46
977.487	3048.73
977.787	3026.81
978.087	2994.05
978.387	3000.15
978.687	2995.4
978.987	2949.53
979.286	2936.87
979.586	2923.09
979.885	2937.32
980.185	2906.14
980.484	2890.55
980.784	2917.89
981.083	2870.43
981.382	2857.78
981.682	2830.89
981.981	2829.76
982.28	2833.6
982.579	2817.33
982.878	2843.99
983.177	2772.81
983.475	2802.41
983.774	2744.56
984.073	2722.41
984.372	2733.26
984.67	2724.9
984.969	2701.85
985.267	2718.57
985.566	2699.14
985.864	2677.67
986.162	2674.51
986.461	2643.77
986.759	2646.94
987.057	2612.13
987.355	2596.32
987.653	2613.04
987.951	2581.63
988.249	2582.53
988.547	2535.75
988.844	2546.37
989.142	2559.25
989.44	2525.13
989.737	2545.02
990.035	2522.65
990.332	2506.37
990.63	2485.36
990.927	2481.06
991.224	2446.04
991.521	2450.11
991.819	2424.8
992.116	2410.56
992.413	2432.93
992.71	2386.38
993.006	2410.33
993.303	2385.7
993.6	2359.03
993.897	2357.68
994.193	2352.71
994.49	2314.06
994.787	2318.58
995.083	2305.25
995.379	2305.7
995.676	2301.41
995.972	2287.4
996.268	2271.8
996.565	2275.87
996.861	2228.64
997.157	2242.88
997.453	2231.58
997.749	2216.44
998.044	2199.04
998.34	2198.36
998.636	2177.57
998.932	2140.73
999.227	2124.46
999.523	2134.18
999.818	2156.33
1000.114	2112.49
1000.409	2136.44
1000.704	2100.51
1001	2116.1
1001.295	2088.08
1001.59	2098.7
1001.885	2079.49
1002.18	2038.14
1002.475	2034.3
1002.77	2020.51
1003.065	2013.05
1003.359	1993.85
1003.654	1965.37
1003.949	1970.34
1004.243	1962.66
1004.538	1962.21
1004.832	1955.2
1005.127	1967.63
1005.421	1929.21
1005.715	1931.25
1006.009	1898.03
1006.304	1891.93
1006.598	1891.02
1006.892	1851.93
1007.186	1861.65
1007.48	1856.45
1007.773	1823
1008.067	1801.76
1008.361	1820.74
1008.655	1829.56
1008.948	1828.65
1009.242	1765.83
1009.535	1757.24
1009.829	1794.3
1010.122	1744.36
1010.415	1743.23
1010.708	1733.51
1011.001	1718.6
1011.295	1708.43
1011.588	1712.27
1011.881	1700.97
1012.173	1682.89
1012.466	1682.44
1012.759	1692.16
1013.052	1665.72
1013.344	1651.26
1013.637	1638.6
1013.93	1639.73
1014.222	1596.57
1014.514	1603.12
1014.807	1606.96
1015.099	1595.89
1015.391	1586.85
1015.683	1568.32
1015.976	1554.08
1016.268	1524.25
1016.56	1529.45
1016.851	1521.09
1017.143	1523.58
1017.435	1528.32
1017.727	1503.92
1018.018	1474.54
1018.31	1512.5
1018.602	1485.61
1018.893	1476.8
1019.185	1448.1
1019.476	1439.28
1019.767	1447.42
1020.058	1431.37
1020.35	1428.21
1020.641	1413.07
1020.932	1418.72
1021.223	1406.97
1021.514	1424.14
1021.804	1375.11
1022.095	1379.4
1022.386	1361.77
1022.677	1376.69
1022.967	1354.31
1023.258	1320.42
1023.548	1330.59
1023.839	1311.15
1024.129	1322.23
1024.419	1302.11
1024.709	1298.27
1025	1296.24
1025.29	1269.8
1025.58	1256.92
1025.87	1276.35
1026.16	1230.93
1026.449	1272.06
1026.739	1227.99
1027.029	1214.21
1027.319	1207.43
1027.608	1207.88
1027.898	1212.62
1028.187	1193.19
1028.477	1161.78
1028.766	1201.1
1029.055	1185.51
1029.344	1171.95
1029.634	1136.69
1029.923	1127.88
1030.212	1143.47
1030.501	1148.22
1030.79	1127.88
1031.078	1129.01
1031.367	1091.5
1031.656	1099.18
1031.945	1116.35
1032.233	1055.11
1032.522	1083.14
1032.81	1086.98
1033.099	1069.58
1033.387	1062.34
1033.675	1038.39
1033.963	1054.89
1034.251	1044.04
1034.54	1019.63
1034.828	1009.92
1035.116	997.94
1035.403	1025.28
1035.691	1020.99
1035.979	1009.69
1036.267	982.12
1036.554	969.69
1036.842	994.78
1037.129	986.87
1037.417	972.4
1037.704	961.78
1037.992	971.27
1038.279	958.84
1038.566	935.12
1038.853	935.12
1039.14	935.12
