Data from hue_320_FLMS001491_65.txt Node
Date: Mon Feb 06 15:47:32 GMT 2017
User: dcchb
Spectrometer: FLMS00149
Trigger mode: 0
Integration Time (sec): 2.000000E-2
Scans to average: 10
Electric dark correction enabled: true
Nonlinearity correction enabled: false
Boxcar width: 0
XAxis mode: Wavelengths
Number of Pixels in Spectrum: 2048
>>>>>Begin Spectral Data<<<<<
341.393	-19.01
341.776	-19.01
342.16	-19.01
342.543	-56.75
342.927	-64.89
343.31	-63.98
343.693	-68.73
344.077	-69.63
344.46	-60.37
344.843	-52.68
345.226	-33.25
345.61	-29.63
345.993	-20.59
346.376	-21.72
346.759	7.43
347.142	39.07
347.525	44.04
347.908	47.43
348.291	79.07
348.674	89.23
349.057	114.32
349.44	119.29
349.823	156.13
350.206	164.26
350.588	187.76
350.971	200.87
351.354	234.32
351.737	230.93
352.119	228.89
352.502	266.86
352.884	282
353.267	281.32
353.65	288.1
354.032	295.56
354.414	288.33
354.797	298.95
355.179	311.38
355.562	315.44
355.944	329.68
356.326	317.48
356.709	329.68
357.091	322.22
357.473	345.73
357.855	328.55
358.238	340.75
358.62	327.87
359.002	326.52
359.384	332.62
359.766	336.23
360.148	347.31
360.53	332.17
360.912	321.32
361.294	324.48
361.676	338.04
362.057	336.69
362.439	317.25
362.821	309.34
363.203	332.62
363.584	306.4
363.966	314.99
364.348	329
364.729	303.01
365.111	303.47
365.493	306.63
365.874	335.56
366.256	312.51
366.637	324.93
367.019	307.53
367.4	302.56
367.781	292.39
368.163	306.63
368.544	321.32
368.925	312.73
369.306	307.31
369.688	300.3
370.069	304.6
370.45	299.17
370.831	296.91
371.212	318.83
371.593	293.75
371.974	319.96
372.355	291.72
372.736	319.06
373.117	316.57
373.498	308.89
373.879	287.2
374.26	299.17
374.641	314.99
375.021	318.83
375.402	316.8
375.783	304.14
376.163	312.28
376.544	299.62
376.925	326.97
377.305	334.43
377.686	311.15
378.066	319.74
378.447	305.95
378.827	314.54
379.208	325.16
379.588	340.53
379.968	337.59
380.349	331.26
380.729	343.01
381.109	333.07
381.489	318.38
381.87	317.7
382.25	343.24
382.63	342.79
383.01	330.58
383.39	323.13
383.77	319.51
384.15	338.04
384.53	355.44
384.91	347.53
385.29	345.5
385.67	333.52
386.049	324.71
386.429	350.25
386.809	343.92
387.189	354.99
387.568	351.15
387.948	330.58
388.328	338.49
388.707	364.03
389.087	318.38
389.466	325.84
389.846	345.5
390.225	362
390.605	349.57
390.984	357.02
391.363	345.95
391.743	344.14
392.122	343.24
392.501	362.22
392.881	355.89
393.26	360.64
393.639	338.27
394.018	347.31
394.397	370.81
394.776	372.17
395.155	357.93
395.534	359.28
395.913	338.95
396.292	385.27
396.671	380.3
397.05	356.8
397.429	362
397.808	390.02
398.186	379.62
398.565	397.02
398.944	367.19
399.323	382.56
399.701	383.01
400.08	373.75
400.458	369
400.837	373.3
401.215	383.24
401.594	385.27
401.972	377.81
402.351	397.25
402.729	379.85
403.107	367.87
403.486	389.34
403.864	399.74
404.242	406.51
404.62	418.27
404.999	419.62
405.377	426.85
405.755	402.9
406.133	438.6
406.511	410.58
406.889	438.15
407.267	415.1
407.645	418.27
408.023	417.59
408.401	439.51
408.779	460.98
409.156	443.58
409.534	450.58
409.912	444.25
410.29	441.09
410.667	457.81
411.045	479.51
411.422	460.07
411.8	469.79
412.178	489
412.555	480.19
412.933	487.19
413.31	490.81
413.687	495.78
414.065	499.85
414.442	507.53
414.819	499.85
415.197	519.73
415.574	531.03
415.951	542.33
416.328	540.3
416.705	545.95
417.082	551.6
417.46	565.61
417.837	560.18
418.214	550.01
418.591	589.11
418.967	598.83
419.344	582.1
419.721	603.35
420.098	589.56
420.475	608.77
420.852	614.87
421.228	603.12
421.605	616.45
421.982	616.23
422.358	620.52
422.735	620.52
423.111	624.59
423.488	646.73
423.864	661.2
424.241	665.72
424.617	685.83
424.994	650.8
425.37	666.39
425.746	695.09
426.123	702.55
426.499	692.16
426.875	700.07
427.251	703
427.627	721.31
428.003	717.02
428.379	740.52
428.756	753.4
429.132	747.75
429.507	766.96
429.883	747.07
430.259	772.38
430.635	793.4
431.011	783.23
431.387	797.46
431.763	796.79
432.138	801.31
432.514	815.77
432.89	805.15
433.265	838.37
433.641	836.33
434.016	862.55
434.392	881.08
434.767	878.14
435.143	878.59
435.518	870.91
435.894	904.58
436.269	903.22
436.644	909.78
437.02	919.27
437.395	922.89
437.77	929.89
438.145	949.1
438.52	945.26
438.895	952.49
439.271	938.25
439.646	985.03
440.021	997.69
440.395	1006.95
440.77	986.84
441.145	969.21
441.52	1002.88
441.895	988.19
442.27	1022.77
442.645	1036.55
443.019	1019.83
443.394	1003.56
443.769	1065.03
444.143	1037.91
444.518	1044.24
444.892	1009.66
445.267	1034.29
445.641	1026.61
446.016	1056.44
446.39	1058.02
446.764	1050.11
447.139	1052.6
447.513	1073.39
447.887	1062.09
448.262	1102.32
448.636	1066.61
449.01	1092.82
449.384	1080.17
449.758	1099.15
450.132	1118.13
450.506	1099.83
450.88	1104.35
451.254	1119.94
451.628	1124.69
452.002	1139.38
452.376	1141.18
452.75	1131.24
453.123	1142.77
453.497	1171.47
453.871	1149.32
454.244	1172.14
454.618	1172.14
454.992	1162.88
455.365	1184.35
455.739	1211.69
456.112	1216.44
456.486	1208.53
456.859	1213.05
457.232	1237.45
457.606	1256.44
457.979	1242.88
458.352	1246.49
458.725	1284.68
459.099	1256.66
459.472	1289.88
459.845	1321.97
460.218	1317.68
460.591	1322.42
460.964	1330.33
461.337	1352.48
461.71	1365.36
462.083	1350.9
462.456	1379.37
462.829	1370.56
463.201	1382.08
463.574	1361.74
463.947	1383.21
464.32	1402.19
464.692	1412.59
465.065	1445.81
465.438	1435.64
465.81	1464.34
466.183	1455.75
466.555	1481.51
466.928	1485.36
467.3	1508.86
467.672	1501.85
468.045	1517.45
468.417	1522.64
468.789	1547.95
469.161	1542.76
469.534	1569.2
469.906	1598.12
470.278	1595.64
470.65	1578.01
471.022	1623.21
471.394	1670.89
471.766	1663.66
472.138	1674.05
472.51	1712.24
472.882	1691.45
473.253	1731.68
473.625	1757.67
473.997	1760.15
474.369	1787.5
474.74	1810.77
475.112	1831.11
475.484	1827.49
475.855	1870.21
476.227	1881.96
476.598	1933.71
476.97	1923.99
477.341	1958.34
477.713	1975.06
478.084	1960.15
478.455	2014.83
478.827	2033.59
479.198	2055.74
479.569	2036.3
479.94	2109.97
480.311	2085.11
480.682	2114.49
481.053	2188.61
481.424	2213.47
481.795	2234.72
482.166	2244.88
482.537	2283.53
482.908	2303.41
483.279	2317.65
483.65	2335.5
484.021	2393.81
484.391	2413.69
484.762	2413.47
485.133	2423.86
485.503	2433.35
485.874	2514.93
486.244	2511.54
486.615	2564.88
486.985	2594.48
487.356	2600.81
487.726	2589.51
488.097	2644.42
488.467	2664.76
488.837	2723.06
489.207	2702.27
489.578	2756.06
489.948	2754.25
490.318	2843.96
490.688	2821.14
491.058	2866.79
491.428	2878.99
491.798	2869.95
492.168	2965.77
492.538	2917.64
492.908	2966
493.278	2992.21
493.648	3019.33
494.017	3046.9
494.387	3036.28
494.757	3072.43
495.126	3133.9
495.496	3108.36
495.866	3144.07
496.235	3147.69
496.605	3154.47
496.974	3198.31
497.344	3220.68
497.713	3217.97
498.082	3202.15
498.452	3264.29
498.821	3277.63
499.19	3281.24
499.559	3311.3
499.928	3338.19
500.298	3351.3
500.667	3298.64
501.036	3334.35
501.405	3361.01
501.774	3366.66
502.143	3370.28
502.512	3404.4
502.88	3422.48
503.249	3410.73
503.618	3479.43
503.987	3429.71
504.356	3465.87
504.724	3472.87
505.093	3460.22
505.462	3485.3
505.83	3516.94
506.199	3558.52
506.567	3567.56
506.936	3530.27
507.304	3543.38
507.672	3612.98
508.041	3590.84
508.409	3637.39
508.777	3652.31
509.145	3623.15
509.514	3649.82
509.882	3638.07
510.25	3657.95
510.618	3651.4
510.986	3712.64
511.354	3734.79
511.722	3719.65
512.09	3721
512.458	3765.75
512.826	3761.91
513.193	3762.36
513.561	3754
513.929	3788.12
514.297	3786.31
514.664	3818.63
515.032	3809.82
515.4	3808.91
515.767	3836.48
516.135	3858.85
516.502	3786.54
516.869	3918.51
517.237	3887.55
517.604	3875.35
517.972	3937.72
518.339	3929.81
518.706	3906.54
519.073	3892.75
519.44	3963.26
519.808	3965.97
520.175	3940.43
520.542	3974.33
520.909	3984.73
521.276	3942.69
521.643	3969.58
522.009	4036.93
522.376	4033.31
522.743	4053.65
523.11	4086.19
523.477	4104.72
523.843	4104.5
524.21	4142.46
524.577	4129.81
524.943	4170.03
525.31	4146.53
525.676	4155.57
526.043	4210.71
526.409	4208.45
526.776	4249.35
527.142	4278.05
527.508	4318.05
527.874	4335
528.241	4306.98
528.607	4286.19
528.973	4331.84
529.339	4381.78
529.705	4410.48
530.071	4419.06
530.437	4417.71
530.803	4477.59
531.169	4459.97
531.535	4492.51
531.901	4481.89
532.267	4569.57
532.632	4472.4
532.998	4561.21
533.364	4569.8
533.73	4577.48
534.095	4613.64
534.461	4647.08
534.826	4634.65
535.192	4661.09
535.557	4730.47
535.923	4677.59
536.288	4739.28
536.653	4778.83
537.019	4733.41
537.384	4766.63
537.749	4757.36
538.114	4779.06
538.479	4781.99
538.845	4821.77
539.21	4857.92
539.575	4903.57
539.94	4885.94
540.305	4965.04
540.67	4909.45
541.034	4934.76
541.399	4958.71
541.764	5008.88
542.129	5060.63
542.494	5054.75
542.858	5047.3
543.223	5080.52
543.587	5094.3
543.952	5104.92
544.316	5140.18
544.681	5116.67
545.045	5186.5
545.41	5169.33
545.774	5239.38
546.138	5188.99
546.503	5278.03
546.867	5255.2
547.231	5304.92
547.595	5306.05
547.959	5302.88
548.324	5357.57
548.688	5349.89
549.052	5373.39
549.416	5444.35
549.779	5394.18
550.143	5402.09
550.507	5465.36
550.871	5428.98
551.235	5436.21
551.599	5533.16
551.962	5501.07
552.326	5524.8
552.689	5552.14
553.053	5562.54
553.417	5574.74
553.78	5576.1
554.143	5613.61
554.507	5632.14
554.87	5626.94
555.234	5710.78
555.597	5660.39
555.96	5693.16
556.323	5694.06
556.686	5673.04
557.05	5776.99
557.413	5767.96
557.776	5731.35
558.139	5824.68
558.502	5802.53
558.865	5818.12
559.228	5862.19
559.59	5841.17
559.953	5869.87
560.316	5951.45
560.679	5904.9
561.041	5939.25
561.404	5931.34
561.767	5944.22
562.129	5957.33
562.492	6026.93
562.854	6052.92
563.217	6015.63
563.579	6033.49
563.941	6090.43
564.304	6145.35
564.666	6125.46
565.028	6097.21
565.39	6148.74
565.753	6169.75
566.115	6202.97
566.477	6198
566.839	6242.07
567.201	6261.95
567.563	6268.96
567.925	6335.85
568.287	6316.87
568.648	6333.82
569.01	6405
569.372	6406.81
569.734	6384.44
570.095	6431.44
570.457	6447.94
570.819	6488.16
571.18	6473.02
571.542	6525.22
571.903	6577.43
572.265	6602.74
572.626	6622.4
572.987	6655.16
573.349	6746.24
573.71	6764.99
574.071	6805.22
574.432	6824.2
574.794	6910.07
575.155	6948.26
575.516	6953.01
575.877	7041.37
576.238	7127.69
576.599	7123.17
576.96	7246.33
577.32	7243.17
577.681	7395.48
578.042	7444.52
578.403	7512.54
578.763	7564.74
579.124	7663.95
579.485	7677.51
579.845	7880.22
580.206	7928.35
580.566	8046.77
580.927	8196.37
581.287	8301.45
581.648	8442.01
582.008	8556.58
582.368	8608.78
582.728	8752.74
583.089	8891.26
583.449	9017.59
583.809	9157.92
584.169	9337.13
584.529	9539.83
584.889	9822.31
585.249	9877.9
585.609	10019.82
585.969	10261.17
586.329	10461.17
586.688	10712.68
587.048	10914.26
587.408	11013.47
587.768	11306.34
588.127	11533.23
588.487	11658.87
588.846	11980.9
589.206	12119.2
589.565	12454.56
589.925	12645.97
590.284	12921.67
590.643	13144.26
591.003	13487.3
591.362	13715.54
591.721	14010.22
592.08	14206.38
592.44	14434.62
592.799	14817.21
593.158	15042.51
593.517	15300.36
593.876	15637.07
594.235	15929.72
594.593	16106.67
594.952	16373.33
595.311	16685.63
595.67	16956.14
596.029	17333.98
596.387	17677.7
596.746	17868.65
597.104	18127.18
597.463	18417.34
597.822	18768.07
598.18	18986.37
598.538	19260.93
598.897	19608.72
599.255	19770.53
599.613	20422.03
599.972	20468.59
600.33	20828.8
600.688	20965.52
601.046	21427.66
601.404	21751.94
601.762	21968.66
602.12	22205.49
602.478	22476.67
602.836	22801.63
603.194	22834.85
603.552	23111
603.91	23374.05
604.268	23737.65
604.625	23931.55
604.983	24236.62
605.341	24347.58
605.698	24649.27
606.056	24949.37
606.413	25206.77
606.771	25357.05
607.128	25664.83
607.485	25829.35
607.843	26154.99
608.2	26418.03
608.557	26735.31
608.914	26820.06
609.272	27198.58
609.629	27375.75
609.986	27686.48
610.343	27726.93
610.7	28069.74
611.057	28130.53
611.414	28261.6
611.771	28507.92
612.127	28750.18
612.484	29027.23
612.841	29242.37
613.198	29194.46
613.554	29497.95
613.911	29802.58
614.267	29880.32
614.624	29972.07
614.98	30241.44
615.337	30366.4
615.693	30506.06
616.05	30603.23
616.406	30989.21
616.762	31033.51
617.118	31126.84
617.475	31196.89
617.831	31426.49
618.187	31626.71
618.543	31779.7
618.899	32036.87
619.255	32067.38
619.611	32188.28
619.967	32386.01
620.323	32527.93
620.678	32646.8
621.034	32598.89
621.39	32677.76
621.746	32913.68
622.101	33157.29
622.457	32980.35
622.812	33171.53
623.168	33347.12
623.523	33380.11
623.879	33718.18
624.234	33464.85
624.589	33633.44
624.945	33817.16
625.3	33777.39
625.655	34009.25
626.01	34119.3
626.365	34088.79
626.72	34018.74
627.075	34183.93
627.43	34278.39
627.785	34252.86
628.14	34417.15
628.495	34415.11
628.85	34385.06
629.205	34483.36
629.559	34623.02
629.914	34647.87
630.269	34689
630.623	34589.57
630.978	34522.91
631.332	34725.61
631.687	34900.52
632.041	34780.75
632.396	34859.39
632.75	34835.21
633.104	34858.49
633.459	34924.03
633.813	34745.05
634.167	34832.95
634.521	34841.99
634.875	34928.32
635.229	35006.28
635.583	34852.39
635.937	34847.42
636.291	34875.21
636.645	34889.68
636.999	34881.09
637.352	34913.4
637.706	34799.73
638.06	35002.89
638.413	34904.82
638.767	34850.35
639.121	35020.97
639.474	34682.9
639.828	34836.34
640.181	34845.61
640.534	34932.16
640.888	34810.81
641.241	34696.01
641.594	34830.47
641.947	34992.27
642.301	34853.07
642.654	34815.1
643.007	34903.23
643.36	34741.66
643.713	34807.19
644.066	34956.79
644.419	34748.66
644.771	34550.7
645.124	34286.75
645.477	34301.44
645.83	33967.21
646.182	33808.8
646.535	33832.3
646.888	33999.98
647.24	33720.22
647.593	33967.89
647.945	33883.83
648.298	33636.38
648.65	33605.19
649.002	33726.99
649.355	33821
649.707	33674.79
650.059	33830.72
650.411	34231.39
650.763	34456.92
651.115	34623.47
651.467	34534.88
651.819	34542.11
652.171	34383.47
652.523	34488.33
652.875	34397.94
653.227	34245.17
653.578	34635.9
653.93	34317.49
654.282	34390.03
654.633	34240.65
654.985	34339.86
655.337	34285.17
655.688	34478.16
656.039	34528.1
656.391	34105.06
656.742	34110.71
657.094	34215.8
657.445	34465.51
657.796	34265.06
658.147	34347.54
658.498	34304.38
658.849	34344.38
659.2	34303.02
659.551	34284.49
659.902	34237.26
660.253	34172.63
660.604	34296.02
660.955	34094.44
661.306	34361.33
661.656	34228.22
662.007	34210.82
662.358	34157.49
662.708	34066.65
663.059	34073.65
663.409	33922.47
663.76	34213.99
664.11	34090.6
664.461	34294.66
664.811	34023.94
665.161	34194.55
665.511	34059.87
665.862	33980.32
666.212	34312.52
666.562	34133.54
666.912	34113.65
667.262	34040.66
667.612	34018.51
667.962	34079.75
668.312	34042.24
668.662	34070.94
669.011	34149.36
669.361	33994.11
669.711	34011.05
670.06	34022.13
670.41	33850.16
670.76	33884.96
671.109	33822.36
671.459	34004.5
671.808	33859.65
672.157	34044.5
672.507	33752.53
672.856	33802.47
673.205	33796.37
673.554	33950.04
673.904	33712.98
674.253	33954.33
674.602	33878.4
674.951	33367.91
675.3	33095.37
675.649	33753.66
675.998	33644.06
676.346	33663.27
676.695	33834.56
677.044	33484.52
677.393	33541.46
677.741	33701.46
678.09	33592.53
678.438	33587.79
678.787	33696.71
679.135	33542.82
679.484	33400.68
679.832	33392.31
680.181	33418.98
680.529	33340.34
680.877	33301.69
681.225	33220.34
681.573	33468.47
681.922	33169.04
682.27	33097.18
682.618	33094.02
682.966	33069.61
683.314	33185.09
683.661	32990.29
684.009	32965.66
684.357	32842.95
684.705	32945.09
685.053	32877.07
685.4	32784.87
685.748	32629.62
686.095	32604.99
686.443	32591.43
686.79	32513.92
687.138	32495.39
687.485	32458.55
687.832	32342.17
688.18	32266.47
688.527	32326.58
688.874	32177.43
689.221	32183.76
689.568	32040.49
689.915	31994.84
690.262	31962.75
690.609	31939.92
690.956	31726.82
691.303	31855.63
691.65	31628.97
691.997	31629.87
692.344	31450.9
692.69	31449.54
693.037	31395.98
693.383	31198.25
693.73	31392.14
694.077	31169.77
694.423	31180.17
694.769	31022.21
695.116	30908.54
695.462	30939.27
695.808	30810.69
696.155	30871.48
696.501	30611.37
696.847	30584.03
697.193	30520.3
697.539	30541.54
697.885	30259.97
698.231	30256.13
698.577	30259.52
698.923	30304.26
699.269	30056.13
699.614	29833.99
699.96	29879.19
700.306	29855.46
700.651	29781.11
700.997	29677.38
701.342	29596.48
701.688	29525.75
702.033	29605.97
702.379	29481.91
702.724	29412.98
703.069	29426.54
703.415	29052.32
703.76	29168.47
704.105	29099.55
704.45	29020.9
704.795	28824.52
705.14	28800.8
705.485	28883.73
705.83	28667.47
706.175	28815.49
706.52	28577.75
706.865	28454.14
707.209	28496.17
707.554	28437.42
707.899	28509.5
708.243	28295.72
708.588	28333.01
708.932	28029.07
709.277	28003.3
709.621	28077.88
709.966	27887.83
710.31	28017.99
710.654	27781.39
710.998	27906.81
711.342	27712.24
711.687	27636.99
712.031	27664.56
712.375	27569.42
712.719	27482.19
713.063	27511.34
713.407	27585.01
713.75	27395.18
714.094	27409.42
714.438	27224.11
714.782	27318.35
715.125	27199.48
715.469	27137.56
715.812	27060.73
716.156	26955.65
716.499	26983.22
716.843	27000.39
717.186	26743.45
717.53	26859.6
717.873	26865.03
718.216	26837.68
718.559	26811.47
718.902	26565.83
719.246	26606.05
719.589	26416
719.932	26359.96
720.275	26328.55
720.617	26444.02
720.96	26339.39
721.303	26396.79
721.646	26356.57
721.989	26192.05
722.331	26260.07
722.674	26155.44
723.016	26108.89
723.359	26016.46
723.701	26122.45
724.044	25987.31
724.386	25805.62
724.729	25946.63
725.071	25886.07
725.413	25783.47
725.755	25782.57
726.097	25786.64
726.439	25525.18
726.782	25520.43
727.124	25695.12
727.465	25560.66
727.807	25514.78
728.149	25420.77
728.491	25485.18
728.833	25415.8
729.175	25424.16
729.516	25327.22
729.858	25207.67
730.199	25225.07
730.541	25129.25
730.882	25258.52
731.224	25294.67
731.565	25072.76
731.906	25060.33
732.248	25037.51
732.589	24883.39
732.93	24882.93
733.271	24832.77
733.612	24810.17
733.953	24992.99
734.294	24721.58
734.635	24737.63
734.976	24736.72
735.317	24575.82
735.658	24610.4
735.999	24612.66
736.339	24650.17
736.68	24567.24
737.021	24582.15
737.361	24384.19
737.702	24533.79
738.042	24358.65
738.383	24401.82
738.723	24395.26
739.063	24377.64
739.404	24366.11
739.744	24307.13
740.084	24097.42
740.424	24176.29
740.764	24192.33
741.104	24251.99
741.444	24019.45
741.784	24081.6
742.124	24099.45
742.464	23942.85
742.804	23932.22
743.143	23940.81
743.483	23986.01
743.823	23803.87
744.162	23643.87
744.502	23742.4
744.841	23644.32
745.181	23732.23
745.52	23609.97
745.86	23704.21
746.199	23643.42
746.538	23505.34
746.877	23663.53
747.216	23577.66
747.556	23530.65
747.895	23438.45
748.234	23405.01
748.573	23419.92
748.911	23348.06
749.25	23246.82
749.589	23166.59
749.928	23238.91
750.267	23297.21
750.605	23177.67
750.944	23051.34
751.283	23090.89
751.621	23131.11
751.96	22940.39
752.298	22919.6
752.636	22992.14
752.975	22743.33
753.313	22740.84
753.651	22874.62
753.989	22723.67
754.327	22675.99
754.666	22570.45
755.004	22525.03
755.342	22564.8
755.679	22566.61
756.017	22412.94
756.355	22477.57
756.693	22273.74
757.031	22287.52
757.368	22157.36
757.706	22300.63
758.044	22076.91
758.381	22196.9
758.719	22080.97
759.056	22025.16
759.394	21970.24
759.731	21810.92
760.068	21763.69
760.405	21754.88
760.743	21784.48
761.08	21713.75
761.417	21578.84
761.754	21514.66
762.091	21436.7
762.428	21362.8
762.765	21247.77
763.102	21268.34
763.438	21136.59
763.775	21031.28
764.112	21157.38
764.449	21205.52
764.785	20896.37
765.122	20835.36
765.458	20775.47
765.795	20793.32
766.131	20767.79
766.467	20630.62
766.804	20580.9
767.14	20478.3
767.476	20461.58
767.812	20376.16
768.148	20355.82
768.485	20287.12
768.821	20192.66
769.157	20169.84
769.492	20063.17
769.828	20046.9
770.164	19807.13
770.5	19807.13
770.836	19836.51
771.171	19682.17
771.507	19691.88
771.842	19497.99
772.178	19561.27
772.513	19462.74
772.849	19410.31
773.184	19360.37
773.519	19314.94
773.855	19186.59
774.19	19137.1
774.525	19040.15
774.86	18993.82
775.195	18968.96
775.53	18875.86
775.865	18758.8
776.2	18621.4
776.535	18526.72
776.87	18551.57
777.205	18463.89
777.539	18424.57
777.874	18491.01
778.209	18227.97
778.543	18277.23
778.878	18138.7
779.212	18125.14
779.547	18073.39
779.881	18091.7
780.215	17870.69
780.55	18007.86
780.884	17784.81
781.218	17801.54
781.552	17766.74
781.886	17547.98
782.22	17474.54
782.554	17535.33
782.888	17353.87
783.222	17308.44
783.556	17327.43
783.889	17156.81
784.223	17055.12
784.557	17030.71
784.89	17043.59
785.224	16892.18
785.557	16890.38
785.891	16845.63
786.224	16732.87
786.558	16767.21
786.891	16567.22
787.224	16570.38
787.557	16483.15
787.891	16529.71
788.224	16432.53
788.557	16432.99
788.89	16266.44
789.223	16310.05
789.556	16154.35
789.888	16207.91
790.221	16056.72
790.554	16021.47
790.887	15971.98
791.219	15946.67
791.552	15825.77
791.884	15778.77
792.217	15781.48
792.549	15717.3
792.882	15574.48
793.214	15555.72
793.546	15530.18
793.879	15424.42
794.211	15332
794.543	15466.91
794.875	15362.51
795.207	15382.62
795.539	15311.21
795.871	15246.12
796.203	15149.18
796.535	15053.59
796.867	15075.51
797.198	15023.08
797.53	15010.42
797.862	14879.13
798.193	14941.05
798.525	14740.15
798.856	14840.26
799.188	14667.83
799.519	14581.96
799.85	14616.08
800.182	14607.5
800.513	14547.16
800.844	14379.25
801.175	14524.34
801.506	14483.21
801.837	14357.11
802.168	14336.77
802.499	14246.83
802.83	14149.43
803.161	14196.89
803.491	14091.13
803.822	14118.02
804.153	14048.19
804.483	13901.98
804.814	13975.42
805.145	13830.34
805.475	13925.71
805.805	13853.17
806.136	13783.56
806.466	13751.25
806.796	13726.16
807.126	13657.47
807.457	13656.79
807.787	13668.31
808.117	13545.83
808.447	13540.41
808.777	13485.49
809.107	13440.07
809.436	13368.21
809.766	13423.8
810.096	13343.12
810.426	13242.79
810.755	13349
811.085	13339.51
811.414	13279.62
811.744	13151.04
812.073	13106.29
812.403	13131.83
812.732	12989.69
813.061	13025.84
813.39	13008.67
813.719	12848.9
814.049	12942.91
814.378	12904.49
814.707	12835.34
815.036	12822.69
815.365	12769.81
815.693	12687.32
816.022	12620.88
816.351	12697.04
816.68	12626.08
817.008	12627.66
817.337	12483.49
817.665	12442.36
817.994	12525.97
818.322	12545.63
818.651	12462.24
818.979	12382.02
819.307	12422.24
819.636	12398.74
819.964	12297.5
820.292	12345.86
820.62	12314.45
820.948	12285.98
821.276	12297.73
821.604	12259.76
821.932	12279.87
822.259	12232.42
822.587	12304.73
822.915	12218.63
823.243	12268.8
823.57	12202.59
823.898	12211.4
824.225	12172.76
824.553	12248.46
824.88	12180.22
825.207	12250.5
825.535	12238.07
825.862	12255.47
826.189	12185.64
826.516	12233.77
826.843	12242.59
827.17	12243.27
827.497	12260.89
827.824	12241.23
828.151	12229.93
828.478	12205.98
828.805	12240.1
829.131	12190.16
829.458	12190.61
829.785	12190.61
830.111	12168.47
830.438	12166.66
830.764	12192.65
831.09	12172.76
831.417	12118.3
831.743	12157.62
832.069	12216.15
832.395	12140.67
832.722	12119.43
833.048	12137.28
833.374	12097.96
833.7	12094.34
834.026	12024.74
834.351	12041.46
834.677	12069.26
835.003	11997.85
835.329	12029.26
835.654	12030.62
835.98	11999.43
836.306	11983.84
836.631	11905.2
836.956	11848.02
837.282	11950.84
837.607	11856.84
837.932	11857.97
838.258	11870.62
838.583	11771.41
838.908	11739.1
839.233	11787.23
839.558	11777.52
839.883	11745.88
840.208	11696.61
840.533	11653.22
840.858	11736.84
841.182	11721.25
841.507	11711.75
841.832	11554.7
842.156	11675.82
842.481	11577.97
842.805	11540.69
843.13	11498.2
843.454	11501.36
843.778	11478.31
844.103	11408.03
844.427	11367.81
844.751	11347.92
845.075	11329.39
845.399	11320.58
845.723	11258.43
846.047	11238.55
846.371	11149.74
846.695	11220.24
847.019	11163.97
847.343	11055.27
847.666	11005.78
847.99	10930.76
848.313	10948.61
848.637	10865.45
848.96	10894.6
849.284	10736.19
849.607	10743.64
849.931	10738.22
850.254	10684.89
850.577	10618.68
850.9	10510.43
851.223	10542.29
851.546	10504.78
851.869	10372.35
852.192	10430.43
852.515	10291.9
852.838	10351.34
853.161	10322.86
853.483	10210.78
853.806	10162.19
854.129	10138.01
854.451	10145.69
854.774	10098.01
855.096	10001.52
855.419	10094.62
855.741	9980.95
856.063	9912.48
856.385	9951.8
856.708	9977.79
857.03	9944.57
857.352	9907.28
857.674	9850.33
857.996	9786.83
858.318	9769.43
858.64	9742.99
858.961	9759.49
859.283	9721.98
859.605	9604.69
859.926	9649.66
860.248	9586.61
860.57	9623.45
860.891	9633.39
861.212	9573.51
861.534	9568.53
861.855	9446.95
862.176	9463.23
862.498	9533.73
862.819	9511.59
863.14	9399.05
863.461	9426.62
863.782	9380.06
864.103	9390.46
864.424	9378.03
864.745	9359.73
865.065	9258.94
865.386	9316.79
865.707	9340.97
866.027	9274.53
866.348	9236.34
866.668	9284.25
866.989	9201.09
867.309	9176.45
867.63	9170.58
867.95	9115.66
868.27	9125.16
868.59	9122.22
868.91	9162.44
869.23	9079.51
869.55	9109.34
869.87	9069.11
870.19	9037.02
870.51	9113.86
870.83	9059.62
871.15	9098.94
871.469	8978.94
871.789	9107.08
872.109	9021.66
872.428	8899.85
872.748	8981.2
873.067	8945.05
873.386	8921.77
873.706	8894.88
874.025	8879.51
874.344	8797.71
874.663	8909.34
874.982	8884.71
875.301	8865.05
875.62	8779.85
875.939	8818.04
876.258	8746.41
876.577	8730.82
876.896	8743.47
877.214	8665.96
877.533	8729.69
877.852	8720.19
878.17	8717.03
878.489	8775.56
878.807	8716.13
879.125	8669.57
879.444	8676.35
879.762	8610.59
880.08	8649.01
880.398	8517.94
880.716	8537.15
881.034	8522.69
881.352	8602.46
881.67	8487.88
881.988	8481.78
882.306	8520.43
882.624	8484.04
882.941	8423.93
883.259	8392.29
883.577	8419.86
883.894	8438.62
884.212	8365.4
884.529	8388.23
884.846	8424.83
885.164	8353.2
885.481	8327.66
885.798	8327.44
886.115	8256.03
886.432	8257.16
886.75	8213.32
887.067	8233.65
887.383	8196.59
887.7	8180.77
888.017	8090.83
888.334	8159.31
888.651	8060.78
888.967	8112.53
889.284	8037.05
889.6	8004.51
889.917	7989.82
890.233	8016.71
890.55	8028.24
890.866	7972.42
891.182	7960.21
891.498	7970.38
891.815	7872.53
892.131	7849.71
892.447	7854.23
892.763	7795.25
893.079	7732.2
893.395	7781.91
893.71	7724.74
894.026	7722.93
894.342	7661.24
894.657	7645.42
894.973	7660.34
895.289	7595.93
895.604	7653.78
895.92	7485.88
896.235	7430.51
896.55	7548.02
896.865	7479.32
897.181	7534.69
897.496	7482.94
897.811	7373.56
898.126	7349.83
898.441	7350.74
898.756	7291.08
899.071	7261.48
899.386	7268.03
899.7	7257.18
900.015	7263.06
900.33	7127.47
900.644	7148.26
900.959	7143.06
901.273	7168.14
901.588	7121.37
901.902	7068.49
902.216	7041.82
902.531	7034.59
902.845	7012.22
903.159	7013.12
903.473	6915.04
903.787	6889.96
904.101	6837.08
904.415	6890.19
904.729	6891.09
905.042	6816.97
905.356	6787.36
905.67	6788.27
905.984	6796.86
906.297	6746.01
906.611	6719.34
906.924	6714.15
907.237	6643.86
907.551	6601.83
907.864	6607.93
908.177	6633.92
908.491	6605.67
908.804	6512.79
909.117	6513.02
909.43	6469.41
909.743	6453.81
910.056	6438.45
910.368	6429.41
910.681	6410.42
910.994	6379.69
911.307	6300.82
911.619	6285.23
911.932	6356.19
912.244	6237.32
912.557	6241.39
912.869	6182.18
913.181	6225.12
913.494	6126.14
913.806	6115.07
914.118	6117.33
914.43	6008.85
914.742	6050.89
915.054	6030.55
915.366	5985.58
915.678	6046.14
915.99	5928.63
916.302	5898.8
916.613	5913.71
916.925	5894.96
917.236	5906.48
917.548	5846.6
917.859	5808.18
918.171	5785.81
918.482	5786.49
918.794	5754.85
919.105	5723.89
919.416	5661.74
919.727	5738.58
920.038	5646.83
920.349	5580.84
920.66	5620.84
920.971	5581.07
921.282	5566.61
921.593	5613.38
921.903	5503.1
922.214	5502.43
922.525	5461.75
922.835	5435.08
923.146	5400.06
923.456	5427.63
923.767	5407.06
924.077	5368.42
924.387	5304.01
924.697	5270.79
925.008	5327.29
925.318	5267.63
925.628	5285.26
925.938	5230.57
926.248	5185.37
926.558	5150.12
926.867	5158.03
927.177	5148.76
927.487	5162.55
927.796	5033.74
928.106	5051.82
928.416	5041.87
928.725	5045.04
929.034	4994.19
929.344	5008.43
929.653	4957.36
929.962	4935.21
930.271	4909.9
930.581	4911.48
930.89	4883.01
931.199	4827.64
931.508	4849.34
931.817	4869
932.125	4800.52
932.434	4823.35
932.743	4781.31
933.051	4720.75
933.36	4747.42
933.669	4720.98
933.977	4659.28
934.286	4642.79
934.594	4619.51
934.902	4614.77
935.21	4593.3
935.519	4594.65
935.827	4584.94
936.135	4519.17
936.443	4530.47
936.751	4559.17
937.059	4493.86
937.367	4476.46
937.674	4424.49
937.982	4445.5
938.29	4454.32
938.597	4432.4
938.905	4365.05
939.213	4366.64
939.52	4301.33
939.827	4324.15
940.135	4293.19
940.442	4297.49
940.749	4251.16
941.056	4277.6
941.363	4213.87
941.67	4166.87
941.977	4208.9
942.284	4209.58
942.591	4125.51
942.898	4139.52
943.205	4117.83
943.511	4070.37
943.818	4101.56
944.125	4063.37
944.431	4028.79
944.738	4030.6
945.044	4039.19
945.35	4023.59
945.657	3942.47
945.963	3967.78
946.269	3964.61
946.575	3921.9
946.881	3935.91
947.187	3930.04
947.493	3881.23
947.799	3883.94
948.105	3865.18
948.41	3859.08
948.716	3812.3
949.022	3827.89
949.327	3794
949.633	3722.13
949.938	3760.32
950.244	3765.75
950.549	3688.46
950.854	3696.82
951.16	3702.02
951.465	3659.08
951.77	3634
952.075	3628.58
952.38	3631.06
952.685	3613.44
952.99	3604.62
953.294	3596.94
953.599	3556.71
953.904	3568.47
954.209	3527.11
954.513	3525.75
954.818	3458.64
955.122	3469.71
955.426	3508.81
955.731	3470.84
956.035	3442.59
956.339	3484.85
956.643	3432.88
956.948	3376.38
957.252	3406.21
957.556	3386.32
957.86	3330.51
958.163	3372.09
958.467	3318.3
958.771	3300.9
959.075	3292.09
959.378	3282.82
959.682	3303.39
959.985	3290.51
960.289	3245.76
960.592	3254.58
960.896	3211.86
961.199	3249.38
961.502	3181.81
961.805	3164.63
962.108	3151.3
962.411	3153.34
962.714	3110.85
963.017	3119.44
963.32	3136.61
963.623	3019.78
963.926	3080.12
964.228	3079.21
964.531	3048.71
964.833	3073.11
965.136	2990.85
965.438	2992.66
965.741	3016.84
966.043	3000.34
966.345	2993.11
966.648	2956.5
966.95	2959.89
967.252	2948.14
967.554	2929.16
967.856	2933.68
968.158	2941.36
968.46	2904.53
968.761	2891.65
969.063	2869.5
969.365	2874.47
969.666	2871.53
969.968	2833.8
970.269	2807.36
970.571	2810.29
970.872	2777.75
971.174	2771.42
971.475	2776.62
971.776	2743.63
972.077	2742.95
972.378	2737.3
972.679	2726.23
972.98	2745.21
973.281	2733.69
973.582	2676.74
973.883	2670.86
974.183	2651.88
974.484	2667.02
974.785	2636.29
975.085	2669.05
975.386	2641.26
975.686	2618.21
975.986	2575.95
976.287	2608.49
976.587	2576.18
976.887	2540.24
977.187	2562.39
977.487	2551.77
977.787	2512.22
978.087	2490.98
978.387	2517.65
978.687	2469.06
978.987	2498.44
979.286	2496.4
979.586	2450.08
979.885	2443.3
980.185	2435.39
980.484	2440.81
980.784	2401.26
981.083	2424.99
981.382	2427.25
981.682	2394.03
981.981	2369.63
982.28	2397.65
982.579	2373.69
982.878	2360.81
983.177	2344.32
983.475	2301.38
983.774	2333.92
984.073	2319.01
984.372	2319.46
984.67	2281.04
984.969	2302.51
985.267	2289.4
985.566	2272.68
985.864	2274.26
986.162	2231.33
986.461	2242.62
986.759	2227.26
987.057	2220.7
987.355	2196.52
987.653	2192.91
987.951	2177.99
988.249	2154.94
988.547	2179.58
988.844	2167.82
989.142	2146.36
989.44	2125.79
989.737	2145.45
990.035	2117.88
990.332	2134.83
990.63	2105.23
990.927	2080.37
991.224	2088.05
991.521	2081.05
991.819	2057.09
992.116	2071.1
992.413	2051.67
992.71	2010.09
993.006	2029.07
993.303	2025.23
993.6	2018.22
993.897	1990.43
994.193	1997.21
994.49	2013.7
994.787	1977.32
995.083	1939.13
995.379	1963.08
995.676	1939.81
995.972	1947.94
996.268	1932.8
996.565	1906.81
996.861	1901.84
997.157	1891.9
997.453	1913.14
997.749	1907.04
998.044	1872.69
998.34	1879.02
998.636	1865.46
998.932	1857.1
999.227	1841.28
999.523	1790.66
999.818	1803.54
1000.114	1794.73
1000.409	1781.85
1000.704	1771.22
1001	1761.28
1001.295	1742.3
1001.59	1757.44
1001.885	1761.73
1002.18	1708.4
1002.475	1748.4
1002.77	1733.71
1003.065	1713.82
1003.359	1725.58
1003.654	1684.22
1003.949	1684
1004.243	1681.96
1004.538	1644.45
1004.832	1662.07
1005.127	1684.45
1005.421	1625.47
1005.715	1637.22
1006.009	1596.09
1006.304	1604.22
1006.598	1612.13
1006.892	1627.27
1007.186	1573.49
1007.48	1590.44
1007.773	1583.43
1008.067	1585.24
1008.361	1556.09
1008.655	1521.74
1008.948	1545.24
1009.242	1555.19
1009.535	1533.94
1009.829	1512.93
1010.122	1490.78
1010.415	1479.25
1010.708	1481.29
1011.001	1516.32
1011.295	1466.83
1011.588	1478.12
1011.881	1454.85
1012.173	1454.4
1012.466	1426.6
1012.759	1443.1
1013.052	1454.62
1013.344	1435.87
1013.637	1415.53
1013.93	1419.14
1014.222	1399.26
1014.514	1390.67
1014.807	1375.75
1015.099	1377.79
1015.391	1367.85
1015.683	1361.74
1015.976	1356.77
1016.268	1351.57
1016.56	1313.16
1016.851	1310.67
1017.143	1341.41
1017.435	1309.54
1017.727	1288.3
1018.018	1286.27
1018.31	1318.36
1018.602	1267.06
1018.893	1258.7
1019.185	1279.94
1019.476	1242.65
1019.767	1251.24
1020.058	1246.94
1020.35	1234.97
1020.641	1205.36
1020.932	1208.08
1021.223	1204.46
1021.514	1249.43
1021.804	1230.45
1022.095	1168.3
1022.386	1169.43
1022.677	1202.65
1022.967	1155.87
1023.258	1166.49
1023.548	1152.71
1023.839	1134.86
1024.129	1145.93
1024.419	1137.57
1024.709	1100.28
1025	1127.17
1025.29	1132.15
1025.58	1100.96
1025.87	1108.19
1026.16	1086.27
1026.449	1081.53
1026.739	1081.07
1027.029	1084.91
1027.319	1074.29
1027.608	1058.25
1027.898	1032.04
1028.187	1034.75
1028.477	1049.89
1028.766	1017.35
1029.055	1036.55
1029.344	1002.66
1029.634	995.88
1029.923	1011.24
1030.212	997.69
1030.501	998.59
1030.79	1001.75
1031.078	996.33
1031.367	980.51
1031.656	965.37
1031.945	981.41
1032.233	956.78
1032.522	945.26
1032.81	954.97
1033.099	933.28
1033.387	950.46
1033.675	921.53
1033.963	938.93
1034.251	931.47
1034.54	933.51
1034.828	917.24
1035.116	917.24
1035.403	884.02
1035.691	917.24
1035.979	863.45
1036.267	876.78
1036.554	867.75
1036.842	873.62
1037.129	850.12
1037.417	870.91
1037.704	830.68
1037.992	856.67
1038.279	860.06
1038.566	840.4
1038.853	840.4
1039.14	840.4
