Data from hue_260_FLMS001491_00081.txt Node
Date: Tue Feb 07 15:59:42 GMT 2017
User: dcchb
Spectrometer: FLMS00149
Trigger mode: 0
Integration Time (sec): 2.000000E-2
Scans to average: 10
Electric dark correction enabled: true
Nonlinearity correction enabled: false
Boxcar width: 0
XAxis mode: Wavelengths
Number of Pixels in Spectrum: 2048
>>>>>Begin Spectral Data<<<<<
341.393	-21.93
341.776	-21.93
342.16	-21.93
342.543	-51.99
342.927	-57.87
343.31	-88.37
343.693	-60.8
344.077	-59.67
344.46	-53.35
344.843	-64.42
345.226	-60.58
345.61	-26.68
345.993	-14.03
346.376	-13.12
346.759	13.32
347.142	37.95
347.525	27.56
347.908	70.49
348.291	64.62
348.674	102.36
349.057	124.73
349.44	124.5
349.823	133.99
350.206	154.11
350.588	197.04
350.971	200.88
351.354	221.22
351.737	247.66
352.119	262.35
352.502	260.32
352.884	251.96
353.267	277.49
353.65	288.34
354.032	303.25
354.414	303.93
354.797	289.7
355.179	310.71
355.562	314.1
355.944	299.64
356.326	329.24
356.709	323.59
357.091	320.2
357.473	326.76
357.855	319.75
358.238	328.56
358.62	334.89
359.002	329.24
359.384	337.6
359.766	334.67
360.148	332.63
360.53	325.85
360.912	331.5
361.294	324.27
361.676	331.95
362.057	321.79
362.439	332.86
362.821	318.4
363.203	316.81
363.584	315.68
363.966	304.84
364.348	307.77
364.729	325.85
365.111	320.43
365.493	306.19
365.874	309.81
366.256	285.85
366.637	301.22
367.019	310.03
367.4	300.09
367.781	295.12
368.163	292.18
368.544	300.32
368.925	308.68
369.306	314.55
369.688	301.67
370.069	293.99
370.45	308
370.831	299.19
371.212	305.06
371.593	314.55
371.974	314.55
372.355	310.03
372.736	297.83
373.117	304.84
373.498	309.81
373.879	315.23
374.26	312.07
374.641	294.89
375.021	317.27
375.402	308
375.783	300.32
376.163	316.59
376.544	316.14
376.925	330.15
377.305	314.55
377.686	311.16
378.066	301.45
378.447	322.92
378.827	325.18
379.208	305.74
379.588	331.05
379.968	324.27
380.349	309.13
380.729	325.4
381.109	329.92
381.489	337.38
381.87	331.5
382.25	315.23
382.63	316.81
383.01	338.51
383.39	342.8
383.77	357.04
384.15	338.06
384.53	344.61
384.91	345.74
385.29	318.17
385.67	335.12
386.049	339.41
386.429	325.63
386.809	345.97
387.189	349.36
387.568	356.36
387.948	348.9
388.328	356.13
388.707	369.47
389.087	345.51
389.466	351.84
389.846	348.68
390.225	355.91
390.605	381.22
390.984	353.2
391.363	353.2
391.743	363.82
392.122	354.33
392.501	362.01
392.881	361.56
393.26	369.69
393.639	386.42
394.018	378.28
394.397	371.5
394.776	392.07
395.155	372.41
395.534	391.84
395.913	380.99
396.292	390.26
396.671	379.64
397.05	390.94
397.429	405.17
397.808	392.07
398.186	388.68
398.565	402.24
398.944	403.14
399.323	404.95
399.701	398.17
400.08	390.26
400.458	416.92
400.837	437.26
401.215	407.66
401.594	418.96
401.972	411.27
402.351	408.11
402.729	428
403.107	428.68
403.486	427.09
403.864	421.22
404.242	428.68
404.62	435.45
404.999	445.17
405.377	457.37
405.755	457.37
406.133	461.22
406.511	452.86
406.889	471.16
407.267	455.34
407.645	466.41
408.023	489.92
408.401	460.76
408.779	486.07
409.156	508.22
409.534	482.91
409.912	499.18
410.29	518.62
410.667	523.36
411.045	526.98
411.422	513.19
411.8	547.77
412.178	550.03
412.555	555.45
412.933	542.12
413.31	550.03
413.687	575.56
414.065	560.65
414.442	572.85
414.819	579.41
415.197	582.8
415.574	586.19
415.951	613.3
416.328	608.11
416.705	616.92
417.082	624.38
417.46	627.99
417.837	641.32
418.214	642.68
418.591	658.05
418.967	652.85
419.344	667.31
419.721	664.83
420.098	670.25
420.475	675.67
420.852	704.83
421.228	716.58
421.605	696.92
421.982	730.59
422.358	741.21
422.735	763.58
423.111	765.84
423.488	775.11
423.864	763.58
424.241	787.31
424.617	797.25
424.994	811.72
425.37	805.16
425.746	826.63
426.123	823.02
426.499	869.34
426.875	869.79
427.251	853.97
427.627	885.16
428.003	880.87
428.379	899.17
428.756	898.72
429.132	909.57
429.507	921.32
429.883	917.02
430.259	956.34
430.635	961.99
431.011	965.16
431.387	973.07
431.763	988.89
432.138	1001.54
432.514	1021.65
432.89	1020.07
433.265	1079.05
433.641	1079.05
434.016	1078.38
434.392	1092.84
434.767	1154.31
435.143	1148.66
435.518	1159.05
435.894	1163.35
436.269	1203.34
436.644	1191.82
437.02	1231.14
437.395	1255.32
437.77	1265.04
438.145	1293.74
438.52	1306.84
438.895	1314.75
439.271	1314.53
439.646	1341.87
440.021	1363.79
440.395	1395.88
440.77	1400.85
441.145	1396.11
441.52	1429.78
441.895	1434.98
442.27	1447.63
442.645	1455.09
443.019	1433.39
443.394	1485.37
443.769	1494.41
444.143	1498.7
444.518	1534.86
444.892	1517.01
445.267	1532.15
445.641	1577.8
446.016	1548.42
446.39	1576.67
446.764	1579.61
447.139	1553.39
447.513	1596.78
447.887	1598.36
448.262	1612.82
448.636	1627.97
449.01	1635.88
449.384	1691.01
449.758	1682.2
450.132	1653.95
450.506	1711.13
450.88	1709.32
451.254	1731.24
451.628	1727.62
452.002	1774.85
452.376	1762.88
452.75	1792.71
453.123	1815.08
453.497	1821.41
453.871	1820.95
454.244	1862.31
454.618	1868.19
454.992	1877
455.365	1894.63
455.739	1931.91
456.112	1966.71
456.486	1898.47
456.859	1985.02
457.232	2012.59
457.606	1998.13
457.979	2048.75
458.352	2088.07
458.725	2074.28
459.099	2090.78
459.472	2162.64
459.845	2146.14
460.218	2182.98
460.591	2199.25
460.964	2210.1
461.337	2248.51
461.71	2302.07
462.083	2293.48
462.456	2298.91
462.829	2320.6
463.201	2328.96
463.574	2370.32
463.947	2355.18
464.32	2432.69
464.692	2469.3
465.065	2489.64
465.438	2512.24
465.81	2531.22
466.183	2549.07
466.555	2620.48
466.928	2643.31
467.3	2603.76
467.672	2673.81
468.045	2718.56
468.417	2712.68
468.789	2794.49
469.161	2756.75
469.534	2813.02
469.906	2888.27
470.278	2871.55
470.65	2905.45
471.022	2985.67
471.394	2986.35
471.766	3036.29
472.138	3079
472.51	3111.99
472.882	3136.63
473.253	3163.97
473.625	3211.2
473.997	3270.41
474.369	3271.54
474.74	3322.16
475.112	3369.39
475.484	3409.16
475.855	3458.88
476.227	3480.35
476.598	3549.27
476.97	3627.01
477.341	3673.79
477.713	3715.14
478.084	3715.37
478.455	3815.03
478.827	3857.74
479.198	3978.86
479.569	3972.31
479.94	4029.48
480.311	4079.65
480.682	4145.41
481.053	4220.44
481.424	4229.03
481.795	4316.03
482.166	4346.54
482.537	4399.87
482.908	4488.68
483.279	4479.42
483.65	4589.47
484.021	4708.34
484.391	4708.34
484.762	4735.68
485.133	4783.59
485.503	4831.95
485.874	4883.47
486.244	4975.45
486.615	5079.4
486.985	5078.5
487.356	5143.35
487.726	5187.65
488.097	5273.07
488.467	5305.61
488.837	5382.9
489.207	5441.88
489.578	5486.62
489.948	5535.43
490.318	5584.47
490.688	5607.07
491.058	5703.34
491.428	5732.26
491.798	5786.27
492.168	5853.84
492.538	5896.55
492.908	5993.73
493.278	6037.12
493.648	6038.92
494.017	6093.84
494.387	6106.27
494.757	6131.58
495.126	6265.81
495.496	6267.17
495.866	6234.17
496.235	6309.65
496.605	6339.71
496.974	6379.93
497.344	6452.47
497.713	6494.5
498.082	6505.8
498.452	6578.57
498.821	6576.76
499.19	6603.43
499.559	6671
499.928	6655.86
500.298	6705.35
500.667	6726.36
501.036	6706.7
501.405	6823.99
501.774	6820.6
502.143	6871.9
502.512	6880.71
502.88	6890.2
503.249	6936.98
503.618	6943.98
503.987	6958
504.356	6981.05
504.724	7002.97
505.093	7004.32
505.462	7057.88
505.83	7059.46
506.199	7092
506.567	7137.43
506.936	7132.91
507.304	7207.48
507.672	7230.76
508.041	7197.08
508.409	7265.56
508.777	7294.48
509.145	7349.62
509.514	7345.56
509.882	7377.64
510.25	7336.52
510.618	7419.68
510.986	7478.66
511.354	7421.26
511.722	7523.86
512.09	7578.09
512.458	7533.12
512.826	7570.18
513.193	7570.63
513.561	7560.47
513.929	7677.52
514.297	7735.83
514.664	7647.69
515.032	7703.51
515.4	7724.75
515.767	7788.48
516.135	7740.35
516.502	7696.28
516.869	7823.06
517.237	7770.4
517.604	7760.69
517.972	7856.95
518.339	7835.71
518.706	7847.01
519.073	7821.48
519.44	7872.1
519.808	7962.94
520.175	7857.41
520.542	7985.99
520.909	7995.48
521.276	7977.86
521.643	8002.71
522.009	8035.25
522.376	8084.07
522.743	8105.08
523.11	8094.91
523.477	8193.89
523.843	8171.75
524.21	8249.03
524.577	8189.6
524.943	8234.12
525.31	8244.51
525.676	8346.21
526.043	8295.81
526.409	8334.46
526.776	8429.59
527.142	8374.23
527.508	8411.29
527.874	8412.65
528.241	8494.45
528.607	8465.75
528.973	8486.09
529.339	8439.76
529.705	8488.35
530.071	8505.52
530.437	8565.64
530.803	8540.1
531.169	8562.47
531.535	8531.74
531.901	8558.18
532.267	8532.19
532.632	8564.96
532.998	8538.52
533.364	8568.8
533.73	8601.12
534.095	8665.29
534.461	8636.14
534.826	8618.29
535.192	8636.82
535.557	8689.47
535.923	8533.32
536.288	8714.78
536.653	8597.95
537.019	8544.62
537.384	8629.36
537.749	8615.8
538.114	8632.53
538.479	8678.4
538.845	8630.95
539.21	8642.02
539.575	8584.62
539.94	8626.2
540.305	8675.92
540.67	8684.73
541.034	8635.92
541.399	8660.1
541.764	8709.81
542.129	8631.4
542.494	8620.32
542.858	8664.62
543.223	8520.89
543.587	8586.88
543.952	8560.21
544.316	8669.36
544.681	8600.66
545.045	8560.21
545.41	8616.71
545.774	8576.26
546.138	8637.27
546.503	8591.62
546.867	8593.43
547.231	8624.84
547.595	8591.17
547.959	8562.25
548.324	8571.51
548.688	8573.09
549.052	8564.05
549.416	8558.4
549.779	8573.09
550.143	8590.95
550.507	8621.68
550.871	8577.84
551.235	8521.57
551.599	8543.94
551.962	8602.25
552.326	8512.08
552.689	8604.73
553.053	8599.99
553.417	8553.21
553.78	8623.94
554.143	8558.63
554.507	8577.16
554.87	8567.9
555.234	8676.14
555.597	8598.63
555.96	8580.1
556.323	8601.79
556.686	8656.03
557.05	8642.47
557.413	8598.18
557.776	8657.84
558.139	8616.48
558.502	8698.97
558.865	8673.88
559.228	8631.85
559.59	8731.96
559.953	8665.52
560.316	8792.07
560.679	8725.86
561.041	8750.94
561.404	8804.27
561.767	8807.21
562.129	8762.47
562.492	8864.39
562.854	8852.18
563.217	8825.52
563.579	8868.23
563.941	8924.95
564.304	8964.04
564.666	8920.43
565.028	8951.16
565.39	8903.25
565.753	9006.75
566.115	9010.14
566.477	9022.57
566.839	9022.8
567.201	9093.08
567.563	9138.73
567.925	9144.83
568.287	9129.01
568.648	9131.27
569.01	9228.67
569.372	9229.12
569.734	9242.68
570.095	9286.75
570.457	9232.74
570.819	9337.82
571.18	9257.37
571.542	9387.99
571.903	9376.91
572.265	9318.38
572.626	9387.99
572.987	9344.82
573.349	9383.47
573.71	9480.41
574.071	9488.32
574.432	9514.76
574.794	9579.17
575.155	9555.67
575.516	9540.53
575.877	9598.83
576.238	9622.56
576.599	9656.46
576.96	9628.89
577.32	9739.16
577.681	9689
578.042	9750.01
578.403	9728.54
578.763	9760.41
579.124	9768.77
579.485	9792.95
579.845	9826.85
580.206	9803.57
580.566	9839.28
580.927	9864.13
581.287	9873.17
581.648	9879.73
582.008	9956.11
582.368	9964.7
582.728	9960.18
583.089	9953.17
583.449	9968.09
583.809	9954.75
584.169	10049.89
584.529	10003.56
584.889	10086.73
585.249	10046.73
585.609	10015.09
585.969	10100.51
586.329	10034.3
586.688	10096.9
587.048	10137.8
587.408	10079.95
587.768	10076.11
588.127	10099.16
588.487	10119.27
588.846	10212.37
589.206	10154.3
589.565	10211.02
589.925	10212.37
590.284	10224.58
590.643	10204.46
591.003	10223.67
591.362	10336.21
591.721	10248.3
592.08	10269.09
592.44	10261.18
592.799	10314.29
593.158	10316.55
593.517	10317.23
593.876	10293.73
594.235	10351.13
594.593	10341.86
594.952	10346.61
595.311	10325.14
595.67	10351.35
596.029	10425.7
596.387	10397.45
596.746	10443.33
597.104	10350.45
597.463	10438.58
597.822	10436.77
598.18	10376.44
598.538	10407.62
598.897	10443.55
599.255	10386.15
599.613	10472.03
599.972	10456.89
600.33	10500.05
600.688	10553.83
601.046	10503.66
601.404	10520.84
601.762	10511.12
602.12	10562.19
602.478	10549.09
602.836	10609.42
603.194	10579.37
603.552	10587.28
603.91	10577.33
604.268	10555.64
604.625	10491.24
604.983	10651.68
605.341	10477
605.698	10564.91
606.056	10646.71
606.413	10652.59
606.771	10571.01
607.128	10582.53
607.485	10534.17
607.843	10524.23
608.2	10635.64
608.557	10675.41
608.914	10623.21
609.272	10683.09
609.629	10724.45
609.986	10750.66
610.343	10606.49
610.7	10827.5
611.057	10687.61
611.414	10742.53
611.771	10745.92
612.127	10810.78
612.484	10753.38
612.841	10805.35
613.198	10727.84
613.554	10719.25
613.911	10839.02
614.267	10786.37
614.624	10792.7
614.98	10745.47
615.337	10857.1
615.693	10831.57
616.05	10843.32
616.406	10891.22
616.762	10783.88
617.118	10894.61
617.475	10894.84
617.831	10895.52
618.187	10866.37
618.543	10956.08
618.899	10947.27
619.255	10918.57
619.611	11049.41
619.967	10928.74
620.323	11046.93
620.678	10946.82
621.034	10933.26
621.39	10930.55
621.746	10940.94
622.101	11060.26
622.457	10989.3
622.812	10938.91
623.168	11009.64
623.523	10994.5
623.879	10985.23
624.234	10974.39
624.589	10980.71
624.945	10977.1
625.3	10999.47
625.655	10956.08
626.01	10952.69
626.365	10977.55
626.72	10996.98
627.075	10978
627.43	10949.53
627.785	10985.91
628.14	10921.28
628.495	10967.83
628.85	10920.83
629.205	10911.56
629.559	10945.23
629.914	10884.22
630.269	10839.93
630.623	10821.62
630.978	10819.14
631.332	10904.33
631.687	10881.73
632.041	10827.72
632.396	10864.56
632.75	10786.59
633.104	10811.68
633.459	10816.2
633.813	10795.63
634.167	10765.13
634.521	10710.44
634.875	10817.33
635.229	10722.87
635.583	10684.68
635.937	10714.05
636.291	10668.86
636.645	10726.94
636.999	10590.22
637.352	10659.59
637.706	10670.89
638.06	10643.55
638.413	10617.33
638.767	10516.77
639.121	10620.05
639.474	10564.68
639.828	10516.32
640.181	10627.96
640.534	10534.62
640.888	10493.5
641.241	10505.47
641.594	10493.72
641.947	10552.48
642.301	10470.67
642.654	10523.1
643.007	10515.64
643.36	10505.47
643.713	10439.71
644.066	10462.31
644.419	10433.84
644.771	10393.38
645.124	10271.58
645.477	10271.81
645.83	10246.95
646.182	10161.3
646.535	10152.49
646.888	10157.91
647.24	10031.13
647.593	10161.53
647.945	10096.67
648.298	10025.71
648.65	9948.42
649.002	9995.2
649.355	10093.51
649.707	10089.89
650.059	10171.02
650.411	10239.26
650.763	10224.12
651.115	10340.96
651.467	10270.68
651.819	10315.19
652.171	10249.89
652.523	10239.49
652.875	10222.99
653.227	10229.55
653.578	10330.11
653.93	10316.1
654.282	10260.51
654.633	10280.85
654.985	10245.14
655.337	10194.07
655.688	10199.72
656.039	10298.02
656.391	10205.59
656.742	10163.56
657.094	10261.41
657.445	10272.71
657.796	10241.52
658.147	10213.28
658.498	10163.79
658.849	10260.96
659.2	10208.76
659.551	10200.17
659.902	10265.7
660.253	10253.28
660.604	10264.12
660.955	10283.56
661.306	10237.23
661.656	10246.5
662.007	10251.69
662.358	10211.69
662.708	10249.21
663.059	10267.29
663.409	10211.47
663.76	10266.38
664.11	10371.01
664.461	10276.33
664.811	10285.82
665.161	10221.41
665.511	10241.3
665.862	10281.52
666.212	10257.8
666.562	10300.73
666.912	10220.73
667.262	10207.4
667.612	10239.49
667.962	10271.13
668.312	10145.03
668.662	10231.36
669.011	10231.36
669.361	10177.8
669.711	10180.28
670.06	10193.39
670.41	10129.44
670.76	10122.43
671.109	10209.66
671.459	10159.27
671.808	10171.24
672.157	10242.65
672.507	10070.68
672.856	10086.05
673.205	10068.65
673.554	10112.49
673.904	10082.21
674.253	10114.75
674.602	10154.97
674.951	9994.07
675.3	9900.97
675.649	10090.79
675.998	10035.43
676.346	10004.24
676.695	10107.74
677.044	10066.84
677.393	10059.38
677.741	10091.02
678.09	9965.37
678.438	9959.05
678.787	9939.61
679.135	9925.15
679.484	9956.33
679.832	9962.66
680.181	9886.28
680.529	9891.03
680.877	9922.89
681.225	9879.27
681.573	9985.94
681.922	9873.17
682.27	9834.3
682.618	9816.68
682.966	9800.86
683.314	9830.69
683.661	9832.72
684.009	9755.89
684.357	9697.13
684.705	9664.59
685.053	9733.06
685.4	9732.61
685.748	9618.49
686.095	9683.8
686.443	9608.32
686.79	9556.8
687.138	9660.3
687.485	9572.16
687.832	9479.96
688.18	9575.55
688.527	9504.37
688.874	9450.36
689.221	9434.77
689.568	9443.81
689.915	9409.68
690.262	9416.01
690.609	9304.15
690.956	9252.17
691.303	9209.46
691.65	9229.8
691.997	9258.27
692.344	9200.65
692.69	9141.21
693.037	9171.95
693.383	9066.87
693.73	9100.76
694.077	8982.35
694.423	9070.26
694.769	9009.92
695.116	8989.13
695.462	9022.12
695.808	8933.31
696.155	8905.51
696.501	8824.39
696.847	8836.59
697.193	8807.89
697.539	8769.47
697.885	8683.83
698.231	8672.3
698.577	8710.49
698.923	8692.64
699.269	8624.17
699.614	8583.04
699.96	8494.45
700.306	8583.71
700.651	8544.39
700.997	8471.18
701.342	8461.91
701.688	8392.31
702.033	8429.82
702.379	8380.33
702.724	8394.79
703.069	8405.87
703.415	8288.36
703.76	8287.68
704.105	8315.93
704.45	8247.45
704.795	8251.97
705.14	8245.87
705.485	8181.01
705.83	8139.43
706.175	8124.29
706.52	8106.67
706.865	8082.71
707.209	8006.1
707.554	8011.75
707.899	7982.37
708.243	7964.3
708.588	8003.17
708.932	7894.24
709.277	7915.03
709.621	7919.55
709.966	7878.87
710.31	7920.46
710.654	7732.66
710.998	7744.19
711.342	7744.42
711.687	7750.29
712.031	7727.92
712.375	7730.4
712.719	7715.94
713.063	7713.23
713.407	7674.81
713.75	7626.45
714.094	7681.37
714.438	7674.59
714.782	7619.45
715.125	7618.77
715.469	7602.05
715.812	7565.21
716.156	7566.79
716.499	7550.97
716.843	7546.45
717.186	7505.33
717.53	7509.84
717.873	7558.66
718.216	7465.78
718.559	7439.34
718.902	7432.33
719.246	7480.47
719.589	7383.29
719.932	7365.67
720.275	7435.72
720.617	7378.1
720.96	7346.23
721.303	7360.7
721.646	7368.15
721.989	7364.54
722.331	7403.86
722.674	7296.29
723.016	7369.51
723.359	7304.2
723.701	7298.33
724.044	7226.01
724.386	7234.82
724.729	7312.79
725.071	7247.25
725.413	7290.64
725.755	7238.44
726.097	7253.58
726.439	7148.5
726.782	7214.03
727.124	7266.24
727.465	7189.63
727.807	7219.68
728.149	7189.63
728.491	7159.57
728.833	7188.5
729.175	7159.12
729.516	7131.32
729.858	7106.92
730.199	7141.04
730.541	7125.22
730.882	7115.96
731.224	7153.02
731.565	7167.03
731.906	7155.28
732.248	7127.93
732.589	7137.88
732.93	7114.6
733.271	7101.49
733.612	7183.53
733.953	7161.15
734.294	7098.1
734.635	7084.55
734.976	7177.65
735.317	7141.72
735.658	7072.57
735.999	7105.56
736.339	7126.13
736.68	7168.84
737.021	7083.87
737.361	7102.85
737.702	7135.17
738.042	7098.78
738.383	7101.72
738.723	7101.04
739.063	7092.91
739.404	7175.39
739.744	7188.27
740.084	7107.82
740.424	7179.01
740.764	7119.57
741.104	7203.41
741.444	7207.48
741.784	7141.72
742.124	7225.11
742.464	7219.01
742.804	7223.07
743.143	7209.06
743.483	7252.9
743.823	7214.94
744.162	7331.77
744.502	7266.24
744.841	7256.07
745.181	7352.33
745.52	7324.09
745.86	7387.14
746.199	7335.61
746.538	7385.55
746.877	7404.99
747.216	7444.76
747.556	7520.24
747.895	7543.29
748.234	7533.35
748.573	7609.05
748.911	7691.99
749.25	7663.97
749.589	7681.59
749.928	7785.77
750.267	7878.2
750.605	7910.96
750.944	7958.65
751.283	7929.72
751.621	8015.37
751.96	8066.44
752.298	8175.59
752.636	8196.61
752.975	8232.54
753.313	8296.26
753.651	8431.85
753.989	8524.96
754.327	8536.03
754.666	8663.03
755.004	8760.43
755.342	8745.52
755.679	8978.28
756.017	8970.82
756.355	9081.33
756.693	9197.94
757.031	9405.61
757.368	9445.39
757.706	9541.43
758.044	9648.32
758.381	9724.7
758.719	9830.24
759.056	10043.11
759.394	10024.81
759.731	10222.99
760.068	10319.71
760.405	10398.13
760.743	10545.25
761.08	10701.85
761.417	10806.48
761.754	10917.44
762.091	10998.34
762.428	11113.37
762.765	11329.18
763.102	11441.27
763.438	11571.88
763.775	11702.73
764.112	11766.46
764.449	11906.57
764.785	11968.26
765.122	12042.16
765.458	12222.94
765.795	12297.97
766.131	12431.75
766.467	12516.04
766.804	12617.96
767.14	12659.99
767.476	12829.48
767.812	12902.7
768.148	13059.98
768.485	13161.9
768.821	13221.11
769.157	13282.57
769.492	13375.45
769.828	13449.58
770.164	13530.03
770.5	13531.83
770.836	13625.62
771.171	13742.68
771.507	13788.32
771.842	13762.56
772.178	13919.85
772.513	14035.32
772.849	14057.47
773.184	14092.95
773.519	14220.63
773.855	14246.62
774.19	14225.6
774.525	14278.48
774.86	14327.52
775.195	14461.07
775.53	14428.99
775.865	14479.38
776.2	14413.84
776.535	14478.48
776.87	14551.24
777.205	14552.6
777.539	14497.01
777.874	14610.22
778.209	14605.03
778.543	14575.65
778.878	14531.36
779.212	14660.39
779.547	14571.81
779.881	14657.45
780.215	14661.52
780.55	14707.4
780.884	14668.07
781.218	14703.55
781.552	14679.6
781.886	14646.38
782.22	14580.39
782.554	14613.39
782.888	14586.27
783.222	14595.31
783.556	14571.58
783.889	14568.87
784.223	14481.41
784.557	14521.64
784.89	14588.98
785.224	14501.53
785.557	14440.28
785.891	14527.06
786.224	14424.24
786.558	14567.96
786.891	14388.99
787.224	14398.7
787.557	14345.15
787.891	14346.28
788.224	14394.41
788.557	14472.37
788.89	14383.56
789.223	14367.52
789.556	14283.68
789.888	14319.38
790.221	14198.48
790.554	14180.4
790.887	14260.63
791.219	14223.11
791.552	14153.29
791.884	14178.82
792.217	14100.18
792.549	14068.54
792.882	14032.61
793.214	13926.4
793.546	14040.29
793.879	13894.08
794.211	13881.43
794.543	13974.53
794.875	13844.59
795.207	13911.71
795.539	13873.75
795.871	13846.18
796.203	13761.21
796.535	13697.03
796.867	13650.02
797.198	13731.6
797.53	13713.07
797.862	13591.27
798.193	13577.03
798.525	13525.28
798.856	13647.99
799.188	13464.94
799.519	13450.48
799.85	13405.06
800.182	13346.75
800.513	13395.11
800.844	13305.17
801.175	13359.41
801.506	13322.35
801.837	13260.88
802.168	13277.6
802.499	13219.07
802.83	13112.86
803.161	13108.12
803.491	13128.23
803.822	13126.42
804.153	13057.72
804.483	12929.14
804.814	12955.8
805.145	12956.03
805.475	12927.56
805.805	12905.64
806.136	12852.3
806.466	12809.59
806.796	12815.24
807.126	12784.96
807.457	12738.86
807.787	12686.88
808.117	12670.39
808.447	12636.04
808.777	12730.05
809.107	12543.38
809.436	12565.53
809.766	12590.16
810.096	12554.01
810.426	12464.29
810.755	12481.92
811.085	12452.54
811.414	12439.21
811.744	12403.05
812.073	12342.49
812.403	12331.41
812.732	12300
813.061	12323.73
813.39	12302.26
813.719	12214.81
814.049	12242.38
814.378	12234.24
814.707	12158.54
815.036	12114.47
815.365	12130.97
815.693	11946.56
816.022	11975.94
816.351	11986.11
816.68	11999.67
817.008	11977.75
817.337	11858.88
817.665	11887.58
817.994	11898.2
818.322	11862.05
818.651	11782.05
818.979	11812.78
819.307	11881.93
819.636	11741.37
819.964	11742.05
820.292	11775.72
820.62	11768.94
820.948	11658.66
821.276	11816.62
821.604	11710.19
821.932	11727.36
822.259	11752.9
822.587	11719.23
822.915	11683.75
823.243	11691.66
823.57	11726.01
823.898	11704.76
824.225	11655.27
824.553	11661.83
824.88	11689.17
825.207	11781.37
825.535	11730.3
825.862	11745.89
826.189	11634.93
826.516	11729.85
826.843	11749.73
827.17	11732.78
827.497	11784.08
827.824	11719.9
828.151	11793.8
828.478	11723.29
828.805	11764.2
829.131	11784.99
829.458	11700.47
829.785	11717.64
830.111	11732.78
830.438	11788.83
830.764	11755.61
831.09	11726.46
831.417	11685.33
831.743	11776.4
832.069	11727.36
832.395	11700.92
832.722	11775.27
833.048	11680.36
833.374	11674.26
833.7	11636.29
834.026	11617.08
834.351	11659.11
834.677	11672.9
835.003	11667.02
835.329	11679.23
835.654	11655.5
835.98	11559.46
836.306	11629.28
836.631	11503.19
836.956	11626.8
837.282	11508.16
837.607	11510.87
837.932	11516.07
838.258	11483.53
838.583	11470.87
838.908	11445.11
839.233	11457.76
839.558	11390.65
839.883	11366.24
840.208	11330.76
840.533	11331.21
840.858	11297.54
841.182	11417.99
841.507	11329.18
841.832	11245.79
842.156	11250.54
842.481	11246.92
842.805	11297.99
843.13	11126.92
843.454	11192.69
843.778	11148.62
844.103	11171.67
844.427	11080.37
844.751	11070.43
845.075	11037.44
845.399	11011.9
845.723	10883.54
846.047	10975.52
846.371	10872.47
846.695	10872.24
847.019	10792.7
847.343	10744.11
847.666	10719.93
847.99	10599.03
848.313	10613.94
848.637	10519.71
848.96	10580.72
849.284	10501.18
849.607	10485.13
849.931	10438.36
850.254	10334.86
850.577	10269.55
850.9	10238.59
851.223	10262.77
851.546	10218.25
851.869	10119.95
852.192	10233.84
852.515	10134.18
852.838	10086.27
853.161	10128.53
853.483	10015.32
853.806	10039.95
854.129	9915.88
854.451	9876.79
854.774	9910.23
855.096	9843.12
855.419	9813.97
855.741	9789.56
856.063	9754.08
856.385	9717.02
856.708	9721.09
857.03	9616
857.352	9637.7
857.674	9608.77
857.996	9576.23
858.318	9489.68
858.64	9543.92
858.961	9517.25
859.283	9465.5
859.605	9448.33
859.926	9501.43
860.248	9491.71
860.57	9476.35
860.891	9456.23
861.212	9348.21
861.534	9321.55
861.855	9306.41
862.176	9275.67
862.498	9324.49
862.819	9251.72
863.14	9263.02
863.461	9259.63
863.782	9272.28
864.103	9219.4
864.424	9145.73
864.745	9190.48
865.065	9174.89
865.386	9102.8
865.707	9090.59
866.027	9037.26
866.348	9079.75
866.668	9096.47
866.989	9115.68
867.309	8975.12
867.63	8980.09
867.95	9016.7
868.27	8933.31
868.59	8990.26
868.91	8924.72
869.23	8906.64
869.55	8920.2
869.87	8918.62
870.19	8917.27
870.51	8870.49
870.83	8903.03
871.15	8908.9
871.469	8860.32
871.789	8816.93
872.109	8853.31
872.428	8725.63
872.748	8754.11
873.067	8790.04
873.386	8820.54
873.706	8715.24
874.025	8718.63
874.344	8709.14
874.663	8698.74
874.982	8621.68
875.301	8691.96
875.62	8673.43
875.939	8576.26
876.258	8688.57
876.577	8628.46
876.896	8568.12
877.214	8559.53
877.533	8580.55
877.852	8580.33
878.17	8567.22
878.489	8565.41
878.807	8523.38
879.125	8570.16
879.444	8464.4
879.762	8412.87
880.08	8470.72
880.398	8444.06
880.716	8449.48
881.034	8355.47
881.352	8407.67
881.67	8386.43
881.988	8347.11
882.306	8356.38
882.624	8374.45
882.941	8269.37
883.259	8282.93
883.577	8266.66
883.894	8226.21
884.212	8204.74
884.529	8138.53
884.846	8189.15
885.164	8129.49
885.481	8186.21
885.798	8192.31
886.115	8055.59
886.432	8081.81
886.75	8101.24
887.067	8062.15
887.383	8022.83
887.7	8047.68
888.017	7947.8
888.334	7977.4
888.651	7958.87
888.967	7962.04
889.284	7955.26
889.6	7908.25
889.917	7827.58
890.233	7837.29
890.55	7795.71
890.866	7831.87
891.182	7765.21
891.498	7754.13
891.815	7695.15
892.131	7716.17
892.447	7635.27
892.763	7633.23
893.079	7660.58
893.395	7588.03
893.71	7596.4
894.026	7538.54
894.342	7570.63
894.657	7554.82
894.973	7552.33
895.289	7529.51
895.604	7510.52
895.92	7407.47
896.235	7445.67
896.55	7362.96
896.865	7372.22
897.181	7344.43
897.496	7287.03
897.811	7266.01
898.126	7254.71
898.441	7246.8
898.756	7189.63
899.071	7195.05
899.386	7196.18
899.7	7160.02
900.015	7080.03
900.33	7000.71
900.644	7028.73
900.959	7028.5
901.273	7010.65
901.588	6975.17
901.902	6950.09
902.216	6889.3
902.531	6920.03
902.845	6887.71
903.159	6856.08
903.473	6793.25
903.787	6775.85
904.101	6729.3
904.415	6752.8
904.729	6717.55
905.042	6660.83
905.356	6688.62
905.67	6629.42
905.984	6630.77
906.297	6607.27
906.611	6560.04
906.924	6556.88
907.237	6473.71
907.551	6485.92
907.864	6507.84
908.177	6397.56
908.491	6413.6
908.804	6368.41
909.117	6346.71
909.43	6322.08
909.743	6331.12
910.056	6322.76
910.368	6293.38
910.681	6266.26
910.994	6180.84
911.307	6240.95
911.619	6150.78
911.932	6137.9
912.244	6133.61
912.557	6111.01
912.869	6063.33
913.181	6097.9
913.494	6013.16
913.806	5979.26
914.118	5970.22
914.43	5913.05
914.742	5949.43
915.054	5893.39
915.366	5934.29
915.678	5852.26
915.99	5832.83
916.302	5838.7
916.613	5807.06
916.925	5746.28
917.236	5761.87
917.548	5742.89
917.859	5664.92
918.171	5650.91
918.482	5663.79
918.794	5646.84
919.105	5581.08
919.416	5574.53
919.727	5532.95
920.038	5541.08
920.349	5530.46
920.66	5482.33
920.971	5506.06
921.282	5462.67
921.593	5413.63
921.903	5377.92
922.214	5424.02
922.525	5386.96
922.835	5361.65
923.146	5287.76
923.456	5309.68
923.767	5237.14
924.077	5269
924.387	5241.43
924.697	5249.11
925.008	5154.88
925.318	5148.33
925.628	5148.78
925.938	5194.65
926.248	5085.28
926.558	5071.04
926.867	5064.03
927.177	4983.58
927.487	4996.46
927.796	4982.68
928.106	4958.95
928.416	4952.62
928.725	4927.54
929.034	4860.65
929.344	4931.83
929.653	4891.16
929.962	4852.06
930.271	4808.9
930.581	4781.1
930.89	4786.98
931.199	4737.94
931.508	4760.76
931.817	4774.32
932.125	4769.13
932.434	4710.82
932.743	4696.81
933.051	4633.76
933.36	4639.41
933.669	4600.99
933.977	4610.94
934.286	4617.72
934.594	4624.05
934.902	4570.94
935.21	4560.77
935.519	4512.41
935.827	4487.78
936.135	4458.63
936.443	4473.31
936.751	4439.19
937.059	4478.96
937.367	4435.35
937.674	4389.93
937.982	4377.27
938.29	4368.23
938.597	4382.7
938.905	4290.04
939.213	4282.13
939.52	4265.86
939.827	4333.66
940.135	4238.07
940.442	4226.32
940.749	4221.57
941.056	4225.41
941.363	4190.16
941.67	4141.57
941.977	4167.56
942.284	4130.95
942.591	4108.35
942.898	4087.11
943.205	4062.03
943.511	4055.7
943.818	4075.36
944.125	4036.94
944.431	3989.94
944.738	3973.67
945.044	3993.78
945.35	3978.19
945.657	3921.24
945.963	3911.97
946.269	3919.66
946.575	3874.01
946.881	3869.49
947.187	3870.39
947.493	3858.42
947.799	3825.87
948.105	3806.44
948.41	3798.3
948.716	3815.48
949.022	3776.61
949.327	3745.2
949.633	3677.63
949.938	3708.59
950.244	3704.52
950.549	3666.78
950.854	3681.02
951.16	3647.57
951.465	3636.5
951.77	3607.8
952.075	3615.71
952.38	3599.89
952.685	3609.83
952.99	3565.77
953.294	3522.38
953.599	3473.34
953.904	3518.99
954.209	3460.91
954.513	3513.34
954.818	3488.93
955.122	3400.12
955.426	3428.14
955.731	3438.54
956.035	3435.15
956.339	3391.08
956.643	3384.53
956.948	3396.05
957.252	3345.43
957.556	3314.7
957.86	3284.87
958.163	3347.24
958.467	3307.02
958.771	3294.14
959.075	3307.47
959.378	3276.51
959.682	3232.67
959.985	3241.26
960.289	3227.92
960.592	3226.34
960.896	3217.08
961.199	3163.97
961.502	3199.22
961.805	3135.95
962.108	3109.73
962.411	3118.32
962.714	3113.8
963.017	3095.5
963.32	3113.35
963.623	3077.65
963.926	3043.52
964.228	3040.13
964.531	3047.14
964.833	3013.24
965.136	2998.33
965.438	2970.08
965.741	2993.35
966.043	2952
966.345	2996.97
966.648	2960.13
966.95	2920.36
967.252	2923.3
967.554	2910.87
967.856	2905.45
968.158	2889.85
968.46	2871.55
968.761	2863.64
969.063	2858.67
969.365	2820.25
969.666	2847.14
969.968	2793.58
970.269	2827.03
970.571	2793.58
970.872	2792.68
971.174	2761.27
971.475	2766.92
971.776	2763.08
972.077	2738.67
972.378	2738.44
972.679	2715.17
972.98	2707.49
973.281	2688.95
973.582	2653.93
973.883	2658.45
974.183	2664.77
974.484	2619.58
974.785	2624.55
975.085	2603.76
975.386	2618.9
975.686	2559.01
975.986	2594.04
976.287	2577.77
976.587	2545.91
976.887	2578.9
977.187	2542.52
977.487	2553.59
977.787	2471.11
978.087	2487.6
978.387	2482.41
978.687	2502.97
978.987	2483.99
979.286	2442.41
979.586	2455.97
979.885	2445.8
980.185	2389.3
980.484	2403.31
980.784	2408.28
981.083	2391.79
981.382	2381.39
981.682	2387.27
981.981	2383.43
982.28	2389.08
982.579	2348.62
982.878	2333.03
983.177	2328.96
983.475	2340.49
983.774	2286.93
984.073	2284.67
984.372	2298.91
984.67	2282.64
984.969	2260.94
985.267	2263.2
985.566	2265.24
985.864	2233.83
986.162	2242.64
986.461	2208.52
986.759	2219.36
987.057	2194.96
987.355	2220.49
987.653	2156.09
987.951	2156.54
988.249	2180.04
988.547	2153.38
988.844	2134.17
989.142	2136.65
989.44	2150.66
989.737	2115.18
990.035	2099.82
990.332	2086.71
990.63	2079.93
990.927	2083.09
991.224	2045.81
991.521	2057.56
991.819	2028.86
992.116	2062.98
992.413	2033.83
992.71	2035.86
993.006	2003.77
993.303	2011.68
993.6	1997.9
993.897	1991.12
994.193	1980.5
994.49	1970.1
994.787	1929.65
995.083	1947.96
995.379	1922.87
995.676	1938.92
995.972	1905.92
996.268	1889.65
996.565	1908.86
996.861	1902.08
997.157	1880.61
997.453	1867.96
997.749	1860.95
998.044	1846.49
998.34	1831.35
998.636	1836.32
998.932	1834.74
999.227	1793.16
999.523	1796.55
999.818	1785.25
1000.114	1760.39
1000.409	1766.27
1000.704	1794.29
1001	1761.97
1001.295	1752.71
1001.59	1737.79
1001.885	1735.76
1002.18	1710.9
1002.475	1726.04
1002.77	1706.38
1003.065	1721.75
1003.359	1691.01
1003.654	1679.04
1003.949	1668.42
1004.243	1646.5
1004.538	1659.38
1004.832	1679.49
1005.127	1635.88
1005.421	1595.88
1005.715	1606.05
1006.009	1614.86
1006.304	1575.76
1006.598	1626.84
1006.892	1599.94
1007.186	1597.23
1007.48	1561.3
1007.773	1560.62
1008.067	1580.51
1008.361	1532.6
1008.655	1535.99
1008.948	1535.76
1009.242	1494.18
1009.535	1504.58
1009.829	1490.79
1010.122	1514.75
1010.415	1509.55
1010.708	1447.86
1011.001	1456.44
1011.295	1476.33
1011.588	1445.6
1011.881	1463.22
1012.173	1444.24
1012.466	1453.73
1012.759	1442.89
1013.052	1426.39
1013.344	1393.4
1013.637	1386.39
1013.93	1417.8
1014.222	1383.45
1014.514	1358.59
1014.807	1380.97
1015.099	1373.28
1015.391	1352.72
1015.683	1326.05
1015.976	1339.39
1016.268	1348.88
1016.56	1308.2
1016.851	1303
1017.143	1310.69
1017.435	1288.54
1017.727	1296
1018.018	1288.54
1018.31	1271.36
1018.602	1284.92
1018.893	1264.13
1019.185	1256.45
1019.476	1240.41
1019.767	1216.9
1020.058	1205.83
1020.35	1228.43
1020.641	1231.59
1020.932	1206.06
1021.223	1206.51
1021.514	1161.76
1021.804	1175.55
1022.095	1177.58
1022.386	1192.27
1022.677	1153.18
1022.967	1162.67
1023.258	1165.38
1023.548	1164.48
1023.839	1121.99
1024.129	1135.55
1024.419	1119.5
1024.709	1120.41
1025	1117.02
1025.29	1113.18
1025.58	1083.35
1025.87	1067.3
1026.16	1055.1
1026.449	1073.4
1026.739	1086.74
1027.029	1065.49
1027.319	1076.79
1027.608	1055.1
1027.898	1039.28
1028.187	1027.08
1028.477	1056.68
1028.766	1020.3
1029.055	1023.46
1029.344	1016.91
1029.634	999.96
1029.923	995.21
1030.212	997.02
1030.501	1000.19
1030.79	979.62
1031.078	977.81
1031.367	976.23
1031.656	956.34
1031.945	950.47
1032.233	948.21
1032.522	940.3
1032.81	953.63
1033.099	935.55
1033.387	931.49
1033.675	919.96
1033.963	935.1
1034.251	926.97
1034.54	914.76
1034.828	901.88
1035.116	894.43
1035.403	871.38
1035.691	877.7
1035.979	865.95
1036.267	884.71
1036.554	865.95
1036.842	865.27
1037.129	867.99
1037.417	867.53
1037.704	867.31
1037.992	852.62
1038.279	845.84
1038.566	840.19
1038.853	840.19
1039.14	840.19
