Data from hue_240_FLMS001491_00087.txt Node
Date: Tue Feb 07 16:36:04 GMT 2017
User: dcchb
Spectrometer: FLMS00149
Trigger mode: 0
Integration Time (sec): 2.000000E-2
Scans to average: 10
Electric dark correction enabled: true
Nonlinearity correction enabled: false
Boxcar width: 0
XAxis mode: Wavelengths
Number of Pixels in Spectrum: 2048
>>>>>Begin Spectral Data<<<<<
341.393	-5.2
341.776	-5.2
342.16	-5.2
342.543	-54.46
342.927	-53.33
343.31	-63.73
343.693	-75.25
344.077	-59.66
344.46	-67.34
344.843	-42.71
345.226	-47.46
345.61	-38.87
345.993	-29.6
346.376	-8.59
346.759	7.68
347.142	23.5
347.525	58.76
347.908	57.4
348.291	82.71
348.674	106.89
349.057	96.27
349.44	144.85
349.823	135.14
350.206	145.53
350.588	175.59
350.971	197.06
351.354	201.8
351.737	225.3
352.119	238.19
352.502	255.81
352.884	269.37
353.267	283.38
353.65	296.49
354.032	299.2
354.414	300.56
354.797	319.99
355.179	305.53
355.562	308.01
355.944	330.84
356.326	337.17
356.709	332.19
357.091	331.06
357.473	345.3
357.855	322.93
358.238	329.71
358.62	335.81
359.002	344.85
359.384	349.37
359.766	336.49
360.148	342.59
360.53	324.96
360.912	340.1
361.294	315.7
361.676	338.52
362.057	313.66
362.439	295.13
362.821	310.95
363.203	311.4
363.584	320.9
363.966	304.4
364.348	318.64
364.729	320.9
365.111	317.96
365.493	309.37
365.874	314.57
366.256	307.11
366.637	300.11
367.019	302.82
367.4	300.78
367.781	302.59
368.163	297.17
368.544	317.73
368.925	329.48
369.306	307.79
369.688	296.72
370.069	339.88
370.45	314.79
370.831	294.91
371.212	316.83
371.593	302.82
371.974	310.5
372.355	322.93
372.736	303.72
373.117	311.86
373.498	316.38
373.879	308.92
374.26	298.75
374.641	310.05
375.021	315.25
375.402	327.22
375.783	315.92
376.163	323.38
376.544	311.18
376.925	315.7
377.305	294.46
377.686	328.35
378.066	324.29
378.447	310.05
378.827	321.57
379.208	334.91
379.588	313.21
379.968	348.69
380.349	312.99
380.729	352.31
381.109	347.56
381.489	327.67
381.87	333.78
382.25	346.88
382.63	341.69
383.01	353.89
383.39	337.17
383.77	340.78
384.15	343.95
384.53	341.23
384.91	341.01
385.29	331.06
385.67	341.23
386.049	340.78
386.429	332.65
386.809	359.09
387.189	343.49
387.568	357.28
387.948	338.97
388.328	352.99
388.707	343.72
389.087	354.11
389.466	330.16
389.846	353.66
390.225	373.32
390.605	370.39
390.984	353.89
391.363	360.89
391.743	369.48
392.122	349.37
392.501	351.18
392.881	365.64
393.26	388.01
393.639	372.19
394.018	391.85
394.397	367.22
394.776	357.73
395.155	347.79
395.534	376.04
395.913	375.81
396.292	387.11
396.671	393.21
397.05	393.66
397.429	375.81
397.808	383.49
398.186	390.95
398.565	399.31
398.944	390.95
399.323	391.18
399.701	397.05
400.08	409.03
400.458	382.81
400.837	411.51
401.215	398.86
401.594	388.46
401.972	397.5
402.351	409.03
402.729	408.12
403.107	423.04
403.486	427.79
403.864	411.97
404.242	430.72
404.62	418.07
404.999	413.1
405.377	440.89
405.755	413.55
406.133	449.03
406.511	432.53
406.889	441.57
407.267	413.32
407.645	457.62
408.023	461.46
408.401	432.53
408.779	476.15
409.156	456.03
409.534	486.99
409.912	478.41
410.29	467.78
410.667	480.21
411.045	486.54
411.422	497.84
411.8	486.09
412.178	532.19
412.555	515.69
412.933	534.45
413.31	531.74
413.687	521.34
414.065	521.57
414.442	544.84
414.819	548.01
415.197	548.69
415.574	560.89
415.951	561.57
416.328	574.45
416.705	563.38
417.082	578.06
417.46	606.99
417.837	602.24
418.214	583.94
418.591	585.3
418.967	615.58
419.344	621.9
419.721	622.58
420.098	635.01
420.475	605.18
420.852	634.79
421.228	642.24
421.605	643.6
421.982	660.55
422.358	681.34
422.735	696.48
423.111	687.89
423.488	679.76
423.864	714.78
424.241	701
424.617	714.11
424.994	734.22
425.37	722.47
425.746	736.25
426.123	762.01
426.499	766.99
426.875	775.57
427.251	788
427.627	812.63
428.003	812.41
428.379	809.47
428.756	842.92
429.132	812.63
429.507	831.62
429.883	828.9
430.259	858.28
430.635	848.57
431.011	878.17
431.387	860.77
431.763	890.6
432.138	895.57
432.514	926.53
432.89	936.47
433.265	966.3
433.641	958.39
434.016	958.62
434.392	956.13
434.767	1007.21
435.143	1024.15
435.518	1018.5
435.894	1026.87
436.269	1059.18
436.644	1075.45
437.02	1080.2
437.395	1076.81
437.77	1108.67
438.145	1102.34
438.52	1110.48
438.895	1146.86
439.271	1139.86
439.646	1190.7
440.021	1199.06
440.395	1187.54
440.77	1196.58
441.145	1243.13
441.52	1235.45
441.895	1254.88
442.27	1262.34
442.645	1265.73
443.019	1274.54
443.394	1270.02
443.769	1294.88
444.143	1296.01
444.518	1323.58
444.892	1315.67
445.267	1338.27
445.641	1326.52
446.016	1318.16
446.39	1352.28
446.764	1372.85
447.139	1362.45
447.513	1411.49
447.887	1388.66
448.262	1391.83
448.636	1421.21
449.01	1417.36
449.384	1443.8
449.758	1460.3
450.132	1439.96
450.506	1474.54
450.88	1484.25
451.254	1459.17
451.628	1489.23
452.002	1538.26
452.376	1521.54
452.75	1521.99
453.123	1538.94
453.497	1549.11
453.871	1566.74
454.244	1609.22
454.618	1594.99
454.992	1592.05
455.365	1640.63
455.739	1660.07
456.112	1667.3
456.486	1708.88
456.859	1743.91
457.232	1739.39
457.606	1742.33
457.979	1776.9
458.352	1763.12
458.725	1807.86
459.099	1830.01
459.472	1844.25
459.845	1881.76
460.218	1878.59
460.591	1910.01
460.964	1910.68
461.337	1908.42
461.71	1956.56
462.083	1997.24
462.456	2006.05
462.829	2024.13
463.201	2026.61
463.574	2026.84
463.947	2079.49
464.32	2119.94
464.692	2162.66
465.065	2136.67
465.438	2141.19
465.81	2159.04
466.183	2182.54
466.555	2229.77
466.928	2256.21
467.3	2251.92
467.672	2270
468.045	2365.81
468.417	2366.27
468.789	2373.5
469.161	2392.25
469.534	2388.64
469.906	2480.39
470.278	2477.9
470.65	2476.77
471.022	2564.23
471.394	2607.84
471.766	2582.08
472.138	2634.73
472.51	2661.4
472.882	2731.91
473.253	2748.63
473.625	2783.2
473.997	2836.08
474.369	2815.97
474.74	2894.84
475.112	2931
475.484	2942.97
475.855	2977.55
476.227	3007.6
476.598	3097.32
476.97	3076.53
477.341	3206.02
477.713	3214.6
478.084	3238.11
478.455	3303.64
478.827	3354.04
479.198	3419.8
479.569	3382.74
479.94	3479.23
480.311	3519
480.682	3601.04
481.053	3631.77
481.424	3685.33
481.795	3689.62
482.166	3798.09
482.537	3817.3
482.908	3895.04
483.279	3894.13
483.65	3946.56
484.021	4015.71
484.391	4073.34
484.762	4118.08
485.133	4122.38
485.503	4201.02
485.874	4272.2
486.244	4254.58
486.615	4351.52
486.985	4440.34
487.356	4495.25
487.726	4492.09
488.097	4558.07
488.467	4577.73
488.837	4667.9
489.207	4688.46
489.578	4780.89
489.948	4847.78
490.318	4826.09
490.688	4903.83
491.058	4949.7
491.428	5017.5
491.798	5016.82
492.168	5162.8
492.538	5147.21
492.908	5167.1
493.278	5209.35
493.648	5213.2
494.017	5318.28
494.387	5327.09
494.757	5385.17
495.126	5421.78
495.496	5395.79
495.866	5443.92
496.235	5539.52
496.605	5567.09
496.974	5573.64
497.344	5619.51
497.713	5636.69
498.082	5693.86
498.452	5696.35
498.821	5719.62
499.19	5751.04
499.559	5807.08
499.928	5833.07
500.298	5847.3
500.667	5890.47
501.036	5888.43
501.405	5933.86
501.774	5884.59
502.143	6050.24
502.512	5977.47
502.88	6044.36
503.249	5995.77
503.618	6087.52
503.987	6057.24
504.356	6082.33
504.724	6129.1
505.093	6130.01
505.462	6153.51
505.83	6148.54
506.199	6221.76
506.567	6290.91
506.936	6263.11
507.304	6328.2
507.672	6347.86
508.041	6331.58
508.409	6356.89
508.777	6419.04
509.145	6419.04
509.514	6414.07
509.882	6429.66
510.25	6491.13
510.618	6467.4
510.986	6467.85
511.354	6570.9
511.722	6607.06
512.09	6600.73
512.458	6596.66
512.826	6660.16
513.193	6691.35
513.561	6622.42
513.929	6680.95
514.297	6745.59
514.664	6727.51
515.032	6752.59
515.4	6774.74
515.767	6713.5
516.135	6778.35
516.502	6715.98
516.869	6846.15
517.237	6894.51
517.604	6845.24
517.972	6881.85
518.339	6894.06
518.706	6901.06
519.073	6984
519.44	6962.3
519.808	6989.19
520.175	7016.31
520.542	6993.26
520.909	7019.25
521.276	6995.75
521.643	7058.35
522.009	7036.2
522.376	7126.59
522.743	7089.76
523.11	7079.81
523.477	7132.69
523.843	7156.42
524.21	7219.25
524.577	7262.63
524.943	7237.1
525.31	7230.54
525.676	7290.2
526.043	7298.79
526.409	7322.29
526.776	7305.34
527.142	7332.69
527.508	7298.79
527.874	7429.86
528.241	7385.34
528.607	7376.3
528.973	7440.03
529.339	7422.4
529.705	7442.52
530.071	7488.84
530.437	7431.44
530.803	7462.18
531.169	7524.55
531.535	7488.84
531.901	7488.84
532.267	7469.86
532.632	7509.18
532.998	7557.09
533.364	7525.68
533.73	7464.21
534.095	7547.15
534.461	7549.63
534.826	7519.12
535.192	7598.44
535.557	7491.78
535.923	7549.86
536.288	7587.37
536.653	7594.6
537.019	7480.71
537.384	7459.69
537.749	7593.25
538.114	7507.15
538.479	7499.01
538.845	7543.98
539.21	7477.32
539.575	7473.25
539.94	7514.38
540.305	7448.84
540.67	7435.74
541.034	7484.1
541.399	7510.99
541.764	7417.43
542.129	7424.89
542.494	7473.25
542.858	7509.18
543.223	7440.93
543.587	7534.72
543.952	7459.69
544.316	7354.61
544.681	7385.34
545.045	7449.3
545.41	7437.32
545.774	7435.28
546.138	7361.84
546.503	7451.56
546.867	7367.94
547.231	7432.57
547.595	7333.14
547.959	7354.61
548.324	7419.47
548.688	7357.55
549.052	7414.04
549.416	7321.62
549.779	7352.35
550.143	7323.65
550.507	7346.02
550.871	7338.11
551.235	7298.57
551.599	7365.68
551.962	7341.05
552.326	7322.29
552.689	7376.3
553.053	7255.85
553.417	7341.28
553.78	7380.37
554.143	7320.26
554.507	7337.43
554.87	7341.28
555.234	7364.1
555.597	7272.58
555.96	7290.43
556.323	7292.46
556.686	7318.23
557.05	7318.9
557.413	7361.39
557.776	7345.12
558.139	7346.7
558.502	7328.62
558.865	7429.64
559.228	7416.53
559.59	7398.9
559.953	7366.36
560.316	7471.22
560.679	7464.89
561.041	7442.74
561.404	7467.37
561.767	7511.67
562.129	7458.56
562.492	7525
562.854	7537.65
563.217	7530.65
563.579	7508.73
563.941	7552.57
564.304	7576.98
564.666	7628.27
565.028	7588.95
565.39	7566.13
565.753	7673.7
566.115	7654.71
566.477	7666.47
566.839	7700.59
567.201	7741.04
567.563	7723.41
567.925	7794.15
568.287	7720.02
568.648	7756.63
569.01	7824.43
569.372	7816.97
569.734	7793.02
570.095	7856.97
570.457	7886.12
570.819	7872.11
571.18	7871.21
571.542	7882.73
571.903	7913.46
572.265	7962.5
572.626	7940.81
572.987	7971.09
573.349	7973.58
573.71	8028.04
574.071	8032.56
574.432	8059.9
574.794	8106.23
575.155	8091.54
575.516	8014.25
575.877	8167.47
576.238	8121.59
576.599	8152.78
576.96	8118.2
577.32	8186.68
577.681	8214.7
578.042	8223.96
578.403	8270.52
578.763	8213.57
579.124	8260.8
579.485	8321.82
579.845	8273.91
580.206	8281.82
580.566	8272.1
580.927	8301.48
581.287	8329.05
581.648	8286.79
582.008	8367.24
582.368	8332.89
582.728	8358.2
583.089	8376.5
583.449	8352.77
583.809	8388.25
584.169	8437.07
584.529	8396.84
584.889	8456.27
585.249	8454.92
585.609	8415.6
585.969	8459.44
586.329	8468.25
586.688	8445.65
587.048	8476.39
587.408	8458.31
587.768	8423.51
588.127	8480.45
588.487	8534.92
588.846	8561.58
589.206	8446.56
589.565	8518.87
589.925	8508.48
590.284	8574.01
590.643	8570.62
591.003	8573.56
591.362	8545.76
591.721	8564.52
592.08	8517.74
592.44	8578.08
592.799	8603.39
593.158	8574.92
593.517	8520.23
593.876	8660.56
594.235	8578.53
594.593	8593.45
594.952	8613.78
595.311	8564.75
595.67	8614.01
596.029	8639.32
596.387	8635.48
596.746	8673.9
597.104	8680.9
597.463	8618.76
597.822	8727.68
598.18	8565.2
598.538	8669.38
598.897	8653.33
599.255	8654.01
599.613	8692.88
599.972	8698.75
600.33	8771.97
600.688	8641.58
601.046	8728.58
601.404	8749.15
601.762	8725.87
602.12	8741.92
602.478	8704.4
602.836	8785.98
603.194	8713.22
603.552	8774.68
603.91	8708.7
604.268	8749.37
604.625	8756.15
604.983	8753.22
605.341	8661.92
605.698	8813.78
606.056	8865.76
606.413	8843.61
606.771	8763.84
607.128	8829.37
607.485	8813.33
607.843	8817.62
608.2	8837.73
608.557	8847.9
608.914	8827.34
609.272	8858.3
609.629	8835.7
609.986	8830.73
610.343	8834.12
610.7	8895.13
611.057	8879.54
611.414	8847.9
611.771	8915.47
612.127	8931.29
612.484	8918.64
612.841	8965.41
613.198	8978.97
613.554	8945.08
613.911	9040.67
614.267	8950.73
614.624	8946.88
614.98	8938.3
615.337	9037.05
615.693	8976.94
616.05	8998.86
616.406	9080.67
616.762	8981.23
617.118	9018.29
617.475	9030.72
617.831	9054.45
618.187	9065.3
618.543	9046.77
618.899	9094
619.255	9027.33
619.611	9039.76
619.967	9147.1
620.323	9083.38
620.678	9081.57
621.034	9031.4
621.39	9034.11
621.746	9063.49
622.101	9127.67
622.457	9014.45
622.812	9051.74
623.168	9122.02
623.523	9088.8
623.879	9146.43
624.234	9135.35
624.589	9101.46
624.945	9048.8
625.3	9118.63
625.655	9108.46
626.01	9092.64
626.365	9093.32
626.72	9016.94
627.075	9091.74
627.43	9018.75
627.785	9067.56
628.14	9060.1
628.495	9066.65
628.85	9056.94
629.205	9019.88
629.559	9129.25
629.914	9021.23
630.269	9050.38
630.623	8992.76
630.978	8973.1
631.332	9044.06
631.687	8988.46
632.041	9015.58
632.396	8994.57
632.75	8998.63
633.104	8985.53
633.459	8961.8
633.813	8932.19
634.167	8926.32
634.521	8911.63
634.875	8835.47
635.229	8943.49
635.583	8811.52
635.937	8885.64
636.291	8901.46
636.645	8842.93
636.999	8906.43
637.352	8937.39
637.706	8843.16
638.06	8836.6
638.413	8748.24
638.767	8788.7
639.121	8833.21
639.474	8687.91
639.828	8728.36
640.181	8747.57
640.534	8845.19
640.888	8724.52
641.241	8691.07
641.594	8751.86
641.947	8645.65
642.301	8673.22
642.654	8702.6
643.007	8694.91
643.36	8742.59
643.713	8661.02
644.066	8745.98
644.419	8593.45
644.771	8608.59
645.124	8549.61
645.477	8480.45
645.83	8448.82
646.182	8412.21
646.535	8400.91
646.888	8429.83
647.24	8334.92
647.593	8464.18
647.945	8304.19
648.298	8358.2
648.65	8285.66
649.002	8337.41
649.355	8404.07
649.707	8375.6
650.059	8355.26
650.411	8455.82
650.763	8480.23
651.115	8523.84
651.467	8548.02
651.819	8557.97
652.171	8526.33
652.523	8547.12
652.875	8522.04
653.227	8504.18
653.578	8503.05
653.93	8504.18
654.282	8491.08
654.633	8430.96
654.985	8506.89
655.337	8510.06
655.688	8466.22
656.039	8490.4
656.391	8441.81
656.742	8461.92
657.094	8531.53
657.445	8510.51
657.796	8477.74
658.147	8444.75
658.498	8486.78
658.849	8438.65
659.2	8528.14
659.551	8461.25
659.902	8508.48
660.253	8516.84
660.604	8497.63
660.955	8481.58
661.306	8555.48
661.656	8490.85
662.007	8505.99
662.358	8489.04
662.708	8473.45
663.059	8466.67
663.409	8409.72
663.76	8541.02
664.11	8502.83
664.461	8513
664.811	8461.25
665.161	8507.35
665.511	8511.41
665.862	8462.15
666.212	8480
666.562	8551.87
666.912	8536.95
667.262	8450.17
667.612	8465.09
667.962	8457.63
668.312	8509.83
668.662	8542.37
669.011	8429.38
669.361	8428.25
669.711	8473.45
670.06	8466.22
670.41	8390.06
670.76	8387.58
671.109	8489.04
671.459	8401.36
671.808	8378.54
672.157	8447.46
672.507	8433.45
672.856	8391.64
673.205	8440.68
673.554	8422.38
673.904	8408.14
674.253	8401.81
674.602	8419.44
674.951	8235.72
675.3	8202.72
675.649	8343.96
675.998	8267.35
676.346	8288.14
676.695	8388.25
677.044	8293.79
677.393	8342.61
677.741	8423.51
678.09	8350.29
678.438	8330.63
678.787	8285.66
679.135	8324.75
679.484	8252.44
679.832	8246.11
680.181	8162.5
680.529	8234.81
680.877	8164.76
681.225	8164.53
681.573	8261.7
681.922	8141.71
682.27	8150.97
682.618	8191.65
682.966	8136.06
683.314	8165.21
683.661	8090.18
684.009	8111.88
684.357	8099.22
684.705	8042.05
685.053	8107.13
685.4	8085.66
685.748	8021.94
686.095	7980.58
686.443	7985.33
686.79	7960.69
687.138	7956.4
687.485	7908.27
687.832	7913.01
688.18	7911.2
688.527	7915.27
688.874	7896.06
689.221	7853.58
689.568	7815.39
689.915	7806.8
690.262	7816.74
690.609	7736.07
690.956	7767.71
691.303	7746.46
691.65	7675.05
691.997	7646.35
692.344	7686.8
692.69	7589.63
693.037	7585.34
693.383	7490.65
693.73	7578.11
694.077	7581.72
694.423	7457.66
694.769	7477.09
695.116	7432.8
695.462	7415.62
695.808	7477.32
696.155	7430.09
696.501	7353.7
696.847	7378.11
697.193	7306.02
697.539	7262.41
697.885	7301.28
698.231	7223.54
698.577	7214.95
698.923	7226.25
699.269	7177.21
699.614	7181.05
699.96	7149.19
700.306	7126.14
700.651	7050.66
700.997	7076.88
701.342	7016.09
701.688	7006.37
702.033	6957.11
702.379	6942.87
702.724	6961.85
703.069	6957.56
703.415	6838.92
703.76	6883.43
704.105	6894.28
704.45	6874.17
704.795	6785.58
705.14	6846.37
705.485	6820.61
705.83	6781.52
706.175	6784.91
706.52	6826.94
706.865	6761.18
707.209	6691.8
707.554	6725.92
707.899	6724.79
708.243	6643.67
708.588	6611.35
708.932	6626.49
709.277	6597.79
709.621	6602.31
709.966	6596.89
710.31	6551.47
710.654	6555.76
710.998	6551.69
711.342	6518.02
711.687	6485.25
712.031	6464.01
712.375	6436.67
712.719	6492.03
713.063	6435.31
713.407	6456.33
713.75	6407.97
714.094	6439.15
714.438	6491.58
714.782	6377.23
715.125	6326.39
715.469	6403.22
715.812	6353.96
716.156	6287.97
716.499	6319.16
716.843	6326.39
717.186	6319.83
717.53	6300.17
717.873	6306.05
718.216	6263.34
718.559	6254.3
718.902	6208.2
719.246	6250.68
719.589	6239.84
719.932	6157.58
720.275	6191.48
720.617	6176.79
720.96	6188.09
721.303	6190.12
721.646	6182.66
721.989	6169.78
722.331	6180.63
722.674	6162.32
723.016	6148.31
723.359	6125.26
723.701	6136.79
724.044	6134.08
724.386	6093.85
724.729	6091.37
725.071	6073.96
725.413	6123.68
725.755	6111.93
726.097	6053.85
726.439	6015.89
726.782	6046.85
727.124	6091.59
727.465	6031.03
727.807	6073.96
728.149	6073.74
728.491	6017.69
728.833	6018.37
729.175	6032.84
729.516	6022.67
729.858	6023.8
730.199	6007.98
730.541	6016.34
730.882	6009.56
731.224	6044.36
731.565	5967.07
731.906	5975.21
732.248	6013.63
732.589	5963.23
732.93	5950.13
733.271	6003.68
733.612	5947.64
733.953	5999.62
734.294	5950.13
734.635	5997.36
734.976	6014.53
735.317	5949.67
735.658	5974.76
735.999	6000.97
736.339	5951.93
736.68	6028.99
737.021	5945.15
737.361	5928.43
737.702	6034.19
738.042	5991.71
738.383	5992.38
738.723	5975.21
739.063	6013.4
739.404	5983.57
739.744	5995.32
740.084	5931.37
740.424	5975.21
740.764	5993.06
741.104	6012.72
741.444	6024.47
741.784	5984.7
742.124	6035.1
742.464	6039.62
742.804	6050.01
743.143	6073.06
743.483	6090.69
743.823	6070.8
744.162	6031.48
744.502	6104.02
744.841	6106.96
745.181	6127.07
745.52	6139.95
745.86	6131.14
746.199	6143.79
746.538	6148.09
746.877	6211.14
747.216	6279.38
747.556	6251.81
747.895	6285.71
748.234	6289.1
748.573	6302.66
748.911	6376.78
749.25	6320.96
749.589	6443.45
749.928	6431.7
750.267	6494.07
750.605	6510.11
750.944	6560.73
751.283	6613.16
751.621	6686.83
751.96	6684.34
752.298	6718.02
752.636	6828.97
752.975	6819.48
753.313	6918.01
753.651	6943.09
753.989	7010.89
754.327	7141.06
754.666	7068.74
755.004	7214.95
755.342	7292.92
755.679	7346.93
756.017	7378.11
756.355	7494.72
756.693	7538.11
757.031	7637.99
757.368	7680.93
757.706	7809.96
758.044	7892
758.381	7968.83
758.719	8065.55
759.056	8163.4
759.394	8282.04
759.731	8266
760.068	8344.87
760.405	8445.88
760.743	8553.22
761.08	8668.47
761.417	8711.41
761.754	8937.39
762.091	8955.7
762.428	9073.89
762.765	9139.65
763.102	9263.71
763.438	9272.52
763.775	9345.52
764.112	9387.78
764.449	9635
764.785	9546.87
765.122	9623.02
765.458	9793.64
765.795	9830.25
766.131	9897.82
766.467	9980.98
766.804	10001.54
767.14	10103.01
767.476	10204.25
767.812	10196.57
768.148	10347.98
768.485	10397.01
768.821	10392.72
769.157	10516.79
769.492	10604.24
769.828	10628.42
770.164	10603.79
770.5	10674.75
770.836	10782.32
771.171	10815.31
771.507	10818.92
771.842	10768.08
772.178	10870.45
772.513	10961.29
772.849	10942.09
773.184	11063.66
773.519	10993.61
773.855	11070.22
774.19	11031.12
774.525	11061.4
774.86	11202.87
775.195	11211.23
775.53	11251.23
775.865	11178.69
776.2	11138.24
776.535	11189.99
776.87	11193.15
777.205	11209.87
777.539	11183.21
777.874	11304.11
778.209	11236.09
778.543	11202.87
778.878	11264.79
779.212	11232.02
779.547	11263.88
779.881	11234.51
780.215	11271.57
780.55	11298.01
780.884	11194.96
781.218	11233.38
781.552	11244
781.886	11347.95
782.22	11183.66
782.554	11231.12
782.888	11098.47
783.222	11105.92
783.556	11153.38
783.889	11136.2
784.223	10996.77
784.557	11071.57
784.89	11143.66
785.224	11031.8
785.557	11068.64
785.891	11045.81
786.224	11063.66
786.558	11074.96
786.891	11019.37
787.224	10953.38
787.557	11002.42
787.891	10971.24
788.224	11002.42
788.557	10991.58
788.89	10996.55
789.223	11008.75
789.556	10949.77
789.888	10879.04
790.221	10803.78
790.554	10775.31
790.887	10768.53
791.219	10780.51
791.552	10780.96
791.884	10686.72
792.217	10717.23
792.549	10670.23
792.882	10550.01
793.214	10592.49
793.546	10651.25
793.879	10565.6
794.211	10484.92
794.543	10580.96
794.875	10495.77
795.207	10570.34
795.539	10469.1
795.871	10578.7
796.203	10406.51
796.535	10334.64
796.867	10406.28
797.198	10363.12
797.53	10347.98
797.862	10298.49
798.193	10378.26
798.525	10220.97
798.856	10279.28
799.188	10136.23
799.519	10147.98
799.85	10071.6
800.182	10061.43
800.513	10128.55
800.844	9992.51
801.175	10081.77
801.506	10094.65
801.837	10023.92
802.168	10021.21
802.499	10034.54
802.83	10000.42
803.161	9934.43
803.491	9939.4
803.822	9886.07
804.153	9883.36
804.483	9777.82
804.814	9708.9
805.145	9708.9
805.475	9825.5
805.805	9689.24
806.136	9670.93
806.466	9727.88
806.796	9731.95
807.126	9651.95
807.457	9637.03
807.787	9622.35
808.117	9618.28
808.447	9579.41
808.777	9592.52
809.107	9486.98
809.436	9528.34
809.766	9456.02
810.096	9437.49
810.426	9404.05
810.755	9413.76
811.085	9437.04
811.414	9429.81
811.744	9317.5
812.073	9282.92
812.403	9273.88
812.732	9255.12
813.061	9228.01
813.39	9258.51
813.719	9233.2
814.049	9213.09
814.378	9206.54
814.707	9174.9
815.036	9196.37
815.365	9095.13
815.693	9076.15
816.022	9078.18
816.351	9039.99
816.68	8980.55
817.008	9037.95
817.337	9000.67
817.665	8980.1
817.994	8954.57
818.322	8964.28
818.651	8960.22
818.979	8881.57
819.307	8970.16
819.636	8932.65
819.964	8910.95
820.292	8945.08
820.62	8882.48
820.948	8907.56
821.276	8900.1
821.604	8837.28
821.932	8925.87
822.259	8848.58
822.587	8914.34
822.915	8883.16
823.243	8889.48
823.57	8885.19
823.898	8826.66
824.225	8810.16
824.553	8792.99
824.88	8774.46
825.207	8890.84
825.535	8804.51
825.862	8885.64
826.189	8810.84
826.516	8920.44
826.843	8847.68
827.17	8868.92
827.497	8860.11
827.824	8816.94
828.151	8828.02
828.478	8832.99
828.805	8855.81
829.131	8813.55
829.458	8848.58
829.785	8847
830.111	8848.81
830.438	8892.65
830.764	8877.28
831.09	8878.86
831.417	8790.05
831.743	8899.65
832.069	8851.52
832.395	8804.51
832.722	8820.33
833.048	8809.71
833.374	8792.09
833.7	8762.03
834.026	8764.06
834.351	8808.58
834.677	8759.32
835.003	8827.34
835.329	8788.7
835.654	8751.86
835.98	8751.41
836.306	8744.18
836.631	8668.02
836.956	8695.59
837.282	8726.55
837.607	8715.93
837.932	8699.88
838.258	8678.87
838.583	8683.61
838.908	8638.19
839.233	8664.86
839.558	8610.85
839.883	8597.97
840.208	8536.5
840.533	8548.25
840.858	8578.31
841.182	8592.32
841.507	8599.32
841.832	8597.74
842.156	8477.52
842.481	8411.08
842.805	8453.34
843.13	8467.57
843.454	8487.23
843.778	8441.13
844.103	8395.94
844.427	8379.89
844.751	8376.28
845.075	8374.24
845.399	8296.05
845.723	8318.2
846.047	8282.04
846.371	8160.69
846.695	8181.48
847.019	8151.2
847.343	8110.52
847.666	8103.52
847.99	8057.87
848.313	8071.43
848.637	7988.04
848.96	7976.29
849.284	7970.86
849.607	7911.43
849.931	7886.12
850.254	7876.4
850.577	7771.32
850.9	7729.97
851.223	7824.65
851.546	7666.92
851.869	7713.47
852.192	7688.84
852.515	7669.63
852.838	7643.41
853.161	7559.58
853.483	7578.33
853.806	7559.35
854.129	7521.84
854.451	7507.15
854.774	7417.43
855.096	7441.39
855.419	7451.33
855.741	7372.69
856.063	7339.24
856.385	7379.47
856.708	7318
857.03	7285.01
857.352	7278
857.674	7300.15
857.996	7279.58
858.318	7189.64
858.64	7214.27
858.961	7172.47
859.283	7206.36
859.605	7079.59
859.926	7169.98
860.248	7120.26
860.57	7084.11
860.891	7081.4
861.212	7056.76
861.534	7018.8
861.855	7090.89
862.176	7039.81
862.498	7054.05
862.819	7034.84
863.14	7009.08
863.461	6969.31
863.782	6929.54
864.103	6955.75
864.424	6911.23
864.745	6933.83
865.065	6903.32
865.386	6881.85
865.707	6884.79
866.027	6909.65
866.348	6921.4
866.668	6820.61
866.989	6870.55
867.309	6805.92
867.63	6836.88
867.95	6798.47
868.27	6754.85
868.59	6776.09
868.91	6752.36
869.23	6776.54
869.55	6718.92
869.87	6767.28
870.19	6709.88
870.51	6789.65
870.83	6769.99
871.15	6730.67
871.469	6734.96
871.789	6707.39
872.109	6729.77
872.428	6616.78
872.748	6673.95
873.067	6644.8
873.386	6636.44
873.706	6616.32
874.025	6621.52
874.344	6537
874.663	6671.91
874.982	6587.17
875.301	6577
875.62	6558.7
875.939	6574.29
876.258	6519.15
876.577	6503.56
876.896	6550.34
877.214	6521.18
877.533	6504.46
877.852	6458.14
878.17	6508.3
878.489	6489.77
878.807	6512.6
879.125	6406.61
879.444	6449.32
879.762	6423.33
880.08	6481.19
880.398	6377.46
880.716	6406.39
881.034	6351.7
881.352	6393.05
881.67	6368.65
881.988	6393.5
882.306	6337.23
882.624	6278.93
882.941	6278.03
883.259	6245.26
883.577	6272.38
883.894	6271.02
884.212	6244.58
884.529	6256.56
884.846	6224.47
885.164	6196.22
885.481	6246.39
885.798	6212.94
886.115	6153.96
886.432	6223.34
886.75	6128.88
887.067	6133.62
887.383	6162.1
887.7	6115.32
888.017	6107.18
888.334	6117.13
888.651	6076.45
888.967	6051.59
889.284	6027.64
889.6	5994.19
889.917	6013.18
890.233	6007.3
890.55	5997.81
890.866	5970.69
891.182	5917.36
891.498	5936.12
891.815	5897.25
892.131	5881.88
892.447	5901.99
892.763	5838.26
893.079	5856.8
893.395	5816.34
893.71	5780.19
894.026	5806.85
894.342	5765.95
894.657	5768.44
894.973	5707.65
895.289	5708.1
895.604	5758.49
895.92	5700.19
896.235	5635.11
896.55	5682.11
896.865	5664.48
897.181	5607.08
897.496	5617.93
897.811	5607.54
898.126	5595.33
898.441	5539.52
898.756	5542.23
899.071	5480.76
899.386	5488.44
899.7	5445.96
900.015	5427.88
900.33	5417.94
900.644	5423.36
900.959	5416.58
901.273	5356.92
901.588	5327.77
901.902	5332.52
902.216	5310.59
902.531	5304.72
902.845	5305.4
903.159	5252.52
903.473	5264.04
903.787	5250.03
904.101	5219.75
904.415	5222.01
904.729	5151.95
905.042	5102.69
905.356	5149.92
905.67	5100.66
905.984	5113.76
906.297	5111.73
906.611	5068.34
906.924	5036.7
907.237	5020.43
907.551	5030.83
907.864	5030.38
908.177	5019.08
908.491	4989.02
908.804	4938.18
909.117	4924.84
909.43	4831.51
909.743	4907.89
910.056	4849.36
910.368	4861.34
910.681	4816.82
910.994	4750.38
911.307	4848.69
911.619	4767.33
911.932	4768.69
912.244	4702.48
912.557	4708.35
912.869	4669.03
913.181	4621.57
913.494	4645.08
913.806	4625.64
914.118	4619.99
914.43	4600.56
914.742	4610.05
915.054	4598.75
915.366	4564.17
915.678	4528.24
915.99	4499.99
916.302	4503.61
916.613	4456.38
916.925	4453.67
917.236	4496.6
917.548	4418.19
917.859	4428.36
918.171	4405.31
918.482	4351.75
918.794	4363.5
919.105	4344.07
919.416	4314.69
919.727	4294.8
920.038	4330.28
920.349	4270.62
920.66	4293.67
920.971	4223.39
921.282	4203.51
921.593	4220.23
921.903	4186.56
922.214	4166.9
922.525	4152.66
922.835	4187.23
923.146	4128.7
923.456	4117.86
923.767	4093.23
924.077	4093.23
924.387	4072.89
924.697	4081.7
925.008	4019.33
925.318	3985.43
925.628	4016.84
925.938	4006.45
926.248	4002.61
926.558	3928.48
926.867	3935.94
927.177	3951.31
927.487	3920.12
927.796	3877.19
928.106	3870.86
928.416	3907.92
928.725	3838.77
929.034	3808.71
929.344	3836.96
929.653	3809.84
929.962	3804.87
930.271	3823.63
930.581	3773.91
930.89	3729.39
931.199	3678.32
931.508	3699.56
931.817	3700.47
932.125	3672.45
932.434	3667.93
932.743	3681.49
933.051	3633.8
933.36	3610.98
933.669	3593.58
933.977	3603.75
934.286	3577.08
934.594	3579.57
934.902	3535.73
935.21	3556.52
935.519	3562.84
935.827	3547.25
936.135	3517.2
936.443	3488.27
936.751	3506.57
937.059	3445.56
937.367	3459.12
937.674	3402.4
937.982	3397.2
938.29	3430.19
938.597	3429.51
938.905	3388.84
939.213	3334.15
939.52	3345.45
939.827	3361.04
940.135	3331.44
940.442	3272.46
940.749	3318.56
941.056	3302.96
941.363	3285.34
941.67	3223.19
941.977	3259.35
942.284	3207.15
942.591	3203.76
942.898	3208.05
943.205	3189.97
943.511	3185.9
943.818	3165.79
944.125	3155.85
944.431	3162.18
944.738	3118.56
945.044	3148.39
945.35	3089.64
945.657	3073.59
945.963	3086.7
946.269	3069.75
946.575	3076.76
946.881	3059.35
947.187	3010.77
947.493	3005.57
947.799	3023.65
948.105	2971.9
948.41	2994.27
948.716	2980.49
949.022	2937.78
949.327	2963.09
949.633	2929.41
949.938	2898.45
950.244	2909.98
950.549	2899.58
950.854	2853.03
951.16	2866.59
951.465	2847.16
951.77	2838.57
952.075	2818.68
952.38	2790.66
952.685	2796.99
952.99	2791.34
953.294	2768.74
953.599	2782.07
953.904	2798.34
954.209	2773.49
954.513	2733.94
954.818	2739.36
955.122	2702.3
955.426	2711.12
955.731	2707.05
956.035	2655.3
956.339	2642.19
956.643	2680.61
956.948	2651
957.252	2649.42
957.556	2615.3
957.86	2600.16
958.163	2678.8
958.467	2623.66
958.771	2591.57
959.075	2564.45
959.378	2574.4
959.682	2591.8
959.985	2570.1
960.289	2554.06
960.592	2551.12
960.896	2510.44
961.199	2511.8
961.502	2514.51
961.805	2475.19
962.108	2464.34
962.411	2482.87
962.714	2447.85
963.017	2437.22
963.32	2472.48
963.623	2440.84
963.926	2422.99
964.228	2424.12
964.531	2400.61
964.833	2418.02
965.136	2381.18
965.438	2373.27
965.741	2387.73
966.043	2354.74
966.345	2327.4
966.648	2340.5
966.95	2312.71
967.252	2289.66
967.554	2299.15
967.856	2271.8
968.158	2282.43
968.46	2261.18
968.761	2239.04
969.063	2237.68
969.365	2245.59
969.666	2219.15
969.968	2239.04
970.269	2235.2
970.571	2233.84
970.872	2170.34
971.174	2188.42
971.475	2154.52
971.776	2158.14
972.077	2158.36
972.378	2142.32
972.679	2185.03
972.98	2169.66
973.281	2133.5
973.582	2107.52
973.883	2132.6
974.183	2087.85
974.484	2105.93
974.785	2073.17
975.085	2093.05
975.386	2083.79
975.686	2063.67
975.986	2070.68
976.287	2040.17
976.587	2028.42
976.887	2040.62
977.187	2047.18
977.487	2002.21
977.787	2012.83
978.087	1992.94
978.387	1979.61
978.687	1953.62
978.987	1952.04
979.286	1959.5
979.586	1959.72
979.885	1963.11
980.185	1917.92
980.484	1914.98
980.784	1913.17
981.083	1919.27
981.382	1914.75
981.682	1926.5
981.981	1907.75
982.28	1878.82
982.579	1850.12
982.878	1870.01
983.177	1850.8
983.475	1859.16
983.774	1845.6
984.073	1836.34
984.372	1836.56
984.67	1821.42
984.969	1813.29
985.267	1816
985.566	1785.04
985.864	1813.06
986.162	1807.18
986.461	1763.34
986.759	1787.98
987.057	1781.2
987.355	1775.55
987.653	1749.56
987.951	1753.85
988.249	1762.89
988.547	1726.28
988.844	1716.34
989.142	1736
989.44	1713.18
989.737	1715.21
990.035	1710.69
990.332	1674.08
990.63	1668.66
990.927	1687.19
991.224	1661.65
991.521	1689.45
991.819	1658.94
992.116	1635.89
992.413	1633.18
992.71	1639.05
993.006	1625.27
993.303	1622.33
993.6	1625.04
993.897	1642.89
994.193	1575.1
994.49	1584.37
994.787	1592.73
995.083	1567.19
995.379	1588.21
995.676	1576.68
995.972	1577.81
996.268	1569.45
996.565	1535.33
996.861	1531.94
997.157	1528.1
997.453	1520.86
997.749	1550.92
998.044	1510.02
998.34	1501.66
998.636	1517.25
998.932	1518.83
999.227	1501.43
999.523	1476.8
999.818	1481.99
1000.114	1454.43
1000.409	1467.53
1000.704	1429.34
1001	1463.92
1001.295	1424.6
1001.59	1446.52
1001.885	1438.38
1002.18	1389.57
1002.475	1418.95
1002.77	1383.24
1003.065	1419.4
1003.359	1364.26
1003.654	1379.17
1003.949	1382.56
1004.243	1351.38
1004.538	1364.48
1004.832	1338.04
1005.127	1347.08
1005.421	1331.72
1005.715	1353.41
1006.009	1324.03
1006.304	1318.16
1006.598	1314.32
1006.892	1286.97
1007.186	1288.33
1007.48	1294.88
1007.773	1289.01
1008.067	1301.21
1008.361	1271.6
1008.655	1247.65
1008.948	1279.06
1009.242	1284.03
1009.535	1265.96
1009.829	1238.84
1010.122	1244.71
1010.415	1232.28
1010.708	1221.44
1011.001	1238.16
1011.295	1215.11
1011.588	1197.93
1011.881	1183.92
1012.173	1189.57
1012.466	1192.74
1012.759	1178.73
1013.052	1187.09
1013.344	1152.06
1013.637	1166.07
1013.93	1152.51
1014.222	1140.08
1014.514	1151.83
1014.807	1153.19
1015.099	1149.57
1015.391	1124.04
1015.683	1122.46
1015.976	1110.71
1016.268	1100.08
1016.56	1063.93
1016.851	1113.87
1017.143	1087.66
1017.435	1089.01
1017.727	1084.72
1018.018	1060.31
1018.31	1056.7
1018.602	1062.8
1018.893	1030.26
1019.185	1057.83
1019.476	1059.63
1019.767	1028.67
1020.058	1025.51
1020.35	1020.76
1020.641	1008.56
1020.932	1039.75
1021.223	997.26
1021.514	992.52
1021.804	995.91
1022.095	1021.44
1022.386	989.8
1022.677	983.02
1022.967	976.02
1023.258	947.77
1023.548	971.05
1023.839	945.29
1024.129	936.7
1024.419	938.05
1024.709	951.61
1025	932.18
1025.29	925.4
1025.58	941.22
1025.87	928.79
1026.16	914.55
1026.449	916.81
1026.739	908.9
1027.029	894.67
1027.319	902.8
1027.608	872.75
1027.898	885.17
1028.187	907.09
1028.477	866.64
1028.766	857.83
1029.055	856.7
1029.344	855.34
1029.634	865.06
1029.923	843.14
1030.212	862.8
1030.501	839.07
1030.79	802.24
1031.078	804.95
1031.367	823.48
1031.656	845.63
1031.945	820.32
1032.233	820.54
1032.522	820.32
1032.81	800.88
1033.099	810.37
1033.387	783.26
1033.675	807.21
1033.963	793.65
1034.251	786.87
1034.54	764.5
1034.828	763.6
1035.116	742.81
1035.403	752.75
1035.691	783.26
1035.979	748.91
1036.267	752.97
1036.554	742.35
1036.842	761.34
1037.129	720.21
1037.417	746.2
1037.704	739.19
1037.992	740.32
1038.279	723.6
1038.566	713.43
1038.853	713.43
1039.14	713.43
