Data from hue_310_FLMS001491_82.txt Node
Date: Mon Feb 06 15:50:19 GMT 2017
User: dcchb
Spectrometer: FLMS00149
Trigger mode: 0
Integration Time (sec): 2.000000E-2
Scans to average: 10
Electric dark correction enabled: true
Nonlinearity correction enabled: false
Boxcar width: 0
XAxis mode: Wavelengths
Number of Pixels in Spectrum: 2048
>>>>>Begin Spectral Data<<<<<
341.393	-8.88
341.776	-8.88
342.16	-8.88
342.543	-53.18
342.927	-75.55
343.31	-45.27
343.693	-59.5
344.077	-56.34
344.46	-47.75
344.843	-52.27
345.226	-53.18
345.61	-34.19
345.993	-16.57
346.376	-17.02
346.759	10.78
347.142	25.92
347.525	32.24
347.908	68.4
348.291	82.64
348.674	77.22
349.057	84.9
349.44	109.53
349.823	148.85
350.206	141.62
350.588	193.37
350.971	213.94
351.354	228.4
351.737	261.17
352.119	261.39
352.502	255.29
352.884	272.92
353.267	272.24
353.65	299.36
354.032	298.9
354.414	316.98
354.797	323.76
355.179	327.15
355.562	325.12
355.944	326.93
356.326	340.26
356.709	323.99
357.091	322.63
357.473	334.84
357.855	347.04
358.238	325.8
358.62	356.08
359.002	324.89
359.384	328.28
359.766	335.51
360.148	335.97
360.53	351.33
360.912	339.81
361.294	349.07
361.676	326.93
362.057	315.4
362.439	331.67
362.821	335.97
363.203	328.73
363.584	318.57
363.966	324.67
364.348	333.71
364.729	335.51
365.111	321.28
365.493	336.64
365.874	296.19
366.256	306.59
366.637	326.02
367.019	306.14
367.4	319.24
367.781	304.55
368.163	312.24
368.544	315.85
368.925	317.44
369.306	329.41
369.688	322.41
370.069	324.21
370.45	321.05
370.831	306.81
371.212	300.71
371.593	313.59
371.974	289.87
372.355	319.69
372.736	317.89
373.117	323.54
373.498	339.36
373.879	327.6
374.26	310.66
374.641	337.1
375.021	330.32
375.402	322.41
375.783	318.79
376.163	334.38
376.544	325.34
376.925	301.39
377.305	318.57
377.686	324.67
378.066	317.66
378.447	339.13
378.827	344.78
379.208	351.56
379.588	337.77
379.968	323.08
380.349	320.82
380.729	316.53
381.109	346.13
381.489	347.94
381.87	327.15
382.25	331.22
382.63	340.26
383.01	348.17
383.39	358.56
383.77	356.76
384.15	356.08
384.53	356.76
384.91	357.43
385.29	364.21
385.67	356.3
386.049	366.02
386.429	353.59
386.809	349.3
387.189	352.46
387.568	335.97
387.948	353.59
388.328	367.15
388.707	369.86
389.087	379.81
389.466	361.73
389.846	370.77
390.225	383.2
390.605	366.7
390.984	375.74
391.363	360.6
391.743	382.74
392.122	373.25
392.501	383.2
392.881	377.09
393.26	393.14
393.639	386.13
394.018	382.07
394.397	382.07
394.776	384.1
395.155	371.9
395.534	383.42
395.913	397.43
396.292	379.58
396.671	401.27
397.05	393.82
397.429	401.5
397.808	406.47
398.186	391.56
398.565	399.01
398.944	403.31
399.323	402.86
399.701	410.09
400.08	424.33
400.458	409.86
400.837	411.9
401.215	432.91
401.594	425.91
401.972	424.78
402.351	435.4
402.729	429.75
403.107	432.46
403.486	431.1
403.864	439.47
404.242	434.72
404.62	441.27
404.999	432.46
405.377	438.11
405.755	444.66
406.133	442.86
406.511	464.78
406.889	480.82
407.267	490.09
407.645	476.53
408.023	477.66
408.401	495.28
408.779	481.27
409.156	498.22
409.534	515.4
409.912	517.88
410.29	507.49
410.667	535.51
411.045	499.8
411.422	519.92
411.8	543.19
412.178	557.2
412.555	557.88
412.933	530.54
413.31	576.19
413.687	559.91
414.065	592
414.442	594.49
414.819	604.43
415.197	587.71
415.574	610.53
415.951	622.06
416.328	626.13
416.705	648.95
417.082	653.02
417.46	623.19
417.837	666.58
418.214	688.95
418.591	670.19
418.967	685.56
419.344	691.66
419.721	711.78
420.098	704.32
420.475	748.16
420.852	720.14
421.228	723.75
421.605	756.29
421.982	775.95
422.358	749.51
422.735	770.08
423.111	772.34
423.488	784.09
423.864	772.79
424.241	806.91
424.617	793.81
424.994	785.67
425.37	804.43
425.746	824.31
426.123	842.17
426.499	826.12
426.875	890.08
427.251	862.96
427.627	896.4
428.003	882.84
428.379	892.56
428.756	909.06
429.132	905.67
429.507	915.84
429.883	923.97
430.259	957.64
430.635	965.1
431.011	963.07
431.387	975.95
431.763	993.35
432.138	1008.04
432.514	1011.43
432.89	1026.34
433.265	1051.65
433.641	1067.92
434.016	1053.46
434.392	1075.83
434.767	1075.83
435.143	1084.19
435.518	1097.53
435.894	1144.76
436.269	1127.81
436.644	1158.77
437.02	1169.84
437.395	1167.36
437.77	1170.07
438.145	1167.58
438.52	1195.6
438.895	1199.22
439.271	1208.49
439.646	1225.21
440.021	1245.09
440.395	1259.11
440.77	1232.44
441.145	1265.21
441.52	1280.8
441.895	1291.42
442.27	1267.01
442.645	1273.57
443.019	1302.49
443.394	1309.05
443.769	1303.17
444.143	1286.22
444.518	1326
444.892	1318.31
445.267	1332.32
445.641	1334.58
446.016	1347.01
446.39	1338.88
446.764	1356.28
447.139	1348.59
447.513	1372.55
447.887	1388.37
448.262	1375.26
448.636	1387.69
449.01	1362.83
449.384	1371.64
449.758	1408.48
450.132	1415.94
450.506	1417.07
450.88	1445.99
451.254	1409.61
451.628	1450.96
452.002	1448.03
452.376	1462.26
452.75	1481.92
453.123	1468.37
453.497	1485.31
453.871	1471.76
454.244	1507.69
454.618	1521.7
454.992	1547.69
455.365	1509.49
455.739	1540.68
456.112	1544.97
456.486	1574.35
456.859	1584.07
457.232	1604.41
457.606	1582.94
457.979	1601.92
458.352	1624.29
458.725	1661.35
459.099	1673.33
459.472	1659.32
459.845	1669.26
460.218	1696.61
460.591	1710.62
460.964	1698.87
461.337	1731.64
461.71	1760.11
462.083	1758.53
462.456	1783.61
462.829	1757.62
463.201	1779.09
463.574	1808.92
463.947	1808.02
464.32	1865.87
464.692	1831.29
465.065	1886.21
465.438	1852.54
465.81	1889.37
466.183	1923.95
466.555	1951.29
466.928	1951.06
467.3	1938.18
467.672	1965.08
468.045	2013.44
468.417	2018.41
468.789	1997.62
469.161	2048.69
469.534	2047.79
469.906	2094.79
470.278	2105.86
470.65	2109.03
471.022	2144.96
471.394	2171.17
471.766	2184.96
472.138	2201
472.51	2227.44
472.882	2262.02
473.253	2254.11
473.625	2292.75
473.997	2332.07
474.369	2343.82
474.74	2345.18
475.112	2379.53
475.484	2435.12
475.855	2474.44
476.227	2472.86
476.598	2473.99
476.97	2534.78
477.341	2535.23
477.713	2588.56
478.084	2593.53
478.455	2694.55
478.827	2665.17
479.198	2704.72
479.569	2671.05
479.94	2733.19
480.311	2800.53
480.682	2836.92
481.053	2900.64
481.424	2906.07
481.795	2934.54
482.166	2978.61
482.537	3000.98
482.908	3045.05
483.279	3039.62
483.65	3052.28
484.021	3118.72
484.391	3162.78
484.762	3201.43
485.133	3191.26
485.503	3242.56
485.874	3278.49
486.244	3294.53
486.615	3382.89
486.985	3398.26
487.356	3406.17
487.726	3478.03
488.097	3496.33
488.467	3502.44
488.837	3561.19
489.207	3601.19
489.578	3589.44
489.948	3625.37
490.318	3675.31
490.688	3677.35
491.058	3730
491.428	3787.17
491.798	3828.98
492.168	3872.14
492.538	3878.7
492.908	3900.62
493.278	3916.66
493.648	3968.64
494.017	3953.27
494.387	4008.41
494.757	4040.5
495.126	4069.65
495.496	4069.2
495.866	4092.03
496.235	4091.8
496.605	4144.23
496.974	4170.44
497.344	4232.36
497.713	4216.77
498.082	4193.04
498.452	4242.3
498.821	4271.91
499.19	4279.59
499.559	4321.17
499.928	4290.89
500.298	4346.48
500.667	4379.48
501.036	4355.97
501.405	4408.4
501.774	4391
502.143	4453.15
502.512	4459.7
502.88	4466.93
503.249	4495.63
503.618	4542.63
503.987	4533.37
504.356	4588.06
504.724	4567.27
505.093	4609.07
505.462	4576.76
505.83	4649.3
506.199	4632.8
506.567	4656.76
506.936	4647.72
507.304	4728.39
507.672	4751.89
508.041	4781.5
508.409	4798.67
508.777	4828.95
509.145	4822.18
509.514	4831.67
509.882	4869.41
510.25	4852.01
510.618	4898.78
510.986	4898.11
511.354	4948.27
511.722	4958.9
512.09	4950.99
512.458	4949.86
512.826	4990.08
513.193	5011.32
513.561	4985.34
513.929	5030.76
514.297	5055.62
514.664	5041.83
515.032	5154.14
515.4	5089.06
515.767	5082.73
516.135	5106.91
516.502	5105.78
516.869	5147.36
517.237	5184.65
517.604	5163.86
517.972	5168.61
518.339	5193.24
518.706	5257.19
519.073	5261.26
519.44	5304.42
519.808	5262.39
520.175	5277.3
520.542	5324.99
520.909	5336.51
521.276	5353.91
521.643	5380.13
522.009	5384.42
522.376	5407.47
522.743	5414.7
523.11	5493.8
523.477	5536.73
523.843	5544.64
524.21	5564.08
524.577	5593.68
524.943	5571.08
525.31	5655.6
525.676	5681.14
526.043	5663.28
526.409	5693.11
526.776	5748.93
527.142	5773.56
527.508	5830.96
527.874	5839.78
528.241	5917.51
528.607	5903.5
528.973	5979.21
529.339	5934.69
529.705	6012.2
530.071	5972.43
530.437	6043.61
530.803	6028.7
531.169	6103.5
531.535	6091.29
531.901	6128.13
532.267	6168.35
532.632	6206.55
532.998	6193.21
533.364	6260.56
533.73	6248.8
534.095	6306.88
534.461	6297.39
534.826	6370.16
535.192	6395.47
535.557	6387.33
535.923	6430.72
536.288	6432.75
536.653	6483.37
537.019	6437.73
537.384	6479.08
537.749	6519.53
538.114	6529.25
538.479	6631.85
538.845	6651.05
539.21	6592.07
539.575	6706.65
539.94	6644.5
540.305	6734.22
540.67	6691.96
541.034	6711.84
541.399	6781.45
541.764	6789.36
542.129	6896.02
542.494	6913.65
542.858	6844.95
543.223	6934.66
543.587	6980.31
543.952	6943.7
544.316	6933.98
544.681	6975.11
545.045	7078.61
545.41	7052.85
545.774	7177.82
546.138	7160.87
546.503	7072.51
546.867	7100.99
547.231	7281.77
547.595	7275.67
547.959	7265.28
548.324	7351.6
548.688	7333.07
549.052	7360.87
549.416	7370.58
549.779	7354.76
550.143	7368.78
550.507	7432.05
550.871	7446.29
551.235	7447.87
551.599	7573.52
551.962	7536.45
552.326	7519.73
552.689	7593.4
553.053	7560.86
553.417	7596.34
553.78	7678.37
554.143	7632.5
554.507	7694.19
554.87	7706.62
555.234	7820.29
555.597	7766.5
555.96	7814.41
556.323	7854.64
556.686	7826.84
557.05	7875.43
557.413	7906.39
557.776	7896.44
558.139	7954.07
558.502	7954.75
558.865	7938.7
559.228	7961.98
559.59	8008.08
559.953	8062.09
560.316	8090.79
560.679	8107.96
561.041	8154.97
561.404	8161.07
561.767	8201.97
562.129	8205.82
562.492	8304.34
562.854	8222.09
563.217	8277.23
563.579	8353.38
563.941	8360.39
564.304	8375.08
564.666	8448.97
565.028	8440.16
565.39	8434.06
565.753	8443.32
566.115	8507.05
566.477	8529.65
566.839	8495.53
567.201	8586.37
567.563	8611.91
567.925	8612.36
568.287	8713.6
568.648	8664.33
569.01	8759.93
569.372	8828.62
569.734	8832.47
570.095	8819.58
570.457	8904.33
570.819	8865.23
571.18	8935.51
571.542	8974.61
571.903	9034.95
572.265	9100.26
572.626	9164.89
572.987	9229.07
573.349	9198.78
573.71	9281.04
574.071	9344.99
574.432	9428.38
574.794	9506.12
575.155	9497.08
575.516	9527.59
575.877	9648.04
576.238	9678.32
576.599	9724.19
576.96	9869.5
577.32	9891.65
577.681	9980.91
578.042	10094.81
578.403	10203.05
578.763	10302.48
579.124	10320.56
579.485	10512.2
579.845	10680.78
580.206	10711.06
580.566	10832.86
580.927	10956.03
581.287	11090.49
581.648	11274.44
582.008	11441.89
582.368	11487.31
582.728	11692.05
583.089	11788.09
583.449	12014.08
583.809	12210
584.169	12344.24
584.529	12553.5
584.889	12845.47
585.249	12996.88
585.609	13117.1
585.969	13421.95
586.329	13510.76
586.688	13734.26
587.048	13986.45
587.408	14258.31
587.768	14553.45
588.127	14741.01
588.487	14964.06
588.846	15273.43
589.206	15540.76
589.565	15839.29
589.925	16106.4
590.284	16274.53
590.643	16670.45
591.003	16999.48
591.362	17284.9
591.721	17549.98
592.08	17785.68
592.44	18151.77
592.799	18440.35
593.158	18723.73
593.517	18975.48
593.876	19392.41
594.235	19517.38
594.593	20006.63
594.952	20275.78
595.311	20477.36
595.67	20854.07
596.029	21315.98
596.387	21608.85
596.746	21968.84
597.104	22105.56
597.463	22445.89
597.822	22950.96
598.18	23044.3
598.538	23405.19
598.897	23754.56
599.255	23905.74
599.613	24543.24
599.972	24616.68
600.33	25032.72
600.688	25304.35
601.046	25598.35
601.404	25912.92
601.762	26244.66
602.12	26596.97
602.478	26919
602.836	27149.5
603.194	27330.96
603.552	27789.71
603.91	27831.06
604.268	28194.44
604.625	28410.48
604.983	28826.97
605.341	28912.84
605.698	29353.06
606.056	29571.36
606.413	29869.88
606.771	30057.22
607.128	30446.81
607.485	30627.6
607.843	30801.38
608.2	31198.21
608.557	31497.63
608.914	31625.54
609.272	31937.62
609.629	32178.97
609.986	32457.38
610.343	32590.03
610.7	32904.15
611.057	33195.21
611.414	33322.9
611.771	33488.99
612.127	33770.79
612.484	33943.9
612.841	34194.74
613.198	34205.58
613.554	34482.19
613.911	34689.86
614.267	34852.35
614.624	35140.93
614.98	35325.33
615.337	35578.65
615.693	35752.21
616.05	35786.56
616.406	36243.27
616.762	36132.76
617.118	36437.62
617.475	36293.66
617.831	36658.85
618.187	36827.89
618.543	36922.8
618.899	37247.76
619.255	37352.62
619.611	37405.73
619.967	37748.09
620.323	37777.24
620.678	37665.83
621.034	37852.72
621.39	37972.04
621.746	38012.04
622.101	38583.55
622.457	38414.29
622.812	38463.78
623.168	38673.49
623.523	38715.3
623.879	38958.91
624.234	38743.77
624.589	38983.99
624.945	39064.21
625.3	39239.12
625.655	39274.6
626.01	39363.41
626.365	39499.68
626.72	39413.36
627.075	39590.53
627.43	39682.95
627.785	39572.45
628.14	39893.57
628.495	39824.87
628.85	39965.43
629.205	39767.7
629.559	40058.76
629.914	39850.86
630.269	40200.45
630.623	40105.99
630.978	40101.25
631.332	40268.48
631.687	40407.91
632.041	40245.65
632.396	40363.16
632.75	40305.08
633.104	40228.25
633.459	40188.48
633.813	40287.91
634.167	40243.39
634.521	40260.79
634.875	40412.88
635.229	40328.36
635.583	40205.65
635.937	40207.69
636.291	40384.63
636.645	40317.97
636.999	40369.94
637.352	40524.51
637.706	40244.75
638.06	40430.05
638.413	40333.33
638.767	40335.37
639.121	40386.66
639.474	40000.46
639.828	40138.08
640.181	40234.35
640.534	40374.91
640.888	40109.61
641.241	40030.06
641.594	40240
641.947	40383.95
642.301	40219.66
642.654	40375.36
643.007	40302.82
643.36	40147.35
643.713	40182.15
644.066	40369.04
644.419	40174.24
644.771	39916.85
645.124	39501.26
645.477	39423.3
645.83	39170.65
646.182	39176.07
646.535	39062.41
646.888	39075.29
647.24	38907.83
647.593	39052.46
647.945	39044.1
648.298	38830.09
648.65	38784.67
649.002	38734.05
649.355	39021.73
649.707	38900.38
650.059	39034.84
650.411	39428.05
650.763	39502.17
651.115	39981.03
651.467	39797.3
651.819	39565.44
652.171	39564.99
652.523	39684.54
652.875	39665.55
653.227	39525.67
653.578	39804.76
653.93	39610.64
654.282	39478.21
654.633	39345.56
654.985	39604.76
655.337	39463.07
655.688	39494.71
656.039	39635.27
656.391	39310.08
656.742	39480.7
657.094	39363.19
657.445	39440.02
657.796	39481.83
658.147	39351.44
658.498	39402.74
658.849	39508.04
659.2	39398.89
659.551	39367.71
659.902	39499.46
660.253	39482.28
660.604	39409.97
660.955	39362.74
661.306	39323.87
661.656	39348.5
662.007	39399.35
662.358	39361.38
662.708	39252
663.059	39273.02
663.409	39013.37
663.76	39280.7
664.11	39432.56
664.461	39308.95
664.811	39330.19
665.161	39299.69
665.511	39195.73
665.862	39282.74
666.212	39410.87
666.562	39332.91
666.912	39320.7
667.262	39362.96
667.612	39204.55
667.962	39268.5
668.312	39257.2
668.662	39344.43
669.011	39245.45
669.361	39230.76
669.711	39178.79
670.06	39104.66
670.41	38954.84
670.76	39041.61
671.109	39089.3
671.459	39049.75
671.808	38975.4
672.157	39104.21
672.507	38868.06
672.856	38785.12
673.205	38900.15
673.554	39006.14
673.904	38884.1
674.253	39141.95
674.602	38985.8
674.951	38430.78
675.3	38143.79
675.649	38738.8
675.998	38900.38
676.346	38786.25
676.695	38944.22
677.044	38733.37
677.393	38799.81
677.741	38727.05
678.09	38733.83
678.438	38584.68
678.787	38641.4
679.135	38603.89
679.484	38445.47
679.832	38542.42
680.181	38240.51
680.529	38467.84
680.877	38378.13
681.225	38322.54
681.573	38621.51
681.922	38199.38
682.27	38031.7
682.618	38201.64
682.966	38102.88
683.314	38097.46
683.661	38089.1
684.009	37975.88
684.357	37883.23
684.705	37674.87
685.053	37917.35
685.4	37805.04
685.748	37689.11
686.095	37516.01
686.443	37455.22
686.79	37521.2
687.138	37534.54
687.485	37588.77
687.832	37440.98
688.18	37333.64
688.527	37319.17
688.874	37125.28
689.221	37163.92
689.568	37030.37
689.915	37062.91
690.262	36917.6
690.609	36827.44
690.956	36742.47
691.303	36735.46
691.65	36492.3
691.997	36620.21
692.344	36244.85
692.69	36403.04
693.037	36310.61
693.383	36090.28
693.73	36207.56
694.077	35944.07
694.423	35986.33
694.769	35794.47
695.116	35830.4
695.462	35672.66
695.808	35702.04
696.155	35650.97
696.501	35443.97
696.847	35368.49
697.193	35152.23
697.539	35243.07
697.885	35011.66
698.231	34988.16
698.577	35010.31
698.923	34904.1
699.269	34643.09
699.614	34585.69
699.96	34593.37
700.306	34519.25
700.651	34444
700.997	34280.38
701.342	34296.88
701.688	34251.01
702.033	34079.71
702.379	34235.19
702.724	34078.13
703.069	34025.93
703.415	33747.29
703.76	33807.18
704.105	33690.12
704.45	33644.47
704.795	33463
705.14	33431.37
705.485	33307.08
705.83	33167.19
706.175	33268.43
706.52	33027.99
706.865	33030.93
707.209	32916.13
707.554	32872.29
707.899	32968.78
708.243	32608.79
708.588	32663.93
708.932	32460.77
709.277	32501.45
709.621	32528.11
709.966	32201.12
710.31	32426.2
710.654	32013.78
710.998	32151.4
711.342	32059.65
711.687	32086.09
712.031	31935.36
712.375	31726.1
712.719	31802.03
713.063	31734.24
713.407	31792.99
713.75	31605.88
714.094	31708.02
714.438	31430.97
714.782	31515.48
715.125	31409.27
715.469	31486.56
715.812	31164.53
716.156	31179
716.499	31085.89
716.843	31196.4
717.186	30890.87
717.53	31159.34
717.873	31001.15
718.216	30974.26
718.559	30919.57
718.902	30602.29
719.246	30788.05
719.589	30640.71
719.932	30544.89
720.275	30362.97
720.617	30496.53
720.96	30328.85
721.303	30447.72
721.646	30389.41
721.989	30216.76
722.331	30360.94
722.674	30294.05
723.016	30181.51
723.359	30071.46
723.701	30143.77
724.044	29907.39
724.386	29805.7
724.729	29874.4
725.071	29801.63
725.413	29954.62
725.755	29821.07
726.097	29583.33
726.439	29483.45
726.782	29595.31
727.124	29614.74
727.465	29399.16
727.807	29381.3
728.149	29256.79
728.491	29285.26
728.833	29324.81
729.175	29193.96
729.516	29068.32
729.858	29149.67
730.199	29135.66
730.541	28990.58
730.882	28968.21
731.224	29029.67
731.565	28888.21
731.906	28846.4
732.248	28976.57
732.589	28842.79
732.93	28640.53
733.271	28798.49
733.612	28797.59
733.953	28800.08
734.294	28660.42
734.635	28538.84
734.976	28684.37
735.317	28495.9
735.658	28485.73
735.999	28383.14
736.339	28434.66
736.68	28360.54
737.021	28282.8
737.361	28288.45
737.702	28359.18
738.042	28243.03
738.383	28189.47
738.723	28301.11
739.063	28048.01
739.404	28141.11
739.744	27993.77
740.084	27975.24
740.424	27985.18
740.764	27827.67
741.104	27955.58
741.444	27817.73
741.784	27755.58
742.124	27808.46
742.464	27671.29
742.804	27766.66
743.143	27562.14
743.483	27668.35
743.823	27464.07
744.162	27504.06
744.502	27413.67
744.841	27390.85
745.181	27470.17
745.52	27279.89
745.86	27411.86
746.199	27204.64
746.538	27297.74
746.877	27154.7
747.216	27232.43
747.556	27071.08
747.895	27163.28
748.234	26984.08
748.573	26996.28
748.911	26984.08
749.25	27000.35
749.589	26759.45
749.928	26877.19
750.267	26910.86
750.605	26657.53
750.944	26561.94
751.283	26460.7
751.621	26720.13
751.96	26506.35
752.298	26407.6
752.636	26409.4
752.975	26257.09
753.313	26151.11
753.651	26215.74
753.989	26150.65
754.327	26084.44
754.666	26044.89
755.004	25912.47
755.342	26033.37
755.679	25926.48
756.017	25743.89
756.355	25879.02
756.693	25698.46
757.031	25670.44
757.368	25575.3
757.706	25627.96
758.044	25496.66
758.381	25465.02
758.719	25425.02
759.056	25420.73
759.394	25326.04
759.731	25033.4
760.068	25122.88
760.405	25014.86
760.743	24961.53
761.08	24957.01
761.417	24792.5
761.754	24816
762.091	24738.04
762.428	24553.63
762.765	24565.84
763.102	24554.54
763.438	24433.86
763.775	24287.2
764.112	24414.2
764.449	24325.62
764.785	24220.08
765.122	24046.98
765.458	24057.15
765.795	23896.48
766.131	23884.27
766.467	23755.01
766.804	23691.96
767.14	23562.7
767.476	23518.18
767.812	23420.78
768.148	23401.57
768.485	23274.12
768.821	23148.47
769.157	23225.76
769.492	23052.43
769.828	23032.54
770.164	22851.76
770.5	22796.39
770.836	22716.39
771.171	22607.7
771.507	22700.35
771.842	22466.23
772.178	22507.36
772.513	22341.04
772.849	22295.16
773.184	22134.26
773.519	22219.68
773.855	22057.2
774.19	21962.29
774.525	22030.99
774.86	21878
775.195	21866.25
775.53	21796.42
775.865	21679.59
776.2	21629.64
776.535	21314.85
776.87	21434.39
777.205	21329.99
777.539	21172.71
777.874	21304.23
778.209	21014.52
778.543	21067.17
778.878	20778.59
779.212	20871.7
779.547	20851.13
779.881	20701.53
780.215	20623.12
780.55	20669.22
780.884	20451.82
781.218	20344.71
781.552	20417.02
781.886	20280.07
782.22	20229.45
782.554	20117.37
782.888	19955.79
783.222	19908.78
783.556	19855.68
783.889	19777.94
784.223	19541.56
784.557	19544.5
784.89	19624.27
785.224	19435.12
785.557	19412.53
785.891	19377.5
786.224	19266.54
786.558	19383.6
786.891	19150.39
787.224	19066.55
787.557	18997.17
787.891	18892.09
788.224	18870.85
788.557	18874.69
788.89	18875.59
789.223	18745.43
789.556	18567.8
789.888	18613
790.221	18446
790.554	18370.52
790.887	18494.58
791.219	18312.67
791.552	18257.98
791.884	18234.03
792.217	18114.93
792.549	18099.34
792.882	18017.76
793.214	17926.46
793.546	17907.48
793.879	17765.56
794.211	17683.08
794.543	17800.59
794.875	17655.74
795.207	17732.34
795.539	17580.71
795.871	17593.37
796.203	17388.85
796.535	17288.51
796.867	17209.19
797.198	17209.65
797.53	17157.44
797.862	17137.56
798.193	17126.03
798.525	17039.71
798.856	17022.08
799.188	16953.61
799.519	16754.29
799.85	16739.15
800.182	16757.91
800.513	16714.29
800.844	16574.41
801.175	16605.82
801.506	16521.98
801.837	16465.49
802.168	16483.79
802.499	16467.97
802.83	16346.17
803.161	16327.41
803.491	16347.3
803.822	16210.12
804.153	16161.99
804.483	16039.73
804.814	15939.62
805.145	15905.05
805.475	15974.88
805.805	15894.65
806.136	15927.65
806.466	15762.23
806.796	15763.13
807.126	15642.68
807.457	15607.43
807.787	15682.68
808.117	15615.79
808.447	15545.74
808.777	15540.31
809.107	15473.65
809.436	15388.68
809.766	15360.88
810.096	15410.82
810.426	15348.45
810.755	15422.12
811.085	15300.09
811.414	15169.02
811.744	15086.09
812.073	15125.41
812.403	15137.16
812.732	15004.73
813.061	14950.04
813.39	14924.06
813.719	14833.89
814.049	15048.35
814.378	14805.42
814.707	14862.36
815.036	14740.11
815.365	14724.06
815.693	14609.26
816.022	14614.01
816.351	14569.49
816.68	14435.71
817.008	14514.12
817.337	14347.8
817.665	14325.65
817.994	14408.14
818.322	14370.85
818.651	14249.72
818.979	14192.1
819.307	14356.61
819.636	14231.42
819.964	14147.58
820.292	14139.44
820.62	14097.64
820.948	14096.96
821.276	14232.32
821.604	14093.12
821.932	14063.97
822.259	14129.95
822.587	14107.36
822.915	13998.43
823.243	14194.58
823.57	14073.91
823.898	14129.05
824.225	13998.43
824.553	14064.19
824.88	14007.7
825.207	14049.28
825.535	14059.9
825.862	14021.93
826.189	13977.64
826.516	14084.53
826.843	14055.61
827.17	14121.59
827.497	14136.51
827.824	14076.17
828.151	14113.68
828.478	14144.19
828.805	14087.47
829.131	14037.3
829.458	14041.14
829.785	13929.05
830.111	14054.48
830.438	14066.68
830.764	14068.94
831.09	14048.6
831.417	13910.3
831.743	14018.54
832.069	13946.23
832.395	13924.08
832.722	13968.83
833.048	13944.87
833.374	13978.32
833.7	13867.14
834.026	13889.73
834.351	13912.33
834.677	13884.99
835.003	13882.5
835.329	13845.44
835.654	13810.87
835.98	13768.83
836.306	13800.02
836.631	13736.74
836.956	13750.08
837.282	13778.78
837.607	13722.96
837.932	13646.12
838.258	13612.45
838.583	13626.01
838.908	13548.5
839.233	13543.08
839.558	13521.83
839.883	13498.11
840.208	13486.81
840.533	13434.38
840.858	13420.82
841.182	13439.8
841.507	13445.68
841.832	13405.23
842.156	13210.2
842.481	13337.66
842.805	13229.64
843.13	13184.22
843.454	13198.23
843.778	13179.47
844.103	13162.97
844.427	13137.89
844.751	13099.7
845.075	13056.54
845.399	13045.69
845.723	12907.16
846.047	13004.56
846.371	12892.7
846.695	12894.51
847.019	12715.98
847.343	12758.01
847.666	12657.68
847.99	12554.85
848.313	12535.42
848.637	12510.11
848.96	12490
849.284	12539.94
849.607	12442.31
849.931	12309.66
850.254	12182.66
850.577	12165.94
850.9	12112.83
851.223	12118.71
851.546	12108.99
851.869	11937.24
852.192	11991.48
852.515	11943.8
852.838	11936.11
853.161	11863.35
853.483	11801.65
853.806	11770.24
854.129	11756
854.451	11654.99
854.774	11625.61
855.096	11643.92
855.419	11459.52
855.741	11493.41
856.063	11474.88
856.385	11484.6
856.708	11443.47
857.03	11333.64
857.352	11376.35
857.674	11323.93
857.996	11287.77
858.318	11252.51
858.64	11273.08
858.961	11150.37
859.283	11094.33
859.605	11096.13
859.926	11137.72
860.248	11114.21
860.57	10986.31
860.891	11018.17
861.212	10978.17
861.534	10950.6
861.855	10891.62
862.176	10988.34
862.498	10852.53
862.819	10878.74
863.14	10809.81
863.461	10746.77
863.782	10771.17
864.103	10867.89
864.424	10703.83
864.745	10718.29
865.065	10645.53
865.386	10682.81
865.707	10675.35
866.027	10627.22
866.348	10636.71
866.668	10625.19
866.989	10549.48
867.309	10500.67
867.63	10537.73
867.95	10476.04
868.27	10479.88
868.59	10498.86
868.91	10466.77
869.23	10466.55
869.55	10436.94
869.87	10490.05
870.19	10397.62
870.51	10455.02
870.83	10380
871.15	10273.56
871.469	10389.49
871.789	10397.62
872.109	10356.95
872.428	10233.33
872.748	10229.04
873.067	10256.83
873.386	10323.95
873.706	10191.07
874.025	10168.93
874.344	10170.74
874.663	10105.43
874.982	10117.18
875.301	10102.04
875.62	10181.13
875.939	10019.55
876.258	10140.23
876.577	10026.11
876.896	10013.23
877.214	10078.76
877.533	9992.21
877.852	10045.31
878.17	10018.65
878.489	9929.84
878.807	9931.65
879.125	9894.36
879.444	9911.99
879.762	9932.55
880.08	9880.35
880.398	9846.45
880.716	9869.73
881.034	9795.83
881.352	9827.69
881.67	9724.87
881.988	9816.62
882.306	9805.55
882.624	9727.13
882.941	9679
883.259	9611.43
883.577	9618.43
883.894	9595.84
884.212	9585.89
884.529	9640.13
884.846	9577.76
885.164	9633.35
885.481	9476.97
885.798	9537.76
886.115	9424.54
886.432	9488.04
886.75	9418.66
887.067	9382.96
887.383	9369.85
887.7	9428.61
888.017	9387.03
888.334	9316.29
888.651	9327.14
888.967	9299.35
889.284	9246.47
889.6	9190.42
889.917	9119.69
890.233	9133.25
890.55	9156.75
890.866	9105
891.182	9103.87
891.498	9089.18
891.815	9001.95
892.131	8989.75
892.447	8963.54
892.763	9026.58
893.079	8854.61
893.395	8881.05
893.71	8889.64
894.026	8882.63
894.342	8801.05
894.657	8741.17
894.973	8808.06
895.289	8809.64
895.604	8706.14
895.92	8632.7
896.235	8601.29
896.55	8636.54
896.865	8567.84
897.181	8554.28
897.496	8580.49
897.811	8496.88
898.126	8468.63
898.441	8483.32
898.756	8395.87
899.071	8384.79
899.386	8379.14
899.7	8337.79
900.015	8299.15
900.33	8237
900.644	8249.43
900.959	8200.62
901.273	8133.73
901.588	8142.99
901.902	8132.82
902.216	8084.91
902.531	8111.81
902.845	8039.72
903.159	7998.14
903.473	7989.55
903.787	7891.25
904.101	7848.54
904.415	7943.9
904.729	7883.34
905.042	7847.86
905.356	7806.96
905.67	7817.12
905.984	7766.05
906.297	7720.4
906.611	7669.78
906.924	7617.81
907.237	7623.68
907.551	7618.26
907.864	7586.85
908.177	7583.46
908.491	7521.54
908.804	7465.27
909.117	7365.39
909.43	7371.26
909.743	7380.3
910.056	7337.36
910.368	7294.65
910.681	7307.31
910.994	7239.29
911.307	7222.11
911.619	7180.76
911.932	7182.11
912.244	7175.11
912.557	7047.43
912.869	7103.25
913.181	7073.64
913.494	7050.82
913.806	7050.37
914.118	7033.19
914.43	6951.39
914.742	6901.89
915.054	6874.1
915.366	6875.45
915.678	6848.79
915.99	6784.84
916.302	6766.31
916.613	6779.19
916.925	6785.51
917.236	6708
917.548	6638.4
917.859	6702.8
918.171	6606.31
918.482	6597.04
918.794	6599.08
919.105	6583.03
919.416	6530.15
919.727	6503.71
920.038	6504.62
920.349	6408.8
920.66	6412.64
920.971	6346.43
921.282	6368.35
921.593	6327.9
921.903	6315.92
922.214	6235.92
922.525	6270.95
922.835	6203.16
923.146	6187.34
923.456	6237.73
923.767	6100.11
924.077	6162.71
924.387	6119.99
924.697	6046.1
925.008	6046.55
925.318	6010.62
925.628	6040.45
925.938	5980.79
926.248	5977.85
926.558	5920.9
926.867	5870.51
927.177	5859.66
927.487	5839.78
927.796	5784.86
928.106	5786.9
928.416	5748.93
928.725	5753.9
929.034	5693.11
929.344	5675.94
929.653	5692.44
929.962	5636.39
930.271	5631.87
930.581	5624.41
930.89	5621.48
931.199	5539.22
931.508	5549.61
931.817	5523.17
932.125	5501.03
932.434	5508.03
932.743	5406.34
933.051	5421.26
933.36	5394.14
933.669	5386.68
933.977	5296.06
934.286	5280.69
934.594	5288.38
934.902	5261.49
935.21	5232.11
935.519	5249.06
935.827	5239.11
936.135	5222.39
936.443	5177.87
936.751	5144.2
937.059	5122.96
937.367	5074.6
937.674	5072.11
937.982	5086.12
938.29	5049.29
938.597	5004.09
938.905	4969.29
939.213	5005.22
939.52	4953.47
939.827	4963.41
940.135	4906.24
940.442	4915.05
940.749	4860.59
941.056	4852.91
941.363	4788.96
941.67	4781.27
941.977	4783.98
942.284	4781.05
942.591	4731.56
942.898	4737.88
943.205	4701.73
943.511	4706.02
943.818	4674.83
944.125	4648.85
944.431	4615.4
944.738	4630.77
945.044	4575.4
945.35	4542.63
945.657	4543.54
945.963	4519.58
946.269	4499.92
946.575	4480.49
946.881	4478.23
947.187	4451.11
947.493	4436.42
947.799	4446.59
948.105	4381.06
948.41	4332.47
948.716	4347.39
949.022	4327.05
949.327	4343.09
949.633	4273.49
949.938	4271
950.244	4306.26
950.549	4227.16
950.854	4181.29
951.16	4205.92
951.465	4181.06
951.77	4167.96
952.075	4155.98
952.38	4136.09
952.685	4140.84
952.99	4087.51
953.294	4072.59
953.599	4049.99
953.904	4022.2
954.209	4026.94
954.513	4018.58
954.818	4006.83
955.122	3969.32
955.426	4007.06
955.731	3907.62
956.035	3958.7
956.339	3874.63
956.643	3935.42
956.948	3857
957.252	3885.02
957.556	3842.54
957.86	3835.99
958.163	3818.36
958.467	3784.24
958.771	3746.27
959.075	3741.3
959.378	3740.17
959.682	3749.89
959.985	3744.92
960.289	3681.87
960.592	3660.4
960.896	3640.29
961.199	3677.57
961.502	3654.75
961.805	3601.19
962.108	3577.69
962.411	3579.5
962.714	3570.91
963.017	3492.49
963.32	3543.79
963.623	3539.05
963.926	3515.54
964.228	3474.19
964.531	3487.75
964.833	3484.13
965.136	3439.61
965.438	3428.54
965.741	3419.5
966.043	3444.81
966.345	3342.89
966.648	3354.19
966.95	3365.04
967.252	3324.36
967.554	3355.32
967.856	3324.14
968.158	3312.84
968.46	3297.02
968.761	3231.71
969.063	3233.74
969.365	3225.38
969.666	3226.06
969.968	3166.17
970.269	3234.65
970.571	3151.71
970.872	3203.23
971.174	3169.11
971.475	3137.93
971.776	3147.87
972.077	3169.34
972.378	3087.53
972.679	3082.79
972.98	3090.47
973.281	3078.72
973.582	3047.53
973.883	3001.21
974.183	3029.45
974.484	3025.39
974.785	3014.99
975.085	3026.06
975.386	2978.38
975.686	2950.13
975.986	2931.38
976.287	2945.84
976.587	2911.94
976.887	2924.15
977.187	2883.47
977.487	2914.88
977.787	2844.83
978.087	2847.31
978.387	2823.36
978.687	2803.92
978.987	2802.57
979.286	2784.71
979.586	2799.86
979.885	2753.76
980.185	2781.55
980.484	2771.38
980.784	2739.97
981.083	2711.5
981.382	2718.05
981.682	2694.55
981.981	2664.04
982.28	2681.44
982.579	2692.29
982.878	2708.78
983.177	2685.96
983.475	2634.66
983.774	2587.66
984.073	2628.56
984.372	2587.88
984.67	2624.27
984.969	2606.87
985.267	2568.9
985.566	2569.13
985.864	2559.41
986.162	2518.96
986.461	2529.81
986.759	2496.81
987.057	2533.42
987.355	2483.93
987.653	2477.83
987.951	2507.66
988.249	2485.74
988.547	2448.45
988.844	2467.44
989.142	2438.51
989.44	2452.52
989.737	2404.16
990.035	2403.93
990.332	2365.29
990.63	2389.25
990.927	2389.47
991.224	2327.78
991.521	2335.91
991.819	2305.18
992.116	2320.55
992.413	2331.39
992.71	2314.9
993.006	2286.2
993.303	2274.67
993.6	2223.83
993.897	2259.76
994.193	2240.55
994.49	2251.85
994.787	2238.74
995.083	2207.55
995.379	2175.92
995.676	2213.66
995.972	2152.42
996.268	2181.79
996.565	2157.16
996.861	2181.34
997.157	2146.99
997.453	2115.81
997.749	2115.81
998.044	2114.45
998.34	2115.58
998.636	2077.39
998.932	2063.83
999.227	2066.77
999.523	2088.24
999.818	2038.29
1000.114	2021.12
1000.409	2011.18
1000.704	1988.58
1001	1987.45
1001.295	1959.65
1001.59	1995.58
1001.885	1991.97
1002.18	1975.02
1002.475	1950.84
1002.77	1936.38
1003.065	1942.7
1003.359	1924.17
1003.654	1923.27
1003.949	1896.83
1004.243	1898.41
1004.538	1892.99
1004.832	1857.51
1005.127	1888.47
1005.421	1858.19
1005.715	1838.3
1006.009	1837.4
1006.304	1814.57
1006.598	1815.7
1006.892	1810.5
1007.186	1780
1007.48	1788.36
1007.773	1784.06
1008.067	1765.31
1008.361	1758.3
1008.655	1739.32
1008.948	1754.23
1009.242	1719.43
1009.535	1718.75
1009.829	1686.44
1010.122	1695.93
1010.415	1690.73
1010.708	1661.13
1011.001	1667
1011.295	1662.03
1011.588	1648.02
1011.881	1636.27
1012.173	1638.76
1012.466	1631.3
1012.759	1622.94
1013.052	1625.42
1013.344	1600.79
1013.637	1585.42
1013.93	1575.48
1014.222	1593.11
1014.514	1553.79
1014.807	1517.63
1015.099	1559.44
1015.391	1506.33
1015.683	1526.44
1015.976	1510.85
1016.268	1500.23
1016.56	1502.49
1016.851	1470.85
1017.143	1469.5
1017.435	1471.3
1017.727	1438.08
1018.018	1437.86
1018.31	1417.52
1018.602	1418.2
1018.893	1420.68
1019.185	1420.01
1019.476	1393.34
1019.767	1407.35
1020.058	1383.62
1020.35	1388.82
1020.641	1362.83
1020.932	1335.26
1021.223	1374.13
1021.514	1371.19
1021.804	1345.2
1022.095	1327.35
1022.386	1315.15
1022.677	1302.04
1022.967	1295.49
1023.258	1273.57
1023.548	1284.19
1023.839	1291.42
1024.129	1285.77
1024.419	1264.75
1024.709	1262.5
1025	1253.91
1025.29	1232.21
1025.58	1220.69
1025.87	1227.24
1026.16	1210.75
1026.449	1201.71
1026.739	1195.15
1027.029	1207.13
1027.319	1162.61
1027.608	1189.5
1027.898	1176.85
1028.187	1154.48
1028.477	1170.07
1028.766	1146.79
1029.055	1126.23
1029.344	1150.63
1029.634	1103.4
1029.923	1136.62
1030.212	1110.63
1030.501	1089.84
1030.79	1104.76
1031.078	1088.04
1031.367	1060.24
1031.656	1071.31
1031.945	1058.43
1032.233	1036.51
1032.522	1078.77
1032.81	1042.84
1033.099	1045.1
1033.387	1031.54
1033.675	1022.28
1033.963	1030.41
1034.251	1005.33
1034.54	1000.36
1034.828	1031.99
1035.116	966.68
1035.403	1009.17
1035.691	992.22
1035.979	976.4
1036.267	979.56
1036.554	957.19
1036.842	965.55
1037.129	950.41
1037.417	924.42
1037.704	940.47
1037.992	942.05
1038.279	936.4
1038.566	958.1
1038.853	958.1
1039.14	958.1
