Data from hue_190_FLMS001491_00040.txt Node
Date: Tue Feb 07 16:45:13 GMT 2017
User: dcchb
Spectrometer: FLMS00149
Trigger mode: 0
Integration Time (sec): 2.000000E-2
Scans to average: 10
Electric dark correction enabled: true
Nonlinearity correction enabled: false
Boxcar width: 0
XAxis mode: Wavelengths
Number of Pixels in Spectrum: 2048
>>>>>Begin Spectral Data<<<<<
341.393	-7.98
341.776	-7.98
342.16	-7.98
342.543	-51.59
342.927	-69.22
343.31	-77.58
343.693	-49.11
344.077	-52.27
344.46	-57.92
344.843	-59.96
345.226	-49.11
345.61	-27.87
345.993	-7.75
346.376	-23.12
346.759	4.22
347.142	15.3
347.525	42.87
347.908	52.36
348.291	94.84
348.674	89.64
349.057	105.46
349.44	119.02
349.823	137.1
350.206	165.12
350.588	189.98
350.971	198.12
351.354	219.58
351.737	232.47
352.119	255.52
352.502	268.62
352.884	279.92
353.267	280.15
353.65	281.5
354.032	311.11
354.414	302.52
354.797	308.4
355.179	322.18
355.562	309.07
355.944	316.76
356.326	324.21
356.709	337.55
357.091	326.02
357.473	327.83
357.855	330.54
358.238	342.07
358.62	333.03
359.002	342.52
359.384	347.49
359.766	345.91
360.148	328.06
360.53	339.36
360.912	321.05
361.294	335.74
361.676	338.68
362.057	339.13
362.439	299.58
362.821	323.31
363.203	330.54
363.584	323.31
363.966	349.07
364.348	333.25
364.729	317.44
365.111	319.47
365.493	324.21
365.874	320.37
366.256	313.82
366.637	320.15
367.019	312.01
367.4	329.64
367.781	315.4
368.163	301.16
368.544	300.94
368.925	299.58
369.306	297.32
369.688	336.64
370.069	293.48
370.45	294.16
370.831	314.95
371.212	312.69
371.593	309.98
371.974	292.58
372.355	319.92
372.736	318.57
373.117	318.11
373.498	314.72
373.879	314.5
374.26	320.15
374.641	319.69
375.021	303.2
375.402	323.31
375.783	326.7
376.163	323.31
376.544	344.78
376.925	321.95
377.305	326.7
377.686	320.6
378.066	323.08
378.447	301.62
378.827	327.6
379.208	312.24
379.588	318.79
379.968	333.03
380.349	319.69
380.729	333.48
381.109	338
381.489	310.66
381.87	330.09
382.25	314.05
382.63	346.81
383.01	326.25
383.39	334.84
383.77	335.29
384.15	336.87
384.53	336.87
384.91	337.77
385.29	318.79
385.67	351.78
386.049	350.88
386.429	359.47
386.809	348.62
387.189	347.72
387.568	363.31
387.948	344.78
388.328	344.78
388.707	346.36
389.087	355.85
389.466	370.09
389.846	353.37
390.225	353.14
390.605	363.76
390.984	356.08
391.363	353.14
391.743	356.53
392.122	374.38
392.501	362.18
392.881	373.03
393.26	371.67
393.639	370.09
394.018	370.99
394.397	372.8
394.776	372.35
395.155	376.42
395.534	388.62
395.913	382.97
396.292	374.83
396.671	370.32
397.05	390.65
397.429	382.52
397.808	384.1
398.186	390.2
398.565	408.96
398.944	396.76
399.323	377.32
399.701	385
400.08	395.85
400.458	370.32
400.837	418.45
401.215	408.73
401.594	418.45
401.972	427.26
402.351	418.68
402.729	430.43
403.107	416.19
403.486	412.12
403.864	433.82
404.242	421.84
404.62	427.71
404.999	440.37
405.377	428.39
405.755	423.42
406.133	454.38
406.511	460.48
406.889	448.96
407.267	465.45
407.645	459.8
408.023	476.75
408.401	471.33
408.779	466.58
409.156	495.74
409.534	495.06
409.912	499.58
410.29	503.19
410.667	515.17
411.045	513.59
411.422	520.37
411.8	530.76
412.178	542.97
412.555	531.21
412.933	530.31
413.31	556.98
413.687	554.72
414.065	561.5
414.442	587.94
414.819	586.58
415.197	584.55
415.574	576.86
415.951	607.6
416.328	601.72
416.705	622.74
417.082	611.44
417.46	634.49
417.837	650.08
418.214	637.2
418.591	643.3
418.967	676.3
419.344	654.38
419.721	689.18
420.098	692.57
420.475	695.96
420.852	675.17
421.228	713.13
421.605	757.42
421.982	733.92
422.358	775.95
422.735	763.98
423.111	759.46
423.488	795.84
423.864	828.61
424.241	825.9
424.617	832.9
424.994	836.29
425.37	856.63
425.746	867.48
426.123	880.58
426.499	872.67
426.875	876.52
427.251	902.05
427.627	933.69
428.003	912.67
428.379	945.89
428.756	945.44
429.132	986.57
429.507	975.5
429.883	983.86
430.259	985.67
430.635	1028.15
431.011	1040.13
431.387	1035.16
431.763	1059.79
432.138	1052.11
432.514	1072.9
432.89	1092.33
433.265	1101.37
433.641	1122.16
434.016	1144.53
434.392	1176.4
434.767	1214.59
435.143	1197.64
435.518	1204.64
435.894	1236.51
436.269	1280.8
436.644	1305.21
437.02	1328.71
437.395	1301.36
437.77	1354.7
438.145	1403.73
438.52	1396.05
438.895	1393.11
439.271	1398.08
439.646	1436.05
440.021	1476.5
440.395	1489.38
440.77	1467.69
441.145	1526.67
441.52	1517.18
441.895	1565.99
442.27	1580.23
442.645	1573.67
443.019	1628.14
443.394	1600.57
443.769	1654.8
444.143	1643.5
444.518	1661.35
444.892	1708.59
445.267	1703.84
445.641	1724.86
446.016	1742.03
446.39	1766.21
446.764	1778.64
447.139	1759.43
447.513	1762.37
447.887	1808.47
448.262	1803.95
448.636	1840.33
449.01	1841.69
449.384	1863.38
449.758	1895.7
450.132	1894.34
450.506	1900.22
450.88	1927.11
451.254	1924.62
451.628	1929.37
452.002	1977.5
452.376	1989.93
452.75	2021.8
453.123	2032.42
453.497	2086.88
453.871	2071.06
454.244	2122.36
454.618	2163.04
454.992	2135.92
455.365	2165.52
455.739	2212.53
456.112	2229.02
456.486	2268.57
456.859	2243.71
457.232	2343.6
457.606	2341.79
457.979	2386.53
458.352	2415.46
458.725	2428.11
459.099	2456.14
459.472	2508.34
459.845	2518.06
460.218	2552.4
460.591	2559.64
460.964	2594.89
461.337	2639.18
461.71	2701.1
462.083	2702.68
462.456	2726.64
462.829	2729.12
463.201	2805.96
463.574	2801.44
463.947	2859.29
464.32	2951.26
464.692	2916.46
465.065	2979.74
465.438	2991.72
465.81	3075.55
466.183	3081.43
466.555	3163.24
466.928	3165.5
467.3	3191.26
467.672	3217.7
468.045	3295.66
468.417	3325.04
468.789	3373.63
469.161	3397.35
469.534	3458.37
469.906	3561.87
470.278	3567.52
470.65	3630.34
471.022	3697.01
471.394	3741.98
471.766	3814.74
472.138	3845.7
472.51	3906.04
472.882	3956.66
473.253	4015.42
473.625	4070.1
473.997	4193.72
474.369	4158.46
474.74	4292.47
475.112	4286.37
475.484	4403.43
475.855	4483.2
476.227	4552.58
476.598	4656.08
476.97	4663.76
477.341	4748.73
477.713	4844.55
478.084	4938.78
478.455	5013.81
478.827	5093.35
479.198	5199.34
479.569	5253.58
479.94	5359.79
480.311	5384.65
480.682	5537.41
481.053	5697.41
481.424	5820.57
481.795	5839.32
482.166	5910.06
482.537	5985.53
482.908	6168.81
483.279	6189.6
483.65	6306.2
484.021	6399.31
484.391	6458.06
484.762	6571.06
485.133	6634.11
485.503	6709.36
485.874	6867.55
486.244	6944.15
486.615	7123.13
486.985	7122.68
487.356	7247.42
487.726	7242
488.097	7479.73
488.467	7492.61
488.837	7713.17
489.207	7745.26
489.578	7875.65
489.948	7987.97
490.318	8078.59
490.688	8058.02
491.058	8197.68
491.428	8262.09
491.798	8328.52
492.168	8498.69
492.538	8469.76
492.908	8653.26
493.278	8709.98
493.648	8782.98
494.017	8865.68
494.387	8920.82
494.757	8976.19
495.126	9060.71
495.496	9131.89
495.866	9184.77
496.235	9291.44
496.605	9344.99
496.974	9307.48
497.344	9452.56
497.713	9500.92
498.082	9536.4
498.452	9544.76
498.821	9568.72
499.19	9629.05
499.559	9733.01
499.928	9782.05
500.298	9824.76
500.667	9877.86
501.036	9892.32
501.405	9900.46
501.774	9915.15
502.143	10033.11
502.512	10091.19
502.88	10097.07
503.249	10136.39
503.618	10190.4
503.987	10163.5
504.356	10199.21
504.724	10274.69
505.093	10232.2
505.462	10210.06
505.83	10331.41
506.199	10382.71
506.567	10432.2
506.936	10434.01
507.304	10549.26
507.672	10556.71
508.041	10524.85
508.409	10648.69
508.777	10643.94
509.145	10739.99
509.514	10624.96
509.882	10644.85
510.25	10754.67
510.618	10740.89
510.986	10695.47
511.354	10800.32
511.722	10821.57
512.09	10900.89
512.458	10846.65
512.826	10905.18
513.193	10926.65
513.561	10895.46
513.929	10873.99
514.297	10998.96
514.664	11018.62
515.032	11012.97
515.4	11091.39
515.767	11104.04
516.135	11013.43
516.502	10918.51
516.869	11023.37
517.237	11072.63
517.604	11001.45
517.972	11080.32
518.339	11111.73
518.706	11093.2
519.073	11063.59
519.44	11086.19
519.808	11099.52
520.175	11094.1
520.542	11180.43
520.909	11198.73
521.276	11182.91
521.643	11233.53
522.009	11227.2
522.376	11183.36
522.743	11182.69
523.11	11246.41
523.477	11296.58
523.843	11216.36
524.21	11332.96
524.577	11299.75
524.943	11322.34
525.31	11307.2
525.676	11358.95
526.043	11355.11
526.409	11326.86
526.776	11424.26
527.142	11308.11
527.508	11304.72
527.874	11323.47
528.241	11308.33
528.607	11305.62
528.973	11334.55
529.339	11218.84
529.705	11275.34
530.071	11233.08
530.437	11214.1
530.803	11261.78
531.169	11274.89
531.535	11126.19
531.901	11111.28
532.267	11168.22
532.632	11119.64
532.998	11121.67
533.364	11079.86
533.73	11022.01
534.095	11055.68
534.461	10969.36
534.826	10904.73
535.192	10953.77
535.557	10894.11
535.923	10877.84
536.288	10758.29
536.653	10793.32
537.019	10764.62
537.384	10714.22
537.749	10642.81
538.114	10598.75
538.479	10579.76
538.845	10507.22
539.21	10430.62
539.575	10432.88
539.94	10435.36
540.305	10335.93
540.67	10293.67
541.034	10239.66
541.399	10267.91
541.764	10176.38
542.129	10171.41
542.494	10076.73
542.858	10025.65
543.223	10024.75
543.587	9987.24
543.952	9830.41
544.316	9796.51
544.681	9762.38
545.045	9716.51
545.41	9730.07
545.774	9645.33
546.138	9649.85
546.503	9593.12
546.867	9479.91
547.231	9601.48
547.595	9512.45
547.959	9428.38
548.324	9336.41
548.688	9231.33
549.052	9192.46
549.416	9288.5
549.779	9229.29
550.143	9104.77
550.507	9095.74
550.871	9091.89
551.235	9028.17
551.599	9040.14
551.962	8970.09
552.326	8834.05
552.689	8857.32
553.053	8773.94
553.417	8762.18
553.78	8781.62
554.143	8704.11
554.507	8693.03
554.87	8658.23
555.234	8671.34
555.597	8545.47
555.96	8509.99
556.323	8535.98
556.686	8462.98
557.05	8517.67
557.413	8472.93
557.776	8443.32
558.139	8436.32
558.502	8368.75
558.865	8256.89
559.228	8294.63
559.59	8339.15
559.953	8283.33
560.316	8282.88
560.679	8273.84
561.041	8204.91
561.404	8238.36
561.767	8267.06
562.129	8123.33
562.492	8170.11
562.854	8173.73
563.217	8149.09
563.579	8198.81
563.941	8220.28
564.304	8148.19
564.666	8180.73
565.028	8146.16
565.39	8100.73
565.753	8102.09
566.115	8106.38
566.477	8159.49
566.839	8099.83
567.201	8137.79
567.563	8087.63
567.925	8157.23
568.287	8099.15
568.648	8082.2
569.01	8130.56
569.372	8098.47
569.734	8072.03
570.095	8124.24
570.457	8119.49
570.819	8095.76
571.18	8036.78
571.542	8073.62
571.903	8091.02
572.265	8113.61
572.626	8093.28
572.987	8107.29
573.349	8017.8
573.71	8110
574.071	8071.13
574.432	8065.71
574.794	8123.11
575.155	8084.91
575.516	8065.25
575.877	8091.02
576.238	8037.01
576.599	8076.1
576.96	8095.99
577.32	8087.17
577.681	8070.45
578.042	8061.64
578.403	8007.18
578.763	8025.26
579.124	8055.08
579.485	8050.11
579.845	8049.66
580.206	8067.51
580.566	8078.14
580.927	8039.04
581.287	8045.82
581.648	7988.87
582.008	8010.57
582.368	8001.07
582.728	8006.05
583.089	7943.45
583.449	7955.43
583.809	7906.61
584.169	7910.23
584.529	7845.6
584.889	7946.84
585.249	7913.39
585.609	7913.17
585.969	7940.96
586.329	7847.41
586.688	7892.6
587.048	7909.1
587.408	7846.95
587.768	7892.15
588.127	7885.6
588.487	7831.14
588.846	7852.6
589.206	7758.82
589.565	7785.26
589.925	7870
590.284	7843.34
590.643	7831.59
591.003	7857.12
591.362	7863.23
591.721	7830.23
592.08	7835.43
592.44	7823.9
592.799	7832.94
593.158	7784.58
593.517	7756.34
593.876	7786.39
594.235	7775.09
594.593	7711.14
594.952	7703.46
595.311	7692.83
595.67	7760.18
596.029	7728.99
596.387	7775.09
596.746	7698.94
597.104	7690.35
597.463	7674.53
597.822	7688.54
598.18	7705.94
598.538	7637.02
598.897	7718.82
599.255	7644.47
599.613	7721.76
599.972	7664.36
600.33	7689.22
600.688	7592.05
601.046	7624.81
601.404	7641.08
601.762	7608.32
602.12	7724.92
602.478	7634.08
602.836	7654.64
603.194	7634.53
603.552	7669.56
603.91	7518.6
604.268	7639.05
604.625	7536.68
604.983	7614.42
605.341	7555.66
605.698	7639.5
606.056	7552.05
606.413	7596.57
606.771	7622.78
607.128	7637.24
607.485	7579.17
607.843	7604.48
608.2	7625.04
608.557	7654.87
608.914	7618.03
609.272	7686.28
609.629	7627.3
609.986	7707.07
610.343	7629.33
610.7	7698.94
611.057	7662.55
611.414	7692.61
611.771	7631.82
612.127	7668.43
612.484	7691.93
612.841	7684.25
613.198	7669.56
613.554	7709.33
613.911	7700.07
614.267	7663.68
614.624	7666.62
614.98	7658.26
615.337	7741.87
615.693	7754.98
616.05	7747.07
616.406	7749.56
616.762	7713.62
617.118	7685.38
617.475	7668.88
617.831	7725.83
618.187	7743.45
618.543	7654.19
618.899	7778.93
619.255	7833.85
619.611	7673.63
619.967	7770.57
620.323	7778.48
620.678	7711.37
621.034	7722.44
621.39	7727.41
621.746	7721.31
622.101	7783.68
622.457	7768.99
622.812	7692.61
623.168	7743.45
623.523	7739.61
623.879	7786.62
624.234	7751.14
624.589	7803.79
624.945	7716.11
625.3	7733.29
625.655	7726.73
626.01	7697.13
626.365	7751.82
626.72	7689.9
627.075	7766.96
627.43	7681.08
627.785	7675.43
628.14	7713.85
628.495	7732.83
628.85	7741.42
629.205	7661.65
629.559	7771.93
629.914	7688.09
630.269	7697.35
630.623	7636.11
630.978	7630.01
631.332	7629.11
631.687	7712.72
632.041	7642.21
632.396	7663.46
632.75	7641.76
633.104	7662.78
633.459	7544.82
633.813	7559.96
634.167	7575.78
634.521	7585.04
634.875	7577.81
635.229	7542.56
635.583	7548.21
635.937	7567.41
636.291	7481.99
636.645	7511.14
636.999	7488.32
637.352	7493.29
637.706	7470.47
638.06	7502.56
638.413	7487.87
638.767	7459.85
639.121	7477.25
639.474	7421.88
639.828	7420.75
640.181	7461.88
640.534	7412.62
640.888	7419.62
641.241	7389.34
641.594	7485.38
641.947	7430.47
642.301	7465.04
642.654	7403.35
643.007	7406.06
643.36	7400.19
643.713	7404.03
644.066	7421.2
644.419	7358.83
644.771	7289.23
645.124	7272.05
645.477	7191.15
645.83	7194.54
646.182	7127.43
646.535	7105.05
646.888	7168.1
647.24	7143.7
647.593	7137.59
647.945	7144.15
648.298	7110.48
648.65	7061.21
649.002	7040.42
649.355	7132.85
649.707	7121.55
650.059	7130.36
650.411	7185.5
650.763	7209.23
651.115	7294.43
651.467	7303.01
651.819	7238.38
652.171	7284.03
652.523	7315.44
652.875	7307.31
653.227	7267.08
653.578	7291.72
653.93	7290.59
654.282	7261.43
654.633	7222.11
654.985	7260.76
655.337	7270.25
655.688	7278.83
656.039	7341.43
656.391	7234.09
656.742	7255.11
657.094	7266.86
657.445	7285.84
657.796	7288.78
658.147	7326.06
658.498	7288.33
658.849	7313.64
659.2	7245.84
659.551	7262.79
659.902	7347.08
660.253	7312.96
660.604	7351.83
660.955	7257.82
661.306	7302.11
661.656	7271.6
662.007	7362.22
662.358	7357.93
662.708	7352.5
663.059	7334.65
663.409	7292.17
663.76	7365.39
664.11	7350.24
664.461	7354.09
664.811	7344.82
665.161	7395.67
665.511	7322.45
665.862	7341.21
666.212	7374.42
666.562	7433.86
666.912	7358.61
667.262	7344.14
667.612	7397.25
667.962	7416.91
668.312	7381.88
668.662	7439.96
669.011	7306.4
669.361	7348.21
669.711	7311.38
670.06	7394.76
670.41	7352.5
670.76	7331.71
671.109	7400.19
671.459	7289
671.808	7302.11
672.157	7312.73
672.507	7257.82
672.856	7269.12
673.205	7304.14
673.554	7346.63
673.904	7280.19
674.253	7298.04
674.602	7297.14
674.951	7215.11
675.3	7157.26
675.649	7298.27
675.998	7257.37
676.346	7269.12
676.695	7270.02
677.044	7279.06
677.393	7292.62
677.741	7289
678.09	7160.19
678.438	7187.09
678.787	7185.73
679.135	7180.08
679.484	7128.56
679.832	7167.88
680.181	7126.07
680.529	7143.24
680.877	7109.35
681.225	7110.48
681.573	7101.44
681.922	7079.29
682.27	7095.11
682.618	7060.08
682.966	7040.87
683.314	7055.79
683.661	7086.52
684.009	6973.08
684.357	6994.77
684.705	6997.71
685.053	6999.97
685.4	6943.93
685.748	6899.18
686.095	6858.28
686.443	6906.64
686.79	6899.18
687.138	6936.02
687.485	6817.6
687.832	6865.51
688.18	6874.55
688.527	6809.47
688.874	6752.52
689.221	6806.3
689.568	6719.98
689.915	6671.84
690.262	6719.07
690.609	6708.45
690.956	6679.53
691.303	6642.69
691.65	6609.02
691.997	6563.82
692.344	6540.55
692.69	6536.93
693.037	6554.56
693.383	6579.19
693.73	6533.77
694.077	6464.17
694.423	6426.43
694.769	6458.06
695.116	6393.89
695.462	6376.03
695.808	6389.37
696.155	6325.64
696.501	6336.03
696.847	6316.6
697.193	6257.39
697.539	6291.97
697.885	6221.69
698.231	6193.44
698.577	6187.34
698.923	6153.89
699.269	6133.1
699.614	6098.75
699.96	6088.81
700.306	6109.37
700.651	6045.65
700.997	6008.58
701.342	6006.1
701.688	5972.65
702.033	5960
702.379	5952.54
702.724	5962.94
703.069	5940.34
703.415	5890.4
703.76	5891.75
704.105	5846.78
704.45	5814.01
704.795	5765.65
705.14	5835.93
705.485	5791.87
705.83	5735.15
706.175	5780.79
706.52	5720.91
706.865	5717.52
707.209	5652.21
707.554	5673
707.899	5684.07
708.243	5637.52
708.588	5617.63
708.932	5611.76
709.277	5572.44
709.621	5548.48
709.966	5520.46
710.31	5628.03
710.654	5528.15
710.998	5484.76
711.342	5513.23
711.687	5485.89
712.031	5486.34
712.375	5472.78
712.719	5455.15
713.063	5461.48
713.407	5461.25
713.75	5441.14
714.094	5438.88
714.438	5342.61
714.782	5397.98
715.125	5380.58
715.469	5392.78
715.812	5351.88
716.156	5333.8
716.499	5331.31
716.843	5338.09
717.186	5308.72
717.53	5319.11
717.873	5310.07
718.216	5324.08
718.559	5310.98
718.902	5259.9
719.246	5296.29
719.589	5310.3
719.932	5263.29
720.275	5300.58
720.617	5206.57
720.96	5231.66
721.303	5237.31
721.646	5326.34
721.989	5182.39
722.331	5231.2
722.674	5221.49
723.016	5244.09
723.359	5231.43
723.701	5218.1
724.044	5151.43
724.386	5174.71
724.729	5186.91
725.071	5213.8
725.413	5184.88
725.755	5158.21
726.097	5147.36
726.439	5141.94
726.782	5113.69
727.124	5189.17
727.465	5175.61
727.807	5108.72
728.149	5104.2
728.491	5138.33
728.833	5108.95
729.175	5150.53
729.516	5174.48
729.858	5148.95
730.199	5160.02
730.541	5157.08
730.882	5164.77
731.224	5208.15
731.565	5098.55
731.906	5164.31
732.248	5117.08
732.589	5127.93
732.93	5134.94
733.271	5157.99
733.612	5108.04
733.953	5090.87
734.294	5118.21
734.635	5134.94
734.976	5129.96
735.317	5187.59
735.658	5173.13
735.999	5149.85
736.339	5155.73
736.68	5139
737.021	5221.49
737.361	5178.32
737.702	5180.36
738.042	5225.78
738.383	5210.19
738.723	5239.79
739.063	5215.39
739.404	5250.41
739.744	5250.19
740.084	5243.18
740.424	5259.45
740.764	5283.63
741.104	5288.83
741.444	5279.56
741.784	5278.89
742.124	5370.41
742.464	5309.39
742.804	5335.61
743.143	5375.38
743.483	5388.71
743.823	5413.8
744.162	5416.96
744.502	5405.66
744.841	5400.01
745.181	5489.73
745.52	5558.88
745.86	5566.11
746.199	5581.48
746.538	5621.93
746.877	5671.19
747.216	5724.52
747.556	5728.82
747.895	5781.47
748.234	5828.93
748.573	5841.13
748.911	5894.24
749.25	5989.15
749.589	5980.11
749.928	6048.58
750.267	6126.55
750.605	6193.66
750.944	6262.59
751.283	6322.48
751.621	6398.41
751.96	6409.93
752.298	6555.46
752.636	6662.81
752.975	6698.06
753.313	6761.11
753.651	6939.86
753.989	6973.98
754.327	7121.32
754.666	7198.16
755.004	7352.28
755.342	7465.5
755.679	7557.24
756.017	7677.24
756.355	7869.78
756.693	8001.75
757.031	8157.68
757.368	8182.99
757.706	8370.78
758.044	8494.4
758.381	8693.26
758.719	8802.18
759.056	9053.25
759.394	9109.75
759.731	9227.48
760.068	9389.06
760.405	9549.73
760.743	9725.78
761.08	9862.72
761.417	10039.67
761.754	10233.33
762.091	10419.32
762.428	10508.58
762.765	10719.42
763.102	10954.44
763.438	11040.54
763.775	11278.5
764.112	11417.26
764.449	11569.79
764.785	11726.17
765.122	11872.39
765.458	12020.4
765.795	12218.82
766.131	12359.6
766.467	12565.25
766.804	12648.41
767.14	12750.78
767.476	12998.46
767.812	13028.97
768.148	13339.47
768.485	13338.34
768.821	13472.57
769.157	13561.15
769.492	13717.31
769.828	13907.13
770.164	13819.9
770.5	14137.41
770.836	14241.36
771.171	14302.38
771.507	14471.87
771.842	14582.6
772.178	14653.33
772.513	14746.21
772.849	14826.66
773.184	14989.82
773.519	14991.63
773.855	15084.96
774.19	15183.03
774.525	15189.81
774.86	15383.71
775.195	15446.75
775.53	15403.59
775.865	15587.77
776.2	15549.13
776.535	15600.2
776.87	15686.07
777.205	15623.25
777.539	15704.15
777.874	15858.27
778.209	15809.01
778.543	15842.9
778.878	15943.01
779.212	16014.88
779.547	15964.03
779.881	16074.53
780.215	16018.94
780.55	16096
780.884	16143.23
781.218	16145.72
781.552	16203.12
781.886	16128.09
782.22	16097.59
782.554	16179.16
782.888	16095.33
783.222	16155.66
783.556	16073.41
783.889	16099.85
784.223	16075.66
784.557	16098.94
784.89	16238.15
785.224	16094.87
785.557	16032.95
785.891	16057.36
786.224	16137.58
786.558	16191.82
786.891	16069.56
787.224	16029.79
787.557	16112.05
787.891	16040.64
788.224	16059.17
788.557	16115.89
788.89	16183.01
789.223	16194.08
789.556	16006.06
789.888	16061.88
790.221	15993.41
790.554	15837.03
790.887	15975.55
791.219	15975.55
791.552	15833.19
791.884	15873.18
792.217	15803.81
792.549	15790.47
792.882	15679.52
793.214	15731.04
793.546	15801.32
793.879	15677.94
794.211	15550.25
794.543	15709.12
794.875	15615.11
795.207	15730.14
795.539	15755.45
795.871	15650.82
796.203	15574.66
796.535	15371.05
796.867	15429.13
797.198	15416.02
797.53	15383.48
797.862	15396.13
798.193	15383.48
798.525	15347.1
798.856	15295.12
799.188	15202.92
799.519	15235.24
799.85	15096.71
800.182	15129.7
800.513	15283.6
800.844	15039.99
801.175	15243.6
801.506	15107.78
801.837	15019.65
802.168	15017.84
802.499	14991.63
802.83	14915.92
803.161	14923.83
803.491	14948.24
803.822	14899.65
804.153	14837.73
804.483	14682.93
804.814	14654.23
805.145	14677.96
805.475	14680.22
805.805	14577.4
806.136	14596.83
806.466	14617.17
806.796	14659.66
807.126	14515.71
807.457	14558.64
807.787	14468.7
808.117	14507.34
808.447	14376.05
808.777	14415.82
809.107	14392.32
809.436	14282.72
809.766	14267.12
810.096	14268.25
810.426	14178.54
810.755	14203.4
811.085	14224.19
811.414	14146.68
811.744	14146.45
812.073	14104.87
812.403	14122.72
812.732	13983.74
813.061	13956.62
813.39	13875.95
813.719	13936.06
814.049	14066
814.378	13956.4
814.707	13867.36
815.036	13776.06
815.365	13729.06
815.693	13728.38
816.022	13778.1
816.351	13716.4
816.68	13635.96
817.008	13740.59
817.337	13589.85
817.665	13537.88
817.994	13596.41
818.322	13532.45
818.651	13462.4
818.979	13462.17
819.307	13500.59
819.636	13493.36
819.964	13444.1
820.292	13453.59
820.62	13461.27
820.948	13474.15
821.276	13503.76
821.604	13431.44
821.932	13452.23
822.259	13430.31
822.587	13394.38
822.915	13416.3
823.243	13498.11
823.57	13355.96
823.898	13442.51
824.225	13353.7
824.553	13323.42
824.88	13421.95
825.207	13363.65
825.535	13366.81
825.862	13481.16
826.189	13435.96
826.516	13484.55
826.843	13587.59
827.17	13455.85
827.497	13459.91
827.824	13477.54
828.151	13492.68
828.478	13465.34
828.805	13431.44
829.131	13466.47
829.458	13433.93
829.785	13357.77
830.111	13402.29
830.438	13532.68
830.764	13405.23
831.09	13461.27
831.417	13432.12
831.743	13456.75
832.069	13437.09
832.395	13372.23
832.722	13307.6
833.048	13376.3
833.374	13444.1
833.7	13339.47
834.026	13371.1
834.351	13422.4
834.677	13372.91
835.003	13376.53
835.329	13379.69
835.654	13376.3
835.98	13253.82
836.306	13294.04
836.631	13311.44
836.956	13294.04
837.282	13306.7
837.607	13174.95
837.932	13120.49
838.258	13138.79
838.583	13131.11
838.908	13142.63
839.233	13152.8
839.558	13151.9
839.883	13062.18
840.208	13092.24
840.533	13026.03
840.858	13039.36
841.182	13095.86
841.507	12956.88
841.832	12947.39
842.156	12949.19
842.481	12945.35
842.805	12986.03
843.13	12831
843.454	12854.05
843.778	12793.94
844.103	12746.26
844.427	12707.39
844.751	12845.69
845.075	12645.92
845.399	12736.09
845.723	12617
846.047	12578.58
846.371	12490
846.695	12493.16
847.019	12393.73
847.343	12358.02
847.666	12317.12
847.99	12186.5
848.313	12231.92
848.637	12196.67
848.96	12145.37
849.284	12129.1
849.607	12101.08
849.931	12057.69
850.254	11873.29
850.577	11927.75
850.9	11828.77
851.223	11819.51
851.546	11743.58
851.869	11678.49
852.192	11708.1
852.515	11531.6
852.838	11516.91
853.161	11555.78
853.483	11482.79
853.806	11435.11
854.129	11389.91
854.451	11352.4
854.774	11361.21
855.096	11351.27
855.419	11260.65
855.741	11345.39
856.063	11129.13
856.385	11133.42
856.708	11104.5
857.03	11177.04
857.352	11142.24
857.674	11087.32
857.996	11040.32
858.318	11008
858.64	10918.29
858.961	10909.25
859.283	10900.21
859.605	10774.34
859.926	10863.15
860.248	10800.1
860.57	10736.37
860.891	10651.85
861.212	10724.62
861.534	10666.54
861.855	10688.69
862.176	10705.86
862.498	10640.55
862.819	10650.95
863.14	10623.6
863.461	10535.92
863.782	10532.08
864.103	10539.77
864.424	10527.79
864.745	10463.38
865.065	10406.21
865.386	10471.52
865.707	10407.79
866.027	10430.39
866.348	10373.67
866.668	10422.48
866.989	10382.93
867.309	10329.38
867.63	10341.35
867.95	10356.49
868.27	10218.42
868.59	10212.77
868.91	10240.34
869.23	10234.91
869.55	10212.32
869.87	10217.74
870.19	10187.68
870.51	10202.37
870.83	10202.15
871.15	10208.25
871.469	10123.05
871.789	10175.93
872.109	10078.99
872.428	10103.84
872.748	10117.63
873.067	10056.84
873.386	10038.76
873.706	10068.59
874.025	9951.31
874.344	10043.51
874.663	9989.05
874.982	9951.08
875.301	9998.08
875.62	9934.36
875.939	9843.74
876.258	9882.38
876.577	9854.59
876.896	9836.05
877.214	9790.63
877.533	9881.7
877.852	9846.22
878.17	9821.37
878.489	9827.24
878.807	9836.05
879.125	9774.14
879.444	9763.06
879.762	9714.48
880.08	9737.53
880.398	9696.4
880.716	9705.21
881.034	9664.99
881.352	9603.97
881.67	9590.64
881.988	9580.02
882.306	9564.65
882.624	9568.94
882.941	9436.29
883.259	9471.77
883.577	9444.88
883.894	9527.81
884.212	9430.19
884.529	9426.57
884.846	9415.05
885.164	9367.37
885.481	9316.97
885.798	9308.84
886.115	9278.1
886.432	9195.17
886.75	9292.79
887.067	9302.74
887.383	9198.56
887.7	9204.43
888.017	9126.24
888.334	9166.02
888.651	9173.25
888.967	9117.43
889.284	9037.88
889.6	9060.93
889.917	9015.29
890.233	8982.97
890.55	9003.76
890.866	8886.7
891.182	8959.69
891.498	8902.07
891.815	8864.1
892.131	8858.45
892.447	8770.55
892.763	8787.95
893.079	8780.94
893.395	8769.64
893.71	8696.88
894.026	8636.76
894.342	8653.04
894.657	8615.52
894.973	8589.76
895.289	8584.11
895.604	8545.24
895.92	8502.53
896.235	8438.8
896.55	8446.49
896.865	8435.41
897.181	8442.87
897.496	8430.22
897.811	8332.59
898.126	8271.12
898.441	8321.07
898.756	8272.25
899.071	8263.21
899.386	8170.56
899.7	8117.91
900.015	8097.12
900.33	8037.23
900.644	8084.91
900.959	8077.01
901.273	7989.78
901.588	7993.39
901.902	7946.84
902.216	7964.24
902.531	7905.03
902.845	7872.72
903.159	7808.31
903.473	7787.07
903.787	7786.62
904.101	7726.73
904.415	7709.56
904.729	7679.05
905.042	7650.8
905.356	7630.24
905.67	7619.84
905.984	7625.72
906.297	7602.44
906.611	7505.95
906.924	7508.21
907.237	7504.82
907.551	7471.82
907.864	7390.24
908.177	7392.28
908.491	7356.35
908.804	7321.77
909.117	7260.08
909.43	7235.22
909.743	7187.09
910.056	7215.56
910.368	7211.94
910.681	7071.16
910.994	7110.02
911.307	7087.43
911.619	6979.18
911.932	7015.79
912.244	6994.32
912.557	6936.24
912.869	6912.52
913.181	6908.9
913.494	6899.63
913.806	6853.99
914.118	6824.16
914.43	6749.81
914.742	6786.19
915.054	6698.51
915.366	6679.75
915.678	6661.68
915.99	6651.73
916.302	6625.74
916.613	6613.99
916.925	6527.89
917.236	6514.33
917.548	6487.22
917.859	6557.72
918.171	6493.54
918.482	6458.29
918.794	6385.98
919.105	6386.65
919.416	6359.99
919.727	6283.38
920.038	6329.25
920.349	6290.39
920.66	6300.55
920.971	6305.98
921.282	6231.86
921.593	6201.8
921.903	6186.43
922.214	6142.59
922.525	6106.66
922.835	6057.4
923.146	6028.47
923.456	6028.92
923.767	5981.24
924.077	6007.23
924.387	6028.92
924.697	5925.65
925.008	5924.75
925.318	5883.62
925.628	5870.06
925.938	5885.2
926.248	5832.32
926.558	5805.43
926.867	5756.16
927.177	5762.49
927.487	5736.73
927.796	5691.31
928.106	5688.59
928.416	5619.44
928.725	5675.03
929.034	5625.32
929.344	5641.14
929.653	5601.36
929.962	5508.71
930.271	5524.3
930.581	5504.19
930.89	5464.19
931.199	5393.23
931.508	5440.69
931.817	5424.65
932.125	5405.21
932.434	5389.17
932.743	5350.52
933.051	5313.46
933.36	5309.17
933.669	5286.8
933.977	5263.29
934.286	5262.62
934.594	5231.66
934.902	5139.91
935.21	5167.03
935.519	5131.55
935.827	5146.46
936.135	5112.56
936.443	5076.41
936.751	5075.05
937.059	5063.98
937.367	5036.18
937.674	5026.92
937.982	4976.97
938.29	4935.17
938.597	4944.66
938.905	4907.14
939.213	4880.71
939.52	4844.55
939.827	4848.62
940.135	4837.32
940.442	4810.2
940.749	4729.3
941.056	4779.92
941.363	4751.44
941.67	4692.24
941.977	4724.55
942.284	4692.01
942.591	4681.61
942.898	4633.25
943.205	4670.09
943.511	4598.23
943.818	4614.27
944.125	4537.21
944.431	4547.38
944.738	4555.52
945.044	4511.22
945.35	4460.83
945.657	4468.29
945.963	4480.49
946.269	4419.02
946.575	4451.56
946.881	4428.29
947.187	4362.75
947.493	4364.56
947.799	4363.66
948.105	4331.57
948.41	4320.27
948.716	4329.99
949.022	4289.76
949.327	4261.74
949.633	4251.12
949.938	4211.12
950.244	4231.46
950.549	4140.39
950.854	4137.22
951.16	4197.11
951.465	4133.61
951.77	4073.27
952.075	4103.55
952.38	4107.39
952.685	4080.73
952.99	4019.03
953.294	4022.42
953.599	4014.51
953.904	4015.42
954.209	3978.81
954.513	3955.98
954.818	3935.19
955.122	3922.99
955.426	3920.96
955.731	3917.34
956.035	3853.16
956.339	3911.92
956.643	3890.9
956.948	3842.09
957.252	3805.93
957.556	3837.34
957.86	3824.46
958.163	3773.84
958.467	3742.43
958.771	3767.51
959.075	3738.59
959.378	3703.11
959.682	3711.47
959.985	3695.65
960.289	3672.38
960.592	3628.31
960.896	3647.07
961.199	3609.1
961.502	3641.64
961.805	3572.94
962.108	3587.41
962.411	3545.82
962.714	3562.55
963.017	3526.16
963.32	3512.38
963.623	3508.76
963.926	3476.67
964.228	3472.15
964.531	3441.19
964.833	3402.78
965.136	3426.28
965.438	3411.37
965.741	3367.98
966.043	3367.52
966.345	3349.45
966.648	3352.61
966.95	3335.89
967.252	3302.89
967.554	3320.75
967.856	3320.97
968.158	3250.69
968.46	3254.53
968.761	3221.54
969.063	3284.36
969.365	3203.91
969.666	3198.72
969.968	3208.43
970.269	3198.04
970.571	3111.03
970.872	3159.17
971.174	3130.02
971.475	3144.48
971.776	3091.6
972.077	3078.72
972.378	3074.2
972.679	3061.54
972.98	3083.69
973.281	3030.36
973.582	3069.68
973.883	2989.68
974.183	2981.77
974.484	2966.18
974.785	2981.32
975.085	2971.38
975.386	2984.71
975.686	2947.87
975.986	2893.41
976.287	2942.9
976.587	2895.67
976.887	2863.13
977.187	2887.09
977.487	2859.52
977.787	2852.96
978.087	2845.05
978.387	2800.53
978.687	2849.35
978.987	2813.19
979.286	2766.64
979.586	2793.98
979.885	2744.72
980.185	2783.13
980.484	2776.35
980.784	2716.02
981.083	2713.08
981.382	2688.45
981.682	2653.87
981.981	2683.7
982.28	2662.01
982.579	2671.27
982.878	2633.31
983.177	2638.73
983.475	2633.53
983.774	2574.55
984.073	2605.51
984.372	2544.72
984.67	2534.1
984.969	2571.39
985.267	2553.99
985.566	2539.3
985.864	2528.68
986.162	2505.4
986.461	2490.49
986.759	2509.47
987.057	2470.82
987.355	2497.72
987.653	2453.65
987.951	2450.26
988.249	2463.37
988.547	2427.44
988.844	2381.56
989.142	2423.59
989.44	2386.99
989.737	2392.86
990.035	2355.35
990.332	2370.04
990.63	2382.01
990.927	2360.77
991.224	2333.2
991.521	2305.63
991.819	2299.76
992.116	2312.41
992.413	2278.06
992.71	2274.9
993.006	2252.53
993.303	2246.42
993.6	2248.23
993.897	2243.49
994.193	2235.12
994.49	2203.49
994.787	2201
995.083	2198.74
995.379	2187.44
995.676	2187.89
995.972	2170.49
996.268	2147.67
996.565	2138.63
996.861	2150.16
997.157	2133.21
997.453	2104.28
997.749	2090.95
998.044	2087.11
998.34	2102.02
998.636	2063.15
998.932	2053.21
999.227	2042.36
999.523	2041.23
999.818	2038.75
1000.114	2013.89
1000.409	2019.31
1000.704	1968.69
1001	1983.61
1001.295	1973.66
1001.59	1937.73
1001.885	1951.29
1002.18	1938.86
1002.475	1927.34
1002.77	1910.84
1003.065	1937.51
1003.359	1911.74
1003.654	1877.39
1003.949	1879.2
1004.243	1862.93
1004.538	1857.51
1004.832	1872.42
1005.127	1847.34
1005.421	1825.87
1005.715	1812.76
1006.009	1806.21
1006.304	1787.9
1006.598	1834.91
1006.892	1785.87
1007.186	1793.78
1007.48	1748.58
1007.773	1748.13
1008.067	1766.89
1008.361	1718.08
1008.655	1712.43
1008.948	1697.96
1009.242	1690.51
1009.535	1685.31
1009.829	1698.19
1010.122	1682.6
1010.415	1664.97
1010.708	1648.7
1011.001	1635.14
1011.295	1653.22
1011.588	1629.94
1011.881	1605.31
1012.173	1608.47
1012.466	1608.02
1012.759	1590.85
1013.052	1579.1
1013.344	1582.71
1013.637	1560.11
1013.93	1569.61
1014.222	1542.71
1014.514	1500.68
1014.807	1535.48
1015.099	1521.7
1015.391	1519.66
1015.683	1510.4
1015.976	1499.1
1016.268	1477.18
1016.56	1460.46
1016.851	1466.11
1017.143	1468.14
1017.435	1450.74
1017.727	1416.39
1018.018	1449.16
1018.31	1406.45
1018.602	1419.1
1018.893	1418.88
1019.185	1398.76
1019.476	1369.84
1019.767	1348.14
1020.058	1359.44
1020.35	1380.68
1020.641	1332.1
1020.932	1338.88
1021.223	1334.36
1021.514	1343.4
1021.804	1288.48
1022.095	1318.09
1022.386	1295.26
1022.677	1294.81
1022.967	1284.19
1023.258	1281.7
1023.548	1279.9
1023.839	1281.03
1024.129	1260.91
1024.419	1251.42
1024.709	1222.5
1025	1253.23
1025.29	1241.48
1025.58	1197.64
1025.87	1191.31
1026.16	1202.38
1026.449	1188.15
1026.739	1161.93
1027.029	1160.35
1027.319	1186.11
1027.608	1134.14
1027.898	1162.38
1028.187	1118.32
1028.477	1140.24
1028.766	1132.33
1029.055	1134.36
1029.344	1117.19
1029.634	1099.11
1029.923	1113.12
1030.212	1130.75
1030.501	1081.48
1030.79	1089.17
1031.078	1075.83
1031.367	1063.86
1031.656	1067.92
1031.945	1043.52
1032.233	1036.74
1032.522	1041.94
1032.81	1053.91
1033.099	1032.67
1033.387	996.06
1033.675	990.41
1033.963	995.38
1034.251	988.15
1034.54	1006
1034.828	999
1035.116	1007.13
1035.403	989.96
1035.691	963.97
1035.979	944.76
1036.267	970.3
1036.554	954.03
1036.842	952.67
1037.129	965.33
1037.417	940.24
1037.704	912.45
1037.992	944.54
1038.279	908.15
1038.566	917.42
1038.853	917.42
1039.14	917.42
