Data from hue_180_FLMS001491_00075.txt Node
Date: Tue Feb 07 16:47:27 GMT 2017
User: dcchb
Spectrometer: FLMS00149
Trigger mode: 0
Integration Time (sec): 2.000000E-2
Scans to average: 10
Electric dark correction enabled: true
Nonlinearity correction enabled: false
Boxcar width: 0
XAxis mode: Wavelengths
Number of Pixels in Spectrum: 2048
>>>>>Begin Spectral Data<<<<<
341.393	-19.89
341.776	-19.89
342.16	-19.89
342.543	-76.38
342.927	-66.44
343.31	-72.99
343.693	-67.12
344.077	-60.11
344.46	-68.25
344.843	-52.2
345.226	-46.33
345.61	-41.58
345.993	-13.56
346.376	-7.68
346.759	12.88
347.142	34.35
347.525	53.56
347.908	71.41
348.291	62.37
348.674	87
349.057	108.25
349.44	115.7
349.823	153.89
350.206	168.36
350.588	220.33
350.971	207.9
351.354	214.91
351.737	236.15
352.119	234.8
352.502	249.03
352.884	261.46
353.267	275.25
353.65	281.35
354.032	284.29
354.414	308.47
354.797	309.82
355.179	306.66
355.562	306.88
355.944	336.94
356.326	320.22
356.709	330.84
357.091	342.59
357.473	336.49
357.855	312.31
358.238	348.01
358.62	343.04
359.002	333.78
359.384	347.34
359.766	353.44
360.148	333.55
360.53	331.52
360.912	349.14
361.294	327.68
361.676	327
362.057	340.56
362.439	348.69
362.821	327.9
363.203	312.31
363.584	312.08
363.966	319.77
364.348	307.34
364.729	319.99
365.111	306.43
365.493	332.42
365.874	319.99
366.256	304.17
366.637	287.9
367.019	313.44
367.4	301.69
367.781	322.03
368.163	291.97
368.544	323.38
368.925	302.36
369.306	317.05
369.688	314.57
370.069	314.57
370.45	284.74
370.831	301.69
371.212	303.27
371.593	305.3
371.974	314.12
372.355	286.09
372.736	324.51
373.117	339.65
373.498	323.83
373.879	327
374.26	306.43
374.641	305.98
375.021	318.86
375.402	312.53
375.783	335.13
376.163	314.34
376.544	322.93
376.925	310.5
377.305	317.51
377.686	309.37
378.066	320.22
378.447	301.91
378.827	326.55
379.208	332.42
379.588	322.7
379.968	331.06
380.349	321.57
380.729	330.84
381.109	303.95
381.489	325.64
381.87	333.78
382.25	327
382.63	330.16
383.01	335.13
383.39	330.39
383.77	341.91
384.15	346.43
384.53	341.69
384.91	326.32
385.29	340.56
385.67	347.11
386.049	343.04
386.429	359.09
386.809	336.49
387.189	345.75
387.568	345.75
387.948	334.91
388.328	353.89
388.707	349.82
389.087	348.47
389.466	358.41
389.846	348.01
390.225	340.1
390.605	363.83
390.984	366.09
391.363	371.52
391.743	358.18
392.122	357.5
392.501	340.33
392.881	367.9
393.26	364.51
393.639	363.38
394.018	371.06
394.397	368.35
394.776	362.48
395.155	378.97
395.534	364.74
395.913	379.43
396.292	374.45
396.671	388.69
397.05	361.57
397.429	389.14
397.808	373.32
398.186	387.33
398.565	396.6
398.944	385.98
399.323	393.66
399.701	373.55
400.08	403.83
400.458	414.45
400.837	422.59
401.215	405.64
401.594	422.81
401.972	406.32
402.351	406.77
402.729	420.1
403.107	423.04
403.486	434.11
403.864	413.55
404.242	420.55
404.62	431.63
404.999	435.24
405.377	443.6
405.755	450.38
406.133	449.25
406.511	454.23
406.889	463.94
407.267	463.72
407.645	451.06
408.023	441.57
408.401	474.34
408.779	454.23
409.156	467.11
409.534	497.16
409.912	471.17
410.29	485.86
410.667	507.78
411.045	506.2
411.422	514.79
411.8	517.27
412.178	528.57
412.555	543.04
412.933	539.42
413.31	561.79
413.687	550.95
414.065	553.88
414.442	550.95
414.819	567.89
415.197	583.49
415.574	577.16
415.951	580.78
416.328	581
416.705	612.64
417.082	601.11
417.46	607.22
417.837	650.6
418.214	631.17
418.591	640.21
418.967	658.74
419.344	635.24
419.721	658.06
420.098	658.97
420.475	662.81
420.852	672.75
421.228	701.45
421.605	705.29
421.982	695.35
422.358	726.76
422.735	712.3
423.111	738.29
423.488	760.88
423.864	751.62
424.241	775.8
424.617	781.22
424.994	784.39
425.37	785.97
425.746	818.51
426.123	832.52
426.499	825.52
426.875	836.59
427.251	856.47
427.627	855.57
428.003	868
428.379	868.9
428.756	870.03
429.132	935.34
429.507	901.22
429.883	909.81
430.259	925.17
430.635	952.74
431.011	940.31
431.387	957.71
431.763	971.05
432.138	982.57
432.514	988.9
432.89	998.84
433.265	1017.15
433.641	1037.03
434.016	1053.31
434.392	1072.74
434.767	1103.93
435.143	1129.01
435.518	1110.48
435.894	1134.21
436.269	1180.31
436.644	1187.09
437.02	1194.54
437.395	1238.84
437.77	1228.22
438.145	1258.27
438.52	1249.46
438.895	1266.41
439.271	1272.96
439.646	1335.11
440.021	1319.97
440.395	1360.19
440.77	1336.91
441.145	1367.87
441.52	1378.72
441.895	1403.58
442.27	1404.48
442.645	1397.03
443.019	1432.73
443.394	1454.2
443.769	1445.61
444.143	1433.18
444.518	1517.47
444.892	1472.28
445.267	1535.1
445.641	1538.26
446.016	1544.82
446.39	1528.55
446.764	1534.2
447.139	1557.7
447.513	1603.35
447.887	1583.01
448.262	1594.31
448.636	1578.26
449.01	1646.51
449.384	1643.35
449.758	1631.6
450.132	1664.36
450.506	1685.83
450.88	1719.95
451.254	1698.26
451.628	1740.52
452.002	1755.21
452.376	1742.78
452.75	1812.83
453.123	1799.27
453.497	1805.83
453.871	1845.83
454.244	1902.55
454.618	1898.93
454.992	1922.21
455.365	1935.99
455.739	1929.67
456.112	1997.24
456.486	1983.22
456.859	2000.17
457.232	2058.48
457.606	2086.5
457.979	2086.27
458.352	2121.75
458.725	2161.75
459.099	2152.94
459.472	2207.4
459.845	2232.71
460.218	2248.08
460.591	2256.44
460.964	2284.69
461.337	2351.35
461.71	2368.53
462.083	2421.63
462.456	2434.51
462.829	2454.17
463.201	2472.7
463.574	2495.75
463.947	2519.71
464.32	2583.89
464.692	2622.08
465.065	2631.34
465.438	2705.69
465.81	2716.09
466.183	2731.91
466.555	2792.69
466.928	2839.93
467.3	2843.54
467.672	2906.36
468.045	2996.98
468.417	2969.19
468.789	3011.67
469.161	3100.94
469.534	3106.58
469.906	3166.47
470.278	3211.67
470.65	3318.78
471.022	3319.91
471.394	3380.25
471.766	3479
472.138	3458.89
472.51	3556.97
472.882	3590.19
473.253	3644.2
473.625	3735.27
473.997	3816.4
474.369	3831.09
474.74	3865.44
475.112	3966.9
475.484	4027.92
475.855	4106.78
476.227	4212.09
476.598	4308.14
476.97	4309.94
477.341	4452.31
477.713	4518.75
478.084	4549.71
478.455	4688.24
478.827	4787.9
479.198	4920.77
479.569	4933.66
479.94	5071.28
480.311	5133.65
480.682	5251.39
481.053	5387.88
481.424	5521.21
481.795	5580.64
482.166	5627.2
482.537	5740.64
482.908	5901.77
483.279	5982.22
483.65	6069.22
484.021	6230.34
484.391	6329.55
484.762	6388.98
485.133	6432.6
485.503	6546.95
485.874	6710.33
486.244	6830.78
486.615	6871.68
486.985	7025.13
487.356	7139.7
487.726	7191.22
488.097	7379.24
488.467	7403.65
488.837	7586.24
489.207	7695.39
489.578	7806.57
489.948	7902.39
490.318	8023.97
490.688	8065.1
491.058	8284.75
491.428	8362.49
491.798	8418.76
492.168	8581.92
492.538	8610.62
492.908	8724.97
493.278	8837.51
493.648	8895.59
494.017	9001.8
494.387	9129.7
494.757	9181.91
495.126	9265.07
495.496	9319.3
495.866	9404.95
496.235	9459.41
496.605	9545.51
496.974	9620.99
497.344	9691.72
497.713	9746.86
498.082	9834.54
498.452	9903.47
498.821	9972.62
499.19	10010.13
499.559	10119.06
499.928	10085.84
500.298	10195.66
500.667	10226.17
501.036	10248.54
501.405	10274.31
501.774	10299.16
502.143	10460.06
502.512	10456
502.88	10611.47
503.249	10552.26
503.618	10651.25
503.987	10688.76
504.356	10698.48
504.724	10794.07
505.093	10830.45
505.462	10777.57
505.83	10887.17
506.199	10968.53
506.567	11131.68
506.936	11041.29
507.304	11140.27
507.672	11058.24
508.041	11152.02
508.409	11250.1
508.777	11324.45
509.145	11336.65
509.514	11273.83
509.882	11322.41
510.25	11315.86
510.618	11431.56
510.986	11483.09
511.354	11446.93
511.722	11504.33
512.09	11581.62
512.458	11562.86
512.826	11679.69
513.193	11597.66
513.561	11692.35
513.929	11749.3
514.297	11845.34
514.664	11813.25
515.032	11792.68
515.4	11852.34
515.767	11905
516.135	11891.66
516.502	11758.33
516.869	11952.23
517.237	11966.92
517.604	11853.93
517.972	11986.35
518.339	12005.56
518.706	11987.93
519.073	12011.21
519.44	12084.65
519.808	12082.85
520.175	12116.74
520.542	12267.93
520.909	12220.24
521.276	12178.89
521.643	12151.32
522.009	12275.84
522.376	12214.37
522.743	12248.04
523.11	12282.16
523.477	12426.57
523.843	12422.27
524.21	12446.23
524.577	12466.56
524.943	12530.52
525.31	12359.22
525.676	12535.94
526.043	12479.45
526.409	12505.21
526.776	12567.13
527.142	12514.47
527.508	12470.63
527.874	12586.34
528.241	12530.07
528.607	12464.53
528.973	12615.26
529.339	12512.89
529.705	12622.94
530.071	12645.54
530.437	12506.56
530.803	12578.2
531.169	12568.26
531.535	12532.33
531.901	12513.34
532.267	12441.71
532.632	12475.83
532.998	12430.63
533.364	12424.31
533.73	12480.8
534.095	12418.2
534.461	12375.72
534.826	12350.41
535.192	12422.05
535.557	12383.63
535.923	12237.64
536.288	12285.1
536.653	12254.37
537.019	12160.13
537.384	12180.02
537.749	12173.92
538.114	12081.49
538.479	12053.47
538.845	12056.63
539.21	11976.18
539.575	11940.03
539.94	11953.81
540.305	11990.65
540.67	11843.3
541.034	11816.64
541.399	11819.58
541.764	11819.35
542.129	11764.89
542.494	11767.6
542.858	11699.35
543.223	11559.7
543.587	11639.24
543.952	11493.26
544.316	11474.5
544.681	11424.78
545.045	11406.48
545.41	11380.27
545.774	11337.1
546.138	11297.33
546.503	11231.34
546.867	11165.13
547.231	11288.29
547.595	11154.96
547.959	11103.66
548.324	11081.29
548.688	11012.14
549.052	10943.67
549.416	10925.59
549.779	10886.95
550.143	10841.07
550.507	10876.55
550.871	10808.98
551.235	10694.86
551.599	10723.33
551.962	10664.58
552.326	10691.02
552.689	10656.22
553.053	10575.99
553.417	10540.51
553.78	10651.02
554.143	10480.4
554.507	10510.68
554.87	10452.83
555.234	10513.62
555.597	10357.69
555.96	10366.73
556.323	10343.23
556.686	10320.63
557.05	10318.82
557.413	10277.47
557.776	10279.96
558.139	10335.55
558.502	10243.57
558.865	10241.76
559.228	10263.91
559.59	10162.44
559.953	10174.87
560.316	10247.19
560.679	10296
561.041	10216.23
561.404	10167.42
561.767	10242.67
562.129	10171.26
562.492	10195.44
562.854	10159.05
563.217	10129.68
563.579	10159.51
563.941	10148.21
564.304	10183.69
564.666	10161.54
565.028	10129.45
565.39	10117.02
565.753	10172.39
566.115	10163.8
566.477	10171.03
566.839	10192.95
567.201	10190.69
567.563	10130.58
567.925	10179.17
568.287	10245.15
568.648	10164.48
569.01	10205.16
569.372	10188.88
569.734	10062.11
570.095	10158.6
570.457	10207.19
570.819	10147.53
571.18	10184.14
571.542	10166.29
571.903	10157.92
572.265	10203.8
572.626	10187.98
572.987	10192.95
573.349	10188.43
573.71	10244.25
574.071	10184.59
574.432	10200.64
574.794	10231.37
575.155	10216
575.516	10164.93
575.877	10184.36
576.238	10209.68
576.599	10264.59
576.96	10201.54
577.32	10126.06
577.681	10231.82
578.042	10207.64
578.403	10290.58
578.763	10241.99
579.124	10176.68
579.485	10263.91
579.845	10280.86
580.206	10211.48
580.566	10194.08
580.927	10179.85
581.287	10224.82
581.648	10159.96
582.008	10171.26
582.368	10170.13
582.728	10116.12
583.089	10114.76
583.449	10212.16
583.809	10091.03
584.169	10165.16
584.529	10093.52
584.889	10155.67
585.249	10056.68
585.609	10015.78
585.969	10123.8
586.329	10095.55
586.688	10132.84
587.048	10074.99
587.408	10017.82
587.768	10027.76
588.127	9976.69
588.487	9992.73
588.846	10053.75
589.206	9994.99
589.565	9994.54
589.925	10011.94
590.284	9990.7
590.643	9967.65
591.003	9987.08
591.362	10003.8
591.721	9923.58
592.08	9969.23
592.44	9937.59
592.799	9942.34
593.158	9940.08
593.517	9878.61
593.876	9889.23
594.235	9925.61
594.593	9889.46
594.952	9805.39
595.311	9896.24
595.67	9875.22
596.029	9855.79
596.387	9895.56
596.746	9856.24
597.104	9802.91
597.463	9815.79
597.822	9863.02
598.18	9808.33
598.538	9802
598.897	9797.71
599.255	9784.15
599.613	9860.31
599.972	9768.1
600.33	9858.5
600.688	9760.42
601.046	9833.19
601.404	9835.45
601.762	9789.8
602.12	9776.01
602.478	9729.46
602.836	9807.43
603.194	9729.46
603.552	9700.31
603.91	9696.69
604.268	9798.39
604.625	9697.82
604.983	9771.04
605.341	9669.12
605.698	9731.27
606.056	9821.66
606.413	9779.4
606.771	9733.76
607.128	9750.93
607.485	9766.07
607.843	9739.63
608.2	9767.2
608.557	9829.35
608.914	9767.88
609.272	9810.82
609.629	9819.85
609.986	9843.58
610.343	9752.29
610.7	9885.84
611.057	9821.66
611.414	9825.96
611.771	9776.01
612.127	9841.32
612.484	9805.62
612.841	9871.15
613.198	9853.3
613.554	9804.49
613.911	9889.91
614.267	9897.14
614.624	9833.19
614.98	9816.92
615.337	9899.63
615.693	9929.68
616.05	9870.02
616.406	10011.04
616.762	9946.18
617.118	9953.86
617.475	9877.71
617.831	9943.92
618.187	9928.1
618.543	9916.58
618.899	9997.25
619.255	9953.64
619.611	9990.7
619.967	9937.14
620.323	9928.78
620.678	9989.57
621.034	9955.67
621.39	9961.55
621.746	9880.19
622.101	10068.44
622.457	9912.73
622.812	9970.59
623.168	9929.46
623.523	9995.44
623.879	9990.92
624.234	9895.56
624.589	9964.26
624.945	10007.19
625.3	9972.62
625.655	9960.87
626.01	9964.94
626.365	9917.03
626.72	9966.74
627.075	9957.03
627.43	9907.99
627.785	9943.24
628.14	9880.42
628.495	9894.2
628.85	9906.63
629.205	9929
629.559	9949.12
629.914	9917.71
630.269	9919.29
630.623	9854.2
630.978	9874.32
631.332	9931.49
631.687	9903.47
632.041	9829.8
632.396	9865.05
632.75	9802.23
633.104	9848.55
633.459	9821.89
633.813	9811.04
634.167	9793.64
634.521	9809.46
634.875	9790.7
635.229	9778.73
635.583	9754.77
635.937	9708.9
636.291	9723.36
636.645	9733.53
636.999	9730.59
637.352	9730.14
637.706	9636.13
638.06	9665.06
638.413	9663.93
638.767	9599.3
639.121	9578.96
639.474	9527.43
639.828	9607.66
640.181	9544.61
640.534	9578.05
640.888	9513.65
641.241	9471.16
641.594	9526.76
641.947	9616.7
642.301	9545.74
642.654	9524.72
643.007	9517.49
643.36	9501.67
643.713	9492.63
644.066	9524.5
644.419	9491.73
644.771	9437.04
645.124	9304.61
645.477	9292.19
645.83	9265.29
646.182	9220.32
646.535	9170.15
646.888	9211.74
647.24	9154.56
647.593	9176.03
647.945	9137.39
648.298	9139.19
648.65	9112.08
649.002	9169.25
649.355	9119.08
649.707	9164.96
650.059	9242.69
650.411	9359.98
650.763	9286.31
651.115	9415.12
651.467	9380.09
651.819	9337.38
652.171	9425.74
652.523	9339.87
652.875	9292.64
653.227	9267.33
653.578	9372.41
653.93	9335.57
654.282	9400.88
654.633	9324.73
654.985	9325.63
655.337	9325.86
655.688	9427.77
656.039	9382.8
656.391	9387.1
656.742	9403.82
657.094	9374.89
657.445	9378.74
657.796	9350.04
658.147	9351.62
658.498	9378.06
658.849	9397.04
659.2	9365.4
659.551	9386.42
659.902	9376.7
660.253	9373.76
660.604	9396.82
660.955	9383.93
661.306	9413.99
661.656	9345.29
662.007	9442.24
662.358	9475.23
662.708	9359.75
663.059	9400.88
663.409	9396.82
663.76	9488.34
664.11	9422.8
664.461	9473.65
664.811	9441.33
665.161	9384.84
665.511	9436.14
665.862	9459.86
666.212	9494.67
666.562	9461.45
666.912	9421.45
667.262	9459.86
667.612	9465.51
667.962	9449.47
668.312	9437.49
668.662	9426.19
669.011	9384.61
669.361	9456.47
669.711	9432.52
670.06	9382.58
670.41	9387.78
670.76	9383.48
671.109	9406.08
671.459	9392.07
671.808	9382.58
672.157	9378.74
672.507	9296.93
672.856	9396.82
673.205	9336.7
673.554	9342.13
673.904	9313.65
674.253	9378.28
674.602	9313.2
674.951	9227.78
675.3	9199.31
675.649	9322.69
675.998	9339.19
676.346	9287.44
676.695	9344.61
677.044	9214.22
677.393	9289.7
677.741	9325.63
678.09	9265.75
678.438	9239.76
678.787	9273.88
679.135	9226.2
679.484	9137.84
679.832	9140.32
680.181	9115.47
680.529	9106.43
680.877	9132.87
681.225	9124.73
681.573	9211.96
681.922	9040.67
682.27	9055.58
682.618	9004.06
682.966	8980.55
683.314	9064.17
683.661	8991.63
684.009	8849.48
684.357	8893.1
684.705	8969.48
685.053	8924.96
685.4	8856.72
685.748	8835.02
686.095	8834.8
686.443	8851.97
686.79	8788.24
687.138	8794.57
687.485	8781.46
687.832	8739.66
688.18	8805.87
688.527	8705.99
688.874	8718.64
689.221	8623.28
689.568	8652.43
689.915	8667.79
690.262	8607.23
690.609	8588.7
690.956	8529.04
691.303	8546.89
691.65	8457.63
691.997	8480.45
692.344	8472.55
692.69	8415.6
693.037	8423.51
693.383	8293.79
693.73	8411.3
694.077	8343.51
694.423	8245.43
694.769	8233
695.116	8231.2
695.462	8178.54
695.808	8159.79
696.155	8175.15
696.501	8138.77
696.847	8102.39
697.193	8013.57
697.539	7981.03
697.885	7953.92
698.231	7922.05
698.577	7929.73
698.923	7957.98
699.269	7899.91
699.614	7799.34
699.96	7799.34
700.306	7809.96
700.651	7763.86
700.997	7679.57
701.342	7691.78
701.688	7718.22
702.033	7650.87
702.379	7605.45
702.724	7555.73
703.069	7631.44
703.415	7504.89
703.76	7505.79
704.105	7502.18
704.45	7484.55
704.795	7410.65
705.14	7384.66
705.485	7374.5
705.83	7353.25
706.175	7350.99
706.52	7303.76
706.865	7289.3
707.209	7254.72
707.554	7205.23
707.899	7307.38
708.243	7202.75
708.588	7177.21
708.932	7114.62
709.277	7106.71
709.621	7118.23
709.966	7099.93
710.31	7119.13
710.654	7011.34
710.998	7044.11
711.342	6980.83
711.687	6948.07
712.031	7020.38
712.375	6931.57
712.719	6970.66
713.063	6950.55
713.407	7039.36
713.75	6899.48
714.094	6930.67
714.438	6865.58
714.782	6859.93
715.125	6911
715.469	6864
715.812	6888.41
716.156	6746.49
716.499	6828.97
716.843	6757.11
717.186	6748.98
717.53	6786.94
717.873	6787.39
718.216	6717.79
718.559	6709.2
718.902	6732.48
719.246	6770.44
719.589	6667.62
719.932	6656.1
720.275	6676.43
720.617	6736.32
720.96	6617.91
721.303	6668.53
721.646	6657.45
721.989	6607.06
722.331	6639.6
722.674	6608.87
723.016	6665.81
723.359	6653.84
723.701	6622.65
724.044	6566.83
724.386	6559.15
724.729	6555.53
725.071	6579.26
725.413	6568.87
725.755	6554.4
726.097	6490.68
726.439	6524.35
726.782	6528.87
727.124	6527.29
727.465	6534.52
727.807	6553.05
728.149	6522.77
728.491	6448.42
728.833	6458.36
729.175	6509.89
729.516	6537.23
729.858	6515.99
730.199	6518.47
730.541	6512.82
730.882	6475.54
731.224	6511.24
731.565	6506.95
731.906	6461.07
732.248	6512.6
732.589	6482.32
732.93	6470.11
733.271	6499.49
733.612	6462.65
733.953	6498.59
734.294	6527.06
734.635	6490.68
734.976	6485.03
735.317	6448.87
735.658	6506.95
735.999	6484.58
736.339	6475.08
736.68	6511.24
737.021	6556.44
737.361	6563.67
737.702	6564.8
738.042	6479.83
738.383	6526.16
738.723	6530.9
739.063	6542.65
739.404	6577.91
739.744	6613.16
740.084	6591.24
740.424	6610.45
740.764	6614.52
741.104	6665.36
741.444	6617.23
741.784	6598.24
742.124	6670.56
742.464	6683.21
742.804	6755.98
743.143	6733.38
743.483	6749.2
743.823	6762.76
744.162	6780.16
744.502	6829.2
744.841	6832.36
745.181	6876.43
745.52	6869.65
745.86	6947.16
746.199	6960.27
746.538	6984.22
746.877	7052.24
747.216	7051.11
747.556	7033.71
747.895	7175.4
748.234	7190.77
748.573	7234.16
748.911	7337.66
749.25	7330.88
749.589	7348.28
749.928	7485
750.267	7574.94
750.605	7625.11
750.944	7680.7
751.283	7753.02
751.621	7886.57
751.96	7872.34
752.298	7983.52
752.636	8120.01
752.975	8208.82
753.313	8258.31
753.651	8447.01
753.989	8491.3
754.327	8576.72
754.666	8670.51
755.004	8745.31
755.342	8887.68
755.679	9071.85
756.017	9184.17
756.355	9305.97
756.693	9424.38
757.031	9650.59
757.368	9667.09
757.706	9899.4
758.044	9956.12
758.381	10125.84
758.719	10325.15
759.056	10433.4
759.394	10578.25
759.731	10679.49
760.068	10848.3
760.405	11011.46
760.743	11162.64
761.08	11347.72
761.417	11511.56
761.754	11596.31
762.091	11777.54
762.428	11990.65
762.765	12072
763.102	12360.8
763.438	12422.27
763.775	12552.21
764.112	12695.26
764.449	12956.95
764.785	13166.21
765.122	13172.08
765.458	13262.93
765.795	13505.63
766.131	13671.05
766.467	13786.76
766.804	13827.88
767.14	13982.46
767.476	14260.42
767.812	14329.34
768.148	14496.79
768.485	14609.33
768.821	14670.12
769.157	14798.03
769.492	14923.9
769.828	15041.41
770.164	15070.56
770.5	15264.01
770.836	15349.2
771.171	15448.86
771.507	15526.82
771.842	15582.42
772.178	15699.25
772.513	15811.56
772.849	15880.26
773.184	15916.42
773.519	16034.83
773.855	16055.62
774.19	16130.2
774.525	16220.14
774.86	16367.48
775.195	16388.95
775.53	16408.16
775.865	16441.6
776.2	16446.12
776.535	16476.18
776.87	16507.14
777.205	16562.95
777.539	16593.01
777.874	16680.01
778.209	16714.59
778.543	16744.87
778.878	16728.37
779.212	16813.57
779.547	16763.4
779.881	16953.68
780.215	16818.99
780.55	16926.79
780.884	16838.43
781.218	16857.41
781.552	16992.1
781.886	16932.44
782.22	16865.09
782.554	16876.17
782.888	16782.84
783.222	16848.37
783.556	16869.84
783.889	16795.26
784.223	16655.83
784.557	16749.62
784.89	16833.68
785.224	16764.53
785.557	16816.96
785.891	16785.1
786.224	16739.9
786.558	16813.12
786.891	16672.1
787.224	16701.71
787.557	16658.09
787.891	16663.29
788.224	16653.57
788.557	16720.46
788.89	16599.56
789.223	16663.52
789.556	16637.3
789.888	16564.76
790.221	16606.12
790.554	16417.2
790.887	16506.68
791.219	16361.38
791.552	16447.03
791.884	16395.05
792.217	16388.72
792.549	16374.94
792.882	16344.88
793.214	16301.27
793.546	16307.14
793.879	16205.45
794.211	16153.7
794.543	16145.79
794.875	16166.81
795.207	16235.28
795.539	16102.4
795.871	16178.56
796.203	16074.61
796.535	15929.07
796.867	15979.24
797.198	15969.75
797.53	15914.61
797.862	15846.81
798.193	15779.25
798.525	15837.55
798.856	15751.9
799.188	15695.41
799.519	15640.49
799.85	15571.79
800.182	15628.06
800.513	15602.98
800.844	15494.73
801.175	15552.81
801.506	15566.37
801.837	15468.52
802.168	15340.84
802.499	15458.8
802.83	15277.34
803.161	15248.86
803.491	15277.11
803.822	15310.11
804.153	15251.12
804.483	15106.04
804.814	15165.25
805.145	15121.86
805.475	15013.16
805.805	14946.73
806.136	15018.36
806.466	14968.42
806.796	14925.71
807.126	14912.38
807.457	14867.41
807.787	14858.82
808.117	14811.14
808.447	14699.95
808.777	14810.01
809.107	14717.35
809.436	14619.28
809.766	14612.5
810.096	14558.26
810.426	14587.87
810.755	14459.28
811.085	14576.11
811.414	14512.16
811.744	14417.47
812.073	14344.26
812.403	14430.36
812.732	14386.29
813.061	14347.87
813.39	14307.87
813.719	14252.28
814.049	14393.07
814.378	14139.52
814.707	14218.16
815.036	14188.55
815.365	14150.59
815.693	13986.3
816.022	14018.61
816.351	14054.55
816.68	14000.76
817.008	13965.73
817.337	13893.87
817.665	13913.98
817.994	13950.82
818.322	13836.7
818.651	13758.51
818.979	13831.73
819.307	13792.63
819.636	13821.11
819.964	13671.05
820.292	13802.57
820.62	13742.92
820.948	13719.19
821.276	13771.84
821.604	13710.15
821.932	13762.58
822.259	13829.92
822.587	13657.27
822.915	13630.38
823.243	13650.71
823.57	13765.29
823.898	13652.97
824.225	13648.45
824.553	13607.1
824.88	13603.71
825.207	13776.81
825.535	13689.36
825.862	13767.77
826.189	13650.94
826.516	13680.77
826.843	13833.99
827.17	13761.67
827.497	13725.29
827.824	13742.46
828.151	13810.03
828.478	13737.49
828.805	13769.36
829.131	13743.37
829.458	13680.32
829.785	13698.17
830.111	13696.14
830.438	13779.75
830.764	13759.19
831.09	13800.77
831.417	13611.39
831.743	13694.1
832.069	13770.94
832.395	13690.49
832.722	13709.02
833.048	13629.92
833.374	13618.85
833.7	13558.51
834.026	13567.78
834.351	13577.95
834.677	13660.88
835.003	13643.26
835.329	13587.89
835.654	13569.36
835.98	13552.86
836.306	13544.73
836.631	13542.92
836.956	13528.46
837.282	13557.84
837.607	13460.44
837.932	13419.76
838.258	13495.01
838.583	13427.22
838.908	13391.29
839.233	13351.97
839.558	13317.16
839.883	13272.87
840.208	13174.79
840.533	13220.22
840.858	13238.07
841.182	13126.21
841.507	13160.11
841.832	13228.8
842.156	13201.46
842.481	13120.56
842.805	13089.6
843.13	13036.04
843.454	13057.06
843.778	12984.29
844.103	12932.54
844.427	12942.03
844.751	12917.4
845.075	12927.34
845.399	12909.49
845.723	12834.24
846.047	12793.34
846.371	12715.82
846.695	12677.41
847.019	12651.87
847.343	12520.35
847.666	12502.04
847.99	12505.43
848.313	12447.36
848.637	12285.33
848.96	12395.38
849.284	12334.36
849.607	12252.56
849.931	12202.62
850.254	12123.97
850.577	12098.44
850.9	11970.76
851.223	11960.36
851.546	11980.93
851.869	11864.55
852.192	11986.8
852.515	11758.33
852.838	11795.4
853.161	11750.43
853.483	11720.14
853.806	11593.37
854.129	11559.02
854.451	11548.4
854.774	11540.49
855.096	11456.87
855.419	11520.38
855.741	11423.65
856.063	11364.9
856.385	11284.22
856.708	11280.83
857.03	11238.8
857.352	11282.19
857.674	11215.98
857.996	11201.97
858.318	11104.79
858.64	11166.26
858.961	11056.43
859.283	11044.91
859.605	10978.47
859.926	11043.33
860.248	10988.19
860.57	10944.57
860.891	10889.21
861.212	10854.18
861.534	10854.86
861.855	10806.95
862.176	10871.13
862.498	10827.74
862.819	10795.87
863.14	10771.92
863.461	10761.98
863.782	10755.88
864.103	10714.29
864.424	10667.52
864.745	10664.35
865.065	10652.6
865.386	10558.59
865.707	10588.2
866.027	10584.58
866.348	10583.9
866.668	10570.34
866.989	10483.79
867.309	10453.28
867.63	10506.39
867.95	10394.3
868.27	10424.36
868.59	10347.52
868.91	10458.48
869.23	10384.59
869.55	10308.88
869.87	10380.52
870.19	10434.3
870.51	10366.96
870.83	10311.82
871.15	10330.35
871.469	10249.22
871.789	10333.97
872.109	10262.56
872.428	10232.95
872.748	10230.92
873.067	10219.17
873.386	10222.1
873.706	10156.8
874.025	10175.55
874.344	10078.83
874.663	10159.51
874.982	10125.38
875.301	10106.4
875.62	10127.42
875.939	9975.78
876.258	10072.5
876.577	9965.16
876.896	9983.69
877.214	9966.74
877.533	9964.26
877.852	9955.9
878.17	9961.32
878.489	9971.04
878.807	9859.63
879.125	9869.57
879.444	9927.42
879.762	9884.49
880.08	9904.82
880.398	9806.75
880.716	9897.59
881.034	9821.44
881.352	9784.15
881.67	9704.15
881.988	9820.76
882.306	9691.95
882.624	9672.51
882.941	9669.8
883.259	9637.26
883.577	9671.16
883.894	9586.87
884.212	9627.32
884.529	9594.78
884.846	9552.52
885.164	9600.65
885.481	9533.76
885.798	9492.18
886.115	9384.61
886.432	9398.4
886.75	9348.91
887.067	9389.13
887.383	9353.43
887.7	9405.85
888.017	9281.79
888.334	9344.39
888.651	9230.94
888.967	9244.73
889.284	9257.61
889.6	9189.36
889.917	9152.75
890.233	9101.68
890.55	9073.21
890.866	9138.06
891.182	9057.39
891.498	9056.49
891.815	8993.21
892.131	8985.98
892.447	8969.71
892.763	8909.82
893.079	8889.26
893.395	8853.78
893.71	8805.19
894.026	8788.92
894.342	8783.72
894.657	8808.36
894.973	8762.93
895.289	8700.34
895.604	8694.46
895.92	8649.26
896.235	8617.63
896.55	8531.3
896.865	8531.53
897.181	8559.77
897.496	8545.31
897.811	8548.25
898.126	8513.67
898.441	8439.1
898.756	8451.08
899.071	8358.65
899.386	8292.21
899.7	8326.33
900.015	8186.45
900.33	8176.28
900.644	8161.37
900.959	8154.36
901.273	8151.2
901.588	8097.87
901.902	8084.08
902.216	8035.27
902.531	8011.99
902.845	8032.56
903.159	7996.63
903.473	7923.86
903.787	7878.44
904.101	7883.63
904.415	7854.71
904.729	7783.75
905.042	7772
905.356	7734.94
905.67	7759.34
905.984	7721.83
906.297	7663.98
906.611	7617.43
906.924	7668.05
907.237	7551.67
907.551	7539.69
907.864	7555.06
908.177	7497.88
908.491	7473.48
908.804	7447.71
909.117	7340.6
909.43	7301.95
909.743	7285.68
910.056	7262.41
910.368	7247.27
910.681	7198.91
910.994	7188.96
911.307	7168.17
911.619	7090.21
911.932	7124.78
912.244	7111.68
912.557	7076.88
912.869	7010.89
913.181	7004.11
913.494	6983.32
913.806	6936.77
914.118	6903.55
914.43	6819.71
914.742	6897.9
915.054	6853.61
915.366	6785.13
915.678	6794.17
915.99	6777.67
916.302	6682.54
916.613	6633.72
916.925	6653.38
917.236	6656.1
917.548	6590.56
917.859	6565.48
918.171	6530
918.482	6508.98
918.794	6495.2
919.105	6410.23
919.416	6400.06
919.727	6362.32
920.038	6430.57
920.349	6405.71
920.66	6304.02
920.971	6343.11
921.282	6255.2
921.593	6262.43
921.903	6251.36
922.214	6204.36
922.525	6214.75
922.835	6144.02
923.146	6163
923.456	6195.09
923.767	6092.04
924.077	6130.69
924.387	6048.43
924.697	5983.35
925.008	6041.42
925.318	5913.74
925.628	6006.4
925.938	5895.89
926.248	5883.24
926.558	5876.91
926.867	5919.39
927.177	5859.51
927.487	5795.55
927.796	5814.76
928.106	5764.37
928.416	5696.57
928.725	5751.26
929.034	5658.83
929.344	5691.83
929.653	5657.48
929.962	5610.47
930.271	5602.34
930.581	5606.63
930.89	5501.1
931.199	5483.02
931.508	5523.24
931.817	5525.05
932.125	5442.57
932.434	5460.2
932.743	5391.95
933.051	5360.99
933.36	5380.42
933.669	5354.89
933.977	5356.02
934.286	5320.54
934.594	5274.66
934.902	5295.91
935.21	5175.01
935.519	5188.34
935.827	5192.86
936.135	5184.72
936.443	5152.63
936.751	5138.85
937.059	5121.22
937.367	5116.93
937.674	5049.36
937.982	5082.8
938.29	4996.7
938.597	5010.04
938.905	4975.46
939.213	4906.31
939.52	4923.03
939.827	4896.37
940.135	4889.59
940.442	4871.74
940.749	4850.04
941.056	4853.43
941.363	4801.46
941.67	4854.56
941.977	4769.59
942.284	4705.86
942.591	4721.68
942.898	4681.23
943.205	4728.01
943.511	4673.1
943.818	4643.72
944.125	4635.36
944.431	4681.46
944.738	4603.27
945.044	4562.14
945.35	4542.25
945.657	4559.65
945.963	4530.5
946.269	4459.32
946.575	4477.17
946.881	4483.5
947.187	4466.1
947.493	4404.63
947.799	4399.43
948.105	4401.47
948.41	4355.59
948.716	4354.46
949.022	4331.41
949.327	4286.89
949.633	4260.9
949.938	4287.8
950.244	4288.47
950.549	4183.84
950.854	4201.02
951.16	4223.84
951.465	4178.2
951.77	4143.62
952.075	4178.42
952.38	4142.94
952.685	4096.16
952.99	4096.84
953.294	4072.89
953.599	4059.1
953.904	4019.78
954.209	4012.78
954.513	3980.91
954.818	3986.79
955.122	3984.75
955.426	4045.32
955.731	3968.71
956.035	3864.76
956.339	3887.36
956.643	3911.08
956.948	3875.38
957.252	3871.76
957.556	3865.21
957.86	3830.41
958.163	3840.58
958.467	3816.4
958.771	3775.04
959.075	3787.92
959.378	3744.99
959.682	3735.72
959.985	3745.89
960.289	3723.74
960.592	3634.03
960.896	3676.29
961.199	3662.73
961.502	3577.31
961.805	3640.13
962.108	3628.15
962.411	3608.94
962.714	3553.58
963.017	3590.19
963.32	3546.35
963.623	3571.21
963.926	3551.32
964.228	3506.57
964.531	3448.72
964.833	3499.12
965.136	3435.84
965.438	3455.5
965.741	3432.45
966.043	3422.28
966.345	3382.51
966.648	3399.23
966.95	3359.46
967.252	3363.53
967.554	3289.86
967.856	3336.86
968.158	3268.39
968.46	3288.5
968.761	3289.18
969.063	3258.22
969.365	3257.54
969.666	3223.87
969.968	3266.58
970.269	3193.14
970.571	3189.52
970.872	3187.71
971.174	3148.39
971.475	3181.61
971.776	3129.64
972.077	3107.71
972.378	3074.04
972.679	3100.03
972.98	3104.78
973.281	3040.15
973.582	3099.13
973.883	3040.82
974.183	3049.86
974.484	3042.63
974.785	2995.85
975.085	3020.94
975.386	2978.68
975.686	2975.97
975.986	2986.36
976.287	2940.71
976.587	2896.87
976.887	2909.53
977.187	2904.78
977.487	2906.82
977.787	2895.74
978.087	2839.02
978.387	2845.35
978.687	2855.97
978.987	2815.75
979.286	2781.62
979.586	2778.91
979.885	2798.12
980.185	2824.78
980.484	2779.81
980.784	2773.94
981.083	2741.17
981.382	2713.83
981.682	2728.06
981.981	2710.66
982.28	2709.08
982.579	2688.97
982.878	2666.6
983.177	2672.92
983.475	2667.5
983.774	2637.44
984.073	2636.77
984.372	2636.99
984.67	2596.32
984.969	2597.9
985.267	2569.42
985.566	2618.46
985.864	2539.14
986.162	2546.6
986.461	2535.53
986.759	2513.15
987.057	2469.99
987.355	2516.32
987.653	2480.39
987.951	2485.81
988.249	2472.93
988.547	2450.78
988.844	2420.95
989.142	2465.7
989.44	2397
989.737	2402.2
990.035	2384.8
990.332	2418.24
990.63	2374.17
990.927	2358.58
991.224	2345.25
991.521	2341.18
991.819	2315.65
992.116	2318.13
992.413	2301.41
992.71	2307.96
993.006	2315.19
993.303	2284.91
993.6	2295.76
993.897	2256.44
994.193	2288.53
994.49	2239.04
994.787	2221.41
995.083	2226.16
995.379	2216.66
995.676	2201.07
995.972	2182.54
996.268	2167.85
996.565	2138.7
996.861	2155.42
997.157	2135.09
997.453	2157.68
997.749	2146.16
998.044	2135.54
998.34	2086.72
998.636	2110.23
998.932	2102.54
999.227	2050.57
999.523	2074.75
999.818	2076.56
1000.114	2046.95
1000.409	2035.2
1000.704	2019.38
1001	1996.11
1001.295	1975.77
1001.59	1959.27
1001.885	1961.76
1002.18	1951.14
1002.475	1958.14
1002.77	1928.08
1003.065	1910.46
1003.359	1912.72
1003.654	1929.21
1003.949	1862.1
1004.243	1886.28
1004.538	1856.67
1004.832	1892.83
1005.127	1879.05
1005.421	1847.64
1005.715	1820.52
1006.009	1819.39
1006.304	1788.65
1006.598	1808.31
1006.892	1799.05
1007.186	1771.48
1007.48	1780.52
1007.773	1786.39
1008.067	1765.83
1008.361	1768.09
1008.655	1715.89
1008.948	1745.26
1009.242	1733.51
1009.535	1720.18
1009.829	1717.24
1010.122	1678.37
1010.415	1689
1010.708	1665.27
1011.001	1661.2
1011.295	1639.73
1011.588	1653.74
1011.881	1640.18
1012.173	1597.25
1012.466	1623.01
1012.759	1609.68
1013.052	1613.52
1013.344	1584.59
1013.637	1580.52
1013.93	1553.63
1014.222	1604.03
1014.514	1571.71
1014.807	1569
1015.099	1530.81
1015.391	1542.33
1015.683	1516.12
1015.976	1519.73
1016.268	1482.45
1016.56	1500.98
1016.851	1466.63
1017.143	1475.67
1017.435	1452.62
1017.727	1457.14
1018.018	1427.53
1018.31	1437.93
1018.602	1440.87
1018.893	1400.19
1019.185	1404.48
1019.476	1384.37
1019.767	1402.45
1020.058	1397.25
1020.35	1355.67
1020.641	1379.4
1020.932	1364.26
1021.223	1343.69
1021.514	1352.73
1021.804	1338.27
1022.095	1343.69
1022.386	1307.31
1022.677	1321.32
1022.967	1314.99
1023.258	1286.52
1023.548	1258.72
1023.839	1266.86
1024.129	1262.34
1024.419	1277.48
1024.709	1249.46
1025	1254.2
1025.29	1238.16
1025.58	1210.36
1025.87	1179.18
1026.16	1198.16
1026.449	1205.84
1026.739	1200.65
1027.029	1209.91
1027.319	1193.64
1027.608	1157.71
1027.898	1167.88
1028.187	1158.61
1028.477	1151.16
1028.766	1159.07
1029.055	1114.32
1029.344	1114.32
1029.634	1140.31
1029.923	1108.9
1030.212	1092.17
1030.501	1104.83
1030.79	1102.12
1031.078	1105.73
1031.367	1087.88
1031.656	1063.02
1031.945	1086.3
1032.233	1073.42
1032.522	1084.49
1032.81	1073.87
1033.099	1054.66
1033.387	1027.32
1033.675	1036.81
1033.963	1025.51
1034.251	1020.09
1034.54	999.52
1034.828	992.74
1035.116	999.07
1035.403	993.42
1035.691	979.18
1035.979	985.06
1036.267	962.23
1036.554	964.49
1036.842	960.2
1037.129	934.66
1037.417	949.58
1037.704	944.83
1037.992	936.25
1038.279	923.82
1038.566	892.18
1038.853	892.18
1039.14	892.18
