Data from hue_210_FLMS001491_00076.txt Node
Date: Tue Feb 07 16:41:41 GMT 2017
User: dcchb
Spectrometer: FLMS00149
Trigger mode: 0
Integration Time (sec): 2.000000E-2
Scans to average: 10
Electric dark correction enabled: true
Nonlinearity correction enabled: false
Boxcar width: 0
XAxis mode: Wavelengths
Number of Pixels in Spectrum: 2048
>>>>>Begin Spectral Data<<<<<
341.393	-2.16
341.776	-2.16
342.16	-2.16
342.543	-50.75
342.927	-64.31
343.31	-81.71
343.693	-65.44
344.077	-71.09
344.46	-82.61
344.843	-53.91
345.226	-38.32
345.61	-35.15
345.993	0.1
346.376	-18.88
346.759	13.21
347.142	33.54
347.525	48.91
347.908	51.17
348.291	85.52
348.674	98.85
349.057	115.8
349.44	129.14
349.823	159.87
350.206	147.44
350.588	166.87
350.971	207.33
351.354	224.73
351.737	241.67
352.119	249.36
352.502	269.47
352.884	250.04
353.267	285.06
353.65	289.13
354.032	276.25
354.414	280.09
354.797	305.18
355.179	310.6
355.562	294.33
355.944	314.21
356.326	331.84
356.709	339.98
357.091	350.6
357.473	346.76
357.855	338.4
358.238	335.01
358.62	329.13
359.002	347.89
359.384	310.15
359.766	335.46
360.148	335.68
360.53	349.92
360.912	313.31
361.294	333.42
361.676	322.8
362.057	323.93
362.439	323.71
362.821	340.88
363.203	331.62
363.584	311.5
363.966	338.85
364.348	330.03
364.729	310.15
365.111	337.72
365.493	321.22
365.874	320.99
366.256	300.88
366.637	303.14
367.019	310.6
367.4	303.37
367.781	293.42
368.163	333.2
368.544	324.16
368.925	328.68
369.306	312.86
369.688	319.64
370.069	276.7
370.45	330.71
370.831	333.42
371.212	331.84
371.593	314.21
371.974	306.08
372.355	300.88
372.736	324.84
373.117	290.26
373.498	304.05
373.879	320.77
374.26	310.15
374.641	319.86
375.021	322.35
375.402	323.71
375.783	329.36
376.163	336.14
376.544	336.36
376.925	297.49
377.305	337.72
377.686	338.17
378.066	321.45
378.447	334.1
378.827	332.97
379.208	316.25
379.588	333.2
379.968	334.33
380.349	317.15
380.729	318.06
381.109	308.11
381.489	346.3
381.87	325.97
382.25	354.89
382.63	333.65
383.01	329.58
383.39	339.3
383.77	337.72
384.15	352.18
384.53	356.93
384.91	339.07
385.29	360.99
385.67	315.8
386.049	341.78
386.429	382.46
386.809	360.77
387.189	328.9
387.568	342.91
387.948	345.4
388.328	335.01
388.707	373.87
389.087	356.93
389.466	365.29
389.846	365.51
390.225	368.68
390.605	360.54
390.984	383.37
391.363	387.43
391.743	364.61
392.122	356.7
392.501	375.23
392.881	351.28
393.26	384.72
393.639	363.71
394.018	388.79
394.397	397.38
394.776	380.88
395.155	384.5
395.534	394.89
395.913	380.43
396.292	393.31
396.671	405.74
397.05	387.66
397.429	400.77
397.808	375.23
398.186	413.87
398.565	404.16
398.944	402.57
399.323	420.2
399.701	400.31
400.08	405.96
400.458	418.62
400.837	396.92
401.215	412.07
401.594	410.48
401.972	404.38
402.351	432.18
402.729	420.88
403.107	426.75
403.486	431.95
403.864	431.5
404.242	455.68
404.62	441.9
404.999	429.47
405.377	452.52
405.755	437.38
406.133	447.77
406.511	470.59
406.889	460.88
407.267	466.75
407.645	498.62
408.023	483.93
408.401	502.46
408.779	510.14
409.156	491.16
409.534	503.36
409.912	493.65
410.29	532.74
410.667	532.74
411.045	555.56
411.422	552.17
411.8	566.19
412.178	579.74
412.555	582.23
412.933	589.46
413.31	586.52
413.687	615.68
414.065	620.2
414.442	594.21
414.819	611.16
415.197	640.99
415.574	655.9
415.951	670.82
416.328	669.46
416.705	683.02
417.082	686.41
417.46	672.17
417.837	702.45
418.214	703.58
418.591	720.53
418.967	732.73
419.344	736.35
419.721	740.87
420.098	768.44
420.475	775.9
420.852	770.47
421.228	765.5
421.605	812.73
421.982	812.73
422.358	822.68
422.735	824.03
423.111	848.44
423.488	847.53
423.864	871.71
424.241	893.18
424.617	907.65
424.994	902.67
425.37	949
425.746	945.16
426.123	968.21
426.499	961.88
426.875	980.86
427.251	983.58
427.627	1024.03
428.003	1053.63
428.379	1047.75
428.756	1073.29
429.132	1046.17
429.507	1089.56
429.883	1076.91
430.259	1094.08
430.635	1126.17
431.011	1144.93
431.387	1154.87
431.763	1164.81
432.138	1180.41
432.514	1207.75
432.89	1212.72
433.265	1266.73
433.641	1265.38
434.016	1275.55
434.392	1332.04
434.767	1315.09
435.143	1356
435.518	1374.53
435.894	1406.84
436.269	1408.42
436.644	1439.16
437.02	1468.53
437.395	1485.94
437.77	1478.7
438.145	1539.04
438.52	1543.11
438.895	1592.37
439.271	1596.67
439.646	1654.52
440.021	1663.11
440.395	1662.2
440.77	1696.78
441.145	1705.36
441.52	1748.3
441.895	1780.17
442.27	1772.71
442.645	1815.42
443.019	1798.92
443.394	1819.71
443.769	1854.97
444.143	1851.35
444.518	1897.45
444.892	1882.08
445.267	1909.43
445.641	1927.96
446.016	1937.9
446.39	1973.83
446.764	1969.99
447.139	1978.58
447.513	2025.58
447.887	2029.65
448.262	2033.72
448.636	2023.55
449.01	2068.52
449.384	2094.28
449.758	2088.41
450.132	2126.37
450.506	2145.58
450.88	2134.05
451.254	2156.65
451.628	2192.13
452.002	2202.3
452.376	2223.32
452.75	2213.37
453.123	2267.16
453.497	2308.51
453.871	2307.16
454.244	2340.6
454.618	2344.22
454.992	2371.11
455.365	2400.49
455.739	2444.55
456.112	2482.75
456.486	2465.57
456.859	2513.25
457.232	2582.18
457.606	2586.25
457.979	2593.25
458.352	2644.55
458.725	2695.4
459.099	2678.9
459.472	2754.38
459.845	2760.25
460.218	2790.08
460.591	2802.51
460.964	2846.58
461.337	2857.2
461.71	2900.14
462.083	2909.63
462.456	2946.24
462.829	2920.7
463.201	3022.62
463.574	3037.53
463.947	3070.3
464.32	3135.38
464.692	3187.36
465.065	3209.51
465.438	3257.87
465.81	3310.75
466.183	3286.79
466.555	3344.19
466.928	3376.06
467.3	3453.79
467.672	3432.78
468.045	3524.75
468.417	3523.62
468.789	3545.99
469.161	3576.95
469.534	3658.53
469.906	3705.31
470.278	3768.81
470.65	3752.32
471.022	3835.7
471.394	3872.99
471.766	3890.62
472.138	3964.74
472.51	4040.9
472.882	4136.26
473.253	4148.69
473.625	4164.51
473.997	4265.75
474.369	4290.16
474.74	4362.92
475.112	4442.24
475.484	4492.86
475.855	4528.34
476.227	4550.94
476.598	4654.67
476.97	4694.89
477.341	4827.32
477.713	4840.42
478.084	4887.43
478.455	4987.31
478.827	5063.69
479.198	5183.47
479.569	5133.75
479.94	5325.16
480.311	5349.79
480.682	5453.29
481.053	5583
481.424	5623.45
481.795	5680.18
482.166	5725.82
482.537	5791.59
482.908	5949.32
483.279	5923.78
483.65	5999.72
484.021	6140.95
484.391	6204.46
484.762	6188.41
485.133	6290.78
485.503	6348.18
485.874	6455.97
486.244	6562.19
486.615	6627.72
486.985	6647.16
487.356	6805.8
487.726	6826.13
488.097	6990.88
488.467	6991.55
488.837	7177.76
489.207	7185.22
489.578	7252.56
489.948	7346.8
490.318	7439.45
490.688	7407.81
491.058	7519.22
491.428	7649.62
491.798	7714.92
492.168	7794.7
492.538	7788.37
492.908	7868.14
493.278	7981.58
493.648	7897.74
494.017	8069.94
494.387	8076.04
494.757	8149.26
495.126	8213.67
495.496	8234.01
495.866	8191.52
496.235	8325.53
496.605	8425.19
496.974	8433.78
497.344	8518.74
497.713	8542.47
498.082	8577.5
498.452	8636.93
498.821	8718.74
499.19	8750.83
499.559	8780.88
499.928	8784.27
500.298	8740.89
500.667	8917.83
501.036	8817.49
501.405	8946.08
501.774	8957.15
502.143	9007.09
502.512	8977.49
502.88	9063.14
503.249	8995.12
503.618	8995.34
503.987	9080.76
504.356	9149.46
504.724	9139.75
505.093	9179.07
505.462	9224.94
505.83	9209.12
506.199	9339.06
506.567	9288.67
506.936	9379.74
507.304	9464.93
507.672	9429.68
508.041	9436.23
508.409	9421.77
508.777	9502.22
509.145	9575.67
509.514	9616.57
509.882	9564.14
510.25	9577.02
510.618	9625.38
510.986	9645.72
511.354	9684.14
511.722	9712.61
512.09	9780.18
512.458	9762.33
512.826	9763.23
513.193	9703.12
513.561	9774.76
513.929	9788.09
514.297	9908.09
514.664	9900.86
515.032	9842.33
515.4	9900.63
515.767	9922.1
516.135	9936.11
516.502	9775.89
516.869	9997.35
517.237	9970.68
517.604	9888.2
517.972	9972.72
518.339	9919.84
518.706	9973.85
519.073	9930.91
519.44	10077.57
519.808	10105.6
520.175	9959.84
520.542	10103.34
520.909	10089.33
521.276	10003.68
521.643	10079.61
522.009	10138.59
522.376	10118.93
522.743	10142.66
523.11	10190.57
523.477	10247.29
523.843	10194.18
524.21	10302.43
524.577	10265.59
524.943	10285.25
525.31	10295.65
525.676	10334.97
526.043	10352.14
526.409	10344.01
526.776	10330.9
527.142	10410.45
527.508	10390.79
527.874	10388.75
528.241	10435.53
528.607	10425.14
528.973	10353.72
529.339	10330.22
529.705	10386.04
530.071	10413.38
530.437	10358.7
530.803	10420.84
531.169	10379.04
531.535	10305.82
531.901	10351.01
532.267	10326.83
532.632	10367.96
532.998	10345.82
533.364	10346.49
533.73	10275.31
534.095	10361.41
534.461	10304.01
534.826	10274.18
535.192	10261.98
535.557	10311.92
535.923	10234.86
536.288	10229.66
536.653	10247.06
537.019	10171.81
537.384	10124.13
537.749	10110.34
538.114	10055.43
538.479	10093.84
538.845	10014.75
539.21	9971.36
539.575	9962.32
539.94	9980.63
540.305	9963.45
540.67	9963
541.034	9907.41
541.399	9879.39
541.764	9871.03
542.129	9881.65
542.494	9776.11
542.858	9777.24
543.223	9746.28
543.587	9732.95
543.952	9734.98
544.316	9701.76
544.681	9641.2
545.045	9644.82
545.41	9638.04
545.774	9626.29
546.138	9568.43
546.503	9517.59
546.867	9501.09
547.231	9519.4
547.595	9472.84
547.959	9435.56
548.324	9403.92
548.688	9389
549.052	9400.53
549.416	9341.77
549.779	9390.36
550.143	9261.32
550.507	9301.32
550.871	9222.68
551.235	9190.14
551.599	9213.19
551.962	9254.32
552.326	9190.14
552.689	9133.87
553.053	9078.05
553.417	9086.87
553.78	9149.24
554.143	9116.24
554.507	9004.38
554.87	9047.54
555.234	9074.89
555.597	8954.44
555.96	8956.7
556.323	8901.33
556.686	8899.53
557.05	8975.91
557.413	8922.12
557.776	8888.9
558.139	8878.06
558.502	8926.64
558.865	8911.5
559.228	8922.58
559.59	8851.39
559.953	8893.42
560.316	8854.1
560.679	8866.08
561.041	8877.61
561.404	8900.43
561.767	8888.9
562.129	8826.31
562.492	8963.25
562.854	8908.34
563.217	8817.27
563.579	8872.41
563.941	8883.48
564.304	8862.69
564.666	8904.95
565.028	8956.02
565.39	8899.3
565.753	8880.09
566.115	8917.6
566.477	8948.56
566.839	8899.75
567.201	8991.27
567.563	8974.55
567.925	9027.66
568.287	8984.5
568.648	8970.94
569.01	9028.11
569.372	9079.86
569.734	8949.69
570.095	9019.3
570.457	9047.09
570.819	9090.48
571.18	9044.83
571.542	9098.16
571.903	9044.83
572.265	9137.71
572.626	9214.32
572.987	9099.75
573.349	9110.37
573.71	9155.56
574.071	9148.78
574.432	9156.47
574.794	9238.95
575.155	9214.32
575.516	9188.78
575.877	9240.53
576.238	9152.85
576.599	9274.43
576.96	9248.67
577.32	9265.84
577.681	9269.46
578.042	9342.9
578.403	9299.52
578.763	9323.02
579.124	9368.67
579.485	9354.43
579.845	9329.57
580.206	9365.5
580.566	9345.84
580.927	9309.46
581.287	9465.84
581.648	9343.13
582.008	9416.12
582.368	9346.29
582.728	9380.87
583.089	9420.87
583.449	9445.05
583.809	9444.14
584.169	9478.27
584.529	9390.81
584.889	9466.06
585.249	9409.57
585.609	9333.64
585.969	9490.7
586.329	9415.67
586.688	9455.9
587.048	9468.32
587.408	9485.73
587.768	9447.76
588.127	9492.28
588.487	9476.91
588.846	9513.3
589.206	9381.1
589.565	9505.39
589.925	9531.6
590.284	9494.76
590.643	9545.38
591.003	9616.8
591.362	9570.69
591.721	9518.49
592.08	9530.24
592.44	9550.58
592.799	9592.84
593.158	9529.34
593.517	9526.85
593.876	9553.52
594.235	9600.52
594.593	9549.45
594.952	9505.61
595.311	9518.94
595.67	9544.25
596.029	9653.18
596.387	9618.15
596.746	9639.17
597.104	9610.69
597.463	9643.24
597.822	9646.62
598.18	9598.72
598.538	9513.75
598.897	9626.29
599.255	9524.37
599.613	9583.8
599.972	9664.7
600.33	9629.45
600.688	9557.14
601.046	9625.61
601.404	9679.62
601.762	9724.59
602.12	9685.04
602.478	9641.43
602.836	9669.45
603.194	9581.99
603.552	9654.31
603.91	9566.63
604.268	9633.52
604.625	9649.56
604.983	9684.82
605.341	9629
605.698	9664.7
606.056	9715.32
606.413	9633.97
606.771	9630.13
607.128	9680.97
607.485	9612.5
607.843	9649.11
608.2	9691.82
608.557	9692.05
608.914	9653.86
609.272	9728.66
609.629	9780.86
609.986	9722.56
610.343	9682.33
610.7	9773.85
611.057	9709.67
611.414	9770.01
611.771	9740.18
612.127	9769.33
612.484	9742.44
612.841	9767.3
613.198	9731.82
613.554	9755.55
613.911	9843.68
614.267	9800.97
614.624	9814.3
614.98	9832.61
615.337	9898.37
615.693	9834.42
616.05	9830.8
616.406	9895.43
616.762	9821.08
617.118	9818.37
617.475	9851.82
617.831	9959.61
618.187	9877.58
618.543	9947.63
618.899	9946.73
619.255	9955.09
619.611	9882.55
619.967	9996.67
620.323	9960.51
620.678	9934.3
621.034	9907.18
621.39	9926.17
621.746	9931.59
622.101	9979.05
622.457	9899.95
622.812	9979.27
623.168	9913.74
623.523	9986.05
623.879	9973.17
624.234	9867.64
624.589	9952.61
624.945	9989.67
625.3	9978.82
625.655	9957.58
626.01	10018.82
626.365	9934.3
626.72	9900.63
627.075	9945.83
627.43	9960.06
627.785	9916
628.14	9892.27
628.495	9856.79
628.85	9989.44
629.205	9871.03
629.559	9931.59
629.914	9823.12
630.269	9889.56
630.623	9847.3
630.978	9755.55
631.332	9898.37
631.687	9929.56
632.041	9809.11
632.396	9788.77
632.75	9843.23
633.104	9752.16
633.459	9800.07
633.813	9761.42
634.167	9763.23
634.521	9732.72
634.875	9778.6
635.229	9726.85
635.583	9683.91
635.937	9700.86
636.291	9699.05
636.645	9661.99
636.999	9620.18
637.352	9684.14
637.706	9648.66
638.06	9750.35
638.413	9633.97
638.767	9550.81
639.121	9600.52
639.474	9582.22
639.828	9587.87
640.181	9599.17
640.534	9578.6
640.888	9507.19
641.241	9492.73
641.594	9588.55
641.947	9593.29
642.301	9556.46
642.654	9552.84
643.007	9580.64
643.36	9487.76
643.713	9472.84
644.066	9575.21
644.419	9460.87
644.771	9381.32
645.124	9364.37
645.477	9312.62
645.83	9252.74
646.182	9207.09
646.535	9165.28
646.888	9222.68
647.24	9189.24
647.593	9203.02
647.945	9147.43
648.298	9163.7
648.65	9131.84
649.002	9121.89
649.355	9193.53
649.707	9167.99
650.059	9189.91
650.411	9301.1
650.763	9234.66
651.115	9376.12
651.467	9337.25
651.819	9320.98
652.171	9435.11
652.523	9361.43
652.875	9359.17
653.227	9320.08
653.578	9397.59
653.93	9331.38
654.282	9334.54
654.633	9347.88
654.985	9354.66
655.337	9346.97
655.688	9298.61
656.039	9438.27
656.391	9304.94
656.742	9319.4
657.094	9362.11
657.445	9378.84
657.796	9413.41
658.147	9303.81
658.498	9341.55
658.849	9392.85
659.2	9373.86
659.551	9285.73
659.902	9385.84
660.253	9352.4
660.604	9360.08
660.955	9333.41
661.306	9411.38
661.656	9358.72
662.007	9389.23
662.358	9382.9
662.708	9431.04
663.059	9436.46
663.409	9387.42
663.76	9427.65
664.11	9400.08
664.461	9449.34
664.811	9441.88
665.161	9417.93
665.511	9467.87
665.862	9424.48
666.212	9437.36
666.562	9439.17
666.912	9484.14
667.262	9453.64
667.612	9437.36
667.962	9404.37
668.312	9408.44
668.662	9465.61
669.011	9403.47
669.361	9355.79
669.711	9402.11
670.06	9378.84
670.41	9363.92
670.76	9343.36
671.109	9413.64
671.459	9342.9
671.808	9395.78
672.157	9386.97
672.507	9318.05
672.856	9356.91
673.205	9381.55
673.554	9398.5
673.904	9333.64
674.253	9304.94
674.602	9339.06
674.951	9255.9
675.3	9163.25
675.649	9262.45
675.998	9289.35
676.346	9287.76
676.695	9355.79
677.044	9175.68
677.393	9248.9
677.741	9221.78
678.09	9199.41
678.438	9158.73
678.787	9195.79
679.135	9186.98
679.484	9156.02
679.832	9152.85
680.181	9175.9
680.529	9151.04
680.877	9117.6
681.225	9093.19
681.573	9187.43
681.922	9064.49
682.27	9010.26
682.618	8979.75
682.966	9010.71
683.314	8994.44
683.661	8970.26
684.009	8970.03
684.357	8961.45
684.705	8891.39
685.053	8954.89
685.4	8902.69
685.748	8828.12
686.095	8758.51
686.443	8760.77
686.79	8768.46
687.138	8791.73
687.485	8811.17
687.832	8743.15
688.18	8789.47
688.527	8714.9
688.874	8690.49
689.221	8707.89
689.568	8668.57
689.915	8587.22
690.262	8573.21
690.609	8582.02
690.956	8524.62
691.303	8521.91
691.65	8469.03
691.997	8497.95
692.344	8427.22
692.69	8395.58
693.037	8388.13
693.383	8308.13
693.73	8323.27
694.077	8292.31
694.423	8268.81
694.769	8248.7
695.116	8262.71
695.462	8182.48
695.808	8159.88
696.155	8183.84
696.501	8128.02
696.847	8081.47
697.193	8072.43
697.539	8054.8
697.885	7988.14
698.231	7972.09
698.577	7965.31
698.923	7966.22
699.269	7838.54
699.614	7844.41
699.96	7867.69
700.306	7820.23
700.651	7754.02
700.997	7728.94
701.342	7735.04
701.688	7683.96
702.033	7701.59
702.379	7645.1
702.724	7606.9
703.069	7644.19
703.415	7576.17
703.76	7558.54
704.105	7526
704.45	7474.93
704.795	7425.21
705.14	7447.59
705.485	7358.32
705.83	7385.22
706.175	7338.21
706.52	7321.71
706.865	7290.53
707.209	7337.99
707.554	7326.46
707.899	7241.72
708.243	7261.83
708.588	7256.41
708.932	7129.18
709.277	7184.09
709.621	7182.06
709.966	7144.77
710.31	7097.54
710.654	7032.23
710.998	7050.99
711.342	7087.37
711.687	6997.65
712.031	7007.37
712.375	7038.56
712.719	6958.33
713.063	6981.61
713.407	7025.68
713.75	6976.64
714.094	6907.04
714.438	6937.09
714.782	6962.4
715.125	6900.48
715.469	6928.28
715.812	6868.39
716.156	6761.05
716.499	6807.15
716.843	6903.87
717.186	6807.38
717.53	6881.05
717.873	6825.46
718.216	6796.53
718.559	6787.49
718.902	6730.09
719.246	6741.39
719.589	6743.65
719.932	6671.56
720.275	6708.17
720.617	6673.82
720.96	6714.72
721.303	6685.35
721.646	6699.58
721.989	6671.56
722.331	6703.88
722.674	6661.39
723.016	6648.74
723.359	6654.84
723.701	6681.28
724.044	6647.61
724.386	6576.42
724.729	6631.56
725.071	6610.32
725.413	6684.44
725.755	6608.29
726.097	6594.28
726.439	6554.95
726.782	6609.64
727.124	6590.21
727.465	6619.36
727.807	6571
728.149	6605.35
728.491	6585.01
728.833	6561.06
729.175	6559.02
729.516	6578.23
729.858	6544.56
730.199	6553.82
730.541	6499.59
730.882	6545.69
731.224	6613.26
731.565	6532.13
731.906	6553.82
732.248	6560.38
732.589	6570.55
732.93	6551.79
733.271	6507.27
733.612	6514.05
733.953	6557.89
734.294	6527.84
734.635	6514.28
734.976	6561.06
735.317	6525.8
735.658	6577.33
735.999	6546.37
736.339	6529.19
736.68	6601.73
737.021	6589.3
737.361	6566.93
737.702	6635.63
738.042	6555.86
738.383	6554.73
738.723	6526.25
739.063	6604.67
739.404	6596.08
739.744	6588.4
740.084	6570.77
740.424	6624.78
740.764	6571.9
741.104	6701.84
741.444	6649.64
741.784	6646.93
742.124	6720.15
742.464	6707.27
742.804	6715.18
743.143	6709.75
743.483	6756.31
743.823	6711.11
744.162	6759.7
744.502	6817.09
744.841	6822.29
745.181	6882.18
745.52	6865.46
745.86	6950.42
746.199	6976.64
746.538	6970.76
746.877	7011.21
747.216	7081.27
747.556	7088.27
747.895	7149.06
748.234	7182.06
748.573	7213.02
748.911	7195.84
749.25	7285.33
749.589	7384.09
749.928	7427.02
750.267	7525.78
750.605	7687.58
750.944	7637.19
751.283	7705.66
751.621	7852.77
751.96	7916.5
752.298	7968.7
752.636	8097.06
752.975	8125.99
753.313	8259.54
753.651	8383.16
753.989	8381.8
754.327	8565.07
754.666	8622.92
755.004	8715.35
755.342	8851.39
755.679	9010.48
756.017	9091.84
756.355	9267.43
756.693	9351.04
757.031	9482.11
757.368	9629.45
757.706	9794.19
758.044	9962.1
758.381	10026.05
758.719	10265.59
759.056	10462.87
759.394	10543.1
759.731	10674.62
760.068	10818.12
760.405	10940.6
760.743	11137.66
761.08	11405
761.417	11495.84
761.754	11663.52
762.091	11879.79
762.428	12105.54
762.765	12198.87
763.102	12419.89
763.438	12528.58
763.775	12678.41
764.112	12948.23
764.449	13069.36
764.785	13243.14
765.122	13379.86
765.458	13553.19
765.795	13707.08
766.131	13840.64
766.467	14047.64
766.804	14125.38
767.14	14253.74
767.476	14417.8
767.812	14618.25
768.148	14792.7
768.485	14894.4
768.821	14935.53
769.157	15118.12
769.492	15280.83
769.828	15490.31
770.164	15535.74
770.5	15551.33
770.836	15785.9
771.171	15930.08
771.507	15996.51
771.842	16047.36
772.178	16136.85
772.513	16308.82
772.849	16453.68
773.184	16485.77
773.519	16574.35
773.855	16636.5
774.19	16590.17
774.525	16819.09
774.86	16846.66
775.195	16954.91
775.53	16999.2
775.865	17025.87
776.2	17050.05
776.535	16967.34
776.87	17167.56
777.205	17294.33
777.539	17201.91
777.874	17349.02
778.209	17299.08
778.543	17365.29
778.878	17366.42
779.212	17542.01
779.547	17476.48
779.881	17623.14
780.215	17559.41
780.55	17662.91
780.884	17487.77
781.218	17594.44
781.552	17724.38
781.886	17614.32
782.22	17638.96
782.554	17571.16
782.888	17565.51
783.222	17525.29
783.556	17683.48
783.889	17650.48
784.223	17524.38
784.557	17579.52
784.89	17632.63
785.224	17551.5
785.557	17525.29
785.891	17631.05
786.224	17622.46
786.558	17575.46
786.891	17483.03
787.224	17452.3
787.557	17503.14
787.891	17480.09
788.224	17512.63
788.557	17703.36
788.89	17542.69
789.223	17458.17
789.556	17438.51
789.888	17365.52
790.221	17450.49
790.554	17285.75
790.887	17315.58
791.219	17276.48
791.552	17222.7
791.884	17335.24
792.217	17120.78
792.549	17157.16
792.882	17093.43
793.214	17073.77
793.546	17121.46
793.879	17088.92
794.211	16942.25
794.543	17012.76
794.875	16925.3
795.207	17007.79
795.539	16951.74
795.871	16976.83
796.203	16856.38
796.535	16790.39
796.867	16770.73
797.198	16735.48
797.53	16757.62
797.862	16598.98
798.193	16770.96
798.525	16565.54
798.856	16647.57
799.188	16503.39
799.519	16452.32
799.85	16388.82
800.182	16362.15
800.513	16438.54
800.844	16288.94
801.175	16389.72
801.506	16382.49
801.837	16252.55
802.168	16281.25
802.499	16197.64
802.83	16122.16
803.161	16089.17
803.491	16119
803.822	16082.39
804.153	15982.96
804.483	15909.51
804.814	15881.94
805.145	15843.3
805.475	15995.38
805.805	15780.93
806.136	15787.48
806.466	15825.22
806.796	15802.4
807.126	15580.48
807.457	15603.98
807.787	15699.8
808.117	15545.9
808.447	15554.94
808.777	15626.35
809.107	15486.92
809.436	15463.2
809.766	15470.88
810.096	15427.72
810.426	15315.85
810.755	15409.86
811.085	15395.85
811.414	15332.13
811.744	15265.91
812.073	15257.32
812.403	15289.19
812.732	15146.37
813.061	15200.83
813.39	15101.4
813.719	15034.51
814.049	15060.27
814.378	15011.23
814.707	15015.98
815.036	15008.97
815.365	14927.39
815.693	14807.17
816.022	14926.03
816.351	14794.51
816.68	14792.93
817.008	14778.47
817.337	14685.36
817.665	14664.12
817.994	14711.58
818.322	14693.27
818.651	14605.36
818.979	14522.88
819.307	14715.87
819.636	14500.06
819.964	14488.98
820.292	14573.28
820.62	14481.3
820.948	14469.55
821.276	14614.86
821.604	14505.71
821.932	14554.74
822.259	14573.95
822.587	14502.54
822.915	14456.22
823.243	14446.95
823.57	14493.28
823.898	14476.33
824.225	14319.95
824.553	14418.93
824.88	14480.62
825.207	14524.46
825.535	14425.26
825.862	14509.55
826.189	14439.72
826.516	14568.3
826.843	14544.8
827.17	14543.45
827.497	14644.46
827.824	14534.18
828.151	14556.55
828.478	14533.05
828.805	14502.77
829.131	14584.8
829.458	14480.85
829.785	14405.14
830.111	14502.32
830.438	14537.57
830.764	14528.3
831.09	14558.13
831.417	14486.05
831.743	14510.23
832.069	14482.66
832.395	14522.88
832.722	14480.62
833.048	14436.33
833.374	14519.27
833.7	14366.05
834.026	14499.6
834.351	14435.2
834.677	14372.38
835.003	14450.11
835.329	14451.7
835.654	14310.46
835.98	14319.04
836.306	14385.94
836.631	14248.54
836.956	14355.88
837.282	14294.64
837.607	14251.25
837.932	14134.19
838.258	14205.15
838.583	14169.22
838.908	14144.81
839.233	14190.01
839.558	14200.18
839.883	14092.61
840.208	14074.08
840.533	14116.34
840.858	14100.75
841.182	14048.09
841.507	14011.48
841.832	13882.22
842.156	13935.33
842.481	13927.19
842.805	13850.13
843.13	13888.1
843.454	13816.46
843.778	13830.24
844.103	13715.67
844.427	13743.47
844.751	13755.67
845.075	13693.52
845.399	13611.49
845.723	13603.13
846.047	13471.61
846.371	13456.69
846.695	13442.23
847.019	13383.48
847.343	13356.36
847.666	13210.37
847.99	13214.67
848.313	13193.2
848.637	13055.57
848.96	13045.41
849.284	13035.91
849.607	12925.63
849.931	12877.5
850.254	12842.93
850.577	12793.89
850.9	12677.73
851.223	12737.62
851.546	12661.23
851.869	12573.78
852.192	12628.47
852.515	12529.94
852.838	12479.54
853.161	12515.02
853.483	12391.41
853.806	12314.35
854.129	12284.97
854.451	12233.9
854.774	12233.45
855.096	12164.98
855.419	12186.9
855.741	12115.26
856.063	12016.73
856.385	11874.14
856.708	12001.37
857.03	11876.62
857.352	11950.07
857.674	11892.44
857.996	11776.06
858.318	11733.58
858.64	11772.67
858.961	11722.73
859.283	11657.87
859.605	11677.76
859.926	11668.72
860.248	11669.4
860.57	11550.3
860.891	11609.06
861.212	11477.31
861.534	11415.17
861.855	11474.15
862.176	11504.2
862.498	11480.93
862.819	11429.18
863.14	11397.77
863.461	11352.57
863.782	11349.4
864.103	11254.49
864.424	11288.39
864.745	11360.25
865.065	11354.6
865.386	11178.56
865.707	11189.41
866.027	11201.61
866.348	11211.33
866.668	11118.9
866.989	11204.1
867.309	11081.62
867.63	11105.8
867.95	11098.11
868.27	11050.66
868.59	11023.54
868.91	11011.11
869.23	10975.4
869.55	11026.93
869.87	11036.42
870.19	10927.04
870.51	10993.71
870.83	11003.88
871.15	10885.24
871.469	10907.38
871.789	10948.96
872.109	10922.98
872.428	10795.3
872.748	10819.7
873.067	10790.1
873.386	10807.27
873.706	10774.5
874.025	10768.4
874.344	10688.63
874.663	10724.79
874.982	10715.98
875.301	10691.12
875.62	10706.26
875.939	10689.76
876.258	10607.05
876.577	10673.94
876.896	10560.27
877.214	10609.54
877.533	10610.22
877.852	10529.54
878.17	10499.03
878.489	10536.32
878.807	10480.95
879.125	10409.54
879.444	10422.42
879.762	10428.75
880.08	10398.47
880.398	10441.63
880.716	10382.65
881.034	10351.47
881.352	10393.27
881.67	10294.97
881.988	10285.03
882.306	10274.86
882.624	10253.84
882.941	10249.77
883.259	10110.57
883.577	10205.25
883.894	10137.01
884.212	10118.93
884.529	10132.26
884.846	10084.81
885.164	10052.49
885.481	9988.31
885.798	10032.6
886.115	9945.6
886.432	9975.88
886.75	9938.59
887.067	9922.78
887.383	9826.96
887.7	9886.84
888.017	9853.85
888.334	9943.34
888.651	9815.43
888.967	9841.2
889.284	9730.46
889.6	9656.34
889.917	9683.46
890.233	9682.33
890.55	9654.76
890.866	9648.88
891.182	9611.82
891.498	9561.2
891.815	9494.31
892.131	9516.68
892.447	9460.87
892.763	9433.3
893.079	9426.97
893.395	9397.59
893.71	9346.29
894.026	9365.95
894.342	9276.01
894.657	9254.32
894.973	9167.09
895.289	9190.14
895.604	9203.47
895.92	9149.24
896.235	9129.35
896.55	9083.25
896.865	9104.94
897.181	8994.44
897.496	9039.64
897.811	8998.51
898.126	8987.89
898.441	8905.18
898.756	8888
899.071	8830.83
899.386	8870.37
899.7	8790.83
900.015	8703.37
900.33	8628.57
900.644	8656.82
900.959	8681.9
901.273	8634.45
901.588	8577.73
901.902	8508.8
902.216	8502.93
902.531	8547.44
902.845	8443.94
903.159	8421.35
903.473	8406.21
903.787	8348.35
904.101	8280.33
904.415	8337.28
904.729	8329.6
905.042	8264.97
905.356	8189.94
905.67	8222.93
905.984	8192.65
906.297	8162.14
906.611	8076.27
906.924	8123.73
907.237	8056.38
907.551	7986.1
907.864	7988.82
908.177	7930.29
908.491	7907.69
908.804	7847.12
909.117	7800.12
909.43	7798.76
909.743	7797.63
910.056	7728.03
910.368	7747.01
910.681	7619.11
910.994	7607.58
911.307	7596.51
911.619	7490.3
911.932	7595.83
912.244	7505.44
912.557	7534.36
912.869	7417.76
913.181	7373.69
913.494	7368.27
913.806	7314.93
914.118	7374.37
914.43	7270.19
914.742	7306.35
915.054	7217.08
915.366	7219.57
915.678	7153.58
915.99	7149.74
916.302	7055.73
916.613	7066.35
916.925	7060.48
917.236	7067.26
917.548	6975.73
917.859	7016.64
918.171	6881.27
918.482	6886.25
918.794	6891.22
919.105	6806.93
919.416	6845.79
919.727	6796.3
920.038	6763.54
920.349	6720.15
920.66	6692.58
920.971	6711.56
921.282	6658.91
921.593	6663.88
921.903	6641.28
922.214	6563.99
922.525	6512.02
922.835	6504.79
923.146	6476.99
923.456	6460.49
923.767	6467.95
924.077	6335.53
924.387	6326.03
924.697	6308.18
925.008	6345.92
925.318	6366.03
925.628	6275.87
925.938	6303.44
926.248	6236.09
926.558	6218.24
926.867	6244.91
927.177	6189.31
927.487	6127.17
927.796	6082.2
928.106	6111.8
928.416	6088.75
928.725	6030.9
929.034	6012.6
929.344	5990.45
929.653	5974.18
929.962	6001.52
930.271	5882.88
930.581	5916.55
930.89	5873.39
931.199	5864.58
931.508	5844.69
931.817	5806.05
932.125	5830.68
932.434	5751.59
932.743	5725.15
933.051	5721.76
933.36	5715.43
933.669	5674.3
933.977	5639.05
934.286	5644.92
934.594	5607.64
934.902	5561.31
935.21	5569.67
935.519	5555.43
935.827	5536.45
936.135	5483.57
936.443	5413.52
936.751	5417.58
937.059	5429.11
937.367	5416.68
937.674	5404.93
937.982	5327.19
938.29	5325.61
938.597	5324.25
938.905	5206.29
939.213	5277.7
939.52	5236.12
939.827	5210.36
940.135	5218.94
940.442	5195.67
940.749	5137.14
941.056	5209
941.363	5080.87
941.67	5092.85
941.977	5018.05
942.284	5028.89
942.591	5039.51
942.898	5003.58
943.205	4982.57
943.511	4948.67
943.818	4882
944.125	4882.68
944.431	4893.08
944.738	4833.19
945.044	4820.09
945.35	4808.79
945.657	4797.94
945.963	4767.43
946.269	4751.16
946.575	4726.3
946.881	4698.73
947.187	4719.3
947.493	4660.32
947.799	4679.75
948.105	4602.92
948.41	4578.96
948.716	4586.87
949.022	4554.1
949.327	4579.41
949.633	4540.54
949.938	4532.18
950.244	4497.61
950.549	4464.61
950.854	4431.62
951.16	4442.02
951.465	4379.19
951.77	4411.96
952.075	4388.46
952.38	4347.56
952.685	4365.86
952.99	4331.06
953.294	4343.71
953.599	4283.83
953.904	4255.58
954.209	4260.33
954.513	4249.03
954.818	4220.78
955.122	4217.84
955.426	4181.01
955.731	4137.39
956.035	4118.86
956.339	4165.19
956.643	4119.99
956.948	4101.23
957.252	4050.16
957.556	4054.91
957.86	4073.66
958.163	4025.3
958.467	4013.33
958.771	3971.75
959.075	3998.19
959.378	3981.46
959.682	3997.28
959.985	3927.45
960.289	3884.06
960.592	3925.42
960.896	3862.37
961.199	3865.76
961.502	3834.57
961.805	3843.16
962.108	3789.15
962.411	3781.02
962.714	3761.81
963.017	3743.73
963.32	3766.55
963.623	3700.79
963.926	3724.97
964.228	3698.98
964.531	3698.53
964.833	3689.49
965.136	3632.09
965.438	3634.13
965.741	3635.71
966.043	3615.15
966.345	3563.17
966.648	3533.34
966.95	3577.63
967.252	3515.03
967.554	3505.54
967.856	3516.16
968.158	3473
968.46	3447.01
968.761	3476.39
969.063	3409.95
969.365	3435.94
969.666	3409.5
969.968	3345.55
970.269	3348.26
970.571	3394.59
970.872	3367.47
971.174	3321.59
971.475	3338.54
971.776	3322.95
972.077	3294.7
972.378	3280.92
972.679	3270.3
972.98	3267.81
973.281	3204.31
973.582	3219
973.883	3180.81
974.183	3223.29
974.484	3159.79
974.785	3141.71
975.085	3131.54
975.386	3141.26
975.686	3122.05
975.986	3121.15
976.287	3090.64
976.587	3065.55
976.887	3049.96
977.187	3057.19
977.487	3039.79
977.787	3062.62
978.087	3005.67
978.387	2968.83
978.687	2985.56
978.987	2980.13
979.286	2977.42
979.586	2932.68
979.885	2914.6
980.185	2932.68
980.484	2921.83
980.784	2856.97
981.083	2868.72
981.382	2890.64
981.682	2849.29
981.981	2840.25
982.28	2815.62
982.579	2814.94
982.878	2861.94
983.177	2804.54
983.475	2804.77
983.774	2775.62
984.073	2782.85
984.372	2753.47
984.67	2743.08
984.969	2739.01
985.267	2734.26
985.566	2684.1
985.864	2698.33
986.162	2668.5
986.461	2656.75
986.759	2659.01
987.057	2642.29
987.355	2597.77
987.653	2630.76
987.951	2591.67
988.249	2632.35
988.547	2594.38
988.844	2548.28
989.142	2565.91
989.44	2527.04
989.737	2531.33
990.035	2533.14
990.332	2513.48
990.63	2502.63
990.927	2476.19
991.224	2456.98
991.521	2461.5
991.819	2462.63
992.116	2440.94
992.413	2423.09
992.71	2403.43
993.006	2401.17
993.303	2376.53
993.6	2404.1
993.897	2371.79
994.193	2373.6
994.49	2309.64
994.787	2341.96
995.083	2331.56
995.379	2342.64
995.676	2321.39
995.972	2316.42
996.268	2296.76
996.565	2283.2
996.861	2242.3
997.157	2247.05
997.453	2280.26
997.749	2209.76
998.044	2177.22
998.34	2205.69
998.636	2186.03
998.932	2199.82
999.227	2188.97
999.523	2167.73
999.818	2159.14
1000.114	2168.4
1000.409	2126.6
1000.704	2111
1001	2077.78
1001.295	2069.65
1001.59	2060.61
1001.885	2080.95
1002.18	2056.32
1002.475	2051.8
1002.77	2023.32
1003.065	2005.7
1003.359	2023.1
1003.654	2000.05
1003.949	2015.19
1004.243	1995.98
1004.538	1951.91
1004.832	1953.49
1005.127	1962.31
1005.421	1964.79
1005.715	1916.43
1006.009	1920.27
1006.304	1906.04
1006.598	1875.08
1006.892	1881.18
1007.186	1852.48
1007.48	1875.53
1007.773	1884.34
1008.067	1851.12
1008.361	1841.41
1008.655	1819.94
1008.948	1816.77
1009.242	1797.34
1009.535	1818.81
1009.829	1791.46
1010.122	1764.35
1010.415	1756.89
1010.708	1772.71
1011.001	1751.69
1011.295	1712.82
1011.588	1749.88
1011.881	1738.13
1012.173	1703.56
1012.466	1667.4
1012.759	1700.39
1013.052	1663.56
1013.344	1666.72
1013.637	1655.42
1013.93	1630.79
1014.222	1633.5
1014.514	1603.22
1014.807	1629.21
1015.099	1598.02
1015.391	1597.8
1015.683	1565.48
1015.976	1546.95
1016.268	1555.76
1016.56	1576.55
1016.851	1560.28
1017.143	1537.91
1017.435	1530.45
1017.727	1512.6
1018.018	1480.51
1018.31	1490.68
1018.602	1485.48
1018.893	1470.12
1019.185	1465.6
1019.476	1471.47
1019.767	1443.9
1020.058	1469.21
1020.35	1429.44
1020.641	1391.02
1020.932	1438.03
1021.223	1435.77
1021.514	1371.59
1021.804	1416.56
1022.095	1369.55
1022.386	1388.08
1022.677	1361.87
1022.967	1358.48
1023.258	1344.47
1023.548	1325.94
1023.839	1337.92
1024.129	1299.27
1024.419	1298.6
1024.709	1313.06
1025	1260.63
1025.29	1281.87
1025.58	1262.66
1025.87	1289.56
1026.16	1271.48
1026.449	1259.27
1026.739	1237.13
1027.029	1239.39
1027.319	1255.66
1027.608	1248.43
1027.898	1212.72
1028.187	1205.72
1028.477	1193.06
1028.766	1193.06
1029.055	1177.92
1029.344	1160.07
1029.634	1190.8
1029.923	1142.89
1030.212	1135.21
1030.501	1133.18
1030.79	1105.38
1031.078	1122.78
1031.367	1109.45
1031.656	1111.03
1031.945	1091.82
1032.233	1126.85
1032.522	1092.5
1032.81	1106.28
1033.099	1066.74
1033.387	1087.98
1033.675	1069
1033.963	1066.29
1034.251	1070.35
1034.54	1064.7
1034.828	1061.99
1035.116	1022.67
1035.403	1034.87
1035.691	1018.38
1035.979	1023.8
1036.267	989.23
1036.554	969.56
1036.842	988.77
1037.129	966.85
1037.417	1004.14
1037.704	972.95
1037.992	966.18
1038.279	957.14
1038.566	940.87
1038.853	940.87
1039.14	940.87
