Data from hue_30_FLMS001491_69.txt Node
Date: Mon Feb 06 15:05:46 GMT 2017
User: dcchb
Spectrometer: FLMS00149
Trigger mode: 0
Integration Time (sec): 2.000000E-2
Scans to average: 10
Electric dark correction enabled: true
Nonlinearity correction enabled: false
Boxcar width: 0
XAxis mode: Wavelengths
Number of Pixels in Spectrum: 2048
>>>>>Begin Spectral Data<<<<<
341.393	-19.38
341.776	-19.38
342.16	-19.38
342.543	-53.5
342.927	-65.93
343.31	-82.43
343.693	-60.51
344.077	-75.2
344.46	-62.31
344.843	-55.76
345.226	-31.36
345.61	-27.06
345.993	-27.29
346.376	-4.46
346.759	-6.95
347.142	26.27
347.525	48.64
347.908	64.46
348.291	75.76
348.674	94.97
349.057	123.22
349.44	112.14
349.823	150.11
350.206	160.28
350.588	182.2
350.971	197.79
351.354	228.75
351.737	231.46
352.119	236.21
352.502	232.59
352.884	266.04
353.267	286.83
353.65	295.19
354.032	307.39
354.414	314.62
354.797	305.36
355.179	312.14
355.562	312.14
355.944	322.08
356.326	329.09
356.709	335.19
357.091	345.58
357.473	334.51
357.855	336.09
358.238	338.58
358.62	354.85
359.002	341.29
359.384	325.25
359.766	320.27
360.148	342.65
360.53	334.06
360.912	345.58
361.294	334.74
361.676	349.43
362.057	336.09
362.439	336.54
362.821	323.44
363.203	340.16
363.584	335.19
363.966	328.86
364.348	319.14
364.729	320.27
365.111	316.88
365.493	322.31
365.874	342.19
366.256	315.08
366.637	316.66
367.019	326.38
367.4	330.67
367.781	331.12
368.163	306.26
368.544	314.62
368.925	320.73
369.306	339.48
369.688	312.14
370.069	314.62
370.45	299.71
370.831	288.86
371.212	313.04
371.593	315.53
371.974	318.24
372.355	283.89
372.736	318.47
373.117	314.17
373.498	311.69
373.879	330.9
374.26	322.53
374.641	309.2
375.021	325.25
375.402	314.62
375.783	318.01
376.163	309.2
376.544	332.03
376.925	319.82
377.305	323.21
377.686	327.51
378.066	319.37
378.447	328.86
378.827	318.24
379.208	339.71
379.588	330.22
379.968	348.52
380.349	329.09
380.729	337
381.109	341.06
381.489	354.85
381.87	328.41
382.25	331.57
382.63	337.45
383.01	345.13
383.39	323.44
383.77	318.47
384.15	357.34
384.53	356.43
384.91	334.28
385.29	361.63
385.67	346.26
386.049	365.7
386.429	351.23
386.809	365.92
387.189	374.96
387.568	356.21
387.948	367.96
388.328	373.38
388.707	355.08
389.087	357.56
389.466	348.3
389.846	362.98
390.225	381.06
390.605	354.4
390.984	358.24
391.363	372.93
391.743	365.24
392.122	377.9
392.501	363.89
392.881	385.58
393.26	373.83
393.639	394.4
394.018	396.66
394.397	365.47
394.776	380.16
395.155	389.42
395.534	370.89
395.913	372.02
396.292	400.27
396.671	400.72
397.05	403.89
397.429	378.35
397.808	403.44
398.186	377.22
398.565	409.99
398.944	385.36
399.323	420.61
399.701	402.31
400.08	407.28
400.458	413.83
400.837	407.28
401.215	414.96
401.594	420.38
401.972	418.35
402.351	401.63
402.729	418.35
403.107	429.2
403.486	424.45
403.864	422.19
404.242	406.83
404.62	436.66
404.999	425.81
405.377	416.09
405.755	435.98
406.133	424.45
406.511	448.86
406.889	433.49
407.267	406.83
407.645	435.3
408.023	460.16
408.401	449.99
408.779	454.73
409.156	462.87
409.534	462.42
409.912	476.65
410.29	457.22
410.667	447.73
411.045	468.52
411.422	471
411.8	462.19
412.178	468.97
412.555	470.78
412.933	472.36
413.31	485.47
413.687	493.83
414.065	499.25
414.442	498.57
414.819	478.01
415.197	488.41
415.574	503.55
415.951	504.45
416.328	510.33
416.705	494.28
417.082	522.98
417.46	502.64
417.837	523.21
418.214	539.03
418.591	489.31
418.967	510.55
419.344	534.28
419.721	547.16
420.098	542.87
420.475	555.07
420.852	534.51
421.228	553.94
421.605	537.22
421.982	556.88
422.358	550.32
422.735	565.47
423.111	542.87
423.488	552.81
423.864	567.73
424.241	570.21
424.617	566.14
424.994	586.93
425.37	587.61
425.746	585.8
426.123	571.79
426.499	567.95
426.875	604.11
427.251	586.26
427.627	583.77
428.003	605.24
428.379	626.25
428.756	629.19
429.132	618.35
429.507	642.07
429.883	630.77
430.259	640.27
430.635	625.58
431.011	633.94
431.387	653.15
431.763	647.95
432.138	653.6
432.514	669.64
432.89	678.68
433.265	687.27
433.641	689.53
434.016	692.24
434.392	697.21
434.767	706.7
435.143	699.47
435.518	708.29
435.894	720.49
436.269	733.82
436.644	730.21
437.02	747.38
437.395	742.64
437.77	753.93
438.145	746.93
438.52	777.66
438.895	748.74
439.271	758.91
439.646	769.98
440.021	780.37
440.395	775.86
440.77	783.54
441.145	807.72
441.52	802.97
441.895	805.01
442.27	808.17
442.645	801.39
443.019	818.11
443.394	801.39
443.769	813.37
444.143	832.35
444.518	834.38
444.892	828.74
445.267	822.86
445.641	843.2
446.016	868.06
446.39	838.9
446.764	859.92
447.139	880.26
447.513	863.08
447.887	875.06
448.262	875.97
448.636	862.63
449.01	871.45
449.384	905.12
449.758	897.66
450.132	890.65
450.506	910.32
450.88	929.52
451.254	894.5
451.628	925.23
452.002	950.77
452.376	958
452.75	951.9
453.123	932.91
453.497	980.82
453.871	957.09
454.244	974.95
454.618	986.02
454.992	1017.88
455.365	977.21
455.739	1022.18
456.112	1036.64
456.486	1060.14
456.859	1057.2
457.232	1048.62
457.606	1047.03
457.979	1097.65
458.352	1111.67
458.725	1091.78
459.099	1089.97
459.472	1135.17
459.845	1147.14
460.218	1154.38
460.591	1127.03
460.964	1141.27
461.337	1166.81
461.71	1168.61
462.083	1208.39
462.456	1197.77
462.829	1216.52
463.201	1244.54
463.574	1250.19
463.947	1255.16
464.32	1289.29
464.692	1287.93
465.065	1326.35
465.438	1327.71
465.81	1335.61
466.183	1346.69
466.555	1403.18
466.928	1403.86
467.3	1380.36
467.672	1421.04
468.045	1443.86
468.417	1441.6
468.789	1447.7
469.161	1456.74
469.534	1524.31
469.906	1553.01
470.278	1579
470.65	1569.96
471.022	1592.33
471.394	1643.4
471.766	1646.11
472.138	1658.09
472.51	1692.67
472.882	1730.86
473.253	1753
473.625	1780.35
473.997	1815.83
474.369	1799.33
474.74	1832.32
475.112	1892.89
475.484	1908.48
475.855	1964.52
476.227	1970.4
476.598	2016.95
476.97	2054.69
477.341	2084.75
477.713	2131.53
478.084	2141.92
478.455	2226.21
478.827	2245.87
479.198	2307.79
479.569	2354.57
479.94	2403.84
480.311	2440.9
480.682	2505.3
481.053	2514.57
481.424	2616.48
481.795	2686.99
482.166	2726.31
482.537	2765.86
482.908	2817.16
483.279	2877.95
483.65	2911.39
484.021	2980.09
484.391	3038.85
484.762	3103.25
485.133	3134.21
485.503	3185.06
485.874	3258.5
486.244	3346.86
486.615	3419.18
486.985	3468.44
487.356	3514.54
487.726	3569.23
488.097	3673.41
488.467	3687.87
488.837	3769.67
489.207	3867.07
489.578	3919.28
489.948	3940.74
490.318	4037.69
490.688	4079.27
491.058	4159.5
491.428	4218.02
491.798	4290.57
492.168	4397.45
492.538	4401.3
492.908	4485.14
493.278	4555.87
493.648	4614.4
494.017	4650.56
494.387	4730.1
494.757	4754.28
495.126	4855.3
495.496	4895.3
495.866	4918.8
496.235	5025.24
496.605	5084.89
496.974	5112.01
497.344	5146.36
497.713	5232.91
498.082	5271.56
498.452	5347.49
498.821	5378.45
499.19	5386.13
499.559	5498.67
499.928	5475.39
500.298	5586.58
500.667	5653.02
501.036	5598.33
501.405	5719.45
501.774	5743.86
502.143	5761.26
502.512	5813.01
502.88	5863.63
503.249	5914.48
503.618	5959.9
503.987	6034.25
504.356	6026.11
504.724	6108.6
505.093	6096.39
505.462	6149.05
505.83	6213.9
506.199	6230.85
506.567	6329.83
506.936	6333.9
507.304	6379.32
507.672	6420.9
508.041	6460.23
508.409	6503.16
508.777	6539.32
509.145	6574.8
509.514	6642.14
509.882	6645.76
510.25	6619.32
510.618	6760.1
510.986	6765.08
511.354	6825.19
511.722	6875.81
512.09	6953.77
512.458	6964.39
512.826	7007.33
513.193	7000.32
513.561	7024.5
513.929	7010.49
514.297	7121
514.664	7144.73
515.032	7168.46
515.4	7251.17
515.767	7268.79
516.135	7289.13
516.502	7269.47
516.869	7386.08
517.237	7384.04
517.604	7419.3
517.972	7427.88
518.339	7456.81
518.706	7507.2
519.073	7535.68
519.44	7611.38
519.808	7633.75
520.175	7684.6
520.542	7750.81
520.909	7794.65
521.276	7786.97
521.643	7827.65
522.009	7870.58
522.376	7880.98
522.743	7969.56
523.11	7986.06
523.477	8079.39
523.843	8116.23
524.21	8210.46
524.577	8198.48
524.943	8245.49
525.31	8330.68
525.676	8328.2
526.043	8418.59
526.409	8436.44
526.776	8516.67
527.142	8558.25
527.508	8558.93
527.874	8675.99
528.241	8675.31
528.607	8753.95
528.973	8852.25
529.339	8772.48
529.705	8924.12
530.071	8945.36
530.437	8930.44
530.803	8978.35
531.169	9046.82
531.535	9026.71
531.901	9111.46
532.267	9098.8
532.632	9182.87
532.998	9292.47
533.364	9315.07
533.73	9301.51
534.095	9395.52
534.461	9433.93
534.826	9496.3
535.192	9483.2
535.557	9582.63
535.923	9599.13
536.288	9612.46
536.653	9724.77
537.019	9663.53
537.384	9742.63
537.749	9760.93
538.114	9773.81
538.479	9752.79
538.845	9917.54
539.21	9838.67
539.575	9934.26
539.94	9923.64
540.305	10054.03
540.67	9994.14
541.034	10165.89
541.399	10148.26
541.764	10199.34
542.129	10211.31
542.494	10235.27
542.858	10319.33
543.223	10327.92
543.587	10416.51
543.952	10349.84
544.316	10400.69
544.681	10392.78
545.045	10498.54
545.41	10581.93
545.774	10600.91
546.138	10677.74
546.503	10730.4
546.867	10677.06
547.231	10801.81
547.595	10811.75
547.959	10851.07
548.324	10826.21
548.688	10959.99
549.052	10910.96
549.416	10974.91
549.779	10962.48
550.143	11058.97
550.507	11096.94
550.871	11158.86
551.235	11206.99
551.599	11260.33
551.962	11247.44
552.326	11310.49
552.689	11278.18
553.053	11333.54
553.417	11361.57
553.78	11537.61
554.143	11449.47
554.507	11572.41
554.87	11515.46
555.234	11645.63
555.597	11602.92
555.96	11627.32
556.323	11722.69
556.686	11700.54
557.05	11820.08
557.413	11784.15
557.776	11858.05
558.139	11860.31
558.502	11854.21
558.865	11947.99
559.228	12089.91
559.59	12084.94
559.953	12011.04
560.316	12248.32
560.679	12200.19
561.041	12264.82
561.404	12262.78
561.767	12335.1
562.129	12313.18
562.492	12463.68
562.854	12417.81
563.217	12436.34
563.579	12554.08
563.941	12603.34
564.304	12624.13
564.666	12688.99
565.028	12715.43
565.39	12631.14
565.753	12787.74
566.115	12889.66
566.477	12837.23
566.839	12959.72
567.201	13031.58
567.563	13008.3
567.925	13059.37
568.287	13157.9
568.648	13191.12
569.01	13267.73
569.372	13356.99
569.734	13285.81
570.095	13365.58
570.457	13396.54
570.819	13480.38
571.18	13484.67
571.542	13597.89
571.903	13719.7
572.265	13801.5
572.626	13800.6
572.987	13883.08
573.349	13929.41
573.71	14008.95
574.071	14023.42
574.432	14176.41
574.794	14271.55
575.155	14296.63
575.516	14295.95
575.877	14455.5
576.238	14538.21
576.599	14619.56
576.96	14677.64
577.32	14779.55
577.681	14856.84
578.042	14977.97
578.403	15113.56
578.763	15209.37
579.124	15297.51
579.485	15483.72
579.845	15598.97
580.206	15706.31
580.566	15861.11
580.927	16046.87
581.287	16119.41
581.648	16251.83
582.008	16456.8
582.368	16583.35
582.728	16792.84
583.089	17010.91
583.449	17092.71
583.809	17289.55
584.169	17568.18
584.529	17703.09
584.889	17959.58
585.249	18045.68
585.609	18238.67
585.969	18553.92
586.329	18694.71
586.688	18984.42
587.048	19153
587.408	19321.58
587.768	19609.48
588.127	19940.1
588.487	19981.9
588.846	20422.12
589.206	20486.75
589.565	20764.48
589.925	21140.74
590.284	21287.41
590.643	21526.72
591.003	21988.18
591.362	22216.42
591.721	22515.62
592.08	22753.36
592.44	23017.53
592.799	23240.35
593.158	23504.3
593.517	23853.89
593.876	24084.39
594.235	24386.31
594.593	24616.36
594.952	25008.44
595.311	25159.62
595.67	25489.56
596.029	25844.12
596.387	26211.34
596.746	26566.14
597.104	26651.33
597.463	26905.79
597.822	27298.77
598.18	27423.29
598.538	27665.09
598.897	28026.44
599.255	28150.95
599.613	28862.12
599.972	28777.6
600.33	29086.52
600.688	29384.82
601.046	29710.69
601.404	30062.32
601.762	30202.43
602.12	30516.09
602.478	30848.96
602.836	31087.37
603.194	31116.07
603.552	31481.71
603.91	31614.14
604.268	32041.7
604.625	32016.39
604.983	32356.27
605.341	32384.52
605.698	32829.02
606.056	33086.19
606.413	33233.53
606.771	33483.47
607.128	33724.37
607.485	33810.92
607.843	34036.22
608.2	34332.26
608.557	34642.54
608.914	34701.74
609.272	35011.57
609.629	35222.18
609.986	35514.6
610.343	35496.75
610.7	35912.78
611.057	35972.67
611.414	36325.43
611.771	36454.92
612.127	36575.37
612.484	36667.11
612.841	37014.68
613.198	37087.22
613.554	37161.11
613.911	37456.7
614.267	37483.14
614.624	37698.05
614.98	37841.77
615.337	38061.2
615.693	38191.14
616.05	38155.89
616.406	38570.79
616.762	38495.09
617.118	38648.53
617.475	38881.52
617.831	38992.7
618.187	39027.96
618.543	39293.03
618.899	39409.87
619.255	39588.39
619.611	39549.07
619.967	39848.27
620.323	39825.45
620.678	39948.16
621.034	39843.3
621.39	39979.57
621.746	40038.33
622.101	40654.35
622.457	40448.71
622.812	40407.13
623.168	40634.47
623.523	40639.44
623.879	40828.81
624.234	40628.37
624.589	40877.85
624.945	41006.89
625.3	41077.62
625.655	40963.5
626.01	41141.35
626.365	41281.46
626.72	41290.27
627.075	41293.43
627.43	41383.15
627.785	41306.99
628.14	41500.66
628.495	41578.62
628.85	41407.33
629.205	41533.88
629.559	41675.57
629.914	41472.64
630.269	41610.71
630.623	41513.54
630.978	41517.61
631.332	41758.51
631.687	41745.4
632.041	41699.53
632.396	41883.93
632.75	41688
633.104	41718.73
633.459	41641.22
633.813	41668.34
634.167	41759.41
634.521	41668.11
634.875	41888.45
635.229	41674.89
635.583	41535.24
635.937	41542.24
636.291	41520.09
636.645	41734.55
636.999	41723.03
637.352	41718.51
637.706	41535.46
638.06	41695.68
638.413	41545.4
638.767	41439.64
639.121	41631.05
639.474	41349.48
639.828	41581.56
640.181	41487.55
640.534	41539.3
640.888	41450.04
641.241	41359.87
641.594	41322.59
641.947	41556.03
642.301	41391.74
642.654	41409.59
643.007	41430.38
643.36	41389.7
643.713	41241.01
644.066	41530.94
644.419	41283.94
644.771	40974.8
645.124	40659.78
645.477	40707.46
645.83	40316.96
646.182	40247.13
646.535	40042.85
646.888	40206.46
647.24	39811.67
647.593	40344.76
647.945	40141.15
648.298	40046.46
648.65	40022.96
649.002	39999.23
649.355	40084.2
649.707	40000.13
650.059	40171.43
650.411	40594.47
650.763	40662.49
651.115	40908.13
651.467	40879.43
651.819	40887.34
652.171	40797.63
652.523	40841.02
652.875	40812.77
653.227	40604.41
653.578	40915.36
653.93	40864.07
654.282	40612.1
654.633	40556.5
654.985	40686.22
655.337	40661.13
655.688	40547.46
656.039	40835.82
656.391	40340.69
656.742	40474.02
657.094	40507.69
657.445	40707.46
657.796	40624.07
658.147	40349.73
658.498	40553.34
658.849	40647.58
659.2	40443.96
659.551	40500.46
659.902	40527.58
660.253	40637.18
660.604	40529.16
660.955	40320.58
661.306	40541.14
661.656	40304.76
662.007	40368.71
662.358	40473.12
662.708	40419.11
663.059	40272.22
663.409	40014.37
663.76	40491.65
664.11	40460.46
664.461	40375.27
664.811	40489.39
665.161	40458.88
665.511	40215.95
665.862	40400.12
666.212	40401.25
666.562	40424.76
666.912	40359
667.262	40283.29
667.612	40316.96
667.962	40490.52
668.312	40308.83
668.662	40394.93
669.011	40313.8
669.361	40227.02
669.711	40256.4
670.06	40264.53
670.41	40214.14
670.76	40085.56
671.109	40342.05
671.459	40145.67
671.808	40037.2
672.157	40207.59
672.507	40028.83
672.856	40003.3
673.205	40103.18
673.554	40167.36
673.904	40005.11
674.253	40036.52
674.602	39941.15
674.951	39427.72
675.3	39343.88
675.649	39894.15
675.998	39931.89
676.346	39882.62
676.695	40003.07
677.044	39726.47
677.393	39833.81
677.741	39871.1
678.09	39867.71
678.438	39656.87
678.787	39686.02
679.135	39726.24
679.484	39524.89
679.832	39756.98
680.181	39503.88
680.529	39535.29
680.877	39347.72
681.225	39436.08
681.573	39700.71
681.922	39380.94
682.27	39247.61
682.618	39210.1
682.966	39206.48
683.314	39260.95
683.661	39072.7
684.009	38940.05
684.357	38866.83
684.705	38834.06
685.053	38794.06
685.4	38630.91
685.748	38571.02
686.095	38555.2
686.443	38405.15
686.79	38381.42
687.138	38383.23
687.485	38408.54
687.832	38376.9
688.18	38423.45
688.527	37953.18
688.874	38136.45
689.221	38169
689.568	38051.26
689.915	37900.08
690.262	37922
690.609	37716.58
690.956	37664.38
691.303	37696.24
691.65	37556.36
691.997	37588.67
692.344	37173.32
692.69	37237.5
693.037	37251.51
693.383	36945.07
693.73	37132.41
694.077	36895.13
694.423	36919.09
694.769	36856.26
695.116	36694.01
695.462	36588.47
695.808	36465.54
696.155	36489.72
696.501	36269.84
696.847	36237.3
697.193	35890.64
697.539	36062.39
697.885	35808.15
698.231	35655.84
698.577	35735.39
698.923	35662.17
699.269	35457.43
699.614	35454.27
699.96	35422.4
700.306	35396.41
700.651	35231.67
700.997	35212.69
701.342	35101.73
701.688	35117.55
702.033	34880.27
702.379	34835.3
702.724	34713.27
703.069	34826.49
703.415	34581.52
703.76	34461.98
704.105	34546.49
704.45	34287.97
704.795	34110.12
705.14	34103.57
705.485	34092.95
705.83	34016.11
706.175	34020.18
706.52	33897.47
706.865	33792.61
707.209	33850.47
707.554	33655.44
707.899	33602.79
708.243	33621.55
708.588	33502.45
708.932	33268.33
709.277	33164.16
709.621	33231.05
709.966	32983.37
710.31	33003.26
710.654	32837.61
710.998	32753.32
711.342	32861.11
711.687	32729.82
712.031	32614.57
712.375	32569.82
712.719	32571.86
713.063	32414.8
713.407	32546.09
713.75	32364.18
714.094	32347.91
714.438	32186.1
714.782	32282.82
715.125	32159.89
715.469	32125.77
715.812	31931.19
716.156	31819.11
716.499	31892.55
716.843	31920.12
717.186	31728.26
717.53	31864.3
717.873	31824.76
718.216	31653.24
718.559	31610.52
718.902	31286.24
719.246	31517.65
719.589	31349.29
719.932	31260.93
720.275	31214.83
720.617	31214.15
720.96	31068.84
721.303	31152.46
721.646	31156.3
721.989	31029.07
722.331	31022.07
722.674	30894.61
723.016	30961.28
723.359	30755.41
723.701	30791.56
724.044	30625.24
724.386	30461.4
724.729	30623.43
725.071	30517.45
725.413	30456.66
725.755	30630.21
726.097	30371.91
726.439	30152.26
726.782	30319.26
727.124	30397
727.465	30170.56
727.807	30208.53
728.149	30136.67
728.491	29956.33
728.833	30136.21
729.175	29927.86
729.516	29865.94
729.858	29903.23
730.199	29880.4
730.541	29820.74
730.882	29719.05
731.224	29817.58
731.565	29637.02
731.906	29612.61
732.248	29642.67
732.589	29312.51
732.93	29326.07
733.271	29503.01
733.612	29392.73
733.953	29540.75
734.294	29339.4
734.635	29183.7
734.976	29245.62
735.317	29026.19
735.658	29218.27
735.999	29102.57
736.339	29103.47
736.68	29145.05
737.021	29027.54
737.361	28935.11
737.702	29013.98
738.042	28895.57
738.383	28759.75
738.723	28869.81
739.063	28643.15
739.404	28811.73
739.744	28707.55
740.084	28603.6
740.424	28633.88
740.764	28544.84
741.104	28685.18
741.444	28423.26
741.784	28368.58
742.124	28492.64
742.464	28438.63
742.804	28397.5
743.143	28357.5
743.483	28356.15
743.823	28193.67
744.162	28147.56
744.502	28226.21
744.841	27994.12
745.181	28195.47
745.52	28104.18
745.86	28090.17
746.199	27947.8
746.538	27896.5
746.877	27861.02
747.216	27874.13
747.556	27803.39
747.895	27853.56
748.234	27727.69
748.573	27730.17
748.911	27640.01
749.25	27647.69
749.589	27574.02
749.928	27567.24
750.267	27585.32
750.605	27442.05
750.944	27444.98
751.283	27226.46
751.621	27347.36
751.96	27270.07
752.298	27318.43
752.636	27172.68
752.975	27164.99
753.313	27000.7
753.651	27209.28
753.989	26905.34
754.327	26990.99
754.666	26816.53
755.004	26967.03
755.342	26851.55
755.679	26764.1
756.017	26685.46
756.355	26651.79
756.693	26636.19
757.031	26578.57
757.368	26490.21
757.706	26547.61
758.044	26320.27
758.381	26462.86
758.719	26209.54
759.056	26268.97
759.394	26177.45
759.731	26029.88
760.068	26186.71
760.405	26077.34
760.743	25783.33
761.08	25897.23
761.417	25651.59
761.754	25712.15
762.091	25680.74
762.428	25526.84
762.765	25451.36
763.102	25580.4
763.438	25249.56
763.775	25262.67
764.112	25200.3
764.449	25264.25
764.785	25168.89
765.122	24984.26
765.458	24826.75
765.795	24793.3
766.131	24729.8
766.467	24722.34
766.804	24638.28
767.14	24436.7
767.476	24429.24
767.812	24336.37
768.148	24442.13
768.485	24180.44
768.821	24099.76
769.157	24175.47
769.492	24139.53
769.828	24000.33
770.164	23837.62
770.5	23798.75
770.836	23701.35
771.171	23573.9
771.507	23541.58
771.842	23399.44
772.178	23360.12
772.513	23357.63
772.849	23238.77
773.184	23135.27
773.519	23058.43
773.855	23008.72
774.19	22988.83
774.525	22847.59
774.86	22716.07
775.195	22703.64
775.53	22726.24
775.865	22478.79
776.2	22400.6
776.535	22246.7
776.87	22204.44
777.205	22214.61
777.539	22066.14
777.874	22065.47
778.209	21912.02
778.543	21876.77
778.878	21763.55
779.212	21747.28
779.547	21663.22
779.881	21672.71
780.215	21447.85
780.55	21521.52
780.884	21192.72
781.218	21293.06
781.552	21232.04
781.886	21093.06
782.22	20973.29
782.554	20949.56
782.888	20765.39
783.222	20720.42
783.556	20595.9
783.889	20562.68
784.223	20457.37
784.557	20461.67
784.89	20517.71
785.224	20285.85
785.557	20265.51
785.891	20097.16
786.224	20190.26
786.558	20099.19
786.891	20017.38
787.224	19927.22
787.557	19802.7
787.891	19783.27
788.224	19769.48
788.557	19769.71
788.89	19622.37
789.223	19562.71
789.556	19487.68
789.888	19356.38
790.221	19386.21
790.554	19113.45
790.887	19178.54
791.219	19035.26
791.552	19093.34
791.884	18990.29
792.217	18929.5
792.549	18824.19
792.882	18722.28
793.214	18643.41
793.546	18747.36
793.879	18604.31
794.211	18548.95
794.543	18511.21
794.875	18499.46
795.207	18460.14
795.539	18360.7
795.871	18363.42
796.203	18169.52
796.535	18083.87
796.867	18118.9
797.198	17996.65
797.53	17969.53
797.862	17836.42
798.193	17865.58
798.525	17766.59
798.856	17699.25
799.188	17588.52
799.519	17636.65
799.85	17427.62
800.182	17456.32
800.513	17365.93
800.844	17257.46
801.175	17228.08
801.506	17320.73
801.837	17187.63
802.168	17163.9
802.499	17146.95
802.83	16943.34
803.161	17016.56
803.491	16937.92
803.822	16939.05
804.153	16845.26
804.483	16709
804.814	16689.79
805.145	16722.33
805.475	16610.69
805.805	16618.38
806.136	16604.59
806.466	16573.63
806.796	16473.52
807.126	16337.25
807.457	16314.43
807.787	16344.03
808.117	16265.17
808.447	16224.26
808.777	16265.39
809.107	16247.09
809.436	16039.86
809.766	16018.84
810.096	16019.75
810.426	15937.26
810.755	16008.9
811.085	15855.23
811.414	15825.63
811.744	15717.84
812.073	15746.31
812.403	15782.69
812.732	15664.96
813.061	15671.96
813.39	15460.67
813.719	15516.03
814.049	15566.43
814.378	15509.93
814.707	15314.23
815.036	15368.92
815.365	15313.33
815.693	15235.14
816.022	15182.48
816.351	15156.72
816.68	15037.4
817.008	15115.37
817.337	15031.53
817.665	14993.11
817.994	15015.25
818.322	14977.29
818.651	14990.85
818.979	14828.14
819.307	14948.82
819.636	14782.49
819.964	14698.43
820.292	14857.29
820.62	14715.83
820.948	14802.61
821.276	14728.93
821.604	14666.34
821.932	14686
822.259	14695.26
822.587	14688.94
822.915	14613.46
823.243	14638.54
823.57	14595.15
823.898	14597.86
824.225	14521.93
824.553	14583.63
824.88	14614.36
825.207	14618.2
825.535	14572.78
825.862	14671.76
826.189	14554.7
826.516	14685.77
826.843	14660.91
827.17	14662.27
827.497	14640.35
827.824	14704.08
828.151	14649.39
828.478	14481.03
828.805	14727.58
829.131	14577.75
829.458	14655.72
829.785	14509.51
830.111	14484.87
830.438	14668.37
830.764	14595.15
831.09	14558.54
831.417	14411.88
831.743	14561.26
832.069	14521.03
832.395	14495.49
832.722	14501.82
833.048	14494.14
833.374	14530.52
833.7	14466.57
834.026	14494.59
834.351	14498.66
834.677	14368.72
835.003	14529.17
835.329	14413.91
835.654	14349.28
835.98	14289.4
836.306	14347.93
836.631	14203.3
836.956	14339.79
837.282	14336.63
837.607	14238.78
837.932	14262.05
838.258	14201.27
838.583	14169.4
838.908	14113.13
839.233	14196.75
839.558	14061.61
839.883	14021.16
840.208	14015.28
840.533	13892.35
840.858	13971.67
841.182	14047.6
841.507	14008.95
841.832	13837.21
842.156	13929.86
842.481	13904.55
842.805	13764.21
843.13	13834.49
843.454	13714.95
843.778	13701.84
844.103	13642.86
844.427	13611.45
844.751	13694.84
845.075	13595.63
845.399	13527.16
845.723	13475.18
846.047	13482.41
846.371	13426.6
846.695	13376.2
847.019	13295.3
847.343	13284.45
847.666	13195.87
847.99	13108.19
848.313	13105.93
848.637	13066.83
848.96	12908.42
849.284	12959.04
849.607	12826.84
849.931	12859.15
850.254	12808.31
850.577	12672.49
850.9	12560.63
851.223	12561.53
851.546	12528.54
851.869	12507.98
852.192	12485.38
852.515	12405.83
852.838	12407.87
853.161	12333.97
853.483	12364.7
853.806	12136.23
854.129	12227.08
854.451	12163.13
854.774	12152.96
855.096	12018.72
855.419	12075.22
855.741	11999.06
856.063	11964.04
856.385	11889.46
856.708	11807.66
857.03	11833.87
857.352	11819.63
857.674	11735.57
857.996	11780.76
858.318	11724.49
858.64	11715.68
858.961	11700.31
859.283	11590.49
859.605	11533.99
859.926	11600.88
860.248	11515.23
860.57	11511.17
860.891	11453.77
861.212	11378.97
861.534	11399.53
861.855	11382.81
862.176	11331.74
862.498	11305.3
862.819	11355.01
863.14	11219.65
863.461	11263.04
863.782	11256.03
864.103	11252.19
864.424	11162.02
864.745	11207.22
865.065	11130.39
865.386	11104.62
865.707	11102.14
866.027	11071.86
866.348	11115.47
866.668	11070.05
866.989	11066.43
867.309	10982.59
867.63	11021.01
867.95	10917.96
868.27	10911.18
868.59	10962.03
868.91	10888.36
869.23	10884.52
869.55	10795.93
869.87	10856.95
870.19	10847.68
870.51	10795.03
870.83	10817.85
871.15	10688.59
871.469	10779.21
871.789	10793.45
872.109	10767.46
872.428	10736.05
872.748	10775.59
873.067	10653.56
873.386	10720.68
873.706	10634.81
874.025	10634.35
874.344	10598.65
874.663	10575.37
874.982	10581.7
875.301	10519.55
875.62	10545.09
875.939	10432.1
876.258	10474.81
876.577	10466
876.896	10455.6
877.214	10433.91
877.533	10358.2
877.852	10414.02
878.17	10496.96
878.489	10450.4
878.807	10397.07
879.125	10369.73
879.444	10297.41
879.762	10302.38
880.08	10254.7
880.398	10228.04
880.716	10265.78
881.034	10198.43
881.352	10231.65
881.67	10224.19
881.988	10193.46
882.306	10188.26
882.624	10135.84
882.941	10153.91
883.259	10131.77
883.577	10074.37
883.894	10068.49
884.212	9934.94
884.529	9958.44
884.846	9913.47
885.164	9993.69
885.481	9884.09
885.798	9832.79
886.115	9863.53
886.432	9819.23
886.75	9849.52
887.067	9805.22
887.383	9774.49
887.7	9731.78
888.017	9682.74
888.334	9743.08
888.651	9689.75
888.967	9671.21
889.284	9587.6
889.6	9596.41
889.917	9519.58
890.233	9541.05
890.55	9462.41
890.866	9554.16
891.182	9451.79
891.498	9452.24
891.815	9383.31
892.131	9413.14
892.447	9398
892.763	9309.87
893.079	9275.74
893.395	9280.94
893.71	9245.92
894.026	9252.24
894.342	9276.65
894.657	9154.84
894.973	9115.75
895.289	9145.8
895.604	9094.05
895.92	9050.89
896.235	9007.28
896.55	8987.16
896.865	8949.2
897.181	8886.6
897.496	8901.29
897.811	8864.68
898.126	8766.61
898.441	8834.4
898.756	8718.47
899.071	8734.06
899.386	8688.19
899.7	8652.71
900.015	8685.48
900.33	8614.52
900.644	8597.57
900.959	8586.5
901.273	8537.01
901.588	8508.08
901.902	8430.12
902.216	8363
902.531	8387.41
902.845	8376.11
903.159	8330.01
903.473	8306.96
903.787	8209.11
904.101	8243.46
904.415	8245.72
904.729	8203.23
905.042	8130.69
905.356	8200.52
905.67	8059.28
905.984	8058.15
906.297	8046.17
906.611	7932.73
906.924	7992.39
907.237	7953.29
907.551	7858.83
907.864	7900.41
908.177	7864.93
908.491	7843.92
908.804	7760.3
909.117	7742.23
909.43	7722.34
909.743	7693.19
910.056	7663.58
910.368	7641.44
910.681	7610.03
910.994	7560.31
911.307	7505.17
911.619	7452.52
911.932	7463.14
912.244	7479.18
912.557	7409.35
912.869	7353.76
913.181	7405.74
913.494	7341.33
913.806	7284.16
914.118	7297.27
914.43	7174.78
914.742	7145.41
915.054	7198.74
915.366	7175.91
915.678	7120.77
915.99	7102.02
916.302	7029.02
916.613	6970.04
916.925	7004.17
917.236	6979.31
917.548	6917.39
917.859	6939.76
918.171	6867.9
918.482	6850.72
918.794	6877.62
919.105	6862.02
919.416	6798.75
919.727	6800.78
920.038	6680.33
920.349	6700.67
920.66	6645.31
920.971	6680.56
921.282	6599.43
921.593	6516.95
921.903	6492.54
922.214	6500.9
922.525	6481.02
922.835	6421.13
923.146	6466.78
923.456	6396.05
923.767	6391.98
924.077	6377.74
924.387	6305.2
924.697	6272.21
925.008	6307.01
925.318	6286.67
925.628	6301.59
925.938	6213.68
926.248	6192.89
926.558	6108.37
926.867	6120.12
927.177	6053.23
927.487	6039.22
927.796	6020.92
928.106	5973.23
928.416	5956.96
928.725	5961.93
929.034	5919.9
929.344	5919.67
929.653	5928.04
929.962	5865.44
930.271	5825.89
930.581	5836.97
930.89	5864.76
931.199	5770.75
931.508	5777.98
931.817	5728.49
932.125	5693.47
932.434	5703.86
932.743	5605.56
933.051	5570.76
933.36	5601.49
933.669	5596.29
933.977	5550.19
934.286	5545.22
934.594	5559.91
934.902	5456.18
935.21	5483.3
935.519	5416.19
935.827	5418.22
936.135	5427.94
936.443	5314.72
936.751	5319.46
937.059	5332.57
937.367	5306.81
937.674	5272.01
937.982	5269.97
938.29	5229.07
938.597	5221.84
938.905	5142.97
939.213	5180.03
939.52	5168.73
939.827	5157.21
940.135	5101.17
940.442	5010.32
940.749	5062.75
941.056	5071.79
941.363	5018.91
941.67	4986.14
941.977	4968.06
942.284	4971.23
942.591	4921.06
942.898	4904.11
943.205	4875.63
943.511	4865.69
943.818	4849.19
944.125	4776.65
944.431	4765.58
944.738	4766.26
945.044	4680.61
945.35	4732.59
945.657	4669.31
945.963	4712.02
946.269	4610.78
946.575	4655.08
946.881	4628.86
947.187	4608.07
947.493	4569.43
947.799	4546.83
948.105	4545.02
948.41	4497.79
948.716	4497.34
949.022	4464.35
949.327	4476.77
949.633	4435.42
949.938	4469.32
950.244	4400.62
950.549	4363.11
950.854	4366.04
951.16	4299.38
951.465	4313.39
951.77	4271.81
952.075	4270.68
952.38	4262.32
952.685	4244.69
952.99	4197.23
953.294	4219.38
953.599	4235.88
953.904	4150
954.209	4189.55
954.513	4163.34
954.818	4112.26
955.122	4105.03
955.426	4084.69
955.731	4090.57
956.035	4072.04
956.339	4021.19
956.643	4024.81
956.948	3985.26
957.252	4015.77
957.556	4000.18
957.86	3903.23
958.163	3972.38
958.467	3904.36
958.771	3936.9
959.075	3872.5
959.378	3921.31
959.682	3893.97
959.985	3844.48
960.289	3831.59
960.592	3817.13
960.896	3844.48
961.199	3729
961.502	3755.66
961.805	3741.88
962.108	3731.03
962.411	3700.3
962.714	3689.45
963.017	3708.66
963.32	3699.62
963.623	3649.23
963.926	3600.41
964.228	3631.37
964.531	3620.53
964.833	3628.89
965.136	3571.94
965.438	3561.32
965.741	3546.63
966.043	3489
966.345	3519.06
966.648	3478.84
966.95	3477.71
967.252	3436.8
967.554	3456.69
967.856	3425.5
968.158	3410.14
968.46	3408.78
968.761	3373.3
969.063	3379.63
969.365	3347.77
969.666	3367.88
969.968	3299.63
970.269	3310.7
970.571	3301.44
970.872	3305.28
971.174	3283.36
971.475	3283.13
971.776	3249.91
972.077	3235.68
972.378	3207.2
972.679	3236.36
972.98	3183.02
973.281	3180.09
973.582	3122.69
973.883	3173.31
974.183	3131.27
974.484	3122.01
974.785	3138.51
975.085	3100.09
975.386	3053.76
975.686	3126.53
975.986	3037.26
976.287	3070.26
976.587	3024.16
976.887	3027.32
977.187	3001.56
977.487	2971.05
977.787	2974.67
978.087	2986.42
978.387	2931.28
978.687	2914.56
978.987	2927.44
979.286	2903.48
979.586	2882.92
979.885	2892.18
980.185	2874.78
980.484	2834.11
980.784	2855.57
981.083	2795.24
981.382	2797.72
981.682	2792.75
981.981	2808.12
982.28	2788.46
982.579	2766.09
982.878	2767.67
983.177	2773.99
983.475	2720.89
983.774	2704.17
984.073	2709.82
984.372	2689.48
984.67	2670.95
984.969	2701.91
985.267	2642.25
985.566	2657.39
985.864	2628.01
986.162	2630.95
986.461	2624.62
986.759	2585.98
987.057	2562.25
987.355	2520.67
987.653	2555.02
987.951	2559.76
988.249	2536.49
988.547	2545.75
988.844	2489.26
989.142	2540.55
989.44	2465.75
989.737	2514.34
990.035	2473.66
990.332	2455.81
990.63	2467.34
990.927	2435.47
991.224	2423.27
991.521	2428.69
991.819	2409.26
992.116	2382.82
992.413	2410.61
992.71	2333.1
993.006	2356.83
993.303	2341.24
993.6	2346.66
993.897	2332.2
994.193	2358.19
994.49	2313.44
994.787	2300.11
995.083	2254.69
995.379	2266.21
995.676	2249.94
995.972	2247.68
996.268	2218.08
996.565	2232.31
996.861	2197.06
997.157	2187.57
997.453	2209.94
997.749	2183.95
998.044	2166.1
998.34	2149.6
998.636	2155.71
998.932	2133.33
999.227	2141.7
999.523	2136.27
999.818	2075.71
1000.114	2086.78
1000.409	2090.17
1000.704	2124.52
1001	2039.55
1001.295	2044.3
1001.59	2036.61
1001.885	2035.03
1002.18	1987.35
1002.475	2022.83
1002.77	2021.02
1003.065	1985.09
1003.359	1956.62
1003.654	1995.26
1003.949	1957.29
1004.243	1950.29
1004.538	1935.6
1004.832	1936.05
1005.127	1931.08
1005.421	1930.18
1005.715	1907.12
1006.009	1919.1
1006.304	1843.85
1006.598	1842.49
1006.892	1839.56
1007.186	1848.14
1007.48	1820.35
1007.773	1839.78
1008.067	1839.33
1008.361	1814.7
1008.655	1801.59
1008.948	1764.76
1009.242	1786.68
1009.535	1750.97
1009.829	1764.76
1010.122	1760.91
1010.415	1755.26
1010.708	1761.37
1011.001	1725.66
1011.295	1723.85
1011.588	1672.1
1011.881	1677.75
1012.173	1685.89
1012.466	1658.54
1012.759	1620.35
1013.052	1655.61
1013.344	1630.3
1013.637	1641.37
1013.93	1631.2
1014.222	1627.36
1014.514	1615.16
1014.807	1584.87
1015.099	1580.81
1015.391	1567.47
1015.683	1563.41
1015.976	1562.5
1016.268	1555.27
1016.56	1500.58
1016.851	1537.87
1017.143	1529.73
1017.435	1512.79
1017.727	1514.37
1018.018	1488.6
1018.31	1463.52
1018.602	1493.8
1018.893	1456.74
1019.185	1463.52
1019.476	1437.76
1019.767	1439.79
1020.058	1405.44
1020.35	1441.83
1020.641	1381.04
1020.932	1409.28
1021.223	1397.31
1021.514	1408.38
1021.804	1366.57
1022.095	1363.41
1022.386	1364.77
1022.677	1348.72
1022.967	1337.87
1023.258	1339
1023.548	1319.57
1023.839	1314.37
1024.129	1322.06
1024.419	1290.42
1024.709	1317.08
1025	1311.43
1025.29	1271.66
1025.58	1244.32
1025.87	1251.55
1026.16	1241.38
1026.449	1245.9
1026.739	1239.35
1027.029	1202.74
1027.319	1190.76
1027.608	1212.91
1027.898	1163.64
1028.187	1205.22
1028.477	1195.51
1028.766	1165.45
1029.055	1148.73
1029.344	1141.95
1029.634	1133.59
1029.923	1159.12
1030.212	1137.65
1030.501	1135.17
1030.79	1150.99
1031.078	1099.24
1031.367	1086.36
1031.656	1119.35
1031.945	1106.47
1032.233	1105.34
1032.522	1098.33
1032.81	1081.38
1033.099	1083.87
1033.387	1053.81
1033.675	1042.74
1033.963	1044.77
1034.251	1053.36
1034.54	1037.32
1034.828	1021.72
1035.116	1024.21
1035.403	1019.24
1035.691	1009.07
1035.979	1010.43
1036.267	1012.91
1036.554	986.02
1036.842	972.91
1037.129	975.4
1037.417	954.61
1037.704	970.43
1037.992	956.87
1038.279	952.35
1038.566	922.07
1038.853	922.07
1039.14	922.07
