Data from hue_110_FLMS001491_00017.txt Node
Date: Tue Feb 07 17:00:58 GMT 2017
User: dcchb
Spectrometer: FLMS00149
Trigger mode: 0
Integration Time (sec): 2.000000E-2
Scans to average: 10
Electric dark correction enabled: true
Nonlinearity correction enabled: false
Boxcar width: 0
XAxis mode: Wavelengths
Number of Pixels in Spectrum: 2048
>>>>>Begin Spectral Data<<<<<
341.393	0.44
341.776	0.44
342.16	0.44
342.543	-60.35
342.927	-67.58
343.31	-73.91
343.693	-69.62
344.077	-77.75
344.46	-39.56
344.843	-46.11
345.226	-47.7
345.61	-29.39
345.993	-16.51
346.376	-19.45
346.759	-11.99
347.142	32.3
347.525	37.27
347.908	57.16
348.291	89.7
348.674	99.87
349.057	115.69
349.44	120.66
349.823	147.33
350.206	162.24
350.588	186.2
350.971	223.26
351.354	221.22
351.737	210.6
352.119	243.14
352.502	261.67
352.884	258.74
353.267	296.25
353.65	297.83
354.032	293.76
354.414	311.39
354.797	311.84
355.179	318.62
355.562	326.08
355.944	325.85
356.326	325.63
356.709	338.73
357.091	348
357.473	337.6
357.855	351.62
358.238	324.72
358.62	348.23
359.002	313.88
359.384	337.38
359.766	321.79
360.148	343.71
360.53	319.75
360.912	335.8
361.294	345.74
361.676	333.08
362.057	338.73
362.439	343.03
362.821	340.77
363.203	329.24
363.584	331.05
363.966	327.21
364.348	314.78
364.729	324.5
365.111	335.57
365.493	334.21
365.874	307.32
366.256	319.98
366.637	318.62
367.019	308.23
367.4	289.7
367.781	291.28
368.163	333.54
368.544	325.18
368.925	326.53
369.306	304.84
369.688	323.14
370.069	321.79
370.45	312.29
370.831	304.38
371.212	324.27
371.593	309.81
371.974	317.27
372.355	314.33
372.736	308.45
373.117	311.39
373.498	307.77
373.879	312.97
374.26	324.72
374.641	317.27
375.021	294.67
375.402	321.56
375.783	318.85
376.163	319.98
376.544	326.98
376.925	326.76
377.305	322.46
377.686	330.37
378.066	322.69
378.447	330.82
378.827	325.85
379.208	317.27
379.588	317.27
379.968	354.78
380.349	340.77
380.729	340.09
381.109	322.92
381.489	322.46
381.87	323.14
382.25	352.74
382.63	354.78
383.01	335.12
383.39	373.76
383.77	345.51
384.15	339.86
384.53	339.19
384.91	349.13
385.29	357.94
385.67	367.43
386.049	344.84
386.429	363.14
386.809	354.33
387.189	353.65
387.568	373.08
387.948	341.9
388.328	345.97
388.707	353.2
389.087	363.37
389.466	345.29
389.846	352.52
390.225	357.04
390.605	363.59
390.984	365.17
391.363	368.79
391.743	369.24
392.122	387.32
392.501	358.85
392.881	366.53
393.26	382.57
393.639	373.54
394.018	391.84
394.397	381.9
394.776	371.05
395.155	377.6
395.534	373.76
395.913	386.19
396.292	396.36
396.671	398.39
397.05	390.26
397.429	404.5
397.808	371.5
398.186	380.54
398.565	389.81
398.944	416.25
399.323	388.45
399.701	371.28
400.08	391.39
400.458	416.02
400.837	395.68
401.215	404.27
401.594	404.5
401.972	417.6
402.351	379.41
402.729	412.18
403.107	407.21
403.486	398.62
403.864	417.38
404.242	427.09
404.62	419.41
404.999	412.18
405.377	430.48
405.755	429.58
406.133	429.35
406.511	441.56
406.889	448.79
407.267	432.74
407.645	431.61
408.023	430.03
408.401	451.73
408.779	435.45
409.156	452.18
409.534	453.31
409.912	433.87
410.29	441.56
410.667	462.12
411.045	467.54
411.422	449.92
411.8	460.54
412.178	448.79
412.555	465.28
412.933	466.64
413.31	452.86
413.687	473.19
414.065	480.43
414.442	468.9
414.819	497.6
415.197	488.11
415.574	492.18
415.951	522.68
416.328	498.5
416.705	505.51
417.082	499.86
417.46	500.09
417.837	514.77
418.214	537.37
418.591	527.43
418.967	494.44
419.344	520.2
419.721	530.14
420.098	518.84
420.475	517.49
420.852	524.94
421.228	546.41
421.605	530.37
421.982	554.1
422.358	542.8
422.735	553.19
423.111	575.56
423.488	566.98
423.864	575.34
424.241	556.36
424.617	569.69
424.994	552.74
425.37	553.19
425.746	575.34
426.123	580.31
426.499	567.43
426.875	594.32
427.251	574.21
427.627	596.35
428.003	627.54
428.379	625.73
428.756	613.53
429.132	626.86
429.507	592.29
429.883	619.18
430.259	608.78
430.635	625.28
431.011	631.38
431.387	644.49
431.763	657.6
432.138	667.76
432.514	680.19
432.89	676.35
433.265	659.63
433.641	696.24
434.016	690.14
434.392	688.1
434.767	682.91
435.143	695.33
435.518	698.72
435.894	703.92
436.269	724.03
436.644	712.51
437.02	725.16
437.395	715
437.77	746.86
438.145	737.59
438.52	774.43
438.895	754.54
439.271	746.41
439.646	745.5
440.021	781.43
440.395	771.49
440.77	778.5
441.145	782.34
441.52	798.38
441.895	803.58
442.27	826.18
442.645	816.46
443.019	813.07
443.394	829.34
443.769	841.55
444.143	835.67
444.518	828.89
444.892	861.43
445.267	833.18
445.641	834.99
446.016	831.38
446.39	858.72
446.764	851.94
447.139	852.17
447.513	844.26
447.887	884.71
448.262	888.1
448.636	892.62
449.01	888.32
449.384	885.61
449.758	890.81
450.132	900.3
450.506	927.19
450.88	938.94
451.254	928.1
451.628	936.68
452.002	924.71
452.376	941.2
452.75	947.98
453.123	972.84
453.497	975.78
453.871	1012.84
454.244	998.38
454.618	994.76
454.992	1016.91
455.365	1002.67
455.739	1053.74
456.112	1038.6
456.486	1054.42
456.859	1077.25
457.232	1090.8
457.606	1092.84
457.979	1106.62
458.352	1124.93
458.725	1121.99
459.099	1153.4
459.472	1171.48
459.845	1157.7
460.218	1176.9
460.591	1180.29
460.964	1192.04
461.337	1211.71
461.71	1233.85
462.083	1260.07
462.456	1285.83
462.829	1256.22
463.201	1296.45
463.574	1279.95
463.947	1326.5
464.32	1347.52
464.692	1339.61
465.065	1380.06
465.438	1392.04
465.81	1419.84
466.183	1426.16
466.555	1422.77
466.928	1473.39
467.3	1472.94
467.672	1514.3
468.045	1535.54
468.417	1559.04
468.789	1576.44
469.161	1606.95
469.534	1656.67
469.906	1690.34
470.278	1717.91
470.65	1710
471.022	1739.6
471.394	1809.2
471.766	1799.49
472.138	1847.62
472.51	1888.98
472.882	1944.12
473.253	1938.92
473.625	1984.57
473.997	2045.13
474.369	2067.95
474.74	2133.49
475.112	2148.63
475.484	2214.16
475.855	2278.34
476.227	2335.74
476.598	2411.67
476.97	2418.91
477.341	2502.74
477.713	2558.34
478.084	2627.49
478.455	2669.75
478.827	2739.57
479.198	2831.78
479.569	2881.49
479.94	2986.35
480.311	3045.1
480.682	3138.43
481.053	3201.03
481.424	3339.33
481.795	3403.74
482.166	3496.39
482.537	3559.21
482.908	3702.49
483.279	3761.47
483.65	3848.02
484.021	4028.81
484.391	4071.97
484.762	4200.33
485.133	4256.82
485.503	4378.18
485.874	4535.91
486.244	4592.41
486.615	4767.77
486.985	4895.9
487.356	5017.03
487.726	5115.33
488.097	5270.58
488.467	5315.78
488.837	5527.52
489.207	5581.08
489.578	5778.59
489.948	5885.71
490.318	6039.15
490.688	6088.87
491.058	6277.11
491.428	6374.06
491.798	6562.75
492.168	6712.35
492.538	6837.09
492.908	6954.38
493.278	7066.47
493.648	7197.08
494.017	7358.44
494.387	7439.79
494.757	7618.09
495.126	7709.61
495.496	7882.72
495.866	7980.57
496.235	8109.83
496.605	8208.81
496.974	8395.92
497.344	8475.92
497.713	8585.3
498.082	8698.51
498.452	8826.42
498.821	8999.07
499.19	9050.82
499.559	9196.35
499.928	9313.19
500.298	9365.84
500.667	9495.33
501.036	9552.28
501.405	9736.68
501.774	9737.13
502.143	9868.43
502.512	9933.06
502.88	10068.42
503.249	10132.37
503.618	10181.19
503.987	10289.21
504.356	10386.61
504.724	10496.43
505.093	10522.87
505.462	10611.46
505.83	10685.58
506.199	10740.95
506.567	11028.85
506.936	11050.99
507.304	11116.53
507.672	11157.66
508.041	11237.88
508.409	11285.34
508.777	11453.7
509.145	11526.69
509.514	11505.67
509.882	11546.57
510.25	11664.31
510.618	11672.9
510.986	11687.59
511.354	11796.51
511.722	11894.14
512.09	12035.83
512.458	11968.48
512.826	12088.71
513.193	12127.35
513.561	12183.62
513.929	12232.43
514.297	12315.59
514.664	12329.61
515.032	12455.7
515.4	12460
515.767	12511.52
516.135	12569.15
516.502	12469.71
516.869	12729.82
517.237	12723.95
517.604	12790.61
517.972	12713.32
518.339	12879.2
518.706	12860.89
519.073	12895.24
519.44	12815.02
519.808	12969.14
520.175	12979.53
520.542	13104.73
520.909	13192.86
521.276	13156.25
521.643	13223.37
522.009	13240.54
522.376	13299.98
522.743	13358.5
523.11	13371.16
523.477	13492.51
523.843	13462.23
524.21	13568.67
524.577	13619.06
524.943	13630.14
525.31	13605.96
525.676	13723.69
526.043	13763.69
526.409	13689.12
526.776	13830.58
527.142	13877.59
527.508	13887.3
527.874	13888.89
528.241	13923.24
528.607	13904.03
528.973	13966.85
529.339	13916.23
529.705	13994.19
530.071	14034.42
530.437	14045.94
530.803	14004.36
531.169	14090.69
531.535	14023.35
531.901	14053.85
532.267	14116
532.632	14011.14
532.998	13970.24
533.364	14091.82
533.73	14003.69
534.095	14073.74
534.461	14105.6
534.826	14031.71
535.192	14076.68
535.557	14070.12
535.923	13987.19
536.288	14066.28
536.653	14035.1
537.019	13942.67
537.384	13945.38
537.749	13949.9
538.114	13990.58
538.479	13884.59
538.845	13885.27
539.21	13879.39
539.575	13845.72
539.94	13833.29
540.305	13845.27
540.67	13745.84
541.034	13758.04
541.399	13735.67
541.764	13735.67
542.129	13719.63
542.494	13697.25
542.858	13664.49
543.223	13666.07
543.587	13645.28
543.952	13642.11
544.316	13542
544.681	13509.24
545.045	13477.15
545.41	13551.72
545.774	13450.03
546.138	13504.49
546.503	13366.41
546.867	13432.63
547.231	13439.86
547.595	13379.3
547.959	13353.53
548.324	13229.47
548.688	13269.02
549.052	13238.51
549.416	13197.38
549.779	13196.02
550.143	13167.32
550.507	13226.53
550.871	13028.8
551.235	13045.52
551.599	13164.16
551.962	13096.14
552.326	13142.24
552.689	13075.57
553.053	13011.4
553.417	13028.8
553.78	13091.39
554.143	13005.75
554.507	12972.07
554.87	12972.75
555.234	12981.57
555.597	12924.84
555.96	12935.01
556.323	12940.21
556.686	12931.4
557.05	12942.02
557.413	12936.37
557.776	12888.23
558.139	12957.84
558.502	12904.51
558.865	12842.81
559.228	12949.7
559.59	12880.78
559.953	12955.35
560.316	13033.54
560.679	12921.91
561.041	12978.63
561.404	12986.09
561.767	12984.73
562.129	12932.98
562.492	13013.88
562.854	12942.92
563.217	12990.38
563.579	12939.31
563.941	13035.58
564.304	13046.42
564.666	13010.72
565.028	13060.89
565.39	13071.73
565.753	13095.23
566.115	13095.01
566.477	13110.6
566.839	13137.72
567.201	13107.66
567.563	13107.44
567.925	13191.73
568.287	13147.66
568.648	13118.96
569.01	13222.24
569.372	13265.4
569.734	13144.72
570.095	13163.26
570.457	13280.54
570.819	13242.12
571.18	13217.94
571.542	13377.94
571.903	13382.91
572.265	13325.06
572.626	13358.5
572.987	13334.1
573.349	13419.97
573.71	13379.75
574.071	13319.41
574.432	13463.36
574.794	13413.19
575.155	13416.36
575.516	13356.7
575.877	13416.13
576.238	13430.59
576.599	13509.24
576.96	13500.65
577.32	13455.9
577.681	13550.14
578.042	13472.63
578.403	13548.56
578.763	13504.72
579.124	13470.14
579.485	13539.97
579.845	13599.63
580.206	13496.35
580.566	13466.52
580.927	13489.12
581.287	13571.83
581.648	13464.26
582.008	13581.1
582.368	13462.91
582.728	13471.04
583.089	13459.07
583.449	13499.07
583.809	13457.26
584.169	13451.38
584.529	13404.38
584.889	13579.97
585.249	13475.56
585.609	13433.76
585.969	13452.51
586.329	13359.86
586.688	13392.18
587.048	13437.82
587.408	13396.02
587.768	13326.42
588.127	13285.74
588.487	13413.42
588.846	13502.46
589.206	13305.62
589.565	13344.49
589.925	13400.76
590.284	13299.75
590.643	13371.16
591.003	13299.75
591.362	13402.35
591.721	13283.25
592.08	13338.17
592.44	13365.51
592.799	13347.43
593.158	13254.78
593.517	13309.69
593.876	13349.92
594.235	13259.98
594.593	13371.16
594.952	13171.62
595.311	13175.46
595.67	13279.64
596.029	13330.71
596.387	13279.18
596.746	13280.99
597.104	13206.19
597.463	13196.02
597.822	13295.68
598.18	13155.57
598.538	13222.46
598.897	13333.42
599.255	13145.63
599.613	13301.78
599.972	13212.07
600.33	13225.85
600.688	13123.48
601.046	13249.36
601.404	13256.13
601.762	13260.2
602.12	13231.28
602.478	13198.96
602.836	13281.44
603.194	13143.37
603.552	13200.09
603.91	13195.35
604.268	13226.76
604.625	13255.91
604.983	13266.08
605.341	13160.54
605.698	13241.22
606.056	13255
606.413	13214.1
606.771	13307.21
607.128	13341.33
607.485	13190.15
607.843	13255.23
608.2	13340.2
608.557	13379.97
608.914	13309.01
609.272	13325.96
609.629	13400.31
609.986	13427.2
610.343	13304.95
610.7	13452.97
611.057	13365.06
611.414	13403.93
611.771	13418.84
612.127	13397.15
612.484	13416.58
612.841	13451.38
613.198	13348.34
613.554	13419.75
613.911	13443.25
614.267	13513.75
614.624	13414.55
614.98	13493.64
615.337	13570.02
615.693	13527.09
616.05	13452.74
616.406	13567.31
616.762	13503.59
617.118	13541.32
617.475	13567.76
617.831	13617.71
618.187	13609.57
618.543	13602.79
618.899	13711.72
619.255	13675.33
619.611	13629.46
619.967	13614.32
620.323	13644.15
620.678	13598.95
621.034	13591.72
621.39	13516.24
621.746	13547.88
622.101	13673.98
622.457	13589.23
622.812	13678.72
623.168	13695.9
623.523	13697.48
623.879	13694.99
624.234	13596.24
624.589	13671.26
624.945	13616.13
625.3	13644.15
625.655	13666.52
626.01	13645.5
626.365	13705.84
626.72	13614.77
627.075	13540.42
627.43	13661.77
627.785	13560.31
628.14	13667.2
628.495	13670.59
628.85	13579.06
629.205	13583.13
629.559	13598.05
629.914	13534.77
630.269	13588.33
630.623	13525.05
630.978	13421.55
631.332	13518.73
631.687	13510.37
632.041	13478.95
632.396	13494.55
632.75	13487.54
633.104	13456.13
633.459	13415.68
633.813	13481.89
634.167	13480.31
634.521	13440.54
634.875	13518.27
635.229	13477.15
635.583	13376.36
635.937	13454.1
636.291	13286.42
636.645	13337.94
636.999	13341.78
637.352	13384.04
637.706	13244.61
638.06	13278.28
638.413	13282.8
638.767	13284.61
639.121	13307.88
639.474	13183.82
639.828	13182.24
640.181	13241.22
640.534	13229.92
640.888	13192.41
641.241	13086.65
641.594	13109.7
641.947	13175.23
642.301	13264.04
642.654	13202.35
643.007	13162.35
643.36	13129.36
643.713	13099.98
644.066	13104.95
644.419	13061.11
644.771	12962.81
645.124	12886.65
645.477	12821.8
645.83	12728.24
646.182	12759.2
646.535	12618.86
646.888	12714.68
647.24	12615.93
647.593	12579.09
647.945	12623.83
648.298	12629.48
648.65	12538.87
649.002	12554.91
649.355	12592.88
649.707	12622.7
650.059	12709.71
650.411	12802.59
650.763	12848.01
651.115	12985.63
651.467	12916.26
651.819	12905.18
652.171	12900.66
652.523	12928.91
652.875	12948.57
653.227	12831.74
653.578	12907.9
653.93	12917.84
654.282	12887.56
654.633	12804.39
654.985	12979.31
655.337	12931.85
655.688	12894.79
656.039	13032.64
656.391	12883.49
656.742	12883.26
657.094	12881.23
657.445	12973.2
657.796	12876.94
658.147	12938.63
658.498	12867.44
658.849	12923.94
659.2	12959.65
659.551	12864.73
659.902	12932.75
660.253	12874.45
660.604	13008.68
660.955	12953.32
661.306	13000.32
661.656	12907.44
662.007	12947.44
662.358	12983.83
662.708	12904.73
663.059	12893.43
663.409	12898.4
663.76	13026.76
664.11	12960.78
664.461	13045.07
664.811	12869.48
665.161	12985.86
665.511	12901.12
665.862	12989.7
666.212	12944.5
666.562	13013.65
666.912	12956.48
667.262	12936.37
667.612	12936.59
667.962	12938.4
668.312	13021.11
668.662	12980.44
669.011	12958.74
669.361	12938.63
669.711	12944.05
670.06	12993.99
670.41	12935.01
670.76	12857.5
671.109	12932.75
671.459	12927.33
671.808	12905.18
672.157	12940.21
672.507	12850.5
672.856	12823.15
673.205	12869.25
673.554	12887.56
673.904	12854.34
674.253	12904.73
674.602	12833.09
674.951	12665.19
675.3	12535.25
675.649	12732.98
675.998	12738.63
676.346	12839.2
676.695	12770.5
677.044	12758.07
677.393	12765.3
677.741	12738.86
678.09	12790.84
678.438	12570.05
678.787	12702.93
679.135	12727.11
679.484	12645.98
679.832	12617.06
680.181	12525.53
680.529	12557.85
680.877	12558.98
681.225	12549.49
681.573	12636.72
681.922	12495.93
682.27	12436.72
682.618	12444.86
682.966	12435.37
683.314	12393.33
683.661	12287.12
684.009	12313.79
684.357	12266.56
684.705	12262.94
685.053	12308.36
685.4	12265.65
685.748	12176.39
686.095	12092.55
686.443	12098.65
686.79	12083.96
687.138	12111.98
687.485	12154.47
687.832	12116.96
688.18	12042.38
688.527	12009.16
688.874	12025.66
689.221	11967.13
689.568	11922.38
689.915	11883.97
690.262	11899.33
690.609	11907.24
690.956	11773.01
691.303	11839.45
691.65	11693.92
691.997	11702.73
692.344	11718.55
692.69	11642.84
693.037	11653.24
693.383	11452.79
693.73	11580.7
694.077	11424.77
694.423	11383.64
694.769	11357.65
695.116	11343.42
695.462	11327.37
695.808	11308.84
696.155	11301.38
696.501	11216.19
696.847	11123.76
697.193	11094.61
697.539	11153.59
697.885	11072.46
698.231	11041.96
698.577	10934.39
698.923	10941.17
699.269	10961.73
699.614	10909.98
699.96	10865.24
700.306	10785.46
700.651	10813.71
700.997	10740.27
701.342	10684.45
701.688	10672.25
702.033	10630.89
702.379	10627.96
702.724	10505.7
703.069	10553.83
703.415	10515.19
703.76	10408.53
704.105	10415.31
704.45	10429.99
704.795	10379.83
705.14	10326.04
705.485	10283.11
705.83	10246.5
706.175	10286.04
706.52	10200.4
706.865	10174.18
707.209	10140.51
707.554	10206.5
707.899	10118.36
708.243	10052.83
708.588	10057.12
708.932	9989.33
709.277	9953.4
709.621	9896.45
709.966	9842.66
710.31	9915.66
710.654	9827.07
710.998	9842.89
711.342	9861.65
711.687	9791.82
712.031	9730.8
712.375	9753.85
712.719	9749.79
713.063	9637.92
713.407	9702.1
713.75	9620.98
714.094	9694.42
714.438	9600.41
714.782	9656.46
715.125	9552.73
715.469	9572.62
715.812	9571.49
716.156	9442
716.499	9521.54
716.843	9517.7
717.186	9393.64
717.53	9516.57
717.873	9502.56
718.216	9488.1
718.559	9387.31
718.902	9392.73
719.246	9439.51
719.589	9333.3
719.932	9374.65
720.275	9342.34
720.617	9288.78
720.96	9365.16
721.303	9292.62
721.646	9305.28
721.989	9240.65
722.331	9296.01
722.674	9225.96
723.016	9276.58
723.359	9200.42
723.701	9333.75
724.044	9155.68
724.386	9198.16
724.729	9227.54
725.071	9234.77
725.413	9180.31
725.755	9146.64
726.097	9146.64
726.439	9101.44
726.782	9133.76
727.124	9235.9
727.465	9190.03
727.807	9096.02
728.149	9107.99
728.491	9028.68
728.833	9039.07
729.175	9008.11
729.516	9033.87
729.858	9119.75
730.199	9057.83
730.541	9010.82
730.882	9042.01
731.224	9127.88
731.565	9106.64
731.906	8985.74
732.248	9034.1
732.589	9008.79
732.93	9020.77
733.271	9074.78
733.612	9037.26
733.953	9096.7
734.294	9013.53
734.635	9024.38
734.976	9115.45
735.317	9035.23
735.658	9041.33
735.999	8977.15
736.339	9038.17
736.68	9082.46
737.021	9052.4
737.361	9001.33
737.702	9102.8
738.042	9077.94
738.383	9053.53
738.723	9105.96
739.063	9176.02
739.404	9115.68
739.744	9113.87
740.084	9122.46
740.424	9086.75
740.764	9082.91
741.104	9195.9
741.444	9100.54
741.784	9112.51
742.124	9166.75
742.464	9226.41
742.804	9152.51
743.143	9146.41
743.483	9198.61
743.823	9267.99
744.162	9195.9
744.502	9303.7
744.841	9314.54
745.181	9341.44
745.52	9282.45
745.86	9412.17
746.199	9402.9
746.538	9456.69
746.877	9544.14
747.216	9547.76
747.556	9559.96
747.895	9611.71
748.234	9678.38
748.573	9679.73
748.911	9723.12
749.25	9807.19
749.589	9933.28
749.928	9940.06
750.267	10144.8
750.605	10144.58
750.944	10129.89
751.283	10211.24
751.621	10263.22
751.96	10368.07
752.298	10467.73
752.636	10536.88
752.975	10620.05
753.313	10725.81
753.651	10853.26
753.989	10883.32
754.327	10988.85
754.666	11050.09
755.004	11320.82
755.342	11345.22
755.679	11475.62
756.017	11532.11
756.355	11740.69
756.693	11837.64
757.031	12002.61
757.368	12084.87
757.706	12230.85
758.044	12281.7
758.381	12519.66
758.719	12660.22
759.056	12811.4
759.394	13008.23
759.731	13042.81
760.068	13285.06
760.405	13266.53
760.743	13482.8
761.08	13638.72
761.417	13762.34
761.754	13891.37
762.091	14105.38
762.428	14222.21
762.765	14267.18
763.102	14563.67
763.438	14587.17
763.775	14679.6
764.112	14928.18
764.449	15116.2
764.785	15227.61
765.122	15352.12
765.458	15409.75
765.795	15619.24
766.131	15781.49
766.467	15921.15
766.804	16032.78
767.14	16098.55
767.476	16288.15
767.812	16301.03
768.148	16545.54
768.485	16536.95
768.821	16659.66
769.157	16824.18
769.492	16867.34
769.828	17058.97
770.164	16944.17
770.5	17136.94
770.836	17215.8
771.171	17215.8
771.507	17371.28
771.842	17382.58
772.178	17457.61
772.513	17522.91
772.849	17629.35
773.184	17695.79
773.519	17738.95
773.855	17823.25
774.19	17896.24
774.525	17855.34
774.86	18039.06
775.195	18053.75
775.53	18054.43
775.865	18048.78
776.2	18024.37
776.535	18001.77
776.87	18075.22
777.205	18034.31
777.539	18145.5
777.874	18190.24
778.209	18189.56
778.543	18134.88
778.878	18173.52
779.212	18115.44
779.547	18264.59
779.881	18388.65
780.215	18161.99
780.55	18250.58
780.884	18321.54
781.218	18303.46
781.552	18318.6
781.886	18265.72
782.22	18263.01
782.554	18237.7
782.888	18015.78
783.222	18110.7
783.556	18041.77
783.889	18108.89
784.223	17985.05
784.557	17965.84
784.89	18144.82
785.224	17903.24
785.557	17999.96
785.891	17878.84
786.224	17962.23
786.558	17913.41
786.891	17768.78
787.224	17856.92
787.557	17816.69
787.891	17850.59
788.224	17843.58
788.557	17859.63
788.89	17841.32
789.223	17805.17
789.556	17682.23
789.888	17729.46
790.221	17652.63
790.554	17526.53
790.887	17598.17
791.219	17521.11
791.552	17486.76
791.884	17443.82
792.217	17473.42
792.549	17416.7
792.882	17283.6
793.214	17292.19
793.546	17299.87
793.879	17124.06
794.211	17154.79
794.543	17087.67
794.875	17070.95
795.207	17199.31
795.539	17072.98
795.871	17083.6
796.203	17020.1
796.535	16970.16
796.867	16875.93
797.198	16807.68
797.53	16850.16
797.862	16715.93
798.193	16740.79
798.525	16689.04
798.856	16719.32
799.188	16553.67
799.519	16463.73
799.85	16493.79
800.182	16539.66
800.513	16469.84
800.844	16240.91
801.175	16454.47
801.506	16432.77
801.837	16262.16
802.168	16282.95
802.499	16257.64
802.83	16179.9
803.161	16169.73
803.491	16213.8
803.822	16155.04
804.153	16005.89
804.483	15925.67
804.814	15966.57
805.145	15892.68
805.475	15856.52
805.805	15753.24
806.136	15813.81
806.466	15850.64
806.796	15715.28
807.126	15584.43
807.457	15627.37
807.787	15648.84
808.117	15571.55
808.447	15587.82
808.777	15558.22
809.107	15443.42
809.436	15397.55
809.766	15434.61
810.096	15290.66
810.426	15237.55
810.755	15235.07
811.085	15269.41
811.414	15231.22
811.744	15257.89
812.073	15161.4
812.403	15127.27
812.732	15057.9
813.061	14995.07
813.39	14918.01
813.719	14956.65
814.049	15063.77
814.378	14944.23
814.707	15018.12
815.036	14920.05
815.365	14906.71
815.693	14734.51
816.022	14760.28
816.351	14720.05
816.68	14581.07
817.008	14704.23
817.337	14653.84
817.665	14510.11
817.994	14584.01
818.322	14557.57
818.651	14444.58
818.979	14417.23
819.307	14472.6
819.636	14476.22
819.964	14396.44
820.292	14403.45
820.62	14412.49
820.948	14323.9
821.276	14407.97
821.604	14363.22
821.932	14405.26
822.259	14385.82
822.587	14288.65
822.915	14447.06
823.243	14365.71
823.57	14304.02
823.898	14352.15
824.225	14276.9
824.553	14340.85
824.88	14405.26
825.207	14270.12
825.535	14279.16
825.862	14291.81
826.189	14372.26
826.516	14378.59
826.843	14413.84
827.17	14452.71
827.497	14331.59
827.824	14357.35
828.151	14347.63
828.478	14355.99
828.805	14392.6
829.131	14295.88
829.458	14319.84
829.785	14343.79
830.111	14289.33
830.438	14373.85
830.764	14462.66
831.09	14390.79
831.417	14209.78
831.743	14371.59
832.069	14354.86
832.395	14336.11
832.722	14380.17
833.048	14294.53
833.374	14302.66
833.7	14156.68
834.026	14290.01
834.351	14290.46
834.677	14209.1
835.003	14272.38
835.329	14211.59
835.654	14167.07
835.98	14180.63
836.306	14202.1
836.631	14168.88
836.956	14169.78
837.282	14153.74
837.607	14082.33
837.932	14000.75
838.258	14090.46
838.583	14070.8
838.908	13948.55
839.233	13986.51
839.558	13907.42
839.883	13877.36
840.208	13906.96
840.533	13876.91
840.858	13786.74
841.182	13838.94
841.507	13838.94
841.832	13772.96
842.156	13716.46
842.481	13705.84
842.805	13725.05
843.13	13633.75
843.454	13641.89
843.778	13615.67
844.103	13546.97
844.427	13523.47
844.751	13444.6
845.075	13431.27
845.399	13390.14
845.723	13265.63
846.047	13367.32
846.371	13241.9
846.695	13290.03
847.019	13220.43
847.343	13154.67
847.666	12953.32
847.99	13021.11
848.313	13032.86
848.637	12920.1
848.96	12895.01
849.284	12897.05
849.607	12739.99
849.931	12685.98
850.254	12684.62
850.577	12602.14
850.9	12479.43
851.223	12432.43
851.546	12498.41
851.869	12348.59
852.192	12423.39
852.515	12276.5
852.838	12320.34
853.161	12255.03
853.483	12273.79
853.806	12191.53
854.129	12072.21
854.451	12010.29
854.774	11895.94
855.096	11904.98
855.419	11959.45
855.741	11926.9
856.063	11853.91
856.385	11857.75
856.708	11809.84
857.03	11727.59
857.352	11759
857.674	11721.03
857.996	11635.16
858.318	11611.66
858.64	11597.87
858.961	11559.91
859.283	11534.82
859.605	11463.87
859.926	11461.38
860.248	11459.12
860.57	11421.83
860.891	11457.99
861.212	11364.21
861.534	11304.32
861.855	11241.95
862.176	11325.11
862.498	11253.48
862.819	11248.05
863.14	11194.95
863.461	11179.13
863.782	11173.25
864.103	11096.19
864.424	11116.53
864.745	11106.13
865.065	11094.84
865.386	11005.57
865.707	11023.42
866.027	11058.23
866.348	10989.75
866.668	10992.24
866.989	10979.36
867.309	10925.8
867.63	10891.22
867.95	10907.72
868.27	10880.38
868.59	10844.67
868.91	10858.23
869.23	10816.88
869.55	10754.96
869.87	10782.08
870.19	10779.14
870.51	10858.91
870.83	10739.59
871.15	10632.02
871.469	10710.66
871.789	10740.95
872.109	10742.08
872.428	10632.02
872.748	10655.3
873.067	10627.73
873.386	10616.88
873.706	10631.34
874.025	10558.35
874.344	10581.85
874.663	10575.08
874.982	10527.62
875.301	10516.77
875.62	10424.8
875.939	10442.2
876.258	10396.55
876.577	10386.15
876.896	10477.45
877.214	10362.2
877.533	10379.15
877.852	10316.32
878.17	10294.4
878.489	10350.22
878.807	10292.37
879.125	10336.89
879.444	10261.18
879.762	10238.81
880.08	10237.68
880.398	10222.99
880.716	10213.73
881.034	10153.39
881.352	10186.84
881.67	10082.43
881.988	10194.29
882.306	10035.65
882.624	10096.9
882.941	10013.06
883.259	10020.74
883.577	10002.43
883.894	10036.56
884.212	10014.41
884.529	9949.1
884.846	9856.9
885.164	9901.87
885.481	9831.82
885.798	9878.37
886.115	9762.67
886.432	9834.98
886.75	9870.46
887.067	9823.46
887.383	9692.39
887.7	9827.52
888.017	9540.98
888.334	9671.82
888.651	9675.21
888.967	9663.91
889.284	9593.41
889.6	9579.17
889.917	9513.18
890.233	9498.72
890.55	9477.48
890.866	9428.66
891.182	9472.51
891.498	9423.69
891.815	9337.14
892.131	9336.92
892.447	9357.48
892.763	9243.58
893.079	9284.04
893.395	9187.77
893.71	9199.74
894.026	9247.2
894.342	9150.93
894.657	9035
894.973	9125.85
895.289	9093.98
895.604	9041.78
895.92	8927.43
896.235	9003.59
896.55	8960.2
896.865	8953.87
897.181	8856.7
897.496	8902.12
897.811	8819.87
898.126	8810.83
898.441	8724.95
898.756	8699.42
899.071	8765.18
899.386	8708.46
899.7	8547.78
900.015	8586.2
900.33	8488.35
900.644	8514.79
900.959	8557.95
901.273	8486.99
901.588	8447.67
901.902	8396.6
902.216	8346.66
902.531	8352.99
902.845	8296.04
903.159	8286.55
903.473	8213.1
903.787	8186.89
904.101	8232.76
904.415	8155.25
904.729	8068.47
905.042	8125.87
905.356	8040.23
905.67	8059.89
905.984	8018.08
906.297	7991.19
906.611	7896.28
906.924	7916.84
907.237	7873
907.551	7878.87
907.864	7809.5
908.177	7890.17
908.491	7781.48
908.804	7703.06
909.117	7658.54
909.43	7618.32
909.743	7623.29
910.056	7577.87
910.368	7545.1
910.681	7572.22
910.994	7482.5
911.307	7496.96
911.619	7422.84
911.932	7419
912.244	7401.37
912.557	7383.07
912.869	7339
913.181	7311.43
913.494	7231.21
913.806	7228.5
914.118	7172.23
914.43	7098.56
914.742	7193.02
915.054	7135.84
915.366	7056.52
915.678	7112.57
915.99	6968.39
916.302	6944.21
916.613	6918.22
916.925	6992.8
917.236	6968.62
917.548	6882.29
917.859	6871.44
918.171	6873.03
918.482	6819.69
918.794	6759.13
919.105	6756.87
919.416	6705.57
919.727	6717.78
920.038	6668.51
920.349	6639.13
920.66	6610.89
920.971	6585.8
921.282	6565.24
921.593	6571.11
921.903	6515.97
922.214	6470.1
922.525	6459.7
922.835	6462.64
923.146	6383.55
923.456	6398.24
923.767	6397.33
924.077	6389.2
924.387	6311.23
924.697	6237.11
925.008	6276.88
925.318	6219.48
925.628	6117.79
925.938	6212.03
926.248	6124.12
926.558	6154.4
926.867	6104.68
927.177	6152.37
927.487	6087.96
927.796	6000.05
928.106	6009.77
928.416	5937.23
928.725	5965.03
929.034	5891.81
929.344	5872.37
929.653	5913.28
929.962	5880.51
930.271	5824.69
930.581	5816.33
930.89	5758.93
931.199	5765.26
931.508	5762.55
931.817	5722.32
932.125	5714.86
932.434	5676.45
932.743	5618.37
933.051	5565.72
933.36	5596
933.669	5567.3
933.977	5535.21
934.286	5557.58
934.594	5528.43
934.902	5428.54
935.21	5478.71
935.519	5501.31
935.827	5416.57
936.135	5355.33
936.443	5314.65
936.751	5311.26
937.059	5344.93
937.367	5316.46
937.674	5310.35
937.982	5209.34
938.29	5226.29
938.597	5267.87
938.905	5168.66
939.213	5113.98
939.52	5154.43
939.827	5152.62
940.135	5106.07
940.442	5055.9
940.749	5079.17
941.056	5025.16
941.363	5004.37
941.67	4946.07
941.977	4957.14
942.284	4944.26
942.591	4929.12
942.898	4896.35
943.205	4871.95
943.511	4840.76
943.818	4869.24
944.125	4834.89
944.431	4785.17
944.738	4785.62
945.044	4708.56
945.35	4728.22
945.657	4697.49
945.963	4720.31
946.269	4655.91
946.575	4657.94
946.881	4651.16
947.187	4595.8
947.493	4580.2
947.799	4569.13
948.105	4566.42
948.41	4513.31
948.716	4526.87
949.022	4503.6
949.327	4482.13
949.633	4437.84
949.938	4442.13
950.244	4416.14
950.549	4442.58
950.854	4360.78
951.16	4372.53
951.465	4306.54
951.77	4296.37
952.075	4348.57
952.38	4289.36
952.685	4289.36
952.99	4217.95
953.294	4242.13
953.599	4200.78
953.904	4210.72
954.209	4148.8
954.513	4188.8
954.818	4148.8
955.122	4140.67
955.426	4100.22
955.731	4100.89
956.035	4064.29
956.339	4067.45
956.643	4062.48
956.948	3982.03
957.252	3997.62
957.556	3981.58
957.86	3971.86
958.163	3993.33
958.467	3935.7
958.771	3920.56
959.075	3891.18
959.378	3917.17
959.682	3888.92
959.985	3872.88
960.289	3854.12
960.592	3854.12
960.896	3833.56
961.199	3807.34
961.502	3778.19
961.805	3790.85
962.108	3720.79
962.411	3694.58
962.714	3736.61
963.017	3747.23
963.32	3712.2
963.623	3685.09
963.926	3651.42
964.228	3623.17
964.531	3661.81
964.833	3604.41
965.136	3579.55
965.438	3589.04
965.741	3568.03
966.043	3546.33
966.345	3553.11
966.648	3471.98
966.95	3500.91
967.252	3461.36
967.554	3478.09
967.856	3428.14
968.158	3411.2
968.46	3425.88
968.761	3403.74
969.063	3380.91
969.365	3325.77
969.666	3395.15
969.968	3347.47
970.269	3265.66
970.571	3323.51
970.872	3346.11
971.174	3267.24
971.475	3281.03
971.776	3264.98
972.077	3240.35
972.378	3196.29
972.679	3211.65
972.98	3188.15
973.281	3167.81
973.582	3164.2
973.883	3145.89
974.183	3156.06
974.484	3115.16
974.785	3089.4
975.085	3082.84
975.386	3123.75
975.686	3061.37
975.986	3087.81
976.287	3077.65
976.587	3054.59
976.887	2999.46
977.187	2991.55
977.487	3017.08
977.787	3013.69
978.087	2969.63
978.387	2954.03
978.687	2931.43
978.987	2943.64
979.286	2930.76
979.586	2947.7
979.885	2881.49
980.185	2885.56
980.484	2874.94
980.784	2835.39
981.083	2827.93
981.382	2825.9
981.682	2829.52
981.981	2792
982.28	2816.41
982.579	2828.16
982.878	2773.02
983.177	2739.57
983.475	2736.64
983.774	2736.64
984.073	2725.11
984.372	2695.06
984.67	2677.43
984.969	2689.18
985.267	2667.26
985.566	2667.49
985.864	2665.68
986.162	2634.72
986.461	2642.63
986.759	2627.04
987.057	2577.32
987.355	2575.06
987.653	2553.14
987.951	2558.11
988.249	2581.84
988.547	2584.78
988.844	2534.83
989.142	2519.02
989.44	2527.6
989.737	2523.54
990.035	2468.62
990.332	2485.8
990.63	2443.54
990.927	2436.31
991.224	2419.13
991.521	2416.65
991.819	2454.16
992.116	2442.18
992.413	2382.52
992.71	2344.56
993.006	2382.52
993.303	2379.13
993.6	2343.2
993.897	2334.39
994.193	2345.23
994.49	2315.41
994.787	2326.48
995.083	2288.97
995.379	2301.39
995.676	2300.26
995.972	2268.4
996.268	2274.95
996.565	2228.63
996.861	2232.7
997.157	2201.74
997.453	2198.35
997.749	2205.58
998.044	2198.8
998.34	2163.54
998.636	2179.14
998.932	2157.22
999.227	2141.4
999.523	2171
999.818	2116.99
1000.114	2089.65
1000.409	2085.81
1000.704	2109.99
1001	2088.97
1001.295	2048.75
1001.59	2055.07
1001.885	2031.34
1002.18	2008.29
1002.475	2024.79
1002.77	1991.8
1003.065	1971.91
1003.359	1959.03
1003.654	1972.59
1003.949	1953.61
1004.243	1952.25
1004.538	1930.33
1004.832	1922.87
1005.127	1928.07
1005.421	1910.67
1005.715	1909.77
1006.009	1888.52
1006.304	1894.85
1006.598	1855.76
1006.892	1851.69
1007.186	1834.51
1007.48	1836.32
1007.773	1837.9
1008.067	1805.14
1008.361	1816.44
1008.655	1813.27
1008.948	1789.09
1009.242	1790.67
1009.535	1797
1009.829	1768.53
1010.122	1707.06
1010.415	1736.89
1010.708	1755.19
1011.001	1722.88
1011.295	1733.95
1011.588	1703.44
1011.881	1699.83
1012.173	1678.81
1012.466	1694.4
1012.759	1669.32
1013.052	1671.81
1013.344	1645.59
1013.637	1647.85
1013.93	1621.86
1014.222	1615.76
1014.514	1630.9
1014.807	1623.67
1015.099	1582.77
1015.391	1578.25
1015.683	1578.48
1015.976	1564.46
1016.268	1543.45
1016.56	1541.41
1016.851	1521.53
1017.143	1524.01
1017.435	1517.01
1017.727	1510.45
1018.018	1505.93
1018.31	1510.23
1018.602	1455.99
1018.893	1474.07
1019.185	1453.06
1019.476	1430.46
1019.767	1429.33
1020.058	1430.46
1020.35	1404.24
1020.641	1364.24
1020.932	1405.15
1021.223	1398.14
1021.514	1375.09
1021.804	1360.85
1022.095	1375.54
1022.386	1362.66
1022.677	1361.98
1022.967	1333.06
1023.258	1330.35
1023.548	1331.25
1023.839	1316.34
1024.129	1298.03
1024.419	1272.04
1024.709	1291.93
1025	1285.83
1025.29	1274.98
1025.58	1265.49
1025.87	1248.31
1026.16	1226.39
1026.449	1234.98
1026.739	1212.84
1027.029	1237.69
1027.319	1213.29
1027.608	1199.95
1027.898	1201.54
1028.187	1179.39
1028.477	1196.11
1028.766	1180.97
1029.055	1184.14
1029.344	1155.89
1029.634	1161.09
1029.923	1151.82
1030.212	1151.82
1030.501	1117.24
1030.79	1133.74
1031.078	1092.16
1031.367	1130.13
1031.656	1104.14
1031.945	1110.47
1032.233	1098.94
1032.522	1071.14
1032.81	1081.09
1033.099	1065.27
1033.387	1056.91
1033.675	1070.01
1033.963	1040.41
1034.251	1043.8
1034.54	1032.05
1034.828	1025.5
1035.116	992.05
1035.403	1022.33
1035.691	1019.39
1035.979	1001.32
1036.267	989.79
1036.554	995.89
1036.842	968.77
1037.129	1011.26
1037.417	981.88
1037.704	950.47
1037.992	956.8
1038.279	948.66
1038.566	951.15
1038.853	951.15
1039.14	951.15
