Data from hue_130_FLMS001491_00088.txt Node
Date: Tue Feb 07 16:58:13 GMT 2017
User: dcchb
Spectrometer: FLMS00149
Trigger mode: 0
Integration Time (sec): 2.000000E-2
Scans to average: 10
Electric dark correction enabled: true
Nonlinearity correction enabled: false
Boxcar width: 0
XAxis mode: Wavelengths
Number of Pixels in Spectrum: 2048
>>>>>Begin Spectral Data<<<<<
341.393	-12.12
341.776	-12.12
342.16	-12.12
342.543	-63.87
342.927	-50.54
343.31	-49.41
343.693	-57.54
344.077	-81.5
344.46	-59.8
344.843	-39.46
345.226	-69.07
345.61	-14.6
345.993	-21.16
346.376	4.38
346.759	23.59
347.142	25.85
347.525	31.27
347.908	60.42
348.291	68.11
348.674	87.31
349.057	91.61
349.44	150.14
349.823	150.82
350.206	169.57
350.588	204.6
350.971	205.28
351.354	218.16
351.737	230.59
352.119	241.21
352.502	286.63
352.884	265.61
353.267	268.78
353.65	292.05
354.032	301.77
354.414	305.61
354.797	317.36
355.179	330.92
355.562	322.11
355.944	302.45
356.326	322.79
356.709	333.18
357.091	326.18
357.473	338.83
357.855	345.39
358.238	351.26
358.62	344.03
359.002	337.25
359.384	341.32
359.766	330.92
360.148	333.64
360.53	347.19
360.912	336.8
361.294	314.65
361.676	319.85
362.057	338.83
362.439	341.54
362.821	341.32
363.203	332.05
363.584	329.12
363.966	328.66
364.348	323.47
364.729	321.21
365.111	308.78
365.493	320.53
365.874	344.93
366.256	298.16
366.637	311.49
367.019	313.3
367.4	307.2
367.781	306.29
368.163	320.3
368.544	308.1
368.925	301.77
369.306	308.55
369.688	304.03
370.069	311.04
370.45	329.12
370.831	310.59
371.212	329.57
371.593	324.37
371.974	300.64
372.355	323.01
372.736	325.73
373.117	308.78
373.498	324.37
373.879	310.13
374.26	312.39
374.641	320.08
375.021	332.05
375.402	321.21
375.783	329.34
376.163	313.3
376.544	323.69
376.925	318.49
377.305	329.79
377.686	323.92
378.066	340.64
378.447	331.83
378.827	335.9
379.208	328.66
379.588	320.3
379.968	325.05
380.349	353.75
380.729	324.14
381.109	342
381.489	347.87
381.87	347.42
382.25	334.54
382.63	317.14
383.01	364.82
383.39	381.09
383.77	362.11
384.15	352.17
384.53	339.51
384.91	364.82
385.29	337.93
385.67	366.63
386.049	356.69
386.429	343.35
386.809	346.29
387.189	347.65
387.568	365.27
387.948	362.56
388.328	354.65
388.707	360.3
389.087	349.91
389.466	371.15
389.846	370.92
390.225	372.05
390.605	348.1
390.984	384.93
391.363	354.88
391.743	386.74
392.122	379.28
392.501	386.29
392.881	396.68
393.26	384.03
393.639	375.67
394.018	379.51
394.397	357.82
394.776	391.26
395.155	389.45
395.534	395.33
395.913	386.97
396.292	389
396.671	396.01
397.05	377.25
397.429	404.82
397.808	401.43
398.186	416.34
398.565	397.59
398.944	390.36
399.323	400.75
399.701	391.71
400.08	386.52
400.458	395.55
400.837	390.13
401.215	399.85
401.594	429
401.972	417.7
402.351	418.83
402.729	426.06
403.107	418.6
403.486	426.51
403.864	404.82
404.242	415.89
404.62	424.71
404.999	414.09
405.377	443.46
405.755	424.71
406.133	443.24
406.511	436.23
406.889	423.35
407.267	425.84
407.645	433.07
408.023	433.75
408.401	448.89
408.779	455.67
409.156	459.28
409.534	435.78
409.912	457.7
410.29	448.21
410.667	463.12
411.045	479.17
411.422	478.94
411.8	496.57
412.178	476.68
412.555	476.23
412.933	477.59
413.31	484.59
413.687	479.85
414.065	482.11
414.442	489.56
414.819	500.64
415.197	490.24
415.574	513.52
415.951	515.1
416.328	500.64
416.705	518.26
417.082	512.39
417.46	532.95
417.837	523.69
418.214	529.79
418.591	537.92
418.967	537.02
419.344	530.24
419.721	552.16
420.098	513.29
420.475	546.51
420.852	545.83
421.228	536.34
421.605	556.45
421.982	540.86
422.358	553.97
422.735	553.97
423.111	573.85
423.488	554.42
423.864	554.87
424.241	570.69
424.617	574.31
424.994	550.58
425.37	574.31
425.746	582.22
426.123	588.32
426.499	612.95
426.875	607.75
427.251	607.98
427.627	619.5
428.003	616.57
428.379	604.36
428.756	635.77
429.132	657.92
429.507	636.23
429.883	633.06
430.259	663.8
430.635	641.65
431.011	650.46
431.387	685.04
431.763	673.29
432.138	682.33
432.514	676.45
432.89	680.97
433.265	695.21
433.641	684.13
434.016	683
434.392	700.18
434.767	723.23
435.143	731.82
435.518	726.85
435.894	722.78
436.269	730.91
436.644	737.47
437.02	751.48
437.395	766.17
437.77	768.43
438.145	748.77
438.52	773.62
438.895	774.53
439.271	791.02
439.646	780.4
440.021	811.59
440.395	824.47
440.77	820.18
441.145	804.81
441.52	824.47
441.895	829.22
442.27	820.4
442.645	852.72
443.019	843.9
443.394	845.03
443.769	854.98
444.143	829.67
444.518	870.8
444.892	856.56
445.267	865.15
445.641	886.62
446.016	855.66
446.39	885.71
446.764	879.16
447.139	888.2
447.513	863.79
447.887	883
448.262	920.96
448.636	936.78
449.01	919.61
449.384	925.94
449.758	935.88
450.132	952.15
450.506	956.9
450.88	937.01
451.254	956.9
451.628	984.92
452.002	958.93
452.376	1021.98
452.75	991.92
453.123	1002.09
453.497	989.44
453.871	1015.43
454.244	1041.19
454.618	1028.31
454.992	1063.56
455.365	1075.54
455.739	1097.01
456.112	1085.25
456.486	1102.88
456.859	1087.51
457.232	1142.43
457.606	1123.45
457.979	1119.83
458.352	1143.33
458.725	1184.23
459.099	1179.71
459.472	1192.37
459.845	1207.96
460.218	1206.38
460.591	1252.71
460.964	1281.41
461.337	1288.64
461.71	1281.63
462.083	1315.53
462.456	1280.96
462.829	1326.38
463.201	1341.07
463.574	1364.34
463.947	1360.27
464.32	1418.58
464.692	1422.87
465.065	1406.83
465.438	1461.74
465.81	1460.84
466.183	1511.01
466.555	1532.47
466.928	1510.55
467.3	1540.38
467.672	1569.76
468.045	1624.45
468.417	1623.32
468.789	1643.88
469.161	1661.96
469.534	1681.17
469.906	1746.71
470.278	1755.97
470.65	1764.33
471.022	1825.8
471.394	1880.71
471.766	1880.71
472.138	1889.07
472.51	1959.81
472.882	2000.03
473.253	2045
473.625	2056.98
473.997	2142.18
474.369	2161.84
474.74	2184.43
475.112	2264.21
475.484	2363.19
475.855	2378.78
476.227	2415.61
476.598	2464.65
476.97	2510.98
477.341	2616.29
477.713	2629.39
478.084	2706.91
478.455	2795.27
478.827	2853.57
479.198	2954.81
479.569	2990.51
479.94	3131.75
480.311	3170.4
480.682	3246.78
481.053	3387.79
481.424	3479.09
481.795	3531.52
482.166	3627.11
482.537	3698.07
482.908	3837.5
483.279	3865.07
483.65	4014.89
484.021	4151.16
484.391	4226.19
484.762	4308.22
485.133	4395
485.503	4510.93
485.874	4664.37
486.244	4791.82
486.615	4884.7
486.985	5019.39
487.356	5138.93
487.726	5286.5
488.097	5436.78
488.467	5509.77
488.837	5680.61
489.207	5773.49
489.578	5921.06
489.948	6053.48
490.318	6200.6
490.688	6304.1
491.058	6470.2
491.428	6585.67
491.798	6694.37
492.168	6946.12
492.538	7029.73
492.908	7160.35
493.278	7324.64
493.648	7395.37
494.017	7582.94
494.387	7686.44
494.757	7865.87
495.126	7997.61
495.496	8098.63
495.866	8185.86
496.235	8310.37
496.605	8450.03
496.974	8626.98
497.344	8659.52
497.713	8780.19
498.082	8895.9
498.452	9068.55
498.821	9207.07
499.19	9254.76
499.559	9350.57
499.928	9413.62
500.298	9596.44
500.667	9656.78
501.036	9710.34
501.405	9863.78
501.774	9910.11
502.143	10133.38
502.512	10158.46
502.88	10296.09
503.249	10297.67
503.618	10391.9
503.987	10513.03
504.356	10557.32
504.724	10645.68
505.093	10731.33
505.462	10723.87
505.83	10859.46
506.199	11026.01
506.567	11075.27
506.936	11133.8
507.304	11283.63
507.672	11378.09
508.041	11390.29
508.409	11437.75
508.777	11574.02
509.145	11607.01
509.514	11677.52
509.882	11755.71
510.25	11772.66
510.618	11929.94
510.986	11955.7
511.354	11966.32
511.722	12161.12
512.09	12258.52
512.458	12231.18
512.826	12264.62
513.193	12305.98
513.561	12320.21
513.929	12467.33
514.297	12496.71
514.664	12505.52
515.032	12620.09
515.4	12604.73
515.767	12671.62
516.135	12748.68
516.502	12657.61
516.869	12896.47
517.237	12875.68
517.604	12774.89
517.972	12894.89
518.339	13013.53
518.706	13009.46
519.073	13042
519.44	13160.42
519.808	13104.82
520.175	13153.86
520.542	13367.19
520.909	13241.54
521.276	13193.64
521.643	13333.29
522.009	13386.4
522.376	13443.12
522.743	13450.8
523.11	13602.66
523.477	13703
523.843	13644.92
524.21	13767.41
524.577	13829.55
524.943	13826.16
525.31	13818.7
525.676	13878.14
526.043	13826.16
526.409	13908.65
526.776	14024.35
527.142	13974.41
527.508	14062.31
527.874	14001.75
528.241	13978.93
528.607	14034.07
528.973	14125.82
529.339	14021.64
529.705	14147.28
530.071	14153.38
530.437	14139.15
530.803	14214.17
531.169	14234.29
531.535	14125.59
531.901	14148.87
532.267	14125.36
532.632	14204.68
532.998	14117.91
533.364	14145.7
533.73	14181.86
534.095	14210.56
534.461	14195.64
534.826	14158.36
535.192	14216.43
535.557	14182.54
535.923	14160.84
536.288	14213.27
536.653	14106.83
537.019	14025.93
537.384	14052.14
537.749	14038.13
538.114	14078.58
538.479	14001.75
538.845	14065.03
539.21	13926.27
539.575	13925.37
539.94	13877.69
540.305	14021.64
540.67	13858.48
541.034	13873.17
541.399	13787.97
541.764	13838.82
542.129	13787.97
542.494	13694.64
542.858	13739.61
543.223	13706.62
543.587	13713.85
543.952	13593.4
544.316	13614.42
544.681	13632.27
545.045	13551.37
545.41	13578.94
545.774	13570.58
546.138	13506.62
546.503	13512.95
546.867	13446.96
547.231	13448.09
547.595	13433.63
547.959	13427.98
548.324	13307.98
548.688	13364.03
549.052	13307.08
549.416	13293.07
549.779	13247.65
550.143	13228.21
550.507	13193.86
550.871	13166.74
551.235	13084.71
551.599	13103.02
551.962	13152.28
552.326	13096.01
552.689	13069.12
553.053	12966.3
553.417	12994.55
553.78	13207.42
554.143	12953.64
554.507	12957.26
554.87	13006.3
555.234	13054.66
555.597	12949.8
555.96	12960.42
556.323	12906.64
556.686	12802.23
557.05	12870.71
557.413	12943.7
557.776	12885.62
558.139	12926.3
558.502	12993.64
558.865	12868.67
559.228	12814.21
559.59	12868.22
559.953	12912.97
560.316	12983.92
560.679	12900.31
561.041	12932.17
561.404	12925.85
561.767	12958.61
562.129	12898.05
562.492	12942.57
562.854	13020.99
563.217	12927.2
563.579	12938.05
563.941	13007.65
564.304	13004.49
564.666	13077.26
565.028	13039.29
565.39	13107.31
565.753	13020.31
566.115	13078.38
566.477	13018.05
566.839	13030.7
567.201	13179.17
567.563	13161.32
567.925	13190.92
568.287	13263.01
568.648	13171.49
569.01	13175.78
569.372	13234.09
569.734	13124.94
570.095	13249.91
570.457	13327.42
570.819	13247.42
571.18	13275.67
571.542	13293.52
571.903	13314.99
572.265	13254.2
572.626	13375.33
572.987	13325.16
573.349	13313.63
573.71	13385.72
574.071	13402.22
574.432	13279.28
574.794	13489.22
575.155	13328.32
575.516	13350.47
575.877	13433.86
576.238	13384.14
576.599	13426.62
576.96	13446.96
577.32	13419.17
577.681	13570.58
578.042	13462.56
578.403	13547.75
578.763	13487.87
579.124	13469.79
579.485	13546.62
579.845	13566.73
580.206	13572.16
580.566	13420.07
580.927	13467.75
581.287	13493.97
581.648	13387.98
582.008	13507.98
582.368	13459.84
582.728	13472.05
583.089	13422.1
583.449	13492.16
583.809	13477.24
584.169	13545.04
584.529	13460.52
584.889	13587.3
585.249	13436.57
585.609	13468.66
585.969	13492.16
586.329	13372.39
586.688	13505.04
587.048	13399.28
587.408	13387.76
587.768	13491.26
588.127	13394.08
588.487	13322.45
588.846	13409.68
589.206	13332.84
589.565	13300.75
589.925	13359.96
590.284	13311.83
590.643	13294.42
591.003	13396.57
591.362	13290.58
591.721	13291.03
592.08	13328.77
592.44	13406.51
592.799	13329
593.158	13227.08
593.517	13280.41
593.876	13240.41
594.235	13279.96
594.593	13283.8
594.952	13328.55
595.311	13225.27
595.67	13157.25
596.029	13280.64
596.387	13270.24
596.746	13221.88
597.104	13182.11
597.463	13223.01
597.822	13340.98
598.18	13150.93
598.538	13181.43
598.897	13301.2
599.255	13138.04
599.613	13358.83
599.972	13243.8
600.33	13221.43
600.688	13181.43
601.046	13190.02
601.404	13258.27
601.762	13258.72
602.12	13267.76
602.478	13237.25
602.836	13239.28
603.194	13139.4
603.552	13193.64
603.91	13151.15
604.268	13228.21
604.625	13232.05
604.983	13232.51
605.341	13192.05
605.698	13299.17
606.056	13181.43
606.413	13227.53
606.771	13250.13
607.128	13277.48
607.485	13207.87
607.843	13204.48
608.2	13236.8
608.557	13319.06
608.914	13218.04
609.272	13333.97
609.629	13262.33
609.986	13383.46
610.343	13349.79
610.7	13432.73
611.057	13339.62
611.414	13337.59
611.771	13317.02
612.127	13364.25
612.484	13374.87
612.841	13384.82
613.198	13343.69
613.554	13417.59
613.911	13416.91
614.267	13443.35
614.624	13421.2
614.98	13398.6
615.337	13453.74
615.693	13446.74
616.05	13427.75
616.406	13558.37
616.762	13446.74
617.118	13485.15
617.475	13480.86
617.831	13544.36
618.187	13566.96
618.543	13525.38
618.899	13626.17
619.255	13576.45
619.611	13559.28
619.967	13693.28
620.323	13602.44
620.678	13597.69
621.034	13544.14
621.39	13599.28
621.746	13570.12
622.101	13628.2
622.457	13593.63
622.812	13611.48
623.168	13665.04
623.523	13601.08
623.879	13621.42
624.234	13592.5
624.589	13641.99
624.945	13608.99
625.3	13582.55
625.655	13644.25
626.01	13657.35
626.365	13568.09
626.72	13627.98
627.075	13592.72
627.43	13656.45
627.785	13588.88
628.14	13608.77
628.495	13675.88
628.85	13607.18
629.205	13522.22
629.559	13581.42
629.914	13480.18
630.269	13546.85
630.623	13499.84
630.978	13475.44
631.332	13497.58
631.687	13524.47
632.041	13503.01
632.396	13488.09
632.75	13490.8
633.104	13452.16
633.459	13328.32
633.813	13441.77
634.167	13330.58
634.521	13407.42
634.875	13481.09
635.229	13410.35
635.583	13270.24
635.937	13345.72
636.291	13272.73
636.645	13322.67
636.999	13296.46
637.352	13291.26
637.706	13132.62
638.06	13268.89
638.413	13226.4
638.767	13155.9
639.121	13134.43
639.474	13124.71
639.828	13064.37
640.181	13113.64
640.534	13138.72
640.888	13094.43
641.241	13044.71
641.594	13021.21
641.947	13039.52
642.301	13022.34
642.654	13104.15
643.007	13045.62
643.36	13087.65
643.713	12991.38
644.066	13050.14
644.419	13018.73
644.771	12926.52
645.124	12806.3
645.477	12792.97
645.83	12630.94
646.182	12671.84
646.535	12642.92
646.888	12632.52
647.24	12576.7
647.593	12635.23
647.945	12597.95
648.298	12526.08
648.65	12529.47
649.002	12533.54
649.355	12606.98
649.707	12598.17
650.059	12664.16
650.411	12749.13
650.763	12782.57
651.115	12923.13
651.467	12868.9
651.819	12936.92
652.171	12898.28
652.523	12811.5
652.875	12801.1
653.227	12829.58
653.578	12831.61
653.93	12864.83
654.282	12780.54
654.633	12756.81
654.985	12844.94
655.337	12846.98
655.688	12844.04
656.039	12925.17
656.391	12780.54
656.742	12743.7
657.094	12784.61
657.445	12776.92
657.796	12827.09
658.147	12786.64
658.498	12770.14
658.849	12822.57
659.2	12740.77
659.551	12818.28
659.902	12814.89
660.253	12810.82
660.604	12892.85
660.955	12729.02
661.306	12830.93
661.656	12825.28
662.007	12836.81
662.358	12939.86
662.708	12912.97
663.059	12820.76
663.409	12833.42
663.76	12892.4
664.11	12902.57
664.461	12890.82
664.811	12854.66
665.161	12865.96
665.511	12849.46
665.862	12866.64
666.212	12921.1
666.562	12914.32
666.912	12861.67
667.262	12892.85
667.612	12866.87
667.962	12853.31
668.312	12863.7
668.662	12946.41
669.011	12905.06
669.361	12939.86
669.711	12817.37
670.06	12843.36
670.41	12796.81
670.76	12873.87
671.109	12820.54
671.459	12753.65
671.808	12746.19
672.157	12849.24
672.507	12736.02
672.856	12714.1
673.205	12738.73
673.554	12717.49
673.904	12732.63
674.253	12855.34
674.602	12724.95
674.951	12491.51
675.3	12522.92
675.649	12786.64
675.998	12727.43
676.346	12654.44
676.695	12653.76
677.044	12621.67
677.393	12602.24
677.741	12673.65
678.09	12666.87
678.438	12611.05
678.787	12625.29
679.135	12552.98
679.484	12478.85
679.832	12559.75
680.181	12471.4
680.529	12538.29
680.877	12428.23
681.225	12400.89
681.573	12587.1
681.922	12508.91
682.27	12381.68
682.618	12422.81
682.966	12418.74
683.314	12419.65
683.661	12384.17
684.009	12284.73
684.357	12275.24
684.705	12222.36
685.053	12313.43
685.4	12173.1
685.748	12058.3
686.095	12171.06
686.443	12100.78
686.79	11994.57
687.138	12073.89
687.485	12095.81
687.832	11981.69
688.18	12049.03
688.527	11921.81
688.874	11900.56
689.221	11794.35
689.568	11828.47
689.915	11825.31
690.262	11872.77
690.609	11814.01
690.956	11793
691.303	11690.17
691.65	11671.64
691.997	11581.7
692.344	11572.44
692.69	11549.61
693.037	11604.53
693.383	11531.31
693.73	11495.6
694.077	11471.65
694.423	11399.79
694.769	11341.48
695.116	11233.01
695.462	11285.21
695.808	11194.14
696.155	11195.5
696.501	11130.19
696.847	11089.51
697.193	11028.04
697.539	11049.29
697.885	10986.91
698.231	10905.79
698.577	10970.64
698.923	10909.85
699.269	10798.22
699.614	10788.95
699.96	10835.51
700.306	10740.82
700.651	10760.03
700.997	10725
701.342	10628.51
701.688	10581.73
702.033	10560.03
702.379	10546.47
702.724	10461.96
703.069	10530.88
703.415	10441.62
703.76	10441.62
704.105	10345.8
704.45	10299.93
704.795	10312.58
705.14	10247.72
705.485	10198.46
705.83	10144.9
706.175	10158.24
706.52	10129.99
706.865	10133.83
707.209	10105.36
707.554	10037.33
707.899	10114.85
708.243	10043.44
708.588	9930.67
708.932	9921.18
709.277	9880.05
709.621	9868.07
709.966	9866.04
710.31	9856.32
710.654	9781.07
710.998	9692.71
711.342	9791.24
711.687	9735.42
712.031	9749.88
712.375	9625.59
712.719	9638.93
713.063	9671.69
713.407	9703.11
713.75	9596.44
714.094	9626.5
714.438	9527.07
714.782	9591.02
715.125	9492.04
715.469	9493.85
715.812	9506.95
716.156	9443.23
716.499	9495.88
716.843	9434.41
717.186	9379.27
717.53	9445.94
717.873	9456.11
718.216	9423.11
718.559	9362.1
718.902	9343.34
719.246	9322.1
719.589	9287.52
719.932	9273.06
720.275	9307.86
720.617	9277.35
720.96	9206.62
721.303	9304.47
721.646	9199.62
721.989	9212.5
722.331	9216.34
722.674	9167.3
723.016	9200.75
723.359	9200.52
723.701	9205.94
724.044	9137.02
724.386	9096.79
724.729	9145.16
725.071	9164.59
725.413	9144.93
725.755	9058.6
726.097	9082.33
726.439	8988.32
726.782	9056.12
727.124	9074.87
727.465	9032.62
727.807	9075.1
728.149	9055.21
728.491	8974.99
728.833	9016.8
729.175	9004.37
729.516	9033.75
729.858	9027.42
730.199	9032.16
730.541	8984.48
730.882	9009.79
731.224	9037.14
731.565	9027.42
731.906	9019.06
732.248	9038.49
732.589	8964.14
732.93	9026.74
733.271	8970.24
733.612	9043.24
733.953	9008.66
734.294	8978.38
734.635	8994.2
734.976	8966.85
735.317	8963.24
735.658	9055.67
735.999	8997.81
736.339	8979.96
736.68	8972.5
737.021	8960.08
737.361	8963.01
737.702	8991.94
738.042	8985.84
738.383	9020.19
738.723	9012.5
739.063	9037.36
739.404	8993.29
739.744	9001.2
740.084	9044.14
740.424	9053.18
740.764	9145.38
741.104	9138.6
741.444	9069
741.784	9119.17
742.124	9086.85
742.464	9121.65
742.804	9047.08
743.143	9188.32
743.483	9182.22
743.823	9116
744.162	9116.91
744.502	9202.55
744.841	9217.47
745.181	9285.49
745.52	9298.15
745.86	9295.66
746.199	9311.93
746.538	9365.49
746.877	9499.5
747.216	9557.12
747.556	9599.61
747.895	9568.19
748.234	9555.31
748.573	9682.77
748.911	9690
749.25	9792.6
749.589	9828.98
749.928	9861.52
750.267	9961.86
750.605	10041.4
750.944	10071.46
751.283	10158.01
751.621	10268.06
751.96	10318.68
752.298	10451.34
752.636	10571.33
752.975	10587.38
753.313	10675.28
753.651	10819.69
753.989	10877.76
754.327	11092.45
754.666	11083.18
755.004	11212.22
755.342	11397.98
755.679	11430.97
756.017	11587.35
756.355	11788.25
756.693	11819.66
757.031	12046.32
757.368	12028.7
757.706	12158.41
758.044	12402.7
758.381	12529.02
758.719	12681.56
759.056	12769.92
759.394	13019.18
759.731	13057.59
760.068	13227.99
760.405	13396.79
760.743	13505.27
761.08	13696
761.417	13853.73
761.754	13958.36
762.091	14175.31
762.428	14239.94
762.765	14405.36
763.102	14625.24
763.438	14769.64
763.775	14798.34
764.112	15047.15
764.449	15208.72
764.785	15376.63
765.122	15390.41
765.458	15596.51
765.795	15784.3
766.131	15852.78
766.467	15963.96
766.804	16070.62
767.14	16290.5
767.476	16459.76
767.812	16499.09
768.148	16752.64
768.485	16716.03
768.821	16797.61
769.157	16993.99
769.492	17093.42
769.828	17203.7
770.164	17263.59
770.5	17370.93
770.836	17423.13
771.171	17448.21
771.507	17600.98
771.842	17671.03
772.178	17858.15
772.513	17882.1
772.849	17904.02
773.184	18001.65
773.519	18091.13
773.855	18083
774.19	18153.73
774.525	18196.22
774.86	18330.68
775.195	18310.79
775.53	18312.82
775.865	18450
776.2	18384.23
776.535	18389.43
776.87	18420.17
777.205	18494.51
777.539	18451.13
777.874	18594.62
778.209	18549.65
778.543	18529.77
778.878	18562.53
779.212	18649.09
779.547	18633.95
779.881	18632.59
780.215	18699.25
780.55	18668.52
780.884	18648.18
781.218	18672.36
781.552	18753.49
781.886	18626.94
782.22	18723.89
782.554	18618.8
782.888	18544
783.222	18558.01
783.556	18493.16
783.889	18657.22
784.223	18442.31
784.557	18496.1
784.89	18522.99
785.224	18459.03
785.557	18344.24
785.891	18383.1
786.224	18466.72
786.558	18364.57
786.891	18318.25
787.224	18334.74
787.557	18418.81
787.891	18299.26
788.224	18242.77
788.557	18354.86
788.89	18299.94
789.223	18215.88
789.556	18118.25
789.888	18136.33
790.221	18098.59
790.554	17990.8
790.887	17993.06
791.219	17977.47
791.552	17983.11
791.884	17853.17
792.217	17782.89
792.549	17849.78
792.882	17840.75
793.214	17751.03
793.546	17827.64
793.879	17656.8
794.211	17625.38
794.543	17730.47
794.875	17612.05
795.207	17646.85
795.539	17515.56
795.871	17602.33
796.203	17342.91
796.535	17282.34
796.867	17333.87
797.198	17201.21
797.53	17246.64
797.862	17219.74
798.193	17246.41
798.525	17105.4
798.856	17157.83
799.188	16981.79
799.519	16960.54
799.85	16901.56
800.182	16920.32
800.513	16935.23
800.844	16756.93
801.175	16916.02
801.506	16911.5
801.837	16708.12
802.168	16702.7
802.499	16651.85
802.83	16586.77
803.161	16638.74
803.491	16564.17
803.822	16567.11
804.153	16432.87
804.483	16448.47
804.814	16345.19
805.145	16383.38
805.475	16252.54
805.805	16203.05
806.136	16239.88
806.466	16181.81
806.796	16228.36
807.126	16169.38
807.457	16088.02
807.787	16103.39
808.117	16132.32
808.447	15953.56
808.777	16081.02
809.107	15888.25
809.436	15844.87
809.766	15815.71
810.096	15827.01
810.426	15846.45
810.755	15810.06
811.085	15706.79
811.414	15631.76
811.744	15575.04
812.073	15561.03
812.403	15492.56
812.732	15483.97
813.061	15528.72
813.39	15458.21
813.719	15463.63
814.049	15465.67
814.378	15466.57
814.707	15403.07
815.036	15290.08
815.365	15258.21
815.693	15167.14
816.022	15152.68
816.351	15131.21
816.68	15070.42
817.008	15062.51
817.337	14951.56
817.665	15057.77
817.994	15040.59
818.322	15022.74
818.651	14882.18
818.979	14780.49
819.307	14867.49
819.636	14852.35
819.964	14843.99
820.292	14836.76
820.62	14828.85
820.948	14924.66
821.276	14853.93
821.604	14825.91
821.932	14827.04
822.259	14813.71
822.587	14827.49
822.915	14747.95
823.243	14705.91
823.57	14829.75
823.898	14792.24
824.225	14752.69
824.553	14734.61
824.88	14743.88
825.207	14863.42
825.535	14735.06
825.862	14817.77
826.189	14885.57
826.516	14831.33
826.843	14876.3
827.17	14839.47
827.497	14876.3
827.824	14886.7
828.151	14784.78
828.478	14706.36
828.805	14872.91
829.131	14714.95
829.458	14770.54
829.785	14688.96
830.111	14708.17
830.438	14733.71
830.764	14752.01
831.09	14773.26
831.417	14688.96
831.743	14765.8
832.069	14787.72
832.395	14684.22
832.722	14788.62
833.048	14646.93
833.374	14711.34
833.7	14667.95
834.026	14658.68
834.351	14696.87
834.677	14684.9
835.003	14628.63
835.329	14670.66
835.654	14681.05
835.98	14623.88
836.306	14690.77
836.631	14509.76
836.956	14649.42
837.282	14574.84
837.607	14629.3
837.932	14519.48
838.258	14526.93
838.583	14460.04
838.908	14408.75
839.233	14442.42
839.558	14469.76
839.883	14332.82
840.208	14306.15
840.533	14345.24
840.858	14230.9
841.182	14325.36
841.507	14275.19
841.832	14174.63
842.156	14121.75
842.481	14172.14
842.805	14181.41
843.13	14063.44
843.454	14136.21
843.778	13973.28
844.103	13950
844.427	13889.44
844.751	13978.93
845.075	13872.71
845.399	13851.25
845.723	13818.48
846.047	13788.42
846.371	13651.93
846.695	13685.15
847.019	13606.28
847.343	13581.2
847.666	13445.61
847.99	13487.64
848.313	13349.34
848.637	13282.67
848.96	13365.16
849.284	13303.69
849.607	13132.17
849.931	13133.98
850.254	13050.36
850.577	12957.94
850.9	12944.38
851.223	12928.33
851.546	12809.47
851.869	12769.92
852.192	12783.7
852.515	12657.83
852.838	12635.46
853.161	12656.02
853.483	12630.04
853.806	12542.81
854.129	12409.48
854.451	12402.92
854.774	12324.51
855.096	12310.27
855.419	12332.64
855.741	12285.86
856.063	12201.57
856.385	12186.66
856.708	12148.69
857.03	12120.44
857.352	12112.31
857.674	12045.42
857.996	11971.75
858.318	12042.48
858.64	11917.51
858.961	11941.24
859.283	11855.82
859.605	11832.54
859.926	11863.28
860.248	11823.95
860.57	11740.79
860.891	11816.95
861.212	11662.6
861.534	11663.51
861.855	11640.68
862.176	11604.3
862.498	11667.12
862.819	11695.14
863.14	11616.5
863.461	11573.34
863.782	11526.56
864.103	11459.22
864.424	11496.73
864.745	11457.86
865.065	11463.96
865.386	11403.63
865.707	11352.33
866.027	11407.24
866.348	11403.85
866.668	11327.47
866.989	11340.35
867.309	11207.93
867.63	11233.91
867.95	11286.12
868.27	11154.82
868.59	11168.83
868.91	11199.11
869.23	11224.87
869.55	11087.48
869.87	11272.1
870.19	11046.35
870.51	11117.53
870.83	11085.67
871.15	11043.64
871.469	11103.97
871.789	11037.76
872.109	11053.81
872.428	10921.61
872.748	10961.6
873.067	10946.24
873.386	10975.16
873.706	10943.75
874.025	10874.6
874.344	10820.59
874.663	10882.74
874.982	10811.33
875.301	10886.13
875.62	10856.97
875.939	10794.83
876.258	10817.2
876.577	10803.19
876.896	10750.54
877.214	10728.62
877.533	10733.81
877.852	10665.12
878.17	10664.44
878.489	10656.3
878.807	10688.84
879.125	10595.06
879.444	10632.12
879.762	10574.27
880.08	10632.35
880.398	10492.01
880.716	10499.7
881.034	10454.05
881.352	10423.54
881.67	10416.76
881.988	10426.7
882.306	10416.76
882.624	10387.83
882.941	10306.25
883.259	10286.82
883.577	10283.43
883.894	10299.25
884.212	10301.96
884.529	10173.38
884.846	10202.98
885.164	10242.75
885.481	10163.43
885.798	10205.01
886.115	10108.75
886.432	10082.98
886.75	10036.43
887.067	10139.03
887.383	10088.63
887.7	10090.44
888.017	9995.75
888.334	9993.95
888.651	9955.53
888.967	9900.84
889.284	9875.31
889.6	9893.84
889.917	9796.44
890.233	9811.8
890.55	9751.92
890.866	9797.34
891.182	9730.45
891.498	9746.72
891.815	9705.82
892.131	9653.84
892.447	9549.89
892.763	9568.65
893.079	9520.74
893.395	9544.92
893.71	9552.15
894.026	9505.15
894.342	9457.92
894.657	9401.87
894.973	9408.42
895.289	9436.67
895.604	9328.2
895.92	9249.79
896.235	9214.31
896.55	9185.83
896.865	9146.28
897.181	9162.78
897.496	9150.35
897.811	9082.11
898.126	9095.66
898.441	9065.61
898.756	9029.45
899.071	8918.72
899.386	8978.38
899.7	8882.11
900.015	8812.06
900.33	8769.8
900.644	8870.81
900.959	8723.92
901.273	8736.58
901.588	8615
901.902	8612.06
902.216	8586.3
902.531	8632.85
902.845	8601.21
903.159	8536.58
903.473	8498.62
903.787	8494.55
904.101	8448.9
904.415	8450.48
904.729	8358.06
905.042	8369.58
905.356	8300.43
905.67	8345.18
905.984	8345.18
906.297	8255.01
906.611	8218.85
906.924	8081
907.237	8133.2
907.551	8103.6
907.864	8011.4
908.177	8020.66
908.491	8031.29
908.804	7927.11
909.117	7949.71
909.43	7851.63
909.743	7912.87
910.056	7853.66
910.368	7831.07
910.681	7797.62
910.994	7766.89
911.307	7651.86
911.619	7661.13
911.932	7675.82
912.244	7638.98
912.557	7615.7
912.869	7533.22
913.181	7541.58
913.494	7476.95
913.806	7414.13
914.118	7405.09
914.43	7369.16
914.742	7392.21
915.054	7306.33
915.366	7303.62
915.678	7247.8
915.99	7268.82
916.302	7193.57
916.613	7129.84
916.925	7131.2
917.236	7123.51
917.548	7103.4
917.859	7064.98
918.171	7007.81
918.482	7008.94
918.794	6984.31
919.105	6940.47
919.416	6913.35
919.727	6870.86
920.038	6904.31
920.349	6835.39
920.66	6762.39
920.971	6829.51
921.282	6782.73
921.593	6682.85
921.903	6644.43
922.214	6693.47
922.525	6636.75
922.835	6653.24
923.146	6573.47
923.456	6591.78
923.767	6530.53
924.077	6517.2
924.387	6471.78
924.697	6418.9
925.008	6481.04
925.318	6387.49
925.628	6432.01
925.938	6320.6
926.248	6310.43
926.558	6300.26
926.867	6300.26
927.177	6201.96
927.487	6203.09
927.796	6173.48
928.106	6161.28
928.416	6130.32
928.725	6127.38
929.034	6092.13
929.344	6097.33
929.653	6029.76
929.962	6029.3
930.271	6044.22
930.581	6003.09
930.89	5947.95
931.199	5881.06
931.508	5875.41
931.817	5915.18
932.125	5845.81
932.434	5879.48
932.743	5785.92
933.051	5722.42
933.36	5737.34
933.669	5693.27
933.977	5718.13
934.286	5673.38
934.594	5693.49
934.902	5635.87
935.21	5587.96
935.519	5588.41
935.827	5595.19
936.135	5532.82
936.443	5517.45
936.751	5442.88
937.059	5450.34
937.367	5433.39
937.674	5409.89
937.982	5397.68
938.29	5366.72
938.597	5364.92
938.905	5310
939.213	5320.4
939.52	5313.17
939.827	5294.63
940.135	5260.51
940.442	5248.08
940.749	5160.63
941.056	5246.5
941.363	5151.59
941.67	5154.53
941.977	5105.71
942.284	5073.85
942.591	5046.05
942.898	5057.8
943.205	5023
943.511	5015.77
943.818	4972.16
944.125	4950.69
944.431	4951.14
944.738	4970.8
945.044	4914.31
945.35	4886.74
945.657	4822.33
945.963	4797.7
946.269	4790.47
946.575	4780.75
946.881	4803.12
947.187	4745.95
947.493	4718.15
947.799	4715.67
948.105	4662.56
948.41	4628.21
948.716	4635.9
949.022	4601.77
949.327	4615.33
949.633	4543.47
949.938	4556.35
950.244	4566.52
950.549	4532.39
950.854	4441.78
951.16	4514.99
951.465	4517.25
951.77	4424.83
952.075	4451.04
952.38	4459.63
952.685	4412.85
952.99	4359.52
953.294	4360.42
953.599	4344.15
953.904	4315.9
954.209	4319.52
954.513	4322.23
954.818	4303.7
955.122	4234.78
955.426	4254.89
955.731	4268.9
956.035	4166.3
956.339	4151.84
956.643	4168.11
956.948	4142.12
957.252	4121.11
957.556	4144.16
957.86	4078.85
958.163	4075.46
958.467	4060.99
958.771	4048.34
959.075	4045.18
959.378	3987.32
959.682	3982.8
959.985	3982.8
960.289	3938.74
960.592	3954.78
960.896	3909.13
961.199	3913.2
961.502	3870.49
961.805	3836.37
962.108	3838.4
962.411	3844.73
962.714	3802.47
963.017	3816.71
963.32	3790.04
963.623	3765.41
963.926	3764.28
964.228	3753.88
964.531	3739.42
964.833	3681.12
965.136	3667.56
965.438	3651.51
965.741	3663.04
966.043	3616.03
966.345	3648.12
966.648	3613.32
966.95	3620.33
967.252	3568.13
967.554	3534.68
967.856	3549.37
968.158	3544.4
968.46	3505.3
968.761	3449.94
969.063	3503.95
969.365	3489.48
969.666	3496.26
969.968	3444.74
970.269	3416.72
970.571	3431.18
970.872	3378.3
971.174	3374.46
971.475	3402.26
971.776	3396.38
972.077	3316.61
972.378	3326.78
972.679	3320.9
972.98	3297.63
973.281	3274.8
973.582	3264.63
973.883	3270.28
974.183	3258.08
974.484	3184.86
974.785	3232.09
975.085	3250.85
975.386	3199.32
975.686	3173.79
975.986	3164.52
976.287	3130.4
976.587	3092.66
976.887	3145.09
977.187	3102.15
977.487	3090.4
977.787	3059.89
978.087	3062.38
978.387	3045.65
978.687	3060.57
978.987	3039.33
979.286	2964.75
979.586	3005.43
979.885	2957.97
980.185	2961.36
980.484	2911.19
980.784	2929.05
981.083	2928.37
981.382	2906.22
981.682	2891.08
981.981	2872.55
982.28	2870.74
982.579	2842.72
982.878	2853.34
983.177	2841.59
983.475	2829.61
983.774	2774.7
984.073	2811.54
984.372	2785.1
984.67	2758.2
984.969	2775.38
985.267	2769.73
985.566	2715.72
985.864	2741.93
986.162	2721.6
986.461	2706.68
986.759	2687.02
987.057	2662.61
987.355	2623.97
987.653	2673.23
987.951	2659.22
988.249	2615.38
988.547	2595.72
988.844	2598.43
989.142	2581.94
989.44	2591.2
989.737	2544.65
990.035	2546.23
990.332	2529.51
990.63	2546.46
990.927	2533.35
991.224	2490.41
991.521	2522.73
991.819	2475.73
992.116	2445.44
992.413	2444.09
992.71	2412.68
993.006	2437.31
993.303	2404.99
993.6	2419.46
993.897	2411.55
994.193	2419
994.49	2339.01
994.787	2352.79
995.083	2348.95
995.379	2355.73
995.676	2360.93
995.972	2327.03
996.268	2319.35
996.565	2285.9
996.861	2277.54
997.157	2264.66
997.453	2265.79
997.749	2294.26
998.044	2220.14
998.34	2241.38
998.636	2218.33
998.932	2202.29
999.227	2179.91
999.523	2176.52
999.818	2208.84
1000.114	2167.94
1000.409	2184.21
1000.704	2159.8
1001	2136.3
1001.295	2140.82
1001.59	2132.68
1001.885	2103.76
1002.18	2106.02
1002.475	2099.92
1002.77	2067.38
1003.065	2063.53
1003.359	2045.68
1003.654	2005.68
1003.949	2028.96
1004.243	2022.86
1004.538	1981.5
1004.832	1965.46
1005.127	1975.4
1005.421	1961.62
1005.715	1950.09
1006.009	1939.47
1006.304	1901.96
1006.598	1904.22
1006.892	1890.88
1007.186	1909.64
1007.48	1869.19
1007.773	1899.02
1008.067	1877.32
1008.361	1855.18
1008.655	1842.97
1008.948	1838.23
1009.242	1851.79
1009.535	1840.26
1009.829	1797.33
1010.122	1784.9
1010.415	1805.69
1010.708	1767.27
1011.001	1756.42
1011.295	1745.12
1011.588	1758.91
1011.881	1701.96
1012.173	1704.22
1012.466	1688.63
1012.759	1686.59
1013.052	1690.89
1013.344	1687.72
1013.637	1666.26
1013.93	1662.87
1014.222	1692.47
1014.514	1670.1
1014.807	1620.16
1015.099	1634.62
1015.391	1586.03
1015.683	1617.22
1015.976	1581.29
1016.268	1592.36
1016.56	1586.26
1016.851	1553.94
1017.143	1523.21
1017.435	1553.26
1017.727	1542.87
1018.018	1497.9
1018.31	1493.83
1018.602	1513.72
1018.893	1498.8
1019.185	1477.33
1019.476	1459.48
1019.767	1447.96
1020.058	1441.63
1020.35	1463.32
1020.641	1461.74
1020.932	1449.09
1021.223	1409.77
1021.514	1385.59
1021.804	1423.55
1022.095	1388.07
1022.386	1396.88
1022.677	1362.53
1022.967	1364.57
1023.258	1351.91
1023.548	1365.7
1023.839	1371.12
1024.129	1350.56
1024.419	1337.22
1024.709	1323.44
1025	1301.75
1025.29	1273.95
1025.58	1293.16
1025.87	1275.31
1026.16	1276.89
1026.449	1254.97
1026.739	1273.27
1027.029	1247.96
1027.319	1247.51
1027.608	1245.7
1027.898	1239.37
1028.187	1219.49
1028.477	1201.18
1028.766	1193.95
1029.055	1196.66
1029.344	1192.14
1029.634	1172.94
1029.923	1166.38
1030.212	1137.68
1030.501	1161.86
1030.79	1157.34
1031.078	1146.72
1031.367	1143.33
1031.656	1115.76
1031.945	1123.45
1032.233	1112.37
1032.522	1123.22
1032.81	1089.32
1033.099	1090.68
1033.387	1091.36
1033.675	1068.08
1033.963	1062.43
1034.251	1090
1034.54	1049.32
1034.828	1032.37
1035.116	1034.63
1035.403	1044.13
1035.691	1033.96
1035.979	1012.49
1036.267	1018.59
1036.554	1015.2
1036.842	981.75
1037.129	989.66
1037.417	972.04
1037.704	972.94
1037.992	972.49
1038.279	974.07
1038.566	977.23
1038.853	977.23
1039.14	977.23
