Data from hue_100_FLMS001491_00010.txt Node
Date: Tue Feb 07 17:02:35 GMT 2017
User: dcchb
Spectrometer: FLMS00149
Trigger mode: 0
Integration Time (sec): 2.000000E-2
Scans to average: 10
Electric dark correction enabled: true
Nonlinearity correction enabled: false
Boxcar width: 0
XAxis mode: Wavelengths
Number of Pixels in Spectrum: 2048
>>>>>Begin Spectral Data<<<<<
341.393	-10.58
341.776	-10.58
342.16	-10.58
342.543	-80.86
342.927	-54.87
343.31	-73.4
343.693	-63.01
344.077	-67.07
344.46	-70.69
344.843	-67.07
345.226	-32.95
345.61	-38.6
345.993	-9
346.376	-10.13
346.759	20.15
347.142	45.69
347.525	59.7
347.908	53.37
348.291	57.89
348.674	100.6
349.057	94.5
349.44	121.17
349.823	154.39
350.206	163.65
350.588	203.65
350.971	196.65
351.354	219.02
351.737	248.17
352.119	266.7
352.502	247.49
352.884	266.93
353.267	302.18
353.65	276.65
354.032	288.17
354.414	312.35
354.797	320.49
355.179	324.33
355.562	329.3
355.944	313.71
356.326	338.11
356.709	354.61
357.091	333.59
357.473	332.91
357.855	330.66
358.238	342.41
358.62	330.2
359.002	342.18
359.384	342.18
359.766	324.1
360.148	348.51
360.53	355.97
360.912	331.11
361.294	352.58
361.676	342.63
362.057	329.07
362.439	330.66
362.821	326.36
363.203	344.21
363.584	326.14
363.966	334.95
364.348	321.62
364.729	316.42
365.111	321.16
365.493	301.73
365.874	310.09
366.256	308.96
366.637	326.36
367.019	318.9
367.4	321.39
367.781	309.19
368.163	321.84
368.544	312.12
368.925	325.46
369.306	326.36
369.688	315.29
370.069	335.4
370.45	305.57
370.831	307.38
371.212	321.62
371.593	325.46
371.974	297.66
372.355	313.03
372.736	338.79
373.117	318.68
373.498	321.39
373.879	320.26
374.26	307.6
374.641	309.86
375.021	322.75
375.402	305.12
375.783	316.42
376.163	328.85
376.544	341.28
376.925	325.91
377.305	339.24
377.686	327.49
378.066	342.86
378.447	350.09
378.827	325.23
379.208	329.98
379.588	328.62
379.968	338.79
380.349	344.44
380.729	348.28
381.109	357.1
381.489	373.37
381.87	343.08
382.25	345.12
382.63	347.15
383.01	356.19
383.39	348.06
383.77	355.74
384.15	374.27
384.53	374.72
384.91	338.34
385.29	342.86
385.67	366.81
386.049	366.59
386.429	371.56
386.809	363.2
387.189	367.72
387.568	367.04
387.948	354.38
388.328	389.86
388.707	380.82
389.087	351.22
389.466	379.24
389.846	376.76
390.225	391.44
390.605	373.82
390.984	396.19
391.363	398.45
391.743	372.91
392.122	392.57
392.501	374.5
392.881	391.22
393.26	403.2
393.639	386.47
394.018	387.38
394.397	396.42
394.776	396.87
395.155	396.19
395.534	395.51
395.913	403.42
396.292	388.28
396.671	401.16
397.05	414.95
397.429	392.57
397.808	413.59
398.186	395.74
398.565	400.26
398.944	407.49
399.323	418.34
399.701	421.73
400.08	423.76
400.458	407.94
400.837	440.03
401.215	423.53
401.594	422.18
401.972	435.29
402.351	412.69
402.729	414.27
403.107	438.22
403.486	441.16
403.864	440.48
404.242	437.54
404.62	433.93
404.999	461.95
405.377	450.65
405.755	434.38
406.133	452.91
406.511	454.72
406.889	451.33
407.267	458.34
407.645	466.7
408.023	470.99
408.401	475.28
408.779	479.35
409.156	494.94
409.534	484.55
409.912	470.99
410.29	485.91
410.667	486.58
411.045	480.48
411.422	480.93
411.8	487.04
412.178	522.74
412.555	513.02
412.933	493.81
413.31	504.89
413.687	517.77
414.065	528.62
414.442	526.36
414.819	527.26
415.197	526.58
415.574	561.16
415.951	546.92
416.328	569.52
416.705	569.52
417.082	572
417.46	545.79
417.837	568.16
418.214	586.69
418.591	574.26
418.967	569.52
419.344	563.42
419.721	589.63
420.098	574.26
420.475	579.46
420.852	586.02
421.228	579.24
421.605	602.51
421.982	604.77
422.358	604.55
422.735	588.5
423.111	600.93
423.488	628.27
423.864	621.27
424.241	647.71
424.617	646.58
424.994	658.1
425.37	629.18
425.746	658.56
426.123	640.25
426.499	656.75
426.875	653.81
427.251	669.63
427.627	667.14
428.003	698.1
428.379	684.77
428.756	679.35
429.132	700.36
429.507	722.51
429.883	733.36
430.259	703.75
430.635	737.42
431.011	739.23
431.387	730.42
431.763	717.76
432.138	755.28
432.514	750.76
432.89	757.99
433.265	771.1
433.641	784.88
434.016	779.23
434.392	783.3
434.767	781.72
435.143	843.41
435.518	837.76
435.894	812.45
436.269	812.45
436.644	819.91
437.02	827.37
437.395	843.18
437.77	857.87
438.145	868.27
438.52	860.58
438.895	902.39
439.271	894.26
439.646	884.76
440.021	901.71
440.395	922.96
440.77	906.01
441.145	902.39
441.52	916.4
441.895	917.53
442.27	916.4
442.645	941.71
443.019	982.84
443.394	939
443.769	954.59
444.143	940.81
444.518	979.45
444.892	982.62
445.267	988.72
445.641	1013.58
446.016	986.46
446.39	991.2
446.764	1014.7
447.139	1012.9
447.513	1000.69
447.887	1021.48
448.262	1025.1
448.636	1039.56
449.01	1019.9
449.384	1054.93
449.758	1049.51
450.132	1089.73
450.506	1070.07
450.88	1093.57
451.254	1101.93
451.628	1129.28
452.002	1117.75
452.376	1131.09
452.75	1118.66
453.123	1147.81
453.497	1151.88
453.871	1163.4
454.244	1178.77
454.618	1191.42
454.992	1214.93
455.365	1211.76
455.739	1235.49
456.112	1254.02
456.486	1257.18
456.859	1284.3
457.232	1308.48
457.606	1290.18
457.979	1322.27
458.352	1316.17
458.725	1352.78
459.099	1407.46
459.472	1384.19
459.845	1429.84
460.218	1409.72
460.591	1443.17
460.964	1421.47
461.337	1475.26
461.71	1500.79
462.083	1503.05
462.456	1520.91
462.829	1515.93
463.201	1532.88
463.574	1564.52
463.947	1588.7
464.32	1623.05
464.692	1636.16
465.065	1678.87
465.438	1692.65
465.81	1709.15
466.183	1738.98
466.555	1765.19
466.928	1798.41
467.3	1795.25
467.672	1791.63
468.045	1863.5
468.417	1893.55
468.789	1890.16
469.161	1928.58
469.534	1975.81
469.906	2046.09
470.278	2040.21
470.65	2068.46
471.022	2113.43
471.394	2185.07
471.766	2217.84
472.138	2213.09
472.51	2278.85
472.882	2317.27
473.253	2397.27
473.625	2442.69
473.997	2469.58
474.369	2534.44
474.74	2585.74
475.112	2635
475.484	2668.45
475.855	2749.8
476.227	2788.9
476.598	2934.2
476.97	2937.59
477.341	3007.19
477.713	3061.88
478.084	3125.61
478.455	3240.41
478.827	3293.29
479.198	3399.05
479.569	3466.17
479.94	3580.51
480.311	3623.45
480.682	3772.6
481.053	3830.22
481.424	3957.45
481.795	4004
482.166	4159.26
482.537	4217.33
482.908	4335.3
483.279	4425.91
483.65	4567.15
484.021	4693.48
484.391	4814.83
484.762	4913.13
485.133	4975.28
485.503	5141.83
485.874	5342.73
486.244	5420.24
486.615	5509.28
486.985	5652.1
487.356	5798.99
487.726	5973.22
488.097	6139.09
488.467	6151.29
488.837	6391.51
489.207	6517.84
489.578	6676.7
489.948	6793.76
490.318	6960.09
490.688	7041.89
491.058	7249.34
491.428	7481.2
491.798	7531.37
492.168	7803.68
492.538	7864.69
492.908	8094.74
493.278	8167.96
493.648	8283.67
494.017	8454.06
494.387	8603.66
494.757	8725.91
495.126	8837.78
495.496	9029.64
495.866	9120.71
496.235	9219.23
496.605	9423.98
496.974	9508.49
497.344	9666
497.713	9823.51
498.082	9949.84
498.452	10058.08
498.821	10169.94
499.19	10298.3
499.559	10431.63
499.928	10511.18
500.298	10666.43
500.667	10863.03
501.036	10874.78
501.405	10999.3
501.774	11053.09
502.143	11220.76
502.512	11279.07
502.88	11406.75
503.249	11466.18
503.618	11595.22
503.987	11719.96
504.356	11819.17
504.724	11890.8
505.093	11938.94
505.462	12013.74
505.83	12102.55
506.199	12235.65
506.567	12452.6
506.936	12474.74
507.304	12583.89
507.672	12688.07
508.041	12731.69
508.409	12891.45
508.777	12991.34
509.145	13034.73
509.514	12972.36
509.882	13099.81
510.25	13258
510.618	13266.36
510.986	13390.88
511.354	13395.62
511.722	13604.2
512.09	13608.5
512.458	13633.36
512.826	13768.95
513.193	13872.67
513.561	13846.91
513.929	13940.92
514.297	14004.65
514.664	14127.35
515.032	14206.22
515.4	14303.4
515.767	14285.09
516.135	14382.49
516.502	14218.88
516.869	14550.85
517.237	14599.43
517.604	14513.79
517.972	14657.96
518.339	14717.17
518.706	14676.27
519.073	14732.99
519.44	14744.06
519.808	14890.5
520.175	14875.58
520.542	14986.99
520.909	15046.43
521.276	15064.96
521.643	15212.75
522.009	15168.01
522.376	15208.46
522.743	15295.91
523.11	15418.17
523.477	15506.75
523.843	15471.5
524.21	15594.89
524.577	15673.53
524.943	15645.51
525.31	15725.05
525.676	15822.9
526.043	15782.9
526.409	15883.92
526.776	15934.54
527.142	15963.69
527.508	15922.34
527.874	16086.63
528.241	16090.47
528.607	15938.15
528.973	16141.31
529.339	16167.98
529.705	16148.32
530.071	16210.92
530.437	16239.16
530.803	16269.22
531.169	16344.47
531.535	16270.12
531.901	16227.41
532.267	16283.68
532.632	16246.17
532.998	16275.09
533.364	16332.04
533.73	16353.51
534.095	16403.9
534.461	16328.65
534.826	16384.02
535.192	16271.03
535.557	16395.77
535.923	16383.34
536.288	16390.57
536.653	16395.77
537.019	16288.2
537.384	16179.05
537.749	16317.13
538.114	16323.45
538.479	16221.99
538.845	16270.35
539.21	16123.01
539.575	16217.47
539.94	16206.17
540.305	16147.41
540.67	16144.02
541.034	16153.74
541.399	16133.63
541.764	16103.12
542.129	16102.44
542.494	16055.67
542.858	16104.93
543.223	16018.38
543.587	16028.1
543.952	15960.75
544.316	15971.15
544.681	15927.53
545.045	15937.25
545.41	15953.3
545.774	15921.66
546.138	15865.61
546.503	15774.77
546.867	15897.93
547.231	15754.2
547.595	15764.37
547.959	15730.93
548.324	15765.73
548.688	15715.34
549.052	15697.93
549.416	15647.99
549.779	15554.44
550.143	15532.74
550.507	15597.82
550.871	15586.3
551.235	15511.72
551.599	15594.89
551.962	15492.74
552.326	15429.24
552.689	15452.74
553.053	15408.22
553.417	15407.09
553.78	15474.66
554.143	15426.08
554.507	15456.59
554.87	15362.35
555.234	15577.94
555.597	15448.45
555.96	15442.8
556.323	15368.23
556.686	15409.81
557.05	15424.5
557.413	15401.67
557.776	15462.01
558.139	15435.12
558.502	15356.7
558.865	15371.39
559.228	15475.34
559.59	15530.93
559.953	15433.99
560.316	15496.58
560.679	15431.5
561.041	15445.29
561.404	15509.47
561.767	15497.04
562.129	15534.55
562.492	15594.66
562.854	15521.44
563.217	15531.16
563.579	15542.01
563.941	15633.76
564.304	15647.77
564.666	15654.32
565.028	15612.29
565.39	15676.69
565.753	15698.61
566.115	15788.55
566.477	15746.52
566.839	15775.9
567.201	15877.82
567.563	15804.82
567.925	15821.1
568.287	15910.36
568.648	15951.49
569.01	15913.97
569.372	15956.23
569.734	15901.32
570.095	16042.56
570.457	16031.26
570.819	16031.94
571.18	15970.24
571.542	16012.28
571.903	16072.39
572.265	16129.56
572.626	16175.89
572.987	16174.98
573.349	16106.06
573.71	16206.4
574.071	16227.64
574.432	16152.39
574.794	16300.4
575.155	16249.11
575.516	16092.95
575.877	16263.34
576.238	16235.77
576.599	16289.33
576.96	16291.14
577.32	16259.05
577.681	16297.24
578.042	16373.4
578.403	16322.1
578.763	16364.13
579.124	16389.44
579.485	16423.79
579.845	16429.44
580.206	16391.48
580.566	16327.52
580.927	16367.3
581.287	16374.53
581.648	16310.12
582.008	16545.6
582.368	16382.44
582.728	16348.77
583.089	16292.04
583.449	16356.67
583.809	16420.63
584.169	16407.75
584.529	16320.52
584.889	16496.33
585.249	16242.78
585.609	16209.79
585.969	16421.08
586.329	16251.37
586.688	16272.83
587.048	16287.52
587.408	16246.62
587.768	16304.7
588.127	16226.06
588.487	16243.01
588.846	16314.64
589.206	16080.07
589.565	16066.96
589.925	16261.31
590.284	16263.12
590.643	16240.97
591.003	16220.41
591.362	16228.99
591.721	16158.49
592.08	16174.76
592.44	16183.35
592.799	16212.95
593.158	16210.46
593.517	16174.76
593.876	16188.54
594.235	16072.61
594.593	16122.56
594.952	16206.17
595.311	16019.96
595.67	16078.26
596.029	16276.45
596.387	16187.41
596.746	16258.82
597.104	16111.48
597.463	16092.73
597.822	16172.05
598.18	16090.69
598.538	16086.17
598.897	16096.34
599.255	16042.11
599.613	16250.46
599.972	16130.47
600.33	16200.52
600.688	16153.74
601.046	16115.1
601.404	16270.12
601.762	16149.9
602.12	16243.91
602.478	16172.27
602.836	16172.5
603.194	16068.77
603.552	16032.84
603.91	16087.3
604.268	16144.25
604.625	16050.69
604.983	16120.07
605.341	16098.15
605.698	16195.1
606.056	16199.16
606.413	16095.44
606.771	16234.64
607.128	16228.32
607.485	16165.04
607.843	16137.02
608.2	16204.36
608.557	16184.7
608.914	16188.77
609.272	16227.64
609.629	16300.18
609.986	16322.1
610.343	16223.8
610.7	16382.66
611.057	16301.99
611.414	16333.17
611.771	16288.43
612.127	16437.8
612.484	16319.16
612.841	16401.42
613.198	16361.42
613.554	16390.57
613.911	16453.62
614.267	16431.93
614.624	16457.91
614.98	16457.01
615.337	16572.49
615.693	16506.5
616.05	16447.75
616.406	16590.79
616.762	16526.16
617.118	16499.95
617.475	16563.67
617.831	16578.36
618.187	16567.29
618.543	16597.12
618.899	16636.89
619.255	16618.14
619.611	16540.17
619.967	16687.97
620.323	16669.66
620.678	16674.63
621.034	16639.83
621.39	16595.54
621.746	16633.28
622.101	16774.97
622.457	16670.11
622.812	16636.89
623.168	16741.52
623.523	16660.85
623.879	16750.34
624.234	16609.78
624.589	16689.77
624.945	16686.61
625.3	16644.35
625.655	16679.83
626.01	16628.53
626.365	16648.42
626.72	16622.43
627.075	16588.08
627.43	16580.62
627.785	16545.82
628.14	16586.95
628.495	16626.05
628.85	16537.46
629.205	16465.37
629.559	16678.93
629.914	16457.69
630.269	16668.76
630.623	16467.63
630.978	16390.8
631.332	16500.4
631.687	16555.31
632.041	16443.9
632.396	16486.16
632.75	16430.57
633.104	16481.87
633.459	16422.44
633.813	16435.77
634.167	16415.66
634.521	16488.87
634.875	16377.46
635.229	16394.87
635.583	16283.46
635.937	16258.15
636.291	16244.59
636.645	16278.48
636.999	16275.09
637.352	16312.61
637.706	16105.38
638.06	16209.56
638.413	16158.71
638.767	16158.04
639.121	16132.95
639.474	16037.36
639.828	16054.76
640.181	16027.19
640.534	16077.13
640.888	15957.36
641.241	15992.62
641.594	15996.46
641.947	16024.03
642.301	16028.77
642.654	15986.29
643.007	15932.96
643.36	15917.82
643.713	15864.71
644.066	15917.82
644.419	15897.25
644.771	15799.85
645.124	15727.54
645.477	15653.19
645.83	15589.01
646.182	15453.65
646.535	15407.09
646.888	15444.61
647.24	15297.27
647.593	15314.89
647.945	15353.54
648.298	15314.22
648.65	15345.63
649.002	15301.79
649.355	15422.01
649.707	15368.68
650.059	15547.43
650.411	15595.11
650.763	15528.67
651.115	15775.9
651.467	15753.07
651.819	15746.07
652.171	15656.13
652.523	15576.13
652.875	15692.96
653.227	15581.78
653.578	15650.7
653.93	15630.14
654.282	15678.27
654.633	15599.63
654.985	15699.74
655.337	15640.54
655.688	15672.85
656.039	15750.14
656.391	15617.94
656.742	15662.46
657.094	15632.17
657.445	15726.41
657.796	15666.07
658.147	15625.17
658.498	15638.28
658.849	15666.07
659.2	15655.22
659.551	15597.6
659.902	15692.96
660.253	15644.38
660.604	15664.72
660.955	15588.79
661.306	15728.22
661.656	15676.69
662.007	15666.07
662.358	15669.91
662.708	15667.2
663.059	15688.67
663.409	15532.06
663.76	15775.9
664.11	15598.05
664.461	15791.94
664.811	15688.44
665.161	15712.4
665.511	15579.52
665.862	15720.76
666.212	15776.58
666.562	15826.29
666.912	15767.31
667.262	15728.22
667.612	15727.54
667.962	15744.94
668.312	15692.29
668.662	15709.46
669.011	15619.07
669.361	15611.38
669.711	15639.63
670.06	15568.67
670.41	15563.7
670.76	15686.18
671.109	15642.34
671.459	15614.1
671.808	15659.29
672.157	15549.69
672.507	15502.91
672.856	15536.13
673.205	15567.77
673.554	15623.13
673.904	15480.09
674.253	15621.55
674.602	15577.71
674.951	15343.14
675.3	15250.71
675.649	15454.55
675.998	15448.68
676.346	15450.71
676.695	15433.31
677.044	15276.25
677.393	15353.76
677.741	15424.27
678.09	15406.64
678.438	15302.01
678.787	15316.02
679.135	15375.01
679.484	15283.26
679.832	15293.88
680.181	15190.83
680.529	15271.05
680.877	15141.57
681.225	15119.42
681.573	15274.44
681.922	15215.69
682.27	15075.8
682.618	15099.98
682.966	15095.69
683.314	15060.44
683.661	14970.95
684.009	14927.56
684.357	14845.98
684.705	14898.18
685.053	14906.77
685.4	14806.66
685.748	14736.38
686.095	14772.54
686.443	14659.54
686.79	14690.05
687.138	14697.06
687.485	14684.18
687.832	14659.54
688.18	14622.26
688.527	14520.56
688.874	14485.76
689.221	14427.69
689.568	14435.6
689.915	14364.86
690.262	14473.56
690.609	14392.43
690.956	14277.41
691.303	14313.79
691.65	14166.22
691.997	14243.74
692.344	14081.71
692.69	14053.68
693.037	14091.65
693.383	13965.55
693.73	13989.96
694.077	13949.96
694.423	13914.7
694.769	13753.58
695.116	13834.71
695.462	13719
695.808	13700.47
696.155	13673.58
696.501	13553.58
696.847	13503.87
697.193	13420.48
697.539	13552.23
697.885	13433.36
698.231	13390.42
698.577	13379.13
698.923	13351.1
699.269	13134.16
699.614	13189.75
699.96	13182.97
700.306	13095.07
700.651	13086.7
700.997	13014.62
701.342	13016.42
701.688	12969.19
702.033	12873.83
702.379	12931.45
702.724	12792.7
703.069	12850.55
703.415	12718.35
703.76	12710.22
704.105	12737.11
704.45	12710.89
704.795	12602.87
705.14	12506.15
705.485	12549.54
705.83	12383.45
706.175	12468.64
706.52	12390.45
706.865	12380.51
707.209	12294.18
707.554	12315.88
707.899	12282.21
708.243	12179.84
708.588	12087.86
708.932	12090.35
709.277	12047.86
709.621	12066.17
709.966	11991.82
710.31	11985.72
710.654	11980.74
710.998	11986.62
711.342	11998.37
711.687	11842.67
712.031	11812.61
712.375	11812.61
712.719	11804.7
713.063	11809.22
713.407	11802.67
713.75	11749.56
714.094	11765.38
714.438	11745.27
714.782	11677.25
715.125	11588.66
715.469	11648.1
715.812	11533.98
716.156	11464.15
716.499	11539.63
716.843	11543.47
717.186	11427.76
717.53	11549.8
717.873	11573.52
718.216	11413.3
718.559	11390.03
718.902	11400.65
719.246	11390.03
719.589	11321.55
719.932	11332.4
720.275	11286.75
720.617	11315.45
720.96	11259.18
721.303	11253.76
721.646	11274.55
721.989	11274.55
722.331	11235.23
722.674	11193.65
723.016	11176.47
723.359	11252.85
723.701	11251.72
724.044	11227.09
724.386	11125.4
724.729	11205.17
725.071	11171.27
725.413	11108
725.755	11152.52
726.097	11077.72
726.439	10966.08
726.782	11013.99
727.124	11108
727.465	11036.81
727.807	11025.29
728.149	10972.86
728.491	11012.41
728.833	11066.64
729.175	10985.06
729.516	10951.39
729.858	10991.17
730.199	11031.39
730.541	10919.3
730.882	10859.64
731.224	10958.85
731.565	10882.69
731.906	10903.94
732.248	10825.29
732.589	10907.33
732.93	10788.91
733.271	10919.98
733.612	10936.48
733.953	10974.9
734.294	10883.37
734.635	10881.34
734.976	10929.47
735.317	10830.72
735.658	10844.28
735.999	10828.91
736.339	10853.09
736.68	10873.2
737.021	10821.23
737.361	10886.76
737.702	10906.42
738.042	10921.56
738.383	10853.77
738.723	10927.21
739.063	10893.54
739.404	10926.53
739.744	10858.51
740.084	10865.75
740.424	10886.99
740.764	10933.09
741.104	10889.25
741.444	10936.25
741.784	10875.01
742.124	10994.78
742.464	11009.02
742.804	10971.51
743.143	11037.27
743.483	11025.74
743.823	10983.26
744.162	10997.95
744.502	11115.91
744.841	11105.29
745.181	11215.57
745.52	11163.36
745.86	11286.3
746.199	11274.55
746.538	11346.41
746.877	11336.92
747.216	11409.23
747.556	11520.19
747.895	11446.07
748.234	11498.72
748.573	11538.95
748.911	11665.95
749.25	11675.67
749.589	11694.2
749.928	11843.57
750.267	11916.57
750.605	11910.92
750.944	12060.06
751.283	11965.6
751.621	12203.34
751.96	12182.32
752.298	12312.26
752.636	12432.71
752.975	12478.13
753.313	12502.31
753.651	12675.42
753.989	12790.89
754.327	12816.2
754.666	12996.54
755.004	13149.08
755.342	13271.56
755.679	13370.31
756.017	13469.52
756.355	13583.87
756.693	13711.77
757.031	13946.79
757.368	13940.69
757.706	14112.89
758.044	14349.04
758.381	14568.02
758.719	14574.57
759.056	14809.37
759.394	14895.92
759.731	15000.1
760.068	15187.89
760.405	15288.23
760.743	15412.52
761.08	15651.83
761.417	15763.92
761.754	15954.43
762.091	16169.11
762.428	16240.52
762.765	16345.83
763.102	16613.16
763.438	16681.41
763.775	16812.48
764.112	17013.38
764.449	17259.02
764.785	17319.36
765.122	17506.02
765.458	17649.97
765.795	17698.33
766.131	17988.27
766.467	18068.27
766.804	18074.6
767.14	18138.32
767.476	18441.59
767.812	18551.64
768.148	18551.87
768.485	18765.2
768.821	18665.77
769.157	18915.03
769.492	18941.92
769.828	19129.03
770.164	19050.61
770.5	19241.57
770.836	19325.18
771.171	19369.48
771.507	19607.21
771.842	19526.99
772.178	19650.15
772.513	19765.62
772.849	19791.84
773.184	19980.99
773.519	19860.54
773.855	20078.16
774.19	20135.11
774.525	20085.16
774.86	20230.24
775.195	20291.94
775.53	20237.48
775.865	20141.66
776.2	20214.2
776.535	20202.45
776.87	20395.66
777.205	20290.81
777.539	20358.15
777.874	20449
778.209	20305.72
778.543	20396.34
778.878	20416
779.212	20447.87
779.547	20352.28
779.881	20502.1
780.215	20379.39
780.55	20447.64
780.884	20410.13
781.218	20492.61
781.552	20475.66
781.886	20397.47
782.22	20388.66
782.554	20469.33
782.888	20233.41
783.222	20232.96
783.556	20264.14
783.889	20264.82
784.223	20071.15
784.557	20062.79
784.89	20244.03
785.224	20081.1
785.557	20108.21
785.891	20051.49
786.224	19968.1
786.558	20098.95
786.891	19978.73
787.224	19940.31
787.557	19893.3
787.891	19938.28
788.224	19885.62
788.557	19857.6
788.89	19916.13
789.223	19888.56
789.556	19785.51
789.888	19692.41
790.221	19742.12
790.554	19608.11
790.887	19616.02
791.219	19603.14
791.552	19466.42
791.884	19472.07
792.217	19334.9
792.549	19382.81
792.882	19324.73
793.214	19350.72
793.546	19242.25
793.879	19174.23
794.211	19220.1
794.543	19209.93
794.875	19050.16
795.207	19216.71
795.539	19077.73
795.871	19202.93
796.203	18911.41
796.535	18907.57
796.867	18818.53
797.198	18830.51
797.53	18672.77
797.862	18640
798.193	18659.66
798.525	18548.71
798.856	18676.16
799.188	18503.06
799.519	18402.27
799.85	18390.29
800.182	18369.5
800.513	18356.4
800.844	18169.28
801.175	18318.43
801.506	18299
801.837	18087.7
802.168	18136.51
802.499	18205.67
802.83	18101.26
803.161	17909.85
803.491	18026.69
803.822	17920.02
804.153	17822.4
804.483	17838.44
804.814	17723.87
805.145	17699.69
805.475	17675.28
805.805	17699.46
806.136	17592.57
806.466	17605.46
806.796	17529.75
807.126	17489.75
807.457	17404.78
807.787	17496.53
808.117	17371.56
808.447	17266.71
808.777	17282.07
809.107	17218.57
809.436	17143.55
809.766	17162.08
810.096	17162.75
810.426	17053.15
810.755	17051.57
811.085	17115.3
811.414	16977.22
811.744	16950.11
812.073	16932.7
812.403	16849.77
812.732	16834.18
813.061	16786.27
813.39	16619.04
813.719	16710.56
814.049	16758.02
814.378	16598.02
814.707	16600.06
815.036	16590.79
815.365	16542.88
815.693	16445.26
816.022	16419.95
816.351	16399.61
816.68	16394.64
817.008	16392.38
817.337	16170.01
817.665	16150.35
817.994	16201.65
818.322	16218.6
818.651	16069.45
818.979	16091.37
819.307	16158.94
819.636	16108.32
819.964	16034.87
820.292	16018.38
820.62	16029.9
820.948	16001.43
821.276	16011.82
821.604	15938.61
821.932	16034.42
822.259	16009.34
822.587	15903.13
822.915	15948.55
823.243	16033.29
823.57	15936.12
823.898	15969.11
824.225	15931.15
824.553	15873.3
824.88	15949.45
825.207	16091.6
825.535	16029.45
825.862	16044.14
826.189	15961.43
826.516	15981.32
826.843	16073.52
827.17	16044.59
827.497	15915.78
827.824	15953.07
828.151	15936.57
828.478	15986.06
828.805	16008.89
829.131	15965.5
829.458	15965.27
829.785	15898.83
830.111	15935.22
830.438	16007.08
830.764	15952.39
831.09	16057.02
831.417	15878.72
831.743	16040.98
832.069	15955.33
832.395	15847.08
832.722	15887.08
833.048	15832.39
833.374	15852.05
833.7	15869.46
834.026	15808.67
834.351	15831.72
834.677	15836.24
835.003	15830.13
835.329	15822.68
835.654	15831.04
835.98	15836.46
836.306	15818.16
836.631	15658.61
836.956	15758.72
837.282	15726.41
837.607	15652.51
837.932	15601.89
838.258	15695.9
838.583	15571.84
838.908	15522.12
839.233	15537.94
839.558	15449.81
839.883	15455
840.208	15449.81
840.533	15432.63
840.858	15366.64
841.182	15354.21
841.507	15424.5
841.832	15298.17
842.156	15349.7
842.481	15316.02
842.805	15186.54
843.13	15181.79
843.454	15172.75
843.778	15077.16
844.103	15105.41
844.427	15052.53
844.751	15018.4
845.075	14970.27
845.399	14812.76
845.723	14873.32
846.047	14957.39
846.371	14746.77
846.695	14754.23
847.019	14663.16
847.343	14590.17
847.666	14521.47
847.99	14524.41
848.313	14425.43
848.637	14394.47
848.96	14297.52
849.284	14302.27
849.607	14232.66
849.931	14168.94
850.254	14078.77
850.577	14016.62
850.9	13901.37
851.223	13885.1
851.546	13940.69
851.869	13806.01
852.192	13784.76
852.515	13647.14
852.838	13674.49
853.161	13619.12
853.483	13547.48
853.806	13520.59
854.129	13506.81
854.451	13392.68
854.774	13360.82
855.096	13321.05
855.419	13261.61
855.741	13280.37
856.063	13218.45
856.385	13163.09
856.708	13018.68
857.03	13086.7
857.352	13036.08
857.674	12988.85
857.996	12925.13
858.318	12920.38
858.64	13001.96
858.961	12797.22
859.283	12823.43
859.605	12732.36
859.926	12828.41
860.248	12756.32
860.57	12673.16
860.891	12682.65
861.212	12604.91
861.534	12596.32
861.855	12584.12
862.176	12569.43
862.498	12537.79
862.819	12527.4
863.14	12418.92
863.461	12419.83
863.782	12311.81
864.103	12470.22
864.424	12376.44
864.745	12425.7
865.065	12260.96
865.386	12251.7
865.707	12299.61
866.027	12263
866.348	12213.96
866.668	12261.41
866.989	12206.95
867.309	12065.71
867.63	12215.99
867.95	12134.41
868.27	12089.44
868.59	12026.62
868.91	12027.52
869.23	12058.93
869.55	11964.93
869.87	12032.27
870.19	11954.3
870.51	12051.48
870.83	12007.64
871.15	11920.63
871.469	11889.22
871.789	11909.11
872.109	11914.53
872.428	11825.49
872.748	11811.03
873.067	11822.56
873.386	11839.73
873.706	11692.39
874.025	11703.01
874.344	11683.58
874.663	11760.64
874.982	11671.6
875.301	11636.35
875.62	11616.23
875.939	11631.37
876.258	11658.94
876.577	11517.48
876.896	11577.14
877.214	11562.68
877.533	11556.35
877.852	11513.41
878.17	11528.33
878.489	11492.4
878.807	11508.21
879.125	11429.8
879.444	11406.97
879.762	11348.67
880.08	11402.23
880.398	11305.96
880.716	11308.67
881.034	11385.51
881.352	11292.85
881.67	11300.76
881.988	11286.07
882.306	11193.87
882.624	11216.02
882.941	11083.82
883.259	11116.81
883.577	11164.04
883.894	11110.48
884.212	11064.84
884.529	11035.46
884.846	11047.66
885.164	10943.71
885.481	10896.03
885.798	10946.65
886.115	10897.61
886.432	10886.31
886.75	10859.64
887.067	10826.65
887.383	10753.21
887.7	10769.02
888.017	10791.4
888.334	10765.64
888.651	10684.06
888.967	10665.3
889.284	10600.67
889.6	10614
889.917	10564.28
890.233	10522.25
890.55	10518.41
890.866	10548.69
891.182	10454.68
891.498	10454
891.815	10382.82
892.131	10357.96
892.447	10349.6
892.763	10282.71
893.079	10226.44
893.395	10290.39
893.71	10268.7
894.026	10230.51
894.342	10228.93
894.657	10131.75
894.973	10155.93
895.289	10068.48
895.604	10054.24
895.92	9952.1
896.235	9884.3
896.55	9877.52
896.865	9890.86
897.181	9935.15
897.496	9816.73
897.811	9789.16
898.126	9752.55
898.441	9704.19
898.756	9724.31
899.071	9676.85
899.386	9660.13
899.7	9529.74
900.015	9528.61
900.33	9461.26
900.644	9446.8
900.959	9457.19
901.273	9387.14
901.588	9368.61
901.902	9322.51
902.216	9348.72
902.531	9277.99
902.845	9255.62
903.159	9162.29
903.473	9176.52
903.787	9061.5
904.101	9122.06
904.415	9115.73
904.729	8964.55
905.042	9022.4
905.356	9008.85
905.67	8919.13
905.984	8968.85
906.297	8886.59
906.611	8802.52
906.924	8793.26
907.237	8736.76
907.551	8698.57
907.864	8680.72
908.177	8701.06
908.491	8669.42
908.804	8574.05
909.117	8539.25
909.43	8439.14
909.743	8461.51
910.056	8414.28
910.368	8441.85
910.681	8346.04
910.994	8383.32
911.307	8325.7
911.619	8308.07
911.932	8262.88
912.244	8202.76
912.557	8130.45
912.869	8189.66
913.181	7988.98
913.494	8036.67
913.806	7954.18
914.118	7927.07
914.43	7937.69
914.742	7932.72
915.054	7867.18
915.366	7869.21
915.678	7819.72
915.99	7801.19
916.302	7719.16
916.613	7656.56
916.925	7723.23
917.236	7599.16
917.548	7647.75
917.859	7575.89
918.171	7593.29
918.482	7482.56
918.794	7465.61
919.105	7469
919.416	7441.43
919.727	7446.85
920.038	7426.97
920.349	7306.06
920.66	7329.34
920.971	7308.1
921.282	7303.58
921.593	7208.44
921.903	7173.19
922.214	7160.08
922.525	7133.64
922.835	7146.3
923.146	7061.78
923.456	7040.54
923.767	7010.03
924.077	6992.85
924.387	6965.28
924.697	6944.27
925.008	6928.45
925.318	6879.86
925.628	6846.64
925.938	6819.98
926.248	6782.01
926.558	6786.3
926.867	6766.19
927.177	6692.3
927.487	6651.84
927.796	6636.48
928.106	6632.64
928.416	6596.48
928.725	6575.69
929.034	6554.45
929.344	6476.26
929.653	6517.39
929.962	6412.08
930.271	6415.47
930.581	6397.61
930.89	6398.07
931.199	6319.88
931.508	6325.75
931.817	6342.93
932.125	6350.84
932.434	6290.72
932.743	6259.99
933.051	6218.18
933.36	6182.48
933.669	6139.77
933.977	6087.57
934.286	6130.5
934.594	6130.28
934.902	6033.1
935.21	6014.35
935.519	6027.91
935.827	5930.96
936.135	5939.55
936.443	5925.08
936.751	5869.94
937.059	5854.8
937.367	5828.82
937.674	5872.2
937.982	5822.71
938.29	5786.78
938.597	5789.49
938.905	5689.84
939.213	5721.47
939.52	5662.72
939.827	5731.87
940.135	5594.47
940.442	5580.69
940.749	5604.19
941.056	5541.82
941.363	5495.72
941.67	5496.4
941.977	5435.61
942.284	5421.82
942.591	5393.57
942.898	5416.4
943.205	5432.22
943.511	5332.11
943.818	5346.79
944.125	5314.93
944.431	5332.56
944.738	5284.65
945.044	5218.21
945.35	5206.01
945.657	5210.98
945.963	5209.4
946.269	5143.41
946.575	5111.09
946.881	5102.06
947.187	5152
947.493	5085.56
947.799	5041.27
948.105	5050.53
948.41	4929.18
948.716	5023.87
949.022	4939.57
949.327	4974.37
949.633	4898.9
949.938	4904.09
950.244	4874.26
950.549	4823.64
950.854	4786.36
951.16	4797.88
951.465	4747.49
951.77	4799.69
952.075	4733.7
952.38	4694.38
952.685	4760.6
952.99	4656.19
953.294	4699.81
953.599	4638.11
953.904	4569.64
954.209	4643.08
954.513	4591.56
954.818	4523.77
955.122	4500.94
955.426	4527.83
955.731	4521.96
956.035	4444.45
956.339	4458.68
956.643	4425.24
956.948	4415.29
957.252	4440.15
957.556	4430.66
957.86	4347.27
958.163	4400.83
958.467	4338.01
958.771	4302.53
959.075	4300.49
959.378	4299.59
959.682	4238.57
959.985	4258.69
960.289	4193.15
960.592	4211.01
960.896	4189.76
961.199	4129.88
961.502	4193.83
961.805	4140.95
962.108	4114.51
962.411	4096.43
962.714	4072.03
963.017	4072.03
963.32	4051.69
963.623	4055.53
963.926	4035.87
964.228	4031.35
964.531	3994.97
964.833	3973.5
965.136	3947.28
965.438	3926.04
965.741	3955.87
966.043	3887.17
966.345	3876.55
966.648	3871.58
966.95	3873.39
967.252	3820.73
967.554	3779.83
967.856	3788.64
968.158	3695.54
968.46	3719.49
968.761	3713.17
969.063	3757.23
969.365	3698.02
969.666	3701.87
969.968	3645.82
970.269	3654.64
970.571	3657.57
970.872	3639.49
971.174	3610.57
971.475	3590.23
971.776	3597.91
972.077	3576.9
972.378	3540.06
972.679	3535.54
972.98	3529.89
973.281	3526.28
973.582	3472.95
973.883	3454.41
974.183	3427.52
974.484	3476.56
974.785	3408.99
975.085	3378.03
975.386	3409.9
975.686	3387.98
975.986	3377.13
976.287	3400.86
976.587	3311.14
976.887	3333.06
977.187	3301.88
977.487	3311.37
977.787	3278.15
978.087	3216
978.387	3215.1
978.687	3254.65
978.987	3213.29
979.286	3201.99
979.586	3196.12
979.885	3147.53
980.185	3171.94
980.484	3152.73
980.784	3119.51
981.083	3129.68
981.382	3114.99
981.682	3105.5
981.981	3108.66
982.28	3061.66
982.579	3068.21
982.878	3054.65
983.177	3027.99
983.475	2999.29
983.774	3008.55
984.073	2964.94
984.372	2934.65
984.67	2977.82
984.969	2947.08
985.267	2894.66
985.566	2880.19
985.864	2897.82
986.162	2858.72
986.461	2840.65
986.759	2841.55
987.057	2846.75
987.355	2837.71
987.653	2864.15
987.951	2828.44
988.249	2793.87
988.547	2784.15
988.844	2782.12
989.142	2754.32
989.44	2764.26
989.737	2739.41
990.035	2721.33
990.332	2698.05
990.63	2685.62
990.927	2698.05
991.224	2597.26
991.521	2672.06
991.819	2630.03
992.116	2664.61
992.413	2632.97
992.71	2600.2
993.006	2606.53
993.303	2600.65
993.6	2544.61
993.897	2595.68
994.193	2548.9
994.49	2550.48
994.787	2505.06
995.083	2489.69
995.379	2494.89
995.676	2480.88
995.972	2456.25
996.268	2460.54
996.565	2474.33
996.861	2434.78
997.157	2444.05
997.453	2433.88
997.749	2421.45
998.044	2371.73
998.34	2399.98
998.636	2362.24
998.932	2329.02
999.227	2295.8
999.523	2343.03
999.818	2343.48
1000.114	2287.67
1000.409	2286.76
1000.704	2264.39
1001	2294.9
1001.295	2243.6
1001.59	2242.47
1001.885	2248.8
1002.18	2246.76
1002.475	2180.1
1002.77	2184.17
1003.065	2179.42
1003.359	2188.91
1003.654	2153.21
1003.949	2144.62
1004.243	2128.35
1004.538	2126.31
1004.832	2123.6
1005.127	2123.6
1005.421	2089.48
1005.715	2101.23
1006.009	2068.69
1006.304	2051.74
1006.598	2011.06
1006.892	2013.1
1007.186	2003.38
1007.48	2021.46
1007.773	1987.79
1008.067	1979.2
1008.361	1938.3
1008.655	1950.5
1008.948	1924.29
1009.242	1923.38
1009.535	1906.66
1009.829	1900.56
1010.122	1891.07
1010.415	1918.41
1010.708	1874.12
1011.001	1860.33
1011.295	1829.6
1011.588	1845.87
1011.881	1829.6
1012.173	1845.87
1012.466	1837.28
1012.759	1793.89
1013.052	1798.87
1013.344	1768.81
1013.637	1775.14
1013.93	1739.43
1014.222	1765.65
1014.514	1749.6
1014.807	1742.6
1015.099	1712.99
1015.391	1727
1015.683	1717.29
1015.976	1711.41
1016.268	1672.31
1016.56	1660.56
1016.851	1639.1
1017.143	1666.89
1017.435	1639.1
1017.727	1636.16
1018.018	1647.46
1018.31	1597.06
1018.602	1574.01
1018.893	1592.99
1019.185	1541.47
1019.476	1564.97
1019.767	1560.68
1020.058	1550.28
1020.35	1562.04
1020.641	1529.27
1020.932	1519.1
1021.223	1516.61
1021.514	1487.01
1021.804	1472.77
1022.095	1451.08
1022.386	1464.86
1022.677	1449.72
1022.967	1435.03
1023.258	1442.49
1023.548	1421.25
1023.839	1416.95
1024.129	1425.09
1024.419	1384.64
1024.709	1404.07
1025	1385.32
1025.29	1387.12
1025.58	1379.67
1025.87	1357.97
1026.16	1345.09
1026.449	1312.55
1026.739	1315.26
1027.029	1303.06
1027.319	1317.3
1027.608	1303.96
1027.898	1295.83
1028.187	1302.61
1028.477	1279.33
1028.766	1270.74
1029.055	1275.72
1029.344	1257.41
1029.634	1231.65
1029.923	1225.09
1030.212	1241.37
1030.501	1213.12
1030.79	1204.76
1031.078	1209.95
1031.367	1212.89
1031.656	1188.26
1031.945	1182.16
1032.233	1176.06
1032.522	1170.41
1032.81	1134.02
1033.099	1182.84
1033.387	1161.37
1033.675	1129.96
1033.963	1101.71
1034.251	1113.46
1034.54	1121.82
1034.828	1117.75
1035.116	1085.66
1035.403	1082.05
1035.691	1091.09
1035.979	1078.43
1036.267	1060.58
1036.554	1047.25
1036.842	1042.95
1037.129	1041.14
1037.417	1055.38
1037.704	1017.42
1037.992	994.37
1038.279	1008.38
1038.566	1019.22
1038.853	1019.22
1039.14	1019.22
