Data from hue_350_FLMS001491_43.txt Node
Date: Mon Feb 06 15:38:04 GMT 2017
User: dcchb
Spectrometer: FLMS00149
Trigger mode: 0
Integration Time (sec): 2.000000E-2
Scans to average: 10
Electric dark correction enabled: true
Nonlinearity correction enabled: false
Boxcar width: 0
XAxis mode: Wavelengths
Number of Pixels in Spectrum: 2048
>>>>>Begin Spectral Data<<<<<
341.393	-23.19
341.776	-23.19
342.16	-23.19
342.543	-68.61
342.927	-75.39
343.31	-93.92
343.693	-73.59
344.077	-59.57
344.46	-56.86
344.843	-53.02
345.226	-51.21
345.61	-29.07
345.993	-18.22
346.376	10.25
346.759	21.78
347.142	5.51
347.525	50.93
347.908	66.98
348.291	61.78
348.674	105.17
349.057	113.08
349.44	119.4
349.823	117.6
350.206	158.05
350.588	191.49
350.971	207.08
351.354	214.77
351.737	236.91
352.119	258.38
352.502	272.39
352.884	280.08
353.267	281.21
353.65	287.08
354.032	279.85
354.414	295.9
354.797	298.16
355.179	314.2
355.562	322.34
355.944	309
356.326	314.43
356.709	338.61
357.091	321.66
357.473	333.86
357.855	329.12
358.238	340.87
358.62	325.5
359.002	330.02
359.384	324.82
359.766	329.12
360.148	342.67
360.53	330.92
360.912	321.43
361.294	332.73
361.676	347.19
362.057	318.27
362.439	295.22
362.821	325.95
363.203	308.33
363.584	314.88
363.966	305.61
364.348	327.08
364.729	307.42
365.111	310.36
365.493	327.99
365.874	329.34
366.256	294.99
366.637	321.43
367.019	293.86
367.4	305.39
367.781	291.15
368.163	299.06
368.544	305.84
368.925	313.75
369.306	310.81
369.688	296.8
370.069	299.06
370.45	313.97
370.831	310.36
371.212	305.39
371.593	304.48
371.974	279.85
372.355	298.61
372.736	308.33
373.117	314.2
373.498	292.96
373.879	303.58
374.26	293.41
374.641	305.84
375.021	305.61
375.402	321.43
375.783	286.86
376.163	312.17
376.544	302
376.925	313.97
377.305	312.62
377.686	330.7
378.066	318.49
378.447	320.98
378.827	319.85
379.208	321.21
379.588	309.91
379.968	317.59
380.349	308.78
380.729	297.7
381.109	317.82
381.489	315.78
381.87	335.44
382.25	326.86
382.63	337.93
383.01	341.32
383.39	316.91
383.77	322.56
384.15	323.47
384.53	334.54
384.91	344.26
385.29	318.04
385.67	338.38
386.049	321.43
386.429	330.7
386.809	324.14
387.189	327.08
387.568	335.67
387.948	351.26
388.328	343.8
388.707	355.33
389.087	357.82
389.466	363.01
389.846	330.47
390.225	346.74
390.605	346.06
390.984	346.97
391.363	333.41
391.743	350.58
392.122	354.65
392.501	343.58
392.881	355.1
393.26	356.91
393.639	360.53
394.018	358.49
394.397	346.29
394.776	353.3
395.155	349.45
395.534	356.69
395.913	355.1
396.292	354.2
396.671	350.58
397.05	361.66
397.429	379.74
397.808	381.54
398.186	379.51
398.565	376.57
398.944	363.47
399.323	353.97
399.701	402.33
400.08	375.89
400.458	379.51
400.837	392.84
401.215	384.48
401.594	385.39
401.972	407.31
402.351	374.31
402.729	363.47
403.107	379.06
403.486	399.4
403.864	387.19
404.242	396.23
404.62	368.89
404.999	411.37
405.377	363.47
405.755	396.91
406.133	383.8
406.511	399.62
406.889	398.94
407.267	419.28
407.645	401.43
408.023	412.5
408.401	406.4
408.779	414.54
409.156	415.67
409.534	411.15
409.912	426.06
410.29	421.99
410.667	432.62
411.045	434.42
411.422	442.56
411.8	420.41
412.178	437.59
412.555	451.37
412.933	424.93
413.31	440.3
413.687	471.94
414.065	449.56
414.442	450.47
414.819	476.68
415.197	460.64
415.574	457.93
415.951	467.19
416.328	502.44
416.705	467.87
417.082	477.59
417.46	480.3
417.837	491.82
418.214	500.86
418.591	477.59
418.967	512.16
419.344	504.48
419.721	511.71
420.098	497.02
420.475	513.29
420.852	490.02
421.228	504.25
421.605	521.43
421.982	515.78
422.358	542.9
422.735	532.5
423.111	512.16
423.488	527.98
423.864	556.91
424.241	536.34
424.617	538.38
424.994	553.97
425.37	546.29
425.746	534.99
426.123	560.3
426.499	572.73
426.875	557.58
427.251	577.47
427.627	569.79
428.003	556.91
428.379	587.64
428.756	593.06
429.132	580.18
429.507	594.19
429.883	618.15
430.259	596
430.635	621.54
431.011	594.87
431.387	598.71
431.763	600.52
432.138	624.93
432.514	639.62
432.89	643.01
433.265	656.79
433.641	665.15
434.016	673.06
434.392	669.22
434.767	678.03
435.143	675.55
435.518	663.8
435.894	669.9
436.269	677.13
436.644	676.23
437.02	710.12
437.395	731.36
437.77	689.33
438.145	680.29
438.52	707.18
438.895	722.33
439.271	720.52
439.646	726.17
440.021	724.59
440.395	765.26
440.77	722.33
441.145	751.03
441.52	748.09
441.895	766.62
442.27	750.35
442.645	755.32
443.019	757.13
443.394	777.01
443.769	768.2
444.143	749.67
444.518	773.4
444.892	807.3
445.267	774.98
445.641	807.52
446.016	803.91
446.39	776.34
446.764	780.63
447.139	804.36
447.513	806.62
447.887	806.17
448.262	796.67
448.636	804.81
449.01	821.31
449.384	819.95
449.758	820.63
450.132	819.27
450.506	830.8
450.88	834.64
451.254	841.87
451.628	874.41
452.002	866.5
452.376	859.72
452.75	852.27
453.123	880.97
453.497	875.77
453.871	882.32
454.244	885.94
454.618	877.58
454.992	904.92
455.365	912.83
455.739	925.94
456.112	933.85
456.486	953.05
456.859	947.18
457.232	954.18
457.606	969.1
457.979	972.49
458.352	969.55
458.725	1002.77
459.099	1010.91
459.472	984.69
459.845	1005.26
460.218	1005.71
460.591	1002.09
460.964	1033.96
461.337	1066.95
461.71	1060.85
462.083	1077.12
462.456	1055.65
462.829	1093.62
463.201	1098.59
463.574	1085.25
463.947	1086.38
464.32	1114.86
464.692	1129.32
465.065	1132.03
465.438	1162.77
465.81	1178.81
466.183	1184.91
466.555	1199.83
466.928	1220.39
467.3	1179.49
467.672	1213.16
468.045	1244.35
468.417	1243.44
468.789	1260.16
469.161	1276.44
469.534	1282.31
469.906	1322.76
470.278	1335.19
470.65	1321.86
471.022	1349.65
471.394	1374.51
471.766	1364.57
472.138	1414.51
472.51	1402.31
472.882	1438.24
473.253	1480.95
473.625	1504.45
473.997	1539.48
474.369	1538.8
474.74	1569.08
475.112	1582.19
475.484	1604.34
475.855	1612.7
476.227	1663.09
476.598	1652.02
476.97	1664
477.341	1727.27
477.713	1747.61
478.084	1751.45
478.455	1825.35
478.827	1823.77
479.198	1860.83
479.569	1873.71
479.94	1906.48
480.311	1949.86
480.682	1969.3
481.053	2004.33
481.424	2073.93
481.795	2060.37
482.166	2098.33
482.537	2160.25
482.908	2181.5
483.279	2201.61
483.65	2237.09
484.021	2282.06
484.391	2310.31
484.762	2358.44
485.133	2351.66
485.503	2413.35
485.874	2425.78
486.244	2468.72
486.615	2487.93
486.985	2535.61
487.356	2601.82
487.726	2587.81
488.097	2663.74
488.467	2673.23
488.837	2718.21
489.207	2768.83
489.578	2760.24
489.948	2805.43
490.318	2854.47
490.688	2844.98
491.058	2960.68
491.428	2980.35
491.798	3016.73
492.168	3047.24
492.538	3056.73
492.908	3117.29
493.278	3139.21
493.648	3123.84
494.017	3229.15
494.387	3240.45
494.757	3242.71
495.126	3288.36
495.496	3312.54
495.866	3283.84
496.235	3351.41
496.605	3366.55
496.974	3431.86
497.344	3436.38
497.713	3415.14
498.082	3480.45
498.452	3545.75
498.821	3566.09
499.19	3545.3
499.559	3610.84
499.928	3578.07
500.298	3638.41
500.667	3655.36
501.036	3616.26
501.405	3658.75
501.774	3710.72
502.143	3736.94
502.512	3749.82
502.88	3798.18
503.249	3780.1
503.618	3826.42
503.987	3785.97
504.356	3839.98
504.724	3842.24
505.093	3897.38
505.462	3846.09
505.83	3875.69
506.199	3866.2
506.567	3969.02
506.936	4002.47
507.304	4044.72
507.672	4054.44
508.041	4011.28
508.409	4063.03
508.777	4048.34
509.145	4065.06
509.514	4111.84
509.882	4126.08
510.25	4068.9
510.618	4147.32
510.986	4160.88
511.354	4216.47
511.722	4222.8
512.09	4261.89
512.458	4212.4
512.826	4216.25
513.193	4239.52
513.561	4260.76
513.929	4289.92
514.297	4335.56
514.664	4350.93
515.032	4395.9
515.4	4383.47
515.767	4378.05
516.135	4385.51
516.502	4344.83
516.869	4431.61
517.237	4444.04
517.604	4461.66
517.972	4429.57
518.339	4506.63
518.706	4498.05
519.073	4489.23
519.44	4529.23
519.808	4526.75
520.175	4533.75
520.542	4595.44
520.909	4615.1
521.276	4553.19
521.643	4648.32
522.009	4669.57
522.376	4663.46
522.743	4717.7
523.11	4718.6
523.477	4737.36
523.843	4764.03
524.21	4759.06
524.577	4842.44
524.943	4797.25
525.31	4853.74
525.676	4867.3
526.043	4892.16
526.409	4945.94
526.776	4997.47
527.142	4947.53
527.508	4989.11
527.874	5061.65
528.241	5041.76
528.607	5047.18
528.973	5174.19
529.339	5065.94
529.705	5142.77
530.071	5203.11
530.437	5211.93
530.803	5193.17
531.169	5246.05
531.535	5276.78
531.901	5242.88
532.267	5319.27
532.632	5323.33
532.998	5284.92
533.364	5391.58
533.73	5387.74
534.095	5401.75
534.461	5415.31
534.826	5474.97
535.192	5506.83
535.557	5522.65
535.923	5544.12
536.288	5552.48
536.653	5537.57
537.019	5576.21
537.384	5549.32
537.749	5606.27
538.114	5636.32
538.479	5657.56
538.845	5685.36
539.21	5673.83
539.575	5690.33
539.94	5708.18
540.305	5796.32
540.67	5716.77
541.034	5809.88
541.399	5896.2
541.764	5858.91
542.129	5861.63
542.494	5898.23
542.858	5932.36
543.223	5927.61
543.587	5977.33
543.952	5989.76
544.316	6001.51
544.681	6043.99
545.045	6063.88
545.41	6096.87
545.774	6132.13
546.138	6122.18
546.503	6179.81
546.867	6169.64
547.231	6197.66
547.595	6205.57
547.959	6193.37
548.324	6260.94
548.688	6265.23
549.052	6287.6
549.416	6305.23
549.779	6346.13
550.143	6325.79
550.507	6423.42
550.871	6464.1
551.235	6421.84
551.599	6509.97
551.962	6498.22
552.326	6495.28
552.689	6568.5
553.053	6507.71
553.417	6537.09
553.78	6575.51
554.143	6613.47
554.507	6629.97
554.87	6609.4
555.234	6702.51
555.597	6650.98
555.96	6685.11
556.323	6710.64
556.686	6684.43
557.05	6799
557.413	6801.04
557.776	6755.39
558.139	6819.79
558.502	6834.26
558.865	6874.71
559.228	6942.73
559.59	6945.44
559.953	6977.53
560.316	6979.79
560.679	6981.14
561.041	6985.44
561.404	7038.09
561.767	7088.71
562.129	7088.03
562.492	7137.07
562.854	7099.33
563.217	7104.3
563.579	7209.84
563.941	7149.73
564.304	7225.43
564.666	7259.78
565.028	7314.02
565.39	7300.91
565.753	7319.89
566.115	7339.78
566.477	7407.35
566.839	7396.27
567.201	7451.87
567.563	7403.51
567.925	7486.89
568.287	7477.18
568.648	7523.28
569.01	7563.73
569.372	7518.31
569.734	7569.38
570.095	7712.2
570.457	7718.98
570.819	7730.95
571.18	7744.74
571.542	7803.95
571.903	7843.04
572.265	7846.43
572.626	7890.05
572.987	7885.08
573.349	7977.05
573.71	8029.48
574.071	8069.7
574.432	8152.19
574.794	8200.77
575.155	8199.87
575.516	8264.27
575.877	8292.3
576.238	8432.18
576.599	8422.69
576.96	8502.69
577.32	8587.66
577.681	8706.97
578.042	8701.32
578.403	8759.4
578.763	8875.33
579.124	8960.53
579.485	9073.97
579.845	9191.48
580.206	9310.8
580.566	9301.99
580.927	9472.6
581.287	9596.44
581.648	9650.45
582.008	9801.86
582.368	9945.59
582.728	10073.27
583.089	10223.77
583.449	10364.78
583.809	10509.19
584.169	10654.95
584.529	10779.91
584.889	11002.73
585.249	11085.67
585.609	11270.97
585.969	11464.19
586.329	11660.12
586.688	11868.25
587.048	12137.62
587.408	12316.82
587.768	12521.34
588.127	12601.56
588.487	12905.06
588.846	13201.77
589.206	13355.89
589.565	13608.54
589.925	13926.95
590.284	14033.16
590.643	14314.28
591.003	14637.44
591.362	14963.31
591.721	15179.8
592.08	15514.48
592.44	15733.91
592.799	15970.51
593.158	16259.77
593.517	16487.33
593.876	16810.26
594.235	17042.57
594.593	17317.6
594.952	17644.14
595.311	17905.83
595.67	18224.92
596.029	18583.1
596.387	18995.74
596.746	19233.03
597.104	19371.1
597.463	19731.54
597.822	20101.25
598.18	20276.16
598.538	20494.01
598.897	20907.78
599.255	21085.41
599.613	21625.5
599.972	21730.13
600.33	22081.54
600.688	22372.38
601.046	22621.18
601.404	22982.31
601.762	23235.41
602.12	23583.42
602.478	23904.77
602.836	24132.11
603.194	24275.38
603.552	24574.81
603.91	24760.56
604.268	25160.55
604.625	25386.99
604.983	25669.47
605.341	25779.52
605.698	26231.49
606.056	26557.58
606.413	26706.5
606.771	26993.73
607.128	27228.75
607.485	27301.97
607.843	27533.37
608.2	27989.63
608.557	28332.45
608.914	28336.51
609.272	28615.6
609.629	28879.33
609.986	29239.32
610.343	29333.78
610.7	29651.51
611.057	29792.97
611.414	29989.8
611.771	30180.53
612.127	30504.14
612.484	30624.59
612.841	30894.41
613.198	30952.94
613.554	31170.34
613.911	31519.03
614.267	31681.29
614.624	31729.87
614.98	32018
615.337	32258.67
615.693	32348.39
616.05	32504.54
616.406	32695.04
616.762	32705.89
617.118	32931.87
617.475	33106.78
617.831	33273.33
618.187	33521.69
618.543	33658.41
618.899	33923.94
619.255	33973.88
619.611	34098.17
619.967	34266.3
620.323	34461.55
620.678	34349.46
621.034	34351.05
621.39	34497.71
621.746	34803.46
622.101	35166.17
622.457	34944.48
622.812	35030.8
623.168	35216.79
623.523	35429.66
623.879	35630.79
624.234	35378.14
624.589	35600.73
624.945	35739.71
625.3	35901.74
625.655	35806.15
626.01	35967.27
626.365	36056.09
626.72	36119.36
627.075	36282.52
627.43	36137.67
627.785	36113.94
628.14	36326.14
628.495	36499.24
628.85	36427.15
629.205	36280.94
629.559	36721.83
629.914	36652.68
630.269	36648.16
630.623	36594.15
630.978	36537.66
631.332	36681.15
631.687	36983.07
632.041	36705.33
632.396	36854.71
632.75	36736.52
633.104	36854.26
633.459	36772
633.813	36819.46
634.167	36884.99
634.521	36747.82
634.875	36936.51
635.229	37010.64
635.583	36710.76
635.937	36804.54
636.291	36851.32
636.645	36844.54
636.999	36868.95
637.352	36932
637.706	36792.11
638.06	36962.73
638.413	36903.07
638.767	36901.71
639.121	36960.69
639.474	36637.77
639.828	36638.9
640.181	36887.48
640.534	36890.87
640.888	36776.97
641.241	36671.44
641.594	36755.28
641.947	36976.06
642.301	36653.13
642.654	36851.77
643.007	36777.65
643.36	36730.19
643.713	36738.33
644.066	36865.56
644.419	36735.62
644.771	36569.52
645.124	36174.95
645.477	36106.48
645.83	35923.66
646.182	35856.09
646.535	35695.87
646.888	35734.74
647.24	35696.1
647.593	35902.87
647.945	35805.02
648.298	35658.58
648.65	35540.39
649.002	35482.77
649.355	35553.27
649.707	35592.37
650.059	35783.1
650.411	36056.99
650.763	36115.52
651.115	36433.93
651.467	36396.19
651.819	36246.82
652.171	36322.97
652.523	36283.42
652.875	36245.69
653.227	36209.53
653.578	36490.2
653.93	36325.91
654.282	36120.26
654.633	36013.83
654.985	36253.37
655.337	36149.87
655.688	36125.69
656.039	36409.75
656.391	36025.13
656.742	36088.4
657.094	36197.78
657.445	36259.7
657.796	36042.53
658.147	36116.65
658.498	36145.58
658.849	36219.02
659.2	36068.29
659.551	36118.46
659.902	36207.04
660.253	36080.94
660.604	36088.18
660.955	35982.64
661.306	36084.11
661.656	35959.37
662.007	36171.34
662.358	35981.29
662.708	36101.73
663.059	35986.94
663.409	35758.69
663.76	36115.07
664.11	36027.84
664.461	36100.83
664.811	35971.34
665.161	35942.87
665.511	35926.82
665.862	35979.7
666.212	35947.61
666.562	36047.05
666.912	35937.44
667.262	35916.2
667.612	35858.58
667.962	36002.98
668.312	35954.62
668.662	35955.3
669.011	35941.06
669.361	35822.65
669.711	35813.38
670.06	35793.04
670.41	35803.21
670.76	35655.87
671.109	35953.04
671.459	35828.75
671.808	35854.51
672.157	35858.8
672.507	35600.28
672.856	35642.76
673.205	35781.06
673.554	35886.6
673.904	35804.34
674.253	35669.43
674.602	35704.91
674.951	35242.55
675.3	35028.54
675.649	35594.86
675.998	35602.09
676.346	35546.04
676.695	35623.33
677.044	35357.57
677.393	35509.43
677.741	35507.4
678.09	35508.53
678.438	35448.19
678.787	35427.18
679.135	35459.49
679.484	35183.79
679.832	35370.45
680.181	35090.24
680.529	35279.16
680.877	35053.85
681.225	35092.04
681.573	35267.41
681.922	35032.16
682.27	34917.81
682.618	35018.15
682.966	34900.18
683.314	34919.39
683.661	34835.78
684.009	34756.91
684.357	34507.88
684.705	34555.79
685.053	34635.78
685.4	34449.8
685.748	34407.09
686.095	34383.36
686.443	34150.15
686.79	34170.49
687.138	34266.53
687.485	34171.84
687.832	34158.96
688.18	34176.14
688.527	34089.13
688.874	33908.57
689.221	33854.79
689.568	33878.74
689.915	33722.59
690.262	33833.32
690.609	33730.5
690.956	33555.36
691.303	33610.5
691.65	33269.49
691.997	33460
692.344	33237.18
692.69	33212.54
693.037	33262.49
693.383	33084.19
693.73	33059.1
694.077	32982.04
694.423	32843.51
694.769	32766.23
695.116	32592.9
695.462	32680.81
695.808	32594.26
696.155	32583.41
696.501	32322.17
696.847	32432.45
697.193	32141.61
697.539	32365.79
697.885	31971.22
698.231	31909.08
698.577	31915.86
698.923	31834.05
699.269	31643.32
699.614	31614.39
699.96	31577.33
700.306	31514.51
700.651	31375.76
700.997	31379.15
701.342	31251.24
701.688	31246.27
702.033	31070
702.379	31082.43
702.724	31028.65
703.069	30991.59
703.415	30579.62
703.76	30731.25
704.105	30611.26
704.45	30716.79
704.795	30503.24
705.14	30391.6
705.485	30384.82
705.83	30229.35
706.175	30278.16
706.52	30115.9
706.865	29973.31
707.209	30099.41
707.554	29856.7
707.899	30033.42
708.243	29827.32
708.588	29867.32
708.932	29576.71
709.277	29626.88
709.621	29510.04
709.966	29482.25
710.31	29407.67
710.654	29195.25
710.998	29250.84
711.342	29297.62
711.687	29189.83
712.031	29117.96
712.375	29014.46
712.719	29118.19
713.063	29018.98
713.407	29006.55
713.75	28796.39
714.094	28806.78
714.438	28674.13
714.782	28621.25
715.125	28618.99
715.469	28659.44
715.812	28471.88
716.156	28426.46
716.499	28424.65
716.843	28437.3
717.186	28179.68
717.53	28434.82
717.873	28292.45
718.216	28266.01
718.559	28170.42
718.902	28002.51
719.246	28056.07
719.589	27844.55
719.932	27841.16
720.275	27790.09
720.617	27745.57
720.96	27778.34
721.303	27706.25
721.646	27688.85
721.989	27607.49
722.331	27751.67
722.674	27501.28
723.016	27492.24
723.359	27450.21
723.701	27459.02
724.044	27328.63
724.386	27180.39
724.729	27433.26
725.071	27318.69
725.413	27116.66
725.755	27168.86
726.097	27042.31
726.439	27048.87
726.782	26926.38
727.124	27045.93
727.465	26928.42
727.807	26932.71
728.149	26802.77
728.491	26746.73
728.833	26730.23
729.175	26672.38
729.516	26731.81
729.858	26697.69
730.199	26594.41
730.541	26607.97
730.882	26564.13
731.224	26600.97
731.565	26350.8
731.906	26432.61
732.248	26459.28
732.589	26270.35
732.93	26163.69
733.271	26211.6
733.612	26277.81
733.953	26226.97
734.294	26026.97
734.635	26031.26
734.976	26069.46
735.317	25954.88
735.658	25888.9
735.999	25914.66
736.339	25840.99
736.68	26052.28
737.021	25832.4
737.361	25721.67
737.702	25987.65
738.042	25707.66
738.383	25652.74
738.723	25686.64
739.063	25645.29
739.404	25721.22
739.744	25579.53
740.084	25595.12
740.424	25524.16
740.764	25419.76
741.104	25495.46
741.444	25364.62
741.784	25316.48
742.124	25381.11
742.464	25354.45
742.804	25174.56
743.143	25113.77
743.483	25061.12
743.823	25022.93
744.162	25033.1
744.502	25110.61
744.841	24918.98
745.181	25055.92
745.52	24766.67
745.86	24982.48
746.199	24839.43
746.538	24872.88
746.877	24913.78
747.216	24808.7
747.556	24703.84
747.895	24773.9
748.234	24759.21
748.573	24693.22
748.911	24626.1
749.25	24697.29
749.589	24501.36
749.928	24520.12
750.267	24483.73
750.605	24406.22
750.944	24387.47
751.283	24386.34
751.621	24305.89
751.96	24264.31
752.298	24144.31
752.636	24263.4
752.975	24100.92
753.313	23979.12
753.651	24179.56
753.989	23935.95
754.327	23936.86
754.666	23766.01
755.004	23893.47
755.342	23868.84
755.679	23857.54
756.017	23717.43
756.355	23773.24
756.693	23595.62
757.031	23655.06
757.368	23519.47
757.706	23522.18
758.044	23383.88
758.381	23376.19
758.719	23194.05
759.056	23359.7
759.394	23215.29
759.731	23049.42
760.068	23126.93
760.405	22993.38
760.743	22922.42
761.08	22954.96
761.417	22875.64
761.754	22704.12
762.091	22768.53
762.428	22655.99
762.765	22518.81
763.102	22563.56
763.438	22444.24
763.775	22313.17
764.112	22331.7
764.449	22380.74
764.785	22186.17
765.122	22160.41
765.458	21997.02
765.795	22067.98
766.131	21854.2
766.467	21933.07
766.804	21891.26
767.14	21646.3
767.476	21685.62
767.812	21597.03
768.148	21582.12
768.485	21435
768.821	21315.23
769.157	21284.72
769.492	21181.45
769.828	21195.23
770.164	21072.75
770.5	20914.79
770.836	20978.52
771.171	20915.02
771.507	20786.66
771.842	20661.69
772.178	20730.16
772.513	20589.15
772.849	20540.34
773.184	20478.19
773.519	20485.87
773.855	20315.93
774.19	20210.85
774.525	20244.75
774.86	20135.6
775.195	20032.33
775.53	20028.71
775.865	19892.9
776.2	19724.31
776.535	19639.57
776.87	19691.09
777.205	19604.54
777.539	19457.88
777.874	19579.91
778.209	19370.87
778.543	19328.62
778.878	19192.8
779.212	19157.77
779.547	19124.33
779.881	19178.11
780.215	18956.87
780.55	18999.81
780.884	18934.73
781.218	18766.6
781.552	18775.18
781.886	18791.91
782.22	18589.2
782.554	18555.76
782.888	18452.71
783.222	18416.55
783.556	18302.88
783.889	18191.92
784.223	18086.84
784.557	18053.62
784.89	18138.59
785.224	17979.95
785.557	17793.74
785.891	17768.88
786.224	17770.92
786.558	17714.42
786.891	17678.49
787.224	17494.77
787.557	17487.08
787.891	17503.35
788.224	17455.44
788.557	17414.54
788.89	17351.72
789.223	17336.8
789.556	17183.36
789.888	17205.51
790.221	17072.63
790.554	16968.45
790.887	16893.2
791.219	16915.12
791.552	16878.74
791.884	16730.94
792.217	16740.21
792.549	16739.98
792.882	16575.24
793.214	16477.17
793.546	16567.33
793.879	16385.64
794.211	16279.2
794.543	16354.68
794.875	16292.31
795.207	16336.83
795.539	16257.06
795.871	16138.87
796.203	15969.38
796.535	16055.71
796.867	16041.7
797.198	15903.85
797.53	15928.25
797.862	15708.15
798.193	15773.91
798.525	15796.73
798.856	15749.73
799.188	15586.79
799.519	15570.52
799.85	15451.66
800.182	15469.51
800.513	15368.95
800.844	15291.21
801.175	15363.75
801.506	15408.27
801.837	15204.66
802.168	15178.89
802.499	15171.21
802.83	15022.74
803.161	15029.29
803.491	15043.98
803.822	14941.16
804.153	14866.81
804.483	14801.28
804.814	14767.38
805.145	14716.76
805.475	14717.89
805.805	14587.95
806.136	14617.78
806.466	14658.91
806.796	14555.18
807.126	14509.53
807.457	14455.3
807.787	14422.08
808.117	14319.93
808.447	14271.57
808.777	14353.38
809.107	14227.51
809.436	14215.98
809.766	14229.32
810.096	14103.67
810.426	14079.94
810.755	14091.92
811.085	14096.89
811.414	14016.44
811.744	13908.19
812.073	13820.29
812.403	13941.19
812.732	13859.16
813.061	13884.24
813.39	13716.56
813.719	13839.72
814.049	13738.93
814.378	13693.74
814.707	13659.84
815.036	13584.81
815.365	13579.39
815.693	13456.45
816.022	13533.97
816.351	13497.58
816.68	13348.66
817.008	13364.71
817.337	13194.09
817.665	13230.25
817.994	13275.44
818.322	13272.73
818.651	13170.81
818.979	13164.94
819.307	13223.92
819.636	13056.01
819.964	12994.09
820.292	13077.71
820.62	13067.09
820.948	12953.64
821.276	13057.37
821.604	13007.65
821.932	13028.22
822.259	12982.12
822.587	12962.23
822.915	12960.87
823.243	12995
823.57	12991.61
823.898	12910.48
824.225	12892.85
824.553	12935.34
824.88	12924.72
825.207	12946.19
825.535	12884.04
825.862	12928.56
826.189	12932.17
826.516	12996.13
826.843	13003.36
827.17	12936.02
827.497	13030.25
827.824	12937.15
828.151	12999.06
828.478	12992.96
828.805	13004.04
829.131	12899.41
829.458	12903.25
829.785	12855.79
830.111	12860.99
830.438	12900.54
830.764	12904.83
831.09	12845.85
831.417	12818.5
831.743	12952.51
832.069	12832.29
832.395	12781.44
832.722	12886.98
833.048	12786.19
833.374	12770.14
833.7	12708.68
834.026	12722.01
834.351	12812.86
834.677	12834.55
835.003	12844.04
835.329	12693.99
835.654	12717.04
835.98	12728.56
836.306	12677.27
836.631	12596.36
836.956	12676.14
837.282	12737.15
837.607	12649.47
837.932	12645.63
838.258	12546.2
838.583	12583.26
838.908	12552.98
839.233	12480.89
839.558	12438.4
839.883	12415.8
840.208	12399.98
840.533	12330.38
840.858	12402.02
841.182	12387.33
841.507	12359.08
841.832	12317.95
842.156	12292.87
842.481	12265.75
842.805	12233.66
843.13	12232.98
843.454	12180.33
843.778	12116.6
844.103	12055.59
844.427	12084.74
844.751	12117.28
845.075	12006.1
845.399	11993.44
845.723	11947.34
846.047	11941.24
846.371	11861.02
846.695	11874.57
847.019	11768.81
847.343	11717.97
847.666	11639.33
847.99	11581.7
848.313	11572.89
848.637	11553.23
848.96	11474.36
849.284	11455.38
849.607	11404.53
849.931	11344.87
850.254	11326.79
850.577	11172.45
850.9	11193.24
851.223	11191.2
851.546	11073.69
851.869	11024.88
852.192	11000.93
852.515	10955.5
852.838	10831.66
853.161	10848.61
853.483	10846.58
853.806	10823.53
854.129	10835.51
854.451	10742.85
854.774	10704.44
855.096	10687.04
855.419	10621.5
855.741	10649.3
856.063	10590.09
856.385	10537.89
856.708	10472.35
857.03	10554.38
857.352	10492.46
857.674	10460.37
857.996	10398.91
858.318	10410.43
858.64	10414.27
858.961	10350.55
859.283	10252.7
859.605	10152.59
859.926	10202.3
860.248	10171.79
860.57	10155.07
860.891	10139.25
861.212	10068.75
861.534	10108.29
861.855	10105.58
862.176	10081.63
862.498	10131.8
862.819	10051.12
863.14	9971.35
863.461	9937.68
863.782	9983.1
864.103	9922.76
864.424	9939.71
864.745	9937
865.065	9861.75
865.386	9852.93
865.707	9790.79
866.027	9856.32
866.348	9832.82
866.668	9835.53
866.989	9717.12
867.309	9706.72
867.63	9753.05
867.95	9734.07
868.27	9612.71
868.59	9656.78
868.91	9660.85
869.23	9724.12
869.55	9610.91
869.87	9638.7
870.19	9695.88
870.51	9645.03
870.83	9620.62
871.15	9542.43
871.469	9546.5
871.789	9533.17
872.109	9519.61
872.428	9470.8
872.748	9547.86
873.067	9450.46
873.386	9472.38
873.706	9433.28
874.025	9404.81
874.344	9362.78
874.663	9411.36
874.982	9437.12
875.301	9355.09
875.62	9373.17
875.939	9357.35
876.258	9339.95
876.577	9306.51
876.896	9215.44
877.214	9256.79
877.533	9323.23
877.852	9272.84
878.17	9177.24
878.489	9207.3
878.807	9151.93
879.125	9184.93
879.444	9185.38
879.762	9145.61
880.08	9159.39
880.398	9086.85
880.716	9132.5
881.034	9102.9
881.352	9045.27
881.67	9063.35
881.988	9057.47
882.306	9045.95
882.624	9010.47
882.941	8979.28
883.259	8952.62
883.577	8905.61
883.894	8887.31
884.212	8871.49
884.529	8866.97
884.846	8875.56
885.164	8808.67
885.481	8855.9
885.798	8781.32
886.115	8691.16
886.432	8715.34
886.75	8692.06
887.067	8680.99
887.383	8665.85
887.7	8702.45
888.017	8632.85
888.334	8652.29
888.651	8547.43
888.967	8552.63
889.284	8533.19
889.6	8495.45
889.917	8396.02
890.233	8493.87
890.55	8401.9
890.866	8476.25
891.182	8370.94
891.498	8385.4
891.815	8353.09
892.131	8271.28
892.447	8305.86
892.763	8260.21
893.079	8182.24
893.395	8221.11
893.71	8190.15
894.026	8124.62
894.342	8112.41
894.657	8060.66
894.973	8166.65
895.289	8082.81
895.604	8052.98
895.92	8001.23
896.235	7969.59
896.55	7928.69
896.865	7925.3
897.181	7901.12
897.496	7929.14
897.811	7870.61
898.126	7819.77
898.441	7847.11
898.756	7749.49
899.071	7786.55
899.386	7754.23
899.7	7697.06
900.015	7585.2
900.33	7569.15
900.644	7650.28
900.959	7584.97
901.273	7580
901.588	7494.58
901.902	7488.02
902.216	7492.32
902.531	7471.75
902.845	7413.45
903.159	7399.66
903.473	7364.64
903.787	7335.71
904.101	7244.19
904.415	7269.72
904.729	7240.35
905.042	7248.93
905.356	7211.19
905.67	7197.86
905.984	7186.79
906.297	7170.97
906.611	7084.42
906.924	7073.8
907.237	7076.51
907.551	7098.2
907.864	6968.94
908.177	6990.86
908.491	6975.27
908.804	6927.36
909.117	6870.64
909.43	6886.23
909.743	6813.69
910.056	6852.56
910.368	6824.09
910.681	6698.89
910.994	6731.43
911.307	6702.96
911.619	6667.71
911.932	6633.13
912.244	6601.04
912.557	6568.73
912.869	6540.93
913.181	6506.35
913.494	6540.7
913.806	6425.9
914.118	6430.42
914.43	6397.2
914.742	6377.09
915.054	6350.2
915.366	6327.38
915.678	6305.23
915.99	6271.78
916.302	6255.97
916.613	6257.1
916.925	6255.06
917.236	6228.17
917.548	6170.54
917.859	6167.83
918.171	6112.24
918.482	6114.05
918.794	6025.69
919.105	6098.46
919.416	6039.02
919.727	6021.4
920.038	5960.15
920.349	5942.75
920.66	5937.56
920.971	5921.51
921.282	5891.46
921.593	5848.74
921.903	5768.97
922.214	5790.67
922.525	5801.74
922.835	5747.73
923.146	5706.38
923.456	5672.25
923.767	5652.59
924.077	5654.17
924.387	5627.96
924.697	5590.67
925.008	5560.62
925.318	5583.44
925.628	5549.77
925.938	5500.51
926.248	5465.93
926.558	5448.53
926.867	5429.32
927.177	5437
927.487	5398.36
927.796	5372.6
928.106	5363.11
928.416	5335.09
928.725	5376.67
929.034	5244.01
929.344	5307.29
929.653	5234.52
929.962	5220.29
930.271	5236.56
930.581	5196.33
930.89	5106.84
931.199	5112.04
931.508	5137.8
931.817	5136.9
932.125	5061.19
932.434	5067.07
932.743	5012.61
933.051	4994.53
933.36	5010.35
933.669	4906.17
933.977	4958.37
934.286	4905.04
934.594	4945.49
934.902	4909.79
935.21	4849
935.519	4862.1
935.827	4803.57
936.135	4786.4
936.443	4736.68
936.751	4787.76
937.059	4733.07
937.367	4686.52
937.674	4663.24
937.982	4666.18
938.29	4615.56
938.597	4668.44
938.905	4635.44
939.213	4611.49
939.52	4532.62
939.827	4569
940.135	4545.95
940.442	4479.51
940.749	4491.94
941.056	4510.47
941.363	4411.04
941.67	4459.63
941.977	4423.7
942.284	4349.8
942.591	4387.99
942.898	4337.6
943.205	4331.72
943.511	4314.32
943.818	4356.81
944.125	4331.95
944.431	4237.71
944.738	4289.92
945.044	4209.01
945.35	4242.69
945.657	4178.73
945.963	4176.47
946.269	4176.7
946.575	4159.75
946.881	4163.82
947.187	4099.86
947.493	4094.44
947.799	4054.67
948.105	4074.1
948.41	3986.42
948.716	4032.75
949.022	4037.94
949.327	4007.21
949.633	3952.98
949.938	3929.25
950.244	3951.39
950.549	3919.98
950.854	3902.81
951.16	3909.59
951.465	3833.43
951.77	3837.5
952.075	3848.35
952.38	3756.14
952.685	3826.65
952.99	3839.31
953.294	3779.19
953.599	3780.1
953.904	3753.88
954.209	3694
954.513	3724.73
954.818	3685.19
955.122	3672.98
955.426	3669.59
955.731	3644.96
956.035	3598.41
956.339	3577.39
956.643	3602.7
956.948	3596.83
957.252	3580.78
957.556	3559.77
957.86	3507.34
958.163	3514.57
958.467	3534.46
958.771	3519.54
959.075	3494
959.378	3456.04
959.682	3447.45
959.985	3445.19
960.289	3424.85
960.592	3357.96
960.896	3373.1
961.199	3379.43
961.502	3352.09
961.805	3324.74
962.108	3359.32
962.411	3294.69
962.714	3276.61
963.017	3305.53
963.32	3308.47
963.623	3245.65
963.926	3256.5
964.228	3219.21
964.531	3210.17
964.833	3217.63
965.136	3165.43
965.438	3163.62
965.741	3175.59
966.043	3157.52
966.345	3130.85
966.648	3093.11
966.95	3100.34
967.252	3094.47
967.554	3108.25
967.856	3082.94
968.158	3023.96
968.46	3034.81
968.761	3023.73
969.063	3005.43
969.365	3021.02
969.666	2998.65
969.968	2944.64
970.269	2944.19
970.571	2981.7
970.872	2950.06
971.174	2932.89
971.475	2895.15
971.776	2870.29
972.077	2861.7
972.378	2910.97
972.679	2853.34
972.98	2795.04
973.281	2853.34
973.582	2851.99
973.883	2799.56
974.183	2773.8
974.484	2801.82
974.785	2765.89
975.085	2756.62
975.386	2768.6
975.686	2750.07
975.986	2714.59
976.287	2732.67
976.587	2705.1
976.887	2710.3
977.187	2700.13
977.487	2689.05
977.787	2639.79
978.087	2646.79
978.387	2617.42
978.687	2616.51
978.987	2609.96
979.286	2598.43
979.586	2573.12
979.885	2605.21
980.185	2567.02
980.484	2532.22
980.784	2546.68
981.083	2527.25
981.382	2540.58
981.682	2540.81
981.981	2480.02
982.28	2504.2
982.579	2474.37
982.878	2447.93
983.177	2465.56
983.475	2493.13
983.774	2454.03
984.073	2377.88
984.372	2420.59
984.67	2421.49
984.969	2413.13
985.267	2409.96
985.566	2404.54
985.864	2345.11
986.162	2367.25
986.461	2360.7
986.759	2360.7
987.057	2353.02
987.355	2305.56
987.653	2301.27
987.951	2318.67
988.249	2277.31
988.547	2276.18
988.844	2290.19
989.142	2256.97
989.44	2223.53
989.737	2212.91
990.035	2203.42
990.332	2231.89
990.63	2186.92
990.927	2169.52
991.224	2208.16
991.521	2191.44
991.819	2179.46
992.116	2168.16
992.413	2144.66
992.71	2111.22
993.006	2159.8
993.303	2137.88
993.6	2109.41
993.897	2086.58
994.193	2082.74
994.49	2104.21
994.787	2071.44
995.083	2073.7
995.379	2042.74
995.676	2040.03
995.972	2027.15
996.268	1998.45
996.565	2028.51
996.861	2004.55
997.157	1992.35
997.453	1967.72
997.749	1960.26
998.044	1899.47
998.34	1946.93
998.636	1944.89
998.932	1927.72
999.227	1921.16
999.523	1901.96
999.818	1922.97
1000.114	1918.45
1000.409	1895.85
1000.704	1871.9
1001	1887.04
1001.295	1849.53
1001.59	1832.13
1001.885	1817.66
1002.18	1808.85
1002.475	1817.66
1002.77	1778.8
1003.065	1771.79
1003.359	1798.23
1003.654	1807.49
1003.949	1779.92
1004.243	1752.58
1004.538	1764.56
1004.832	1756.2
1005.127	1722.75
1005.421	1718.01
1005.715	1729.08
1006.009	1729.98
1006.304	1676.88
1006.598	1677.1
1006.892	1663.77
1007.186	1684.79
1007.48	1668.74
1007.773	1639.82
1008.067	1610.66
1008.361	1620.38
1008.655	1601.17
1008.948	1612.92
1009.242	1610.21
1009.535	1590.33
1009.829	1551
1010.122	1572.02
1010.415	1610.21
1010.708	1571.34
1011.001	1572.25
1011.295	1544.9
1011.588	1519.37
1011.881	1512.59
1012.173	1512.14
1012.466	1531.57
1012.759	1510.33
1013.052	1499.03
1013.344	1501.06
1013.637	1447.28
1013.93	1473.94
1014.222	1444.79
1014.514	1431.23
1014.807	1428.52
1015.099	1433.72
1015.391	1480.95
1015.683	1403.44
1015.976	1427.62
1016.268	1399.6
1016.56	1410.67
1016.851	1391.01
1017.143	1386.49
1017.435	1382.65
1017.727	1356.43
1018.018	1358.92
1018.31	1323.67
1018.602	1337.45
1018.893	1293.38
1019.185	1357.11
1019.476	1357.56
1019.767	1296.32
1020.058	1304.01
1020.35	1305.81
1020.641	1269.2
1020.932	1265.59
1021.223	1259.71
1021.514	1285.93
1021.804	1242.31
1022.095	1221.3
1022.386	1261.52
1022.677	1232.37
1022.967	1217
1023.258	1197.12
1023.548	1190.79
1023.839	1190.79
1024.129	1186.04
1024.419	1184.46
1024.709	1165.25
1025	1149.21
1025.29	1161.86
1025.58	1145.14
1025.87	1154.4
1026.16	1128.64
1026.449	1118.7
1026.739	1137.68
1027.029	1162.31
1027.319	1093.62
1027.608	1108.53
1027.898	1099.94
1028.187	1073.95
1028.477	1063.79
1028.766	1059.72
1029.055	1061.53
1029.344	1066.72
1029.634	1049.55
1029.923	1031.7
1030.212	1042.09
1030.501	1015.2
1030.79	1028.53
1031.078	1009.32
1031.367	1012.04
1031.656	1017.69
1031.945	1016.1
1032.233	998.02
1032.522	1005.71
1032.81	990.34
1033.099	964.35
1033.387	971.81
1033.675	981.75
1033.963	945.14
1034.251	982.88
1034.54	965.48
1034.828	937.69
1035.116	950.34
1035.403	949.66
1035.691	932.49
1035.979	914.86
1036.267	915.99
1036.554	911.25
1036.842	926.39
1037.129	884.81
1037.417	908.08
1037.704	887.97
1037.992	892.04
1038.279	878.93
1038.566	866.73
1038.853	866.73
1039.14	866.73
