Data from hue_32_FLMS001491_00034.txt Node
Date: Tue Feb 07 17:23:17 GMT 2017
User: dcchb
Spectrometer: FLMS00149
Trigger mode: 0
Integration Time (sec): 2.000000E-2
Scans to average: 10
Electric dark correction enabled: true
Nonlinearity correction enabled: false
Boxcar width: 0
XAxis mode: Wavelengths
Number of Pixels in Spectrum: 2048
>>>>>Begin Spectral Data<<<<<
341.393	-30.9
341.776	-30.9
342.16	-30.9
342.543	-58.93
342.927	-73.84
343.31	-77.68
343.693	-78.81
344.077	-74.29
344.46	-51.69
344.843	-53.95
345.226	-25.25
345.61	-36.33
345.993	-29.32
346.376	-3.79
346.759	17.01
347.142	27.85
347.525	52.71
347.908	51.35
348.291	82.54
348.674	77.57
349.057	122.09
349.44	132.26
349.823	138.36
350.206	165.93
350.588	203.21
350.971	219.71
351.354	217.45
351.737	239.6
352.119	263.1
352.502	256.77
352.884	282.31
353.267	285.7
353.65	292.7
354.032	304.23
354.414	329.77
354.797	319.37
355.179	311.91
355.562	327.05
355.944	334.96
356.326	329.54
356.709	330.44
357.091	344.91
357.473	337
357.855	337.22
358.238	332.03
358.62	338.13
359.002	345.81
359.384	321.4
359.766	332.25
360.148	350.56
360.53	333.61
360.912	343.55
361.294	349.2
361.676	338.58
362.057	349.2
362.439	336.09
362.821	329.77
363.203	320.05
363.584	330.9
363.966	340.39
364.348	345.58
364.729	330.44
365.111	318.01
365.493	331.35
365.874	343.32
366.256	329.09
366.637	300.84
367.019	313.49
367.4	306.94
367.781	307.17
368.163	314.62
368.544	327.51
368.925	332.25
369.306	306.94
369.688	339.03
370.069	318.24
370.45	308.52
370.831	330.44
371.212	302.2
371.593	321.18
371.974	332.93
372.355	320.73
372.736	319.37
373.117	302.87
373.498	322.08
373.879	318.92
374.26	307.17
374.641	319.37
375.021	315.75
375.402	329.09
375.783	345.81
376.163	332.25
376.544	348.3
376.925	328.41
377.305	340.16
377.686	349.43
378.066	346.04
378.447	333.16
378.827	336.54
379.208	333.61
379.588	322.99
379.968	322.76
380.349	323.89
380.729	344.45
381.109	318.69
381.489	323.44
381.87	325.47
382.25	338.58
382.63	364.57
383.01	333.61
383.39	330.44
383.77	352.36
384.15	324.79
384.53	353.27
384.91	327.96
385.29	345.13
385.67	337.45
386.049	356.43
386.429	348.07
386.809	354.62
387.189	347.84
387.568	347.39
387.948	360.5
388.328	354.17
388.707	357.34
389.087	359.6
389.466	377.9
389.846	363.44
390.225	372.93
390.605	359.37
390.984	356.66
391.363	357.56
391.743	379.26
392.122	362.08
392.501	368.63
392.881	405.24
393.26	386.49
393.639	364.79
394.018	359.82
394.397	364.34
394.776	364.57
395.155	392.36
395.534	377.9
395.913	410.22
396.292	386.04
396.671	400.95
397.05	395.98
397.429	373.38
397.808	379.48
398.186	377.67
398.565	399.37
398.944	406.37
399.323	384.23
399.701	405.47
400.08	395.98
400.458	402.31
400.837	381.74
401.215	405.24
401.594	402.76
401.972	403.89
402.351	402.08
402.729	411.8
403.107	406.15
403.486	428.07
403.864	436.2
404.242	412.7
404.62	413.15
404.999	424.9
405.377	416.09
405.755	409.54
406.133	414.73
406.511	432.81
406.889	421.06
407.267	432.36
407.645	432.81
408.023	431.91
408.401	442.98
408.779	409.54
409.156	435.07
409.534	427.39
409.912	432.59
410.29	450.67
410.667	460.61
411.045	460.61
411.422	471.91
411.8	462.64
412.178	456.54
412.555	449.54
412.933	448.86
413.31	486.37
413.687	483.43
414.065	459.71
414.442	484.79
414.819	491.79
415.197	492.92
415.574	480.5
415.951	512.13
416.328	490.44
416.705	496.99
417.082	492.92
417.46	495.41
417.837	490.67
418.214	512.59
418.591	488.86
418.967	501.96
419.344	505.35
419.721	503.55
420.098	498.8
420.475	511.68
420.852	539.93
421.228	501.96
421.605	510.78
421.982	530.66
422.358	550.1
422.735	550.32
423.111	546.71
423.488	559.82
423.864	551.23
424.241	565.01
424.617	552.58
424.994	552.13
425.37	558.91
425.746	556.88
426.123	552.36
426.499	560.27
426.875	596.88
427.251	588.97
427.627	583.09
428.003	575.63
428.379	601.17
428.756	593.04
429.132	615.41
429.507	598.91
429.883	601.17
430.259	585.58
430.635	631.68
431.011	609.53
431.387	617.22
431.763	621.28
432.138	632.36
432.514	637.55
432.89	644.11
433.265	654.5
433.641	632.13
434.016	661.51
434.392	618.57
434.767	689.3
435.143	661.51
435.518	680.26
435.894	689.98
436.269	713.26
436.644	693.37
437.02	689.76
437.395	701.96
437.77	743.54
438.145	718.23
438.52	709.19
438.895	731.56
439.271	733.37
439.646	719.59
440.021	760.26
440.395	765.46
440.77	738.12
441.145	762.3
441.52	768.85
441.895	751.22
442.27	761.39
442.645	779.47
443.019	760.49
443.394	763.88
443.769	747.83
444.143	786.7
444.518	768.62
444.892	771.56
445.267	798.45
445.641	798.23
446.016	787.38
446.39	808.17
446.764	790.54
447.139	824.67
447.513	805.69
447.887	801.84
448.262	816.53
448.636	831.67
449.01	843.42
449.384	834.61
449.758	835.51
450.132	837.55
450.506	862.86
450.88	870.32
451.254	852.24
451.628	856.31
452.002	852.46
452.376	885
452.75	891.56
453.123	902.86
453.497	891.33
453.871	921.39
454.244	921.16
454.618	932.24
454.992	936.53
455.365	935.4
455.739	967.49
456.112	947.83
456.486	953.25
456.859	973.82
457.232	995.28
457.606	978.11
457.979	991.44
458.352	1022.4
458.725	1023.98
459.099	1060.82
459.472	1026.7
459.845	1055.62
460.218	1057.43
460.591	1068.28
460.964	1063.98
461.337	1103.53
461.71	1114.15
462.083	1112.8
462.456	1115.28
462.829	1144.66
463.201	1160.93
463.574	1179.91
463.947	1165.68
464.32	1187.82
464.692	1212
465.065	1214.49
465.438	1226.69
465.81	1235.73
466.183	1247.48
466.555	1294.94
466.928	1323.64
467.3	1290.64
467.672	1315.95
468.045	1371.77
468.417	1349.85
468.789	1375.39
469.161	1371.09
469.534	1420.13
469.906	1450.19
470.278	1438.21
470.65	1485.67
471.022	1489.06
471.394	1526.57
471.766	1572.9
472.138	1536.06
472.51	1606.12
472.882	1618.55
473.253	1651.99
473.625	1676.4
473.997	1707.36
474.369	1723.85
474.74	1769.5
475.112	1804.98
475.484	1851.53
475.855	1881.36
476.227	1897.63
476.598	1967.01
476.97	1965.43
477.341	2022.38
477.713	2057.63
478.084	2084.3
478.455	2131.75
478.827	2207.91
479.198	2230.51
479.569	2257.4
479.94	2350.28
480.311	2378.75
480.682	2463.27
481.053	2537.84
481.424	2536.71
481.795	2611.29
482.166	2656.48
482.537	2742.58
482.908	2840.21
483.279	2849.7
483.65	2946.19
484.021	3023.03
484.391	3067.09
484.762	3116.58
485.133	3196.81
485.503	3237.03
485.874	3343.47
486.244	3392.06
486.615	3479.74
486.985	3591.15
487.356	3653.52
487.726	3725.61
488.097	3775.32
488.467	3874.76
488.837	3943.68
489.207	3999.05
489.578	4167.4
489.948	4202.21
490.318	4261.87
490.688	4353.61
491.058	4403.33
491.428	4492.37
491.798	4611.23
492.168	4678.58
492.538	4718.58
492.908	4822.08
493.278	4919.48
493.648	4938.23
494.017	5045.8
494.387	5099.13
494.757	5193.14
495.126	5285.79
495.496	5293.25
495.866	5405.11
496.235	5469.52
496.605	5566.24
496.974	5612.34
497.344	5684.43
497.713	5750.64
498.082	5792.45
498.452	5892.56
498.821	5924.42
499.19	5975.94
499.559	6070.41
499.928	6124.64
500.298	6220.46
500.667	6272.21
501.036	6305.65
501.405	6331.19
501.774	6438.31
502.143	6463.62
502.512	6549.26
502.88	6587
503.249	6612.31
503.618	6730.05
503.987	6769.14
504.356	6784.28
504.724	6852.76
505.093	6889.14
505.462	6965.52
505.83	6981.12
506.199	7100.66
506.567	7165.29
506.936	7161.68
507.304	7306.08
507.672	7326.64
508.041	7342.69
508.409	7403.25
508.777	7499.29
509.145	7535
509.514	7542.46
509.882	7631.27
510.25	7596.01
510.618	7684.15
510.986	7713.3
511.354	7821.77
511.722	7887.76
512.09	7994.42
512.458	7973.86
512.826	8065.16
513.193	8024.93
513.561	8050.47
513.929	8147.64
514.297	8275.55
514.664	8302.21
515.032	8332.72
515.4	8338.59
515.767	8401.64
516.135	8471.47
516.502	8439.16
516.869	8539.04
517.237	8576.78
517.604	8584.69
517.972	8636.21
518.339	8702.2
518.706	8680.28
519.073	8745.82
519.44	8802.31
519.808	8850.67
520.175	8908.75
520.542	8991.68
520.909	9012.93
521.276	8957.34
521.643	9072.13
522.009	9128.18
522.376	9186.03
522.743	9237.33
523.11	9300.38
523.477	9366.82
523.843	9444.33
524.21	9566.36
524.577	9534.04
524.943	9634.15
525.31	9681.16
525.676	9772
526.043	9813.58
526.409	9756.86
526.776	9942.17
527.142	9903.75
527.508	9968.38
527.874	9988.49
528.241	10070.07
528.607	10116.4
528.973	10220.8
529.339	10210.64
529.705	10381.25
530.071	10406.11
530.437	10412.44
530.803	10504.87
531.169	10521.81
531.535	10534.02
531.901	10608.59
532.267	10662.6
532.632	10739.21
532.998	10703.96
533.364	10883.84
533.73	10782.82
534.095	10897.4
534.461	10961.35
534.826	11067.11
535.192	11070.73
535.557	11086.32
535.923	11063.95
536.288	11118.86
536.653	11237.5
537.019	11265.75
537.384	11294.67
537.749	11380.1
538.114	11386.42
538.479	11423.71
538.845	11433.2
539.21	11525.18
539.575	11529.7
539.94	11586.87
540.305	11704.83
540.67	11714.1
541.034	11724.95
541.399	11810.59
541.764	11792.97
542.129	11896.24
542.494	11863.47
542.858	11977.59
543.223	11913.19
543.587	12029.34
543.952	11972.17
544.316	12060.08
544.681	12100.76
545.045	12228.66
545.41	12226.18
545.774	12273.41
546.138	12362.22
546.503	12386.85
546.867	12441.09
547.231	12537.58
547.595	12524.25
547.959	12670.46
548.324	12664.36
548.688	12702.1
549.052	12698.25
549.416	12731.93
549.779	12808.08
550.143	12805.6
550.507	12887.4
550.871	12888.08
551.235	12898.93
551.599	13059.15
551.962	13075.42
552.326	13084.01
552.689	13115.64
553.053	13133.5
553.417	13084.68
553.78	13373.72
554.143	13308.41
554.507	13360.84
554.87	13361.97
555.234	13483.54
555.597	13385.92
555.96	13549.3
556.323	13532.13
556.686	13590.89
557.05	13668.62
557.413	13697.1
557.776	13694.84
558.139	13808.28
558.502	13809.86
558.865	13885.79
559.228	13942.97
559.59	13949.97
559.953	14010.76
560.316	14108.84
560.679	14132.57
561.041	14172.11
561.404	14267.48
561.767	14369.85
562.129	14270.87
562.492	14396.06
562.854	14475.16
563.217	14388.15
563.579	14474.48
563.941	14509.28
564.304	14626.79
564.666	14765.54
565.028	14782.04
565.39	14826.79
565.753	14929.83
566.115	14952.43
566.477	14946.78
566.839	15008.7
567.201	15206.89
567.563	15078.98
567.925	15223.39
568.287	15239.43
568.648	15238.53
569.01	15368.69
569.372	15507.9
569.734	15445.98
570.095	15540.21
570.457	15631.51
570.819	15674.22
571.18	15733.2
571.542	15845.29
571.903	15797.38
572.265	15923.71
572.626	15972.52
572.987	16030.6
573.349	16180.2
573.71	16132.29
574.071	16339.06
574.432	16300.87
574.794	16540.86
575.155	16575.44
575.516	16535.89
575.877	16698.37
576.238	16823.57
576.599	16915.32
576.96	17061.98
577.32	17052.26
577.681	17231.69
578.042	17445.25
578.403	17381.52
578.763	17603.21
579.124	17567.5
579.485	17834.16
579.845	18024.22
580.206	18040.49
580.566	18217.66
580.927	18318.67
581.287	18638.44
581.648	18750.07
582.008	18997.3
582.368	18989.39
582.728	19262.37
583.089	19358.64
583.449	19598.19
583.809	19806.32
584.169	20035.24
584.529	20160.66
584.889	20496.47
585.249	20553.64
585.609	20777.82
585.969	21164.25
586.329	21288.31
586.688	21566.95
587.048	21682.88
587.408	21880.84
587.768	22128.51
588.127	22301.17
588.487	22465.68
588.846	23006.68
589.206	23092.33
589.565	23290.74
589.925	23648.47
590.284	23853.21
590.643	24270.38
591.003	24499.53
591.362	24756.47
591.721	24997.14
592.08	25287.53
592.44	25515.54
592.799	25800.51
593.158	26020.62
593.517	26281.17
593.876	26456.08
594.235	26705.12
594.593	27214.26
594.952	27397.08
595.311	27563.63
595.67	27957.06
596.029	28363.6
596.387	28628.91
596.746	28923.14
597.104	29022.34
597.463	29260.53
597.822	29674.76
598.18	29711.59
598.538	29982.32
598.897	30419.14
599.255	30448.75
599.613	31174.38
599.972	31175.51
600.33	31404.2
600.688	31466.57
601.046	31972.55
601.404	32308.81
601.762	32321.69
602.12	32713.09
602.478	32821.11
602.836	33026.53
603.194	33181.78
603.552	33337.26
603.91	33520.76
604.268	33860.86
604.625	34084.81
604.983	34317.12
605.341	34396.21
605.698	34738.58
606.056	35080.26
606.413	35120.49
606.771	35279.58
607.128	35642.96
607.485	35528.84
607.843	35928.83
608.2	36224.19
608.557	36536.27
608.914	36558.42
609.272	36755.93
609.629	37074.34
609.986	37296.02
610.343	37203.37
610.7	37630.93
611.057	37680.42
611.414	37844.49
611.771	37918.38
612.127	38230.69
612.484	38413.51
612.841	38589.78
613.198	38453.06
613.554	38618.48
613.911	38964.68
614.267	39116.54
614.624	39221.17
614.98	39242.41
615.337	39526.47
615.693	39565.8
616.05	39690.76
616.406	39900.48
616.762	39806.47
617.118	40050.75
617.475	40132.11
617.831	40317.64
618.187	40462.27
618.543	40509.5
618.899	40774.8
619.255	40927.57
619.611	40972.54
619.967	41161.23
620.323	41283.49
620.678	41281
621.034	41237.84
621.39	41290.5
621.746	41421.11
622.101	41873.31
622.457	41591.05
622.812	41812.06
623.168	41743.59
623.523	41952.17
623.879	42027.88
624.234	41855.91
624.589	42189.46
624.945	42170.02
625.3	42240.08
625.655	42277.81
626.01	42346.74
626.365	42366.4
626.72	42440.3
627.075	42430.35
627.43	42400.07
627.785	42306.29
628.14	42579.05
628.495	42650.91
628.85	42521.65
629.205	42511.71
629.559	42745.6
629.914	42465.38
630.269	42644.81
630.623	42636.22
630.978	42499.73
631.332	42792.6
631.687	42771.14
632.041	42760.74
632.396	42746.05
632.75	42686.62
633.104	42755.54
633.459	42674.41
633.813	42732.94
634.167	42683.45
634.521	42763.9
634.875	42818.82
635.229	42758.48
635.583	42612.95
635.937	42733.4
636.291	42675.54
636.645	42595.77
636.999	42525.04
637.352	42767.07
637.706	42487.3
638.06	42748.99
638.413	42586.06
638.767	42502.89
639.121	42750.57
639.474	42405.95
639.828	42498.6
640.181	42544.93
640.534	42606.85
640.888	42460.63
641.241	42314.65
641.594	42325.5
641.947	42579.95
642.301	42271.04
642.654	42451.82
643.007	42330.69
643.36	42365.04
643.713	42412.95
644.066	42530.24
644.419	42318.94
644.771	41963.7
645.124	41653.88
645.477	41622.46
645.83	41361.45
646.182	41223.61
646.535	41195.58
646.888	41152.19
647.24	41110.16
647.593	41173.89
647.945	41186.32
648.298	41013.89
648.65	41016.83
649.002	40787.01
649.355	41000.79
649.707	41035.36
650.059	41183.83
650.411	41599.64
650.763	41623.59
651.115	41913.98
651.467	41743.59
651.819	41912.4
652.171	41815
652.523	41659.98
652.875	41722.8
653.227	41595.8
653.578	41902.91
653.93	41824.04
654.282	41558.51
654.633	41528.46
654.985	41660.43
655.337	41536.59
655.688	41573.43
656.039	41848.45
656.391	41480.77
656.742	41646.19
657.094	41575.01
657.445	41716.93
657.796	41669.47
658.147	41498.17
658.498	41450.94
658.849	41561.22
659.2	41480.77
659.551	41305.64
659.902	41649.13
660.253	41497.72
660.604	41539.98
660.955	41337.73
661.306	41422.92
661.656	41373.43
662.007	41342.02
662.358	41392.19
662.708	41331.85
663.059	41360.55
663.409	41199.2
663.76	41427.67
664.11	41404.84
664.461	41456.59
664.811	41387.89
665.161	41365.97
665.511	41282.36
665.862	41381.57
666.212	41460.89
666.562	41441
666.912	41275.13
667.262	41183.83
667.612	41230.38
667.962	41271.97
668.312	41225.87
668.662	41329.59
669.011	41200.56
669.361	41272.87
669.711	41143.61
670.06	41153.32
670.41	41047.11
670.76	40997.85
671.109	41338.18
671.459	41221.57
671.808	41040.33
672.157	41204.62
672.507	40900.22
672.856	41035.36
673.205	41081.24
673.554	41045.76
673.904	40958.08
674.253	41206.2
674.602	40951.52
674.951	40439.22
675.3	40347.02
675.649	40984.74
675.998	40908.81
676.346	40962.82
676.695	41015.48
677.044	40636.28
677.393	40772.09
677.741	40918.98
678.09	40867.91
678.438	40673.11
678.787	40672.89
679.135	40723.96
679.484	40364.19
679.832	40546.11
680.181	40495.26
680.529	40551.76
680.877	40419.33
681.225	40501.59
681.573	40624.53
681.922	40359.9
682.27	40184.99
682.618	40182.05
682.966	40072.22
683.314	40163.75
683.661	39993.58
684.009	39892.11
684.357	39956.07
684.705	39820.93
685.053	39903.19
685.4	39808.05
685.748	39650.77
686.095	39575.51
686.443	39482.63
686.79	39452.35
687.138	39551.33
687.485	39338.46
687.832	39331
688.18	39386.14
688.527	39027.5
688.874	39035.41
689.221	39070.22
689.568	38893.72
689.915	38823.22
690.262	38838.81
690.609	38710.23
690.956	38656.22
691.303	38509.33
691.65	38342.33
691.997	38463
692.344	38190.24
692.69	38152.5
693.037	38209.45
693.383	37804.49
693.73	37971.94
694.077	37815.11
694.423	37915.44
694.769	37785.5
695.116	37606.75
695.462	37684.72
695.808	37430.71
696.155	37544.83
696.501	37291.28
696.847	37243.82
697.193	36980.78
697.539	37092.64
697.885	36928.8
698.231	36789.15
698.577	36921.35
698.923	36700.11
699.269	36588.47
699.614	36551.64
699.96	36270.74
700.306	36354.35
700.651	36270.29
700.997	36106.9
701.342	36037.75
701.688	35969.05
702.033	35926.12
702.379	35843.41
702.724	35628.05
703.069	35819.91
703.415	35314.83
703.76	35264.21
704.105	35366.58
704.45	35429.86
704.795	35041.85
705.14	35033.49
705.485	35029.64
705.83	34780.61
706.175	34882.3
706.52	34874.62
706.865	34666.72
707.209	34554.18
707.554	34414.97
707.899	34417.23
708.243	34360.06
708.588	34293.17
708.932	34107.41
709.277	34191.02
709.621	34210.23
709.966	33964.81
710.31	34004.81
710.654	33624.48
710.998	33726.85
711.342	33706.74
711.687	33639.85
712.031	33457.93
712.375	33451.38
712.719	33378.16
713.063	33351.27
713.407	33351.5
713.75	33396.47
714.094	33225.4
714.438	33047.32
714.782	33276.47
715.125	32933.43
715.469	33046.87
715.812	32809.36
716.156	32705.41
716.499	32715.35
716.843	32796.03
717.186	32548.58
717.53	32761.91
717.873	32652.31
718.216	32551.07
718.559	32422.48
718.902	32243.95
719.246	32239.66
719.589	32214.8
719.932	32064.75
720.275	32170.06
720.617	32118.53
720.96	31961.7
721.303	32020.23
721.646	31929.39
721.989	31657.98
722.331	31708.83
722.674	31695.04
723.016	31803.51
723.359	31648.26
723.701	31772.55
724.044	31527.14
724.386	31313.36
724.729	31449.63
725.071	31435.61
725.413	31293.7
725.755	31368.5
726.097	31194.72
726.439	30961.28
726.782	31076.75
727.124	31239.69
727.465	31064.78
727.807	30989.98
728.149	30950.66
728.491	30792.92
728.833	31009.64
729.175	30811.68
729.516	30905.01
729.858	30731.9
730.199	30657.1
730.541	30557.9
730.882	30604
731.224	30657.56
731.565	30406.26
731.906	30413.72
732.248	30468.63
732.589	30375.53
732.93	30162.65
733.271	30284.23
733.612	30262.31
733.953	30317.68
734.294	30073.16
734.635	30069.55
734.976	30197.68
735.317	29999.27
735.658	30011.7
735.999	29881.53
736.339	29853.96
736.68	30038.81
737.021	29804.47
737.361	29786.62
737.702	29874.07
738.042	29695.09
738.383	29715.43
738.723	29700.97
739.063	29657.81
739.404	29641.76
739.744	29525.16
740.084	29494.87
740.424	29601.76
740.764	29517.02
741.104	29539.84
741.444	29343.01
741.784	29343.92
742.124	29331.49
742.464	29170.14
742.804	29114.55
743.143	29072.29
743.483	29185.96
743.823	28982.57
744.162	28883.36
744.502	29072.96
744.841	28937.15
745.181	28986.64
745.52	28769.47
745.86	28978.96
746.199	28836.81
746.538	28719.98
746.877	28769.02
747.216	28844.04
747.556	28657.16
747.895	28641.79
748.234	28538.52
748.573	28526.09
748.911	28423.94
749.25	28425.52
749.589	28382.14
749.928	28393.21
750.267	28389.14
750.605	28331.29
750.944	28272.76
751.283	28129.94
751.621	28169.71
751.96	28073.44
752.298	27993.67
752.636	28041.58
752.975	27792.55
753.313	27800.23
753.651	27918.64
753.989	27745.54
754.327	27698.99
754.666	27574.02
755.004	27740.8
755.342	27619.44
755.679	27520.24
756.017	27530.63
756.355	27566.79
756.693	27324.54
757.031	27354.14
757.368	27222.84
757.706	27281.37
758.044	27085.67
758.381	27221.71
758.719	27030.98
759.056	27063.98
759.394	26896.07
759.731	26888.62
760.068	26980.36
760.405	26727.72
760.743	26599.58
761.08	26734.72
761.417	26397.55
761.754	26402.07
762.091	26438.91
762.428	26315.07
762.765	26242.98
763.102	26262.42
763.438	26087.51
763.775	25989.66
764.112	26064.46
764.449	25986.49
764.785	25861.07
765.122	25656.11
765.458	25571.81
765.795	25596.9
766.131	25460.63
766.467	25462.89
766.804	25252.05
767.14	25137.93
767.476	25201.65
767.812	25107.42
768.148	25158.04
768.485	24928.89
768.821	24953.3
769.157	24930.47
769.492	24775.68
769.828	24766.18
770.164	24526.87
770.5	24447.55
770.836	24425.4
771.171	24289.81
771.507	24272.86
771.842	24093.66
772.178	24058.41
772.513	24049.37
772.849	23941.8
773.184	23798.53
773.519	23850.5
773.855	23766.21
774.19	23490.96
774.525	23519.89
774.86	23523.96
775.195	23524.41
775.53	23249.39
775.865	23217.75
776.2	23049.85
776.535	22989.06
776.87	22936.4
777.205	22885.33
777.539	22685.56
777.874	22724.88
778.209	22516.07
778.543	22580.93
778.878	22368.96
779.212	22418.9
779.547	22204.22
779.881	22349.07
780.215	22134.16
780.55	22102.53
780.884	21970.55
781.218	21904.34
781.552	21934.17
781.886	21735.3
782.22	21676.77
782.554	21551.13
782.888	21339.83
783.222	21283.79
783.556	21306.16
783.889	21269.55
784.223	21067.3
784.557	21096
784.89	21101.2
785.224	20991.59
785.557	20869.11
785.891	20760.41
786.224	20701.21
786.558	20723.58
786.891	20476.58
787.224	20421.21
787.557	20312.29
787.891	20364.72
788.224	20274.1
788.557	20261.44
788.89	20298.51
789.223	20242.01
789.556	20025.52
789.888	20033.2
790.221	19859.87
790.554	19666.66
790.887	19792.53
791.219	19618.3
791.552	19583.27
791.884	19581.01
792.217	19479.09
792.549	19395.93
792.882	19223.51
793.214	19209.04
793.546	19273.45
793.879	19149.38
794.211	18991.2
794.543	18984.64
794.875	18894.47
795.207	19050.18
795.539	18934.02
795.871	18941.71
796.203	18715.72
796.535	18662.62
796.867	18525.22
797.198	18545.11
797.53	18506.46
797.862	18432.11
798.193	18457.2
798.525	18332
798.856	18182.86
799.188	18120.26
799.519	18093.14
799.85	18006.59
800.182	18054.27
800.513	17943.77
800.844	17888.85
801.175	17931.34
801.506	17797.1
801.837	17821.96
802.168	17694.05
802.499	17674.85
802.83	17578.8
803.161	17436.66
803.491	17421.07
803.822	17543.32
804.153	17383.78
804.483	17229.21
804.814	17186.27
805.145	17220.85
805.475	17160.96
805.805	17088.42
806.136	17107.63
806.466	17023.56
806.796	17015.88
807.126	16876
807.457	16841.65
807.787	16824.7
808.117	16693.18
808.447	16703.35
808.777	16729.79
809.107	16666.74
809.436	16552.84
809.766	16541.32
810.096	16487.31
810.426	16411.6
810.755	16422.45
811.085	16304.94
811.414	16272.17
811.744	16209.12
812.073	16148.78
812.403	16169.8
812.732	16078.73
813.061	16100.2
813.39	15982.69
813.719	15972.97
814.049	16023.82
814.378	15989.01
814.707	15869.24
815.036	15888.9
815.365	15803.71
815.693	15727.55
816.022	15677.84
816.351	15579.99
816.68	15563.94
817.008	15561.23
817.337	15471.74
817.665	15468.35
817.994	15402.59
818.322	15366.21
818.651	15325.98
818.979	15256.6
819.307	15356.26
819.636	15294.34
819.964	15185.87
820.292	15288.92
820.62	15197.4
820.948	15219.09
821.276	15324.85
821.604	15088.93
821.932	15278.07
822.259	15232.42
822.587	15052.32
822.915	15096.38
823.243	15162.6
823.57	15097.06
823.898	15146.78
824.225	15147.68
824.553	14996.95
824.88	15041.24
825.207	15081.69
825.535	15045.31
825.862	15079.43
826.189	15023.84
826.516	15047.8
826.843	15137.29
827.17	15103.16
827.497	15034.69
827.824	15035.37
828.151	15166.89
828.478	14992.88
828.805	15154.46
829.131	14967.57
829.458	14997.4
829.785	15031.53
830.111	15086.21
830.438	15086.89
830.764	15045.54
831.09	15075.14
831.417	14869.27
831.743	14991.98
832.069	15024.97
832.395	14910.4
832.722	14968.7
833.048	15035.37
833.374	15018.42
833.7	14939.1
834.026	14968.7
834.351	14964.41
834.677	14882.83
835.003	14893.45
835.329	14913.11
835.654	14888.03
835.98	14785.88
836.306	14810.06
836.631	14678.54
836.956	14831.76
837.282	14775.04
837.607	14711.53
837.932	14627.92
838.258	14577.98
838.583	14655.72
838.908	14491.2
839.233	14587.24
839.558	14450.3
839.883	14432.9
840.208	14360.36
840.533	14495.49
840.858	14378.66
841.182	14399
841.507	14426.12
841.832	14292.34
842.156	14355.61
842.481	14312.67
842.805	14213.24
843.13	14210.3
843.454	14183.19
843.778	14168.5
844.103	14114.71
844.427	14065.45
844.751	14043.98
845.075	14026.81
845.399	13972.12
845.723	13918.56
846.047	13912.69
846.371	13827.72
846.695	13787.94
847.019	13664.33
847.343	13671.56
847.666	13570.77
847.99	13522.41
848.313	13529.42
848.637	13418.69
848.96	13405.81
849.284	13386.82
849.607	13263.89
849.931	13255.3
850.254	13145.7
850.577	13190.9
850.9	13013.95
851.223	13001.52
851.546	13019.6
851.869	12863.67
852.192	12959.94
852.515	12811.7
852.838	12766.05
853.161	12790.91
853.483	12720.85
853.806	12611.7
854.129	12604.7
854.451	12515.66
854.774	12470.46
855.096	12481.99
855.419	12391.37
855.741	12387.75
856.063	12311.6
856.385	12377.81
856.708	12216.01
857.03	12234.76
857.352	12196.57
857.674	12190.7
857.996	12099.63
858.318	12017.37
858.64	12051.72
858.961	11990.48
859.283	12008.33
859.605	11930.14
859.926	11912.96
860.248	11957.71
860.57	11830.25
860.891	11849.01
861.212	11702.8
861.534	11757.04
861.855	11745.96
862.176	11696.25
862.498	11728.56
862.819	11668.45
863.14	11659.86
863.461	11642.69
863.782	11586.19
864.103	11593.88
864.424	11493.09
864.745	11583.48
865.065	11467.33
865.386	11365.41
865.707	11464.84
866.027	11486.53
866.348	11387.33
866.668	11475.46
866.989	11351.4
867.309	11361.57
867.63	11263.04
867.95	11359.98
868.27	11230.04
868.59	11271.62
868.91	11224.17
869.23	11231.63
869.55	11162.7
869.87	11211.74
870.19	11194.11
870.51	11112.08
870.83	11210.16
871.15	11064.62
871.469	11127
871.789	11101.69
872.109	10996.38
872.428	11026.89
872.748	11101.46
873.067	11041.8
873.386	10991.63
873.706	11042.25
874.025	10954.34
874.344	10915.93
874.663	10893.78
874.982	10895.59
875.301	10954.8
875.62	10866.21
875.939	10834.35
876.258	10834.35
876.577	10811.98
876.896	10752.99
877.214	10816.95
877.533	10788.93
877.852	10780.56
878.17	10712.32
878.489	10771.3
878.807	10720.23
879.125	10769.94
879.444	10666.67
879.762	10625.09
880.08	10610.17
880.398	10509.61
880.716	10581.47
881.034	10583.06
881.352	10568.14
881.67	10418.09
881.988	10489.72
882.306	10475.71
882.624	10449.95
882.941	10401.36
883.259	10355.72
883.577	10364.98
883.894	10330.63
884.212	10304.19
884.529	10318.88
884.846	10257.87
885.164	10238.21
885.481	10217.19
885.798	10243.18
886.115	10085.89
886.432	10137.87
886.75	10122.05
887.067	10133.35
887.383	10085.44
887.7	10106.68
888.017	9997.99
888.334	10053.8
888.651	9979.23
888.967	9969.29
889.284	9937.65
889.6	9930.42
889.917	9817.88
890.233	9801.15
890.55	9734.49
890.866	9835.05
891.182	9750.31
891.498	9705.56
891.815	9667.15
892.131	9698.33
892.447	9634.15
892.763	9636.19
893.079	9657.2
893.395	9561.16
893.71	9465.12
894.026	9536.08
894.342	9460.6
894.657	9399.58
894.973	9420.6
895.289	9431.22
895.604	9420.37
895.92	9358.68
896.235	9313.71
896.55	9307.83
896.865	9234.16
897.181	9211.11
897.496	9199.59
897.811	9084.11
898.126	9100.61
898.441	9088.18
898.756	9010.22
899.071	9000.05
899.386	9016.77
899.7	8925.7
900.015	8915.98
900.33	8848.41
900.644	8843.44
900.959	8832.37
901.273	8896.77
901.588	8809.32
901.902	8795.08
902.216	8676.44
902.531	8664.69
902.845	8674.18
903.159	8596.89
903.473	8570.68
903.787	8505.82
904.101	8469.89
904.415	8480.06
904.729	8458.59
905.042	8391.02
905.356	8372.04
905.67	8317.8
905.984	8369.33
906.297	8320.74
906.611	8241.2
906.924	8263.34
907.237	8217.92
907.551	8168.88
907.864	8120.07
908.177	8096.57
908.491	8129.33
908.804	8068.32
909.117	7979.28
909.43	8000.3
909.743	7884.37
910.056	7923.92
910.368	7878.72
910.681	7774.09
910.994	7786.52
911.307	7807.99
911.619	7733.86
911.932	7774.54
912.244	7601.66
912.557	7683.24
912.869	7569.57
913.181	7584.72
913.494	7582.91
913.806	7522.34
914.118	7547.65
914.43	7446.19
914.742	7485.06
915.054	7434.21
915.366	7383.14
915.678	7346.53
915.99	7353.31
916.302	7238.96
916.613	7242.8
916.925	7173.88
917.236	7128.91
917.548	7181.34
917.859	7168.23
918.171	7125.52
918.482	7083.71
918.794	6979.99
919.105	7080.32
919.416	6952.64
919.727	6963.26
920.038	6932.08
920.349	6902.93
920.66	6827.67
920.971	6853.66
921.282	6815.02
921.593	6741.35
921.903	6765.98
922.214	6752.2
922.525	6729.6
922.835	6660.22
923.146	6614.57
923.456	6608.92
923.767	6531.41
924.077	6540.22
924.387	6481.69
924.697	6487.8
925.008	6464.29
925.318	6438.76
925.628	6401.92
925.938	6377.29
926.248	6346.1
926.558	6315.82
926.867	6335.71
927.177	6267.01
927.487	6229.5
927.796	6202.15
928.106	6194.02
928.416	6198.76
928.725	6146.34
929.034	6120.12
929.344	6124.19
929.653	6118.31
929.962	6021.37
930.271	6026.56
930.581	5980.46
930.89	5999.22
931.199	5966.68
931.508	5901.6
931.817	5883.74
932.125	5886
932.434	5859.34
932.743	5792.22
933.051	5818.66
933.36	5783.63
933.669	5744.54
933.977	5730.53
934.286	5726.01
934.594	5685.56
934.902	5620.93
935.21	5591.77
935.519	5625.45
935.827	5592.45
936.135	5553.36
936.443	5474.71
936.751	5514.26
937.059	5492.34
937.367	5419.58
937.674	5453.47
937.982	5427.94
938.29	5413.93
938.597	5348.39
938.905	5309.52
939.213	5322.18
939.52	5259.35
939.827	5256.87
940.135	5194.27
940.442	5268.39
940.749	5186.81
941.056	5164.44
941.363	5124.67
941.67	5090.77
941.977	5080.15
942.284	5108.17
942.591	5072.47
942.898	5043.09
943.205	5019.36
943.511	5055.74
943.818	4979.81
944.125	4978.46
944.431	4942.53
944.738	4927.16
945.044	4892.81
945.35	4904.56
945.657	4873.15
945.963	4829.76
946.269	4796.77
946.575	4769.87
946.881	4778.69
947.187	4760.61
947.493	4724
947.799	4704.11
948.105	4730.33
948.41	4668.18
948.716	4679.93
949.022	4586.38
949.327	4617.11
949.633	4568.52
949.938	4534.4
950.244	4515.19
950.549	4511.12
950.854	4511.35
951.16	4478.81
951.465	4499.6
951.77	4448.98
952.075	4415.76
952.38	4436.32
952.685	4414.18
952.99	4387.51
953.294	4390.22
953.599	4319.04
953.904	4310.45
954.209	4301.64
954.513	4266.61
954.818	4232.71
955.122	4221.64
955.426	4221.64
955.731	4199.95
956.035	4175.31
956.339	4147.07
956.643	4160.4
956.948	4151.13
957.252	4142.77
957.556	4128.76
957.86	4057.58
958.163	4074.75
958.467	3992.27
958.771	4014.64
959.075	4017.13
959.378	3994.08
959.682	4027.75
959.985	3999.95
960.289	3959.5
960.592	3955.88
960.896	3921.31
961.199	3916.79
961.502	3853.06
961.805	3859.84
962.108	3845.61
962.411	3799.96
962.714	3851.03
963.017	3786.62
963.32	3800.41
963.623	3800.41
963.926	3743.01
964.228	3746.4
964.531	3723.35
964.833	3710.02
965.136	3705.72
965.438	3657.36
965.741	3672.5
966.043	3657.81
966.345	3639.28
966.648	3604.48
966.95	3644.93
967.252	3549.79
967.554	3570.13
967.856	3538.27
968.158	3528.78
968.46	3517.25
968.761	3498.04
969.063	3473.64
969.365	3487.2
969.666	3436.12
969.968	3415.11
970.269	3450.36
970.571	3413.07
970.872	3369.69
971.174	3368.33
971.475	3375.33
971.776	3352.28
972.077	3317.94
972.378	3304.38
972.679	3308.9
972.98	3300.31
973.281	3282.46
973.582	3244.94
973.883	3218.95
974.183	3243.36
974.484	3218.5
974.785	3196.13
975.085	3215.79
975.386	3205.4
975.686	3192.74
975.986	3125.62
976.287	3115.91
976.587	3118.84
976.887	3111.16
977.187	3098.28
977.487	3068.22
977.787	3041.11
978.087	3037.94
978.387	2992.29
978.687	3048.79
978.987	3006.08
979.286	2984.38
979.586	2974.89
979.885	2965.18
980.185	2962.46
980.484	2922.01
980.784	2929.92
981.083	2908.23
981.382	2862.13
981.682	2897.61
981.981	2888.12
982.28	2821
982.579	2826.42
982.878	2842.92
983.177	2842.69
983.475	2811.28
983.774	2825.74
984.073	2811.28
984.372	2775.58
984.67	2780.77
984.969	2736.71
985.267	2752.53
985.566	2729.7
985.864	2729.7
986.162	2716.14
986.461	2671.85
986.759	2680.89
987.057	2653.55
987.355	2637.73
987.653	2622.36
987.951	2626.65
988.249	2618.52
988.547	2597.73
988.844	2587.56
989.142	2557.05
989.44	2617.39
989.737	2540.55
990.035	2528.13
990.332	2550.95
990.63	2507.79
990.927	2503.95
991.224	2491.97
991.521	2506.66
991.819	2476.83
992.116	2479.54
992.413	2453.1
992.71	2442.7
993.006	2461.46
993.303	2402.71
993.6	2435.02
993.897	2415.59
994.193	2448.13
994.49	2381.69
994.787	2380.78
995.083	2360.45
995.379	2335.14
995.676	2371.52
995.972	2331.97
996.268	2326.32
996.565	2316.38
996.861	2296.49
997.157	2279.09
997.453	2286.78
997.749	2241.13
998.044	2243.39
998.34	2240.45
998.636	2246.1
998.932	2176.04
999.227	2197.74
999.523	2191.64
999.818	2169.26
1000.114	2163.62
1000.409	2145.76
1000.704	2116.84
1001	2116.61
1001.295	2118.42
1001.59	2081.36
1001.885	2121.13
1002.18	2070.28
1002.475	2080
1002.77	2061.7
1003.065	2021.7
1003.359	2022.38
1003.654	2017.4
1003.949	2025.54
1004.243	2034.58
1004.538	1986.44
1004.832	1974.47
1005.127	1942.6
1005.421	1970.63
1005.715	1954.58
1006.009	1969.04
1006.304	1929.05
1006.598	1925.66
1006.892	1932.89
1007.186	1895.6
1007.48	1893.79
1007.773	1855.15
1008.067	1861.48
1008.361	1811.53
1008.655	1832.1
1008.948	1836.84
1009.242	1827.58
1009.535	1819.9
1009.829	1775.6
1010.122	1790.29
1010.415	1791.42
1010.708	1789.39
1011.001	1792.78
1011.295	1752.78
1011.588	1760.24
1011.881	1731.99
1012.173	1714.36
1012.466	1729.05
1012.759	1717.98
1013.052	1701.71
1013.344	1707.13
1013.637	1657.41
1013.93	1654.48
1014.222	1650.18
1014.514	1638.66
1014.807	1638.43
1015.099	1645.66
1015.391	1616.51
1015.683	1601.6
1015.976	1610.86
1016.268	1561.37
1016.56	1560.92
1016.851	1543.52
1017.143	1562.28
1017.435	1528.83
1017.727	1563.18
1018.018	1535.16
1018.31	1543.74
1018.602	1526.34
1018.893	1482.05
1019.185	1500.13
1019.476	1480.7
1019.767	1458.78
1020.058	1479.34
1020.35	1453.35
1020.641	1448.61
1020.932	1425.33
1021.223	1441.6
1021.514	1414.26
1021.804	1402.05
1022.095	1391.43
1022.386	1367.25
1022.677	1378.1
1022.967	1377.2
1023.258	1355.95
1023.548	1354.15
1023.839	1339.23
1024.129	1342.62
1024.419	1324.32
1024.709	1312.56
1025	1321.83
1025.29	1317.76
1025.58	1292.9
1025.87	1286.35
1026.16	1278.44
1026.449	1248.39
1026.739	1279.34
1027.029	1246.35
1027.319	1249.52
1027.608	1221.27
1027.898	1231.66
1028.187	1218.78
1028.477	1221.27
1028.766	1218.1
1029.055	1197.77
1029.344	1182.17
1029.634	1187.37
1029.923	1159.35
1030.212	1145.79
1030.501	1146.47
1030.79	1139.46
1031.078	1125.45
1031.367	1123.19
1031.656	1111.21
1031.945	1135.17
1032.233	1121.61
1032.522	1104.21
1032.81	1110.76
1033.099	1097.2
1033.387	1089.29
1033.675	1079.12
1033.963	1069.63
1034.251	1076.86
1034.54	1041.39
1034.828	1049.07
1035.116	1053.14
1035.403	1034.83
1035.691	1024.44
1035.979	1021.95
1036.267	1009.75
1036.554	1019.01
1036.842	1009.07
1037.129	1007.49
1037.417	989.86
1037.704	990.54
1037.992	962.97
1038.279	976.08
1038.566	965.23
1038.853	965.23
1039.14	965.23
