Data from hue_00_FLMS001491_73.txt Node
Date: Mon Feb 06 15:30:12 GMT 2017
User: dcchb
Spectrometer: FLMS00149
Trigger mode: 0
Integration Time (sec): 2.000000E-2
Scans to average: 10
Electric dark correction enabled: true
Nonlinearity correction enabled: false
Boxcar width: 0
XAxis mode: Wavelengths
Number of Pixels in Spectrum: 2048
>>>>>Begin Spectral Data<<<<<
341.393	-4.76
341.776	-4.76
342.16	-4.76
342.543	-45.44
342.927	-70.97
343.31	-68.94
343.693	-64.42
344.077	-62.16
344.46	-51.99
344.843	-47.92
345.226	-62.61
345.61	-14.7
345.993	-20.13
346.376	2.7
346.759	-7.47
347.142	24.84
347.525	41.11
347.908	53.09
348.291	72.53
348.674	89.93
349.057	116.14
349.44	117.5
349.823	154.78
350.206	168.34
350.588	195.23
350.971	197.72
351.354	208.34
351.737	239.98
352.119	254.22
352.502	277.94
352.884	277.94
353.267	289.7
353.65	271.84
354.032	285.63
354.414	301.45
354.797	305.06
355.179	315.23
355.562	316.81
355.944	339.19
356.326	332.86
356.709	327.66
357.091	342.35
357.473	342.12
357.855	328.56
358.238	346.19
358.62	333.54
359.002	332.86
359.384	359.98
359.766	341.22
360.148	339.64
360.53	337.38
360.912	338.28
361.294	345.97
361.676	325.4
362.057	326.3
362.439	334.21
362.821	343.25
363.203	326.76
363.584	331.28
363.966	310.71
364.348	315.46
364.729	331.5
365.111	299.41
365.493	318.85
365.874	322.69
366.256	318.85
366.637	298.28
367.019	309.36
367.4	312.29
367.781	318.62
368.163	313.88
368.544	321.11
368.925	290.83
369.306	304.16
369.688	318.85
370.069	311.84
370.45	291.05
370.831	301.22
371.212	324.05
371.593	305.29
371.974	315.01
372.355	340.99
372.736	320.2
373.117	316.36
373.498	308.45
373.879	304.61
374.26	326.3
374.641	320.66
375.021	314.1
375.402	320.88
375.783	314.1
376.163	315.68
376.544	307.55
376.925	319.53
377.305	308.68
377.686	318.17
378.066	308.45
378.447	324.95
378.827	327.43
379.208	308
379.588	304.38
379.968	320.88
380.349	320.88
380.729	322.69
381.109	326.53
381.489	337.83
381.87	328.34
382.25	330.82
382.63	327.43
383.01	331.05
383.39	319.75
383.77	326.98
384.15	330.82
384.53	317.27
384.91	325.4
385.29	339.64
385.67	345.74
386.049	355.68
386.429	328.56
386.809	334.67
387.189	326.76
387.568	342.8
387.948	333.99
388.328	354.33
388.707	342.58
389.087	339.41
389.466	364.72
389.846	347.1
390.225	358.39
390.605	371.5
390.984	372.18
391.363	361.33
391.743	344.84
392.122	345.51
392.501	340.77
392.881	353.42
393.26	363.37
393.639	366.98
394.018	361.78
394.397	357.72
394.776	360.2
395.155	354.78
395.534	382.12
395.913	384.16
396.292	352.97
396.671	359.98
397.05	370.6
397.429	340.99
397.808	373.54
398.186	369.92
398.565	358.17
398.944	377.15
399.323	358.39
399.701	380.99
400.08	337.83
400.458	386.19
400.837	381.9
401.215	385.29
401.594	370.15
401.972	374.89
402.351	380.09
402.729	359.75
403.107	384.83
403.486	378.73
403.864	383.93
404.242	393.42
404.62	381.22
404.999	402.91
405.377	402.91
405.755	371.5
406.133	381.22
406.511	402.24
406.889	407.88
407.267	402.46
407.645	385.06
408.023	394.55
408.401	395.68
408.779	408.11
409.156	397.04
409.534	438.17
409.912	430.26
410.29	412.63
410.667	403.59
411.045	429.58
411.422	417.38
411.8	424.61
412.178	430.71
412.555	447.21
412.933	451.95
413.31	446.3
413.687	434.1
414.065	444.72
414.442	458.5
414.819	449.69
415.197	456.47
415.574	440.88
415.951	456.7
416.328	458.73
416.705	448.56
417.082	458.96
417.46	449.69
417.837	479.75
418.214	470.71
418.591	476.36
418.967	478.62
419.344	465.06
419.721	484.49
420.098	454.21
420.475	492.63
420.852	492.4
421.228	481.33
421.605	519.75
421.982	496.02
422.358	470.71
422.735	499.63
423.111	493.08
423.488	498.28
423.864	508.67
424.241	533.76
424.617	519.52
424.994	498.28
425.37	509.58
425.746	514.1
426.123	521.78
426.499	543.93
426.875	524.04
427.251	519.29
427.627	555
428.003	538.05
428.379	521.33
428.756	545.28
429.132	573.98
429.507	545.73
429.883	557.94
430.259	580.08
430.635	561.33
431.011	568.11
431.387	566.3
431.763	581.44
432.138	590.03
432.514	602.23
432.89	599.07
433.265	595.45
433.641	600.65
434.016	613.08
434.392	604.04
434.767	637.03
435.143	619.86
435.518	612.4
435.894	621.89
436.269	644.71
436.644	627.77
437.02	640.87
437.395	630.03
437.77	625.73
438.145	667.31
438.52	667.54
438.895	667.09
439.271	666.64
439.646	663.92
440.021	681.1
440.395	671.61
440.77	677.48
441.145	656.47
441.52	684.94
441.895	675.67
442.27	695.79
442.645	698.05
443.019	715.45
443.394	691.27
443.769	688.78
444.143	699.63
444.518	727.42
444.892	712.06
445.267	703.47
445.641	723.58
446.016	711.38
446.39	714.09
446.764	710.7
447.139	733.98
447.513	729.91
447.887	727.42
448.262	744.15
448.636	754.54
449.01	745.5
449.384	755.67
449.758	755.22
450.132	734.2
450.506	753.19
450.88	754.54
451.254	763.13
451.628	771.27
452.002	776.01
452.376	797.03
452.75	785.28
453.123	796.8
453.497	793.19
453.871	803.13
454.244	805.39
454.618	812.17
454.992	802.68
455.365	813.75
455.739	835.44
456.112	857.14
456.486	851.94
456.859	852.39
457.232	878.38
457.606	837.48
457.979	879.06
458.352	899.17
458.725	889.45
459.099	885.39
459.472	905.95
459.845	941.66
460.218	909.34
460.591	929
460.964	923.58
461.337	938.49
461.71	940.53
462.083	967.19
462.456	934.88
462.829	973.29
463.201	968.32
463.574	981.65
463.947	971.71
464.32	1008.77
464.692	1014.65
465.065	1027.3
465.438	1019.39
465.81	1044.25
466.183	1069.56
466.555	1060.52
466.928	1066.4
467.3	1063.23
467.672	1117.02
468.045	1123.57
468.417	1109.79
468.789	1112.05
469.161	1107.53
469.534	1149.79
469.906	1191.82
470.278	1204.02
470.65	1187.53
471.022	1202.67
471.394	1242.44
471.766	1222.1
472.138	1281.76
472.51	1279.05
472.882	1288.77
473.253	1306.39
473.625	1317.92
473.997	1354.98
474.369	1394.3
474.74	1381.42
475.112	1416.22
475.484	1418.93
475.855	1430.23
476.227	1434.07
476.598	1484.92
476.97	1519.72
477.341	1554.75
477.713	1553.84
478.084	1550.68
478.455	1599.49
478.827	1606.27
479.198	1639.94
479.569	1691.92
479.94	1718.81
480.311	1755.65
480.682	1784.12
481.053	1814.63
481.424	1825.93
481.795	1881.29
482.166	1893.27
482.537	1924.91
482.908	1942.53
483.279	1956.09
483.65	2017.56
484.021	2053.04
484.391	2077.67
484.762	2092.81
485.133	2130.33
485.503	2180.95
485.874	2230.89
486.244	2219.59
486.615	2298.91
486.985	2343.2
487.356	2364.22
487.726	2383.65
488.097	2431.79
488.467	2468.4
488.837	2510.43
489.207	2506.36
489.578	2587.49
489.948	2580.03
490.318	2634.27
490.688	2703.42
491.058	2692.34
491.428	2744.09
491.798	2764.43
492.168	2844.2
492.538	2837.65
492.908	2890.31
493.278	2914.03
493.648	2897.54
494.017	2944.99
494.387	2982.96
494.757	3034.71
495.126	3028.61
495.496	3074.03
495.866	3093.69
496.235	3130.98
496.605	3176.85
496.974	3173.69
497.344	3212.33
497.713	3272.22
498.082	3257.53
498.452	3308.6
498.821	3314.7
499.19	3308.83
499.559	3331.2
499.928	3378.65
500.298	3386.79
500.667	3412.1
501.036	3415.94
501.405	3419.11
501.774	3504.98
502.143	3499.78
502.512	3492.78
502.88	3555.15
503.249	3554.47
503.618	3598.08
503.987	3595.82
504.356	3616.16
504.724	3656.84
505.093	3615.94
505.462	3662.94
505.83	3681.47
506.199	3686.67
506.567	3685.99
506.936	3718.98
507.304	3750.85
507.672	3755.59
508.041	3781.58
508.409	3801.02
508.777	3821.58
509.145	3838.08
509.514	3862.03
509.882	3842.14
510.25	3903.16
510.618	3888.92
510.986	3883.95
511.354	3929.15
511.722	3989.71
512.09	4015.93
512.458	4006.66
512.826	4029.94
513.193	4017.96
513.561	4014.34
513.929	4039.2
514.297	4053.21
514.664	4089.14
515.032	4076.04
515.4	4111.29
515.767	4151.52
516.135	4135.02
516.502	4117.17
516.869	4183.6
517.237	4198.52
517.604	4152.42
517.972	4200.55
518.339	4207.11
518.706	4204.17
519.073	4254.79
519.44	4238.97
519.808	4305.64
520.175	4243.72
520.542	4313.09
520.909	4349.02
521.276	4332.98
521.643	4323.26
522.009	4331.62
522.376	4377.05
522.743	4386.76
523.11	4435.58
523.477	4439.64
523.843	4425.41
524.21	4508.34
524.577	4556.48
524.943	4538.85
525.31	4551.28
525.676	4623.37
526.043	4601.9
526.409	4650.94
526.776	4673.31
527.142	4672.63
527.508	4646.19
527.874	4709.92
528.241	4747.88
528.607	4745.85
528.973	4810.48
529.339	4714.89
529.705	4817.94
530.071	4832.85
530.437	4839.63
530.803	4868.56
531.169	4951.49
531.535	4913.3
531.901	4958.5
532.267	4983.13
532.632	4972.51
532.998	4966.41
533.364	4994.43
533.73	5008.44
534.095	5043.02
534.461	5085.95
534.826	5077.37
535.192	5096.35
535.557	5170.92
535.923	5111.04
536.288	5201.66
536.653	5208.44
537.019	5148.78
537.384	5200.98
537.749	5250.92
538.114	5269.9
538.479	5294.99
538.845	5333.86
539.21	5302.9
539.575	5365.49
539.94	5369.56
540.305	5390.8
540.67	5403.46
541.034	5396.45
541.399	5433.74
541.764	5448.43
542.129	5480.52
542.494	5515.77
542.858	5518.48
543.223	5516.9
543.587	5601.87
543.952	5585.38
544.316	5590.12
544.681	5638.93
545.045	5644.58
545.41	5714.64
545.774	5684.58
546.138	5765.03
546.503	5735.65
546.867	5759.38
547.231	5844.58
547.595	5809.32
547.959	5817.01
548.324	5830.34
548.688	5890.68
549.052	5864.69
549.416	5845.03
549.779	5924.35
550.143	5977.46
550.507	5975.87
550.871	5942.2
551.235	5932.49
551.599	6067.17
551.962	6066.04
552.326	5978.81
552.689	6007.29
553.053	6080.5
553.417	6068.98
553.78	6188.98
554.143	6139.94
554.507	6194.63
554.87	6205.02
555.234	6212.93
555.597	6193.04
555.96	6235.3
556.323	6278.69
556.686	6274.4
557.05	6318.01
557.413	6273.27
557.776	6359.59
558.139	6369.54
558.502	6410.21
558.865	6380.84
559.228	6421.51
559.59	6462.41
559.953	6433.04
560.316	6455.41
560.679	6504.22
561.041	6563.66
561.404	6578.34
561.767	6576.31
562.129	6558.01
562.492	6655.4
562.854	6657.44
563.217	6657.89
563.579	6600.49
563.941	6709.19
564.304	6708.96
564.666	6764.78
565.028	6838.45
565.39	6836.19
565.753	6824.21
566.115	6838.45
566.477	6843.87
566.839	6892.23
567.201	6921.61
567.563	6887.49
567.925	6946.7
568.287	6927.49
568.648	6967.03
569.01	7041.83
569.372	7050.42
569.734	7032.12
570.095	7120.25
570.457	7157.31
570.819	7215.16
571.18	7148.05
571.542	7247.25
571.903	7238.21
572.265	7288.61
572.626	7294.71
572.987	7353.24
573.349	7404.54
573.71	7464.65
574.071	7498.32
574.432	7596.4
574.794	7717.3
575.155	7763.17
575.516	7677.98
575.877	7803.62
576.238	7864.41
576.599	7839.55
576.96	7960
577.32	8010.4
577.681	8061.47
578.042	8223.05
578.403	8211.3
578.763	8300.11
579.124	8359.54
579.485	8531.51
579.845	8629.14
580.206	8677.05
580.566	8789.59
580.927	8908.23
581.287	9057.83
581.648	9171.04
582.008	9282.23
582.368	9330.36
582.728	9512.28
583.089	9642.44
583.449	9751.14
583.809	9895.09
584.169	10130.57
584.529	10210.79
584.889	10455.08
585.249	10573.04
585.609	10769.19
585.969	10969.87
586.329	11217.77
586.688	11357.65
587.048	11577.31
587.408	11711.77
587.768	11915.38
588.127	12189.5
588.487	12396.72
588.846	12650.5
589.206	12805.52
589.565	13115.8
589.925	13389.01
590.284	13580.87
590.643	13869.68
591.003	14163.91
591.362	14398.93
591.721	14604.57
592.08	14904.23
592.44	15127.95
592.799	15455.17
593.158	15729.52
593.517	15937.65
593.876	16289.5
594.235	16485.43
594.593	16834.57
594.952	17148.69
595.311	17329.02
595.67	17668
596.029	18041.09
596.387	18300.52
596.746	18594.3
597.104	18726.5
597.463	19022.08
597.822	19416.2
598.18	19664.1
598.538	19994.26
598.897	20265.67
599.255	20352.67
599.613	21031.52
599.972	21127.34
600.33	21498.4
600.688	21642.58
601.046	21982.46
601.404	22291.38
601.762	22607.98
602.12	23023.56
602.478	23130.68
602.836	23298.13
603.194	23508.52
603.552	23755.52
603.91	24067.6
604.268	24399.8
604.625	24517.76
604.983	24851.76
605.341	24895.6
605.698	25382.82
606.056	25579.88
606.413	25858.51
606.771	26184.16
607.128	26482
607.485	26467.76
607.843	26735.1
608.2	27084.25
608.557	27322.88
608.914	27488.75
609.272	27705.02
609.629	28041.51
609.986	28313.82
610.343	28272.01
610.7	28718.1
611.057	28860.47
611.414	29012.1
611.771	29150.86
612.127	29426.78
612.484	29605.99
612.841	29796.94
613.198	29923.04
613.554	30144.96
613.911	30481.67
614.267	30514.44
614.624	30655.68
614.98	30848.21
615.337	31136.12
615.693	31146.51
616.05	31241.65
616.406	31672.15
616.762	31484.81
617.118	31651.13
617.475	31832.14
617.831	31948.98
618.187	32194.39
618.543	32331.11
618.899	32545.12
619.255	32741.27
619.611	32668.96
619.967	32872.57
620.323	33204.76
620.678	33045.9
621.034	33175.38
621.39	33313.46
621.746	33288.83
622.101	33691.3
622.457	33539.22
622.812	33705.99
623.168	33835.03
623.523	34014.68
623.879	34110.28
624.234	33890.85
624.589	34236.83
624.945	34284.51
625.3	34350.5
625.655	34446.31
626.01	34492.86
626.365	34677.72
626.72	34595.91
627.075	34769.02
627.43	34793.65
627.785	34677.49
628.14	34955
628.495	35007.2
628.85	34899.63
629.205	34879.07
629.559	35167.87
629.914	35015.11
630.269	35062.57
630.623	35032.51
630.978	35058.27
631.332	35221.88
631.687	35283.58
632.041	35126.75
632.396	35267.76
632.75	35178.27
633.104	35387.3
633.459	35207.2
633.813	35162.23
634.167	35255.33
634.521	35387.3
634.875	35477.25
635.229	35336.46
635.583	35196.35
635.937	35343.24
636.291	35280.41
636.645	35284.03
636.999	35141.89
637.352	35413.29
637.706	35175.56
638.06	35227.76
638.413	35113.19
638.767	35280.41
639.121	35354.99
639.474	35064.37
639.828	35269.57
640.181	35220.3
640.534	35347.53
640.888	35223.01
641.241	34990.03
641.594	35171.94
641.947	35263.92
642.301	35174.65
642.654	35304.14
643.007	35251.94
643.36	35157.93
643.713	35124.03
644.066	35222.79
644.419	35122.45
644.771	34874.55
645.124	34464.84
645.477	34490.6
645.83	34284.51
646.182	34180.56
646.535	34211.74
646.888	34150.5
647.24	34069.82
647.593	34178.3
647.945	34099.65
648.298	33955.25
648.65	33937.85
649.002	33895.59
649.355	33951.64
649.707	33893.78
650.059	34126.55
650.411	34360.66
650.763	34508.01
651.115	34941.21
651.467	34726.76
651.819	34833.87
652.171	34776.92
652.523	34680.43
652.875	34642.92
653.227	34538.51
653.578	34820.31
653.93	34655.57
654.282	34538.06
654.633	34533.32
654.985	34514.56
655.337	34501
655.688	34495.35
656.039	34690.15
656.391	34310.72
656.742	34577.16
657.094	34411.96
657.445	34579.42
657.796	34575.57
658.147	34445.86
658.498	34306.2
658.849	34501.23
659.2	34396.6
659.551	34434.56
659.902	34465.97
660.253	34362.02
660.604	34446.54
660.955	34217.84
661.306	34441.57
661.656	34367.22
662.007	34366.77
662.358	34323.83
662.708	34292.19
663.059	34298.07
663.409	34133.55
663.76	34414
664.11	34385.75
664.461	34352.75
664.811	34357.05
665.161	34226.43
665.511	34247.22
665.862	34303.04
666.212	34521.56
666.562	34410.38
666.912	34338.74
667.262	34219.88
667.612	34349.14
667.962	34315.47
668.312	34184.4
668.662	34420.55
669.011	34162.03
669.361	34268.92
669.711	34178.97
670.06	34219.65
670.41	34136.26
670.76	33988.92
671.109	34260.55
671.459	34104.4
671.808	34132.65
672.157	34208.58
672.507	33956.83
672.856	33938.98
673.205	33947.57
673.554	34210.61
673.904	33949.6
674.253	34170.61
674.602	34106.89
674.951	33535.38
675.3	33498.77
675.649	33818.31
675.998	33861.24
676.346	33942.37
676.695	34066.89
677.044	33809.04
677.393	33908.25
677.741	33891.98
678.09	33726.56
678.438	33710.29
678.787	33835.03
679.135	33738.31
679.484	33516.62
679.832	33554.58
680.181	33450.41
680.529	33630.74
680.877	33533.12
681.225	33440.46
681.573	33569.27
681.922	33431.88
682.27	33353.69
682.618	33234.82
682.966	33247.93
683.314	33322.95
683.661	33287.02
684.009	33191.43
684.357	32967.48
684.705	32950.53
685.053	32994.37
685.4	32919.57
685.748	32913.92
686.095	32727.03
686.443	32491.11
686.79	32524.1
687.138	32660.82
687.485	32743.08
687.832	32516.42
688.18	32662.63
688.527	32379.25
688.874	32288.63
689.221	32323.88
689.568	32182.87
689.915	32166.6
690.262	32219.93
690.609	32000.27
690.956	31857
691.303	32022.19
691.65	31821.75
691.997	31860.84
692.344	31657.01
692.69	31540.17
693.037	31528.87
693.383	31463.79
693.73	31534.52
694.077	31285.26
694.423	31275.55
694.769	31244.81
695.116	31102.9
695.462	30943.58
695.808	30882.11
696.155	30990.58
696.501	30854.54
696.847	30744.94
697.193	30537.04
697.539	30543.14
697.885	30514.66
698.231	30372.75
698.577	30454.1
698.923	30144.73
699.269	30216.37
699.614	29980.67
699.96	29973.21
700.306	29941.12
700.651	29939.09
700.997	29800.78
701.342	29669.71
701.688	29591.75
702.033	29599.21
702.379	29628.36
702.724	29473.56
703.069	29538.64
703.415	29158.54
703.76	29112.44
704.105	29245.09
704.45	29271.08
704.795	28978.21
705.14	28943.63
705.485	28862.96
705.83	28736.41
706.175	28850.07
706.52	28709.74
706.865	28758.78
707.209	28570.08
707.554	28630.19
707.899	28578.44
708.243	28376.87
708.588	28408.28
708.932	28210.32
709.277	28228.85
709.621	28203.76
709.966	27965.35
710.31	28062.07
710.654	27666.38
710.998	27905.24
711.342	27893.26
711.687	27755.64
712.031	27676.77
712.375	27640.62
712.719	27686.26
713.063	27548.87
713.407	27638.36
713.75	27458.47
714.094	27518.13
714.438	27360.17
714.782	27343
715.125	27191.36
715.469	27165.6
715.812	27147.75
716.156	27020.07
716.499	27008.09
716.843	27084.47
717.186	26778.49
717.53	27070.23
717.873	27042.21
718.216	26825.27
718.559	26634.09
718.902	26696.69
719.246	26630.25
719.589	26506.86
719.932	26456.92
720.275	26456.24
720.617	26359.29
720.96	26402.68
721.303	26287.88
721.646	26365.62
721.989	26116.36
722.331	26368.56
722.674	26144.61
723.016	26092.86
723.359	26179.86
723.701	26069.58
724.044	26112.75
724.386	25865.29
724.729	26026.42
725.071	25910.27
725.413	25823.04
725.755	25831.62
726.097	25713.43
726.439	25680.67
726.782	25712.76
727.124	25757.05
727.465	25622.36
727.807	25624.4
728.149	25484.97
728.491	25539.43
728.833	25551.86
729.175	25437.74
729.516	25307.8
729.858	25254.92
730.199	25377.62
730.541	25230.28
730.882	25311.41
731.224	25343.27
731.565	25177.4
731.906	25115.48
732.248	25110.74
732.589	24957.75
732.93	25000.91
733.271	24940.12
733.612	24923.62
733.953	24868.26
734.294	24901.25
734.635	24708.04
734.976	24890.4
735.317	24625.78
735.658	24842.5
735.999	24720.69
736.339	24576.97
736.68	24659.22
737.021	24615.38
737.361	24539.23
737.702	24737.19
738.042	24616.29
738.383	24414.03
738.723	24536.52
739.063	24354.83
739.404	24439.57
739.744	24305.34
740.084	24273.47
740.424	24233.47
740.764	24195.96
741.104	24215.85
741.444	24093.36
741.784	24173.14
742.124	24202.97
742.464	24005.91
742.804	24040.94
743.143	24006.59
743.483	23974.95
743.823	23768.63
744.162	23933.82
744.502	23991.9
744.841	23812.69
745.181	23832.58
745.52	23748.29
745.86	23810.21
746.199	23702.19
746.538	23622.87
746.877	23810.89
747.216	23684.79
747.556	23635.75
747.895	23600.95
748.234	23431.01
748.573	23441.18
748.911	23525.47
749.25	23445.7
749.589	23363.89
749.928	23331.35
750.267	23395.08
750.605	23290.22
750.944	23253.61
751.283	23178.13
751.621	23177
751.96	23149.66
752.298	23103.11
752.636	23192.82
752.975	22921.19
753.313	22904.69
753.651	23030.79
753.989	22826.96
754.327	22850.01
754.666	22747.41
755.004	22808.88
755.342	22769.56
755.679	22676.9
756.017	22499.73
756.355	22635.1
756.693	22464.03
757.031	22504.48
757.368	22348.78
757.706	22358.49
758.044	22296.57
758.381	22299.74
758.719	22140.19
759.056	22182.91
759.394	22186.75
759.731	22019.97
760.068	21975.23
760.405	21887.32
760.743	21861.33
761.08	21897.26
761.417	21843.48
761.754	21722.58
762.091	21708.57
762.428	21686.42
762.765	21466.31
763.102	21427.45
763.438	21364.62
763.775	21259.54
764.112	21412.98
764.449	21288.47
764.785	21209.37
765.122	21108.58
765.458	20973.22
765.795	20891.64
766.131	20956.5
766.467	20947.23
766.804	20731.42
767.14	20742.72
767.476	20688.26
767.812	20682.83
768.148	20648.26
768.485	20495.27
768.821	20458.43
769.157	20322.84
769.492	20269.28
769.828	20335.72
770.164	20051.66
770.5	20193.58
770.836	20077.42
771.171	19994.94
771.507	19908.84
771.842	19837.66
772.178	19730.77
772.513	19690.32
772.849	19658.23
773.184	19517.89
773.519	19648.28
773.855	19443.99
774.19	19419.59
774.525	19329.87
774.86	19270.21
775.195	19312.47
775.53	19232.25
775.865	19097.56
776.2	19014.18
776.535	18823.67
776.87	18880.17
777.205	18757.46
777.539	18741.87
777.874	18712.26
778.209	18568.99
778.543	18490.35
778.878	18405.6
779.212	18330.8
779.547	18252.61
779.881	18278.83
780.215	18202.22
780.55	18154.31
780.884	18081.09
781.218	17912.96
781.552	17982.34
781.886	17900.08
782.22	17861.66
782.554	17674.32
782.888	17582.12
783.222	17511.62
783.556	17548.23
783.889	17412.18
784.223	17354.33
784.557	17252.64
784.89	17335.8
785.224	17200.89
785.557	17135.58
785.891	17119.99
786.224	16966.77
786.558	16904.63
786.891	16804.29
787.224	16773.33
787.557	16784.63
787.891	16738.98
788.224	16760.68
788.557	16639.77
788.89	16577.18
789.223	16538.76
789.556	16437.07
789.888	16357.07
790.221	16311.87
790.554	16280.69
790.887	16240.24
791.219	16188.26
791.552	16044.99
791.884	16031.43
792.217	15956.85
792.549	15905.1
792.882	15858.78
793.214	15750.53
793.546	15816.75
793.879	15703.3
794.211	15685.9
794.543	15625.11
794.875	15623.08
795.207	15608.62
795.539	15497.21
795.871	15492.91
796.203	15404.55
796.535	15280.26
796.867	15266.03
797.198	15180.38
797.53	15265.35
797.862	15081.4
798.193	15096.54
798.525	15040.95
798.856	15052.25
799.188	14939.48
799.519	14811.12
799.85	14775.64
800.182	14770.44
800.513	14782.42
800.844	14652.71
801.175	14697.68
801.506	14688.64
801.837	14586.49
802.168	14573.61
802.499	14474.86
802.83	14408.87
803.161	14348.76
803.491	14298.82
803.822	14364.13
804.153	14285.49
804.483	14174.75
804.814	14087.98
805.145	14126.17
805.475	14055.21
805.805	14000.52
806.136	14021.31
806.466	14044.81
806.796	13985.61
807.126	13970.01
807.457	13767.08
807.787	13906.51
808.117	13749.91
808.447	13706.97
808.777	13676.01
809.107	13633.53
809.436	13608.22
809.766	13599.85
810.096	13563.7
810.426	13551.27
810.755	13538.61
811.085	13495.45
811.414	13515.34
811.744	13328.45
812.073	13323.7
812.403	13285.96
812.732	13223.59
813.061	13198.28
813.39	13138.85
813.719	13123.93
814.049	13147.89
814.378	13031.51
814.707	13058.17
815.036	13076.48
815.365	12942.7
815.693	12875.81
816.022	12807.11
816.351	12898.63
816.68	12734.11
817.008	12861.12
817.337	12734.11
817.665	12729.82
817.994	12707
818.322	12701.8
818.651	12627.45
818.979	12572.08
819.307	12710.39
819.636	12532.54
819.964	12497.96
820.292	12579.99
820.62	12530.28
820.948	12512.2
821.276	12491.86
821.604	12487.79
821.932	12511.3
822.259	12484.4
822.587	12363.5
822.915	12492.31
823.243	12530.05
823.57	12489.6
823.898	12411.41
824.225	12371.19
824.553	12403.95
824.88	12410.51
825.207	12477.62
825.535	12448.47
825.862	12443.5
826.189	12372.54
826.516	12438.75
826.843	12506.55
827.17	12455.03
827.497	12476.04
827.824	12435.59
828.151	12415.48
828.478	12371.41
828.805	12465.42
829.131	12374.58
829.458	12405.54
829.785	12313.11
830.111	12304.97
830.438	12405.76
830.764	12334.8
831.09	12401.24
831.417	12328.7
831.743	12392.43
832.069	12392.65
832.395	12256.39
832.722	12263.62
833.048	12251.19
833.374	12236.5
833.7	12186.78
834.026	12201.7
834.351	12191.76
834.677	12263.62
835.003	12253
835.329	12191.76
835.654	12277.18
835.98	12177.52
836.306	12203.05
836.631	12130.74
836.956	12178.87
837.282	12141.81
837.607	12060.69
837.932	12073.57
838.258	12116.05
838.583	12126.22
838.908	11930.97
839.233	11981.37
839.558	11912.22
839.883	11900.92
840.208	11935.72
840.533	11881.48
840.858	11868.83
841.182	11913.8
841.507	11885.1
841.832	11740.02
842.156	11781.82
842.481	11810.97
842.805	11742.73
843.13	11785.66
843.454	11702.05
843.778	11698.44
844.103	11552.45
844.427	11514.71
844.751	11571.88
845.075	11553.81
845.399	11533.02
845.723	11390.19
846.047	11498.89
846.371	11360.82
846.695	11389.06
847.019	11284.66
847.343	11198.56
847.666	11203.08
847.99	11116.76
848.313	11184.32
848.637	11035.4
848.96	11053.03
849.284	11045.35
849.607	10889.87
849.931	10909.76
850.254	10858.46
850.577	10804
850.9	10747.05
851.223	10694.17
851.546	10632.02
851.869	10613.72
852.192	10644
852.515	10518.58
852.838	10453.27
853.161	10513.16
853.483	10481.29
853.806	10348.64
854.129	10419.82
854.451	10314.52
854.774	10232.49
855.096	10259.6
855.419	10220.73
855.741	10285.59
856.063	10116.1
856.385	10125.37
856.708	10148.65
857.03	10082.66
857.352	10052.6
857.674	10067.74
857.996	10023.9
858.318	9952.27
858.64	9948.2
858.961	9942.1
859.283	9866.62
859.605	9791.14
859.926	9831.37
860.248	9798.15
860.57	9772.84
860.891	9748.43
861.212	9747.53
861.534	9687.64
861.855	9653.74
862.176	9636.79
862.498	9661.2
862.819	9625.04
863.14	9547.31
863.461	9606.29
863.782	9536.23
864.103	9564.25
864.424	9454.43
864.745	9586.4
865.065	9515.44
865.386	9442.22
865.707	9452.39
866.027	9372.17
866.348	9435.22
866.668	9405.84
866.989	9350.47
867.309	9289.23
867.63	9377.82
867.95	9316.8
868.27	9285.84
868.59	9398.61
868.91	9244.49
869.23	9276.8
869.55	9217.82
869.87	9224.6
870.19	9205.39
870.51	9231.38
870.83	9201.55
871.15	9203.36
871.469	9169.69
871.789	9198.16
872.109	9154.32
872.428	9114.55
872.748	9106.19
873.067	9040.43
873.386	9123.81
873.706	9111.38
874.025	9037.71
874.344	8988.9
874.663	9009.24
874.982	8966.98
875.301	8958.39
875.62	8922.01
875.939	8973.54
876.258	8991.61
876.577	8942.35
876.896	8887.66
877.214	8902.58
877.533	8903.93
877.852	8841.56
878.17	8879.3
878.489	8845.4
878.807	8790.26
879.125	8830.49
879.444	8768.34
879.762	8676.82
880.08	8767.44
880.398	8723.82
880.716	8756.82
881.034	8655.8
881.352	8733.77
881.67	8650.83
881.988	8649.7
882.306	8721.56
882.624	8625.97
882.941	8563.83
883.259	8544.39
883.577	8530.61
883.894	8513.89
884.212	8554.11
884.529	8451.52
884.846	8473.66
885.164	8521.34
885.481	8414.23
885.798	8454
886.115	8374.68
886.432	8430.5
886.75	8334.46
887.067	8364.51
887.383	8365.87
887.7	8288.81
888.017	8295.13
888.334	8265.76
888.651	8294.01
888.967	8235.7
889.284	8197.06
889.6	8152.77
889.917	8127.91
890.233	8197.06
890.55	8126.55
890.866	8164.74
891.182	8118.64
891.498	8058.31
891.815	7995.48
892.131	7946.9
892.447	8072.09
892.763	7877.29
893.079	7919.33
893.395	7890.17
893.71	7879.1
894.026	7827.58
894.342	7877.97
894.657	7736.96
894.973	7793.68
895.289	7820.35
895.604	7723.62
895.92	7605.66
896.235	7636.17
896.55	7578.54
896.865	7564.08
897.181	7548.49
897.496	7595.94
897.811	7507.59
898.126	7476.85
898.441	7476.17
898.756	7438.43
899.071	7437.76
899.386	7433.01
899.7	7371.54
900.015	7373.13
900.33	7334.93
900.644	7335.61
900.959	7274.14
901.273	7216.75
901.588	7215.16
901.902	7166.13
902.216	7160.93
902.531	7119.8
902.845	7129.97
903.159	7094.04
903.473	7094.26
903.787	7043.64
904.101	7021.5
904.415	6975.17
904.729	6933.81
905.042	6949.86
905.356	6918.9
905.67	6870.09
905.984	6850.43
906.297	6878.9
906.611	6785.12
906.924	6766.14
907.237	6776.53
907.551	6736.53
907.864	6693.37
908.177	6701.28
908.491	6672.35
908.804	6685.69
909.117	6624.44
909.43	6591.68
909.743	6585.8
910.056	6546.48
910.368	6482.98
910.681	6486.37
910.994	6449.08
911.307	6440.04
911.619	6405.92
911.932	6351.01
912.244	6327.96
912.557	6397.33
912.869	6334.06
913.181	6260.16
913.494	6228.75
913.806	6177.45
914.118	6182.87
914.43	6175.19
914.742	6167.73
915.054	6133.61
915.366	6090.9
915.678	6112.59
915.99	6078.7
916.302	6031.47
916.613	5957.57
916.925	6006.61
917.236	5984.01
917.548	5964.8
917.859	5880.51
918.171	5894.29
918.482	5852.71
918.794	5829.21
919.105	5820.62
919.416	5789.44
919.727	5737.69
920.038	5790.79
920.349	5745.6
920.66	5656.33
920.971	5692.72
921.282	5672.61
921.593	5610.69
921.903	5536.79
922.214	5592.16
922.525	5521.87
922.835	5532.04
923.146	5502.21
923.456	5512.84
923.767	5508.99
924.077	5506.51
924.387	5400.75
924.697	5446.85
925.008	5380.18
925.318	5349.68
925.628	5338.15
925.938	5349.68
926.248	5278.27
926.558	5296.57
926.867	5191.49
927.177	5217.25
927.487	5211.37
927.796	5144.94
928.106	5155.1
928.416	5106.07
928.725	5137.7
929.034	5063.13
929.344	5092.73
929.653	5073.75
929.962	5007.99
930.271	5033.75
930.581	4965.05
930.89	4951.27
931.199	4957.37
931.508	4958.5
931.817	4887.54
932.125	4871.95
932.434	4829.69
932.743	4842.8
933.051	4754.89
933.36	4809.12
933.669	4764.38
933.977	4707.43
934.286	4722.57
934.594	4725.51
934.902	4682.35
935.21	4658.62
935.519	4662.69
935.827	4648.45
936.135	4642.58
936.443	4562.13
936.751	4612.52
937.059	4589.24
937.367	4560.32
937.674	4535.01
937.982	4520.77
938.29	4478.96
938.597	4491.85
938.905	4450.72
939.213	4400.1
939.52	4380.21
939.827	4382.47
940.135	4375.46
940.442	4361
940.749	4349.48
941.056	4314.9
941.363	4305.64
941.67	4287.33
941.977	4239.42
942.284	4219.76
942.591	4229.25
942.898	4204.17
943.205	4187.45
943.511	4181.57
943.818	4164.17
944.125	4120.78
944.431	4111.06
944.738	4123.72
945.044	4135.24
945.35	4080.78
945.657	4063.38
945.963	4039.65
946.269	3991.07
946.575	3966.21
946.881	3973.67
947.187	3986.77
947.493	3917.85
947.799	3961.69
948.105	3937.51
948.41	3852.54
948.716	3892.99
949.022	3861.35
949.327	3792.43
949.633	3845.08
949.938	3801.47
950.244	3843.5
950.549	3771.19
950.854	3749.04
951.16	3712.2
951.465	3750.85
951.77	3692.77
952.075	3708.14
952.38	3637.4
952.685	3656.84
952.99	3637.4
953.294	3636.73
953.599	3617.29
953.904	3588.59
954.209	3580.68
954.513	3568.25
954.818	3549.05
955.122	3539.33
955.426	3568.03
955.731	3487.35
956.035	3483.06
956.339	3498.42
956.643	3430.86
956.948	3443.74
957.252	3449.39
957.556	3412.1
957.86	3373.91
958.163	3371.42
958.467	3365.77
958.771	3387.24
959.075	3352.89
959.378	3349.5
959.682	3321.48
959.985	3340.46
960.289	3309.28
960.592	3284.65
960.896	3255.27
961.199	3271.31
961.502	3250.52
961.805	3189.96
962.108	3216.62
962.411	3201.71
962.714	3225.66
963.017	3174.37
963.32	3219.11
963.623	3155.38
963.926	3117.19
964.228	3095.95
964.531	3106.34
964.833	3067.93
965.136	3095.05
965.438	3006.01
965.741	3050.53
966.043	3001.26
966.345	3028.15
966.648	3022.73
966.95	3003.97
967.252	3014.6
967.554	2988.38
967.856	2969.63
968.158	2963.07
968.46	2930.08
968.761	2912.68
969.063	2905.45
969.365	2884.2
969.666	2857.76
969.968	2865
970.269	2874.03
970.571	2858.22
970.872	2880.81
971.174	2826.58
971.475	2803.3
971.776	2783.42
972.077	2790.19
972.378	2794.04
972.679	2761.5
972.98	2760.82
973.281	2758.33
973.582	2743.64
973.883	2691.67
974.183	2737.32
974.484	2710.65
974.785	2676.75
975.085	2712.46
975.386	2693.93
975.686	2661.61
975.986	2644.44
976.287	2655.28
976.587	2597.43
976.887	2626.81
977.187	2588.17
977.487	2580.93
977.787	2569.64
978.087	2568.51
978.387	2548.17
978.687	2523.31
978.987	2523.31
979.286	2538.68
979.586	2533.93
979.885	2514.5
980.185	2477.66
980.484	2446.7
980.784	2416.19
981.083	2434.95
981.382	2413.26
981.682	2421.39
981.981	2445.35
982.28	2386.82
982.579	2394.95
982.878	2372.35
983.177	2378.91
983.475	2376.65
983.774	2383.2
984.073	2337.1
984.372	2320.83
984.67	2341.17
984.969	2316.76
985.267	2313.15
985.566	2300.72
985.864	2283.54
986.162	2318.57
986.461	2265.24
986.759	2305.24
987.057	2248.74
987.355	2230.89
987.653	2225.92
987.951	2209.87
988.249	2222.75
988.547	2189.98
988.844	2186.6
989.142	2158.12
989.44	2172.13
989.737	2135.07
990.035	2171.68
990.332	2113.6
990.63	2112.47
990.927	2116.54
991.224	2114.96
991.521	2121.74
991.819	2101.85
992.116	2084.45
992.413	2069.54
992.71	2049.42
993.006	2075.41
993.303	2023.21
993.6	2044.68
993.897	2034.96
994.193	2022.08
994.49	2045.36
994.787	2001.52
995.083	2000.84
995.379	1980.5
995.676	1980.27
995.972	1966.94
996.268	1947.73
996.565	1930.1
996.861	1942.99
997.157	1910.22
997.453	1888.07
997.749	1923.33
998.044	1896.43
998.34	1872.03
998.636	1878.81
998.932	1882.42
999.227	1873.16
999.523	1827.96
999.818	1835.87
1000.114	1838.58
1000.409	1797
1000.704	1800.16
1001	1822.76
1001.295	1800.39
1001.59	1767.4
1001.885	1784.8
1002.18	1770.56
1002.475	1771.01
1002.77	1724.23
1003.065	1742.54
1003.359	1756.55
1003.654	1743.44
1003.949	1724.01
1004.243	1728.3
1004.538	1700.28
1004.832	1705.25
1005.127	1665.93
1005.421	1668.42
1005.715	1643.33
1006.009	1637.46
1006.304	1662.99
1006.598	1650.56
1006.892	1637
1007.186	1624.12
1007.48	1600.17
1007.773	1597.68
1008.067	1583.22
1008.361	1574.41
1008.655	1584.8
1008.948	1555.43
1009.242	1567.18
1009.535	1567.18
1009.829	1544.13
1010.122	1534.86
1010.415	1546.84
1010.708	1513.17
1011.001	1500.51
1011.295	1498.25
1011.588	1498.93
1011.881	1490.57
1012.173	1464.13
1012.466	1470
1012.759	1472.26
1013.052	1472.72
1013.344	1438.82
1013.637	1420.29
1013.93	1452.6
1014.222	1430.23
1014.514	1437.24
1014.807	1402.21
1015.099	1389.33
1015.391	1393.4
1015.683	1382.32
1015.976	1376.45
1016.268	1351.59
1016.56	1340.97
1016.851	1324.92
1017.143	1326.05
1017.435	1344.36
1017.727	1330.57
1018.018	1319.73
1018.31	1329.89
1018.602	1299.84
1018.893	1291.93
1019.185	1287.64
1019.476	1272.49
1019.767	1263.46
1020.058	1271.59
1020.35	1255.09
1020.641	1220.07
1020.932	1253.74
1021.223	1232.95
1021.514	1244.7
1021.804	1226.39
1022.095	1210.12
1022.386	1203.57
1022.677	1204.93
1022.967	1215.32
1023.258	1200.18
1023.548	1160.63
1023.839	1196.34
1024.129	1154.76
1024.419	1178.49
1024.709	1144.59
1025	1154.53
1025.29	1140.29
1025.58	1100.07
1025.87	1137.13
1026.16	1120.18
1026.449	1106.85
1026.739	1090.58
1027.029	1098.04
1027.319	1095.55
1027.608	1069.56
1027.898	1063.46
1028.187	1069.34
1028.477	1066.17
1028.766	1028.43
1029.055	1036.34
1029.344	1030.47
1029.634	1016.91
1029.923	1022.11
1030.212	1022.11
1030.501	1014.2
1030.79	1009.22
1031.078	1011.03
1031.367	993.41
1031.656	983.01
1031.945	979.4
1032.233	954.54
1032.522	960.86
1032.81	998.6
1033.099	934.88
1033.387	968.77
1033.675	952.5
1033.963	968.1
1034.251	941.88
1034.54	935.33
1034.828	939.17
1035.116	931.94
1035.403	888.32
1035.691	904.59
1035.979	884.03
1036.267	918.83
1036.554	875.44
1036.842	890.13
1037.129	889
1037.417	877.7
1037.704	839.51
1037.992	829.57
1038.279	857.14
1038.566	856.69
1038.853	856.69
1039.14	856.69
