Data from hue_110_FLMS001491_00091.txt Node
Date: Tue Feb 07 17:02:04 GMT 2017
User: dcchb
Spectrometer: FLMS00149
Trigger mode: 0
Integration Time (sec): 2.000000E-2
Scans to average: 10
Electric dark correction enabled: true
Nonlinearity correction enabled: false
Boxcar width: 0
XAxis mode: Wavelengths
Number of Pixels in Spectrum: 2048
>>>>>Begin Spectral Data<<<<<
341.393	-8.73
341.776	-8.73
342.16	-8.73
342.543	-63.87
342.927	-70.65
343.31	-58.44
343.693	-56.41
344.077	-69.52
344.46	-44.43
344.843	-55.06
345.226	-31.33
345.61	-26.81
345.993	5.96
346.376	-7.82
346.759	11.61
347.142	20.42
347.525	27.65
347.908	47.54
348.291	55.68
348.674	77.82
349.057	103.13
349.44	124.6
349.823	162.34
350.206	172.28
350.588	192.17
350.971	203.24
351.354	220.42
351.737	242.11
352.119	249.12
352.502	253.64
352.884	288.21
353.267	270.13
353.65	280.3
354.032	310.36
354.414	313.97
354.797	316.69
355.179	322.11
355.562	331.6
355.944	344.93
356.326	327.31
356.709	356.01
357.091	350.58
357.473	318.04
357.855	342.22
358.238	350.58
358.62	339.28
359.002	345.39
359.384	357.59
359.766	350.36
360.148	349
360.53	357.14
360.912	352.62
361.294	327.08
361.676	323.69
362.057	334.31
362.439	336.12
362.821	318.95
363.203	342.22
363.584	345.16
363.966	320.3
364.348	320.53
364.729	316.91
365.111	318.04
365.493	313.75
365.874	323.69
366.256	316.46
366.637	285.05
367.019	298.61
367.4	290.92
367.781	318.27
368.163	311.04
368.544	310.81
368.925	310.81
369.306	309.46
369.688	320.53
370.069	343.35
370.45	319.62
370.831	304.94
371.212	330.47
371.593	312.39
371.974	293.18
372.355	299.51
372.736	316.69
373.117	317.82
373.498	310.36
373.879	329.79
374.26	311.26
374.641	311.94
375.021	306.97
375.402	321.43
375.783	308.33
376.163	342.67
376.544	335.9
376.925	330.7
377.305	321.88
377.686	334.09
378.066	319.17
378.447	342
378.827	330.92
379.208	342.67
379.588	325.95
379.968	364.59
380.349	342.45
380.729	335.9
381.109	346.74
381.489	335.44
381.87	335.67
382.25	367.31
382.63	358.95
383.01	359.85
383.39	337.25
383.77	329.57
384.15	364.14
384.53	333.86
384.91	358.72
385.29	367.53
385.67	365.5
386.049	360.08
386.429	345.39
386.809	364.82
387.189	360.08
387.568	379.96
387.948	374.31
388.328	366.18
388.707	347.65
389.087	378.61
389.466	382
389.846	353.97
390.225	370.7
390.605	375.22
390.984	386.29
391.363	351.26
391.743	359.85
392.122	384.48
392.501	392.84
392.881	383.35
393.26	374.31
393.639	373.41
394.018	389
394.397	369.11
394.776	370.92
395.155	390.58
395.534	401.2
395.913	391.03
396.292	386.29
396.671	384.71
397.05	390.13
397.429	397.36
397.808	403.46
398.186	408.89
398.565	410.47
398.944	406.18
399.323	407.31
399.701	390.36
400.08	387.65
400.458	419.73
400.837	423.8
401.215	402.11
401.594	421.77
401.972	391.26
402.351	416.34
402.729	394.65
403.107	418.6
403.486	430.81
403.864	420.19
404.242	429.45
404.62	419.96
404.999	422.22
405.377	435.1
405.755	410.02
406.133	433.97
406.511	470.58
406.889	427.87
407.267	463.58
407.645	453.86
408.023	471.94
408.401	460.41
408.779	483.24
409.156	487.53
409.534	465.38
409.912	457.93
410.29	477.59
410.667	467.42
411.045	474.87
411.422	463.35
411.8	488.89
412.178	494.99
412.555	484.82
412.933	502.44
413.31	500.41
413.687	509.9
414.065	518.26
414.442	489.34
414.819	524.36
415.197	519.85
415.574	518.94
415.951	547.19
416.328	501.31
416.705	522.78
417.082	521.88
417.46	545.61
417.837	548.09
418.214	537.7
418.591	540.41
418.967	524.36
419.344	547.41
419.721	575.89
420.098	564.14
420.475	551.03
420.852	559.17
421.228	563.91
421.605	586.96
421.982	578.15
422.358	567.08
422.735	572.73
423.111	571.14
423.488	581.31
423.864	591.26
424.241	597.13
424.617	635.77
424.994	601.2
425.37	614.53
425.746	603.23
426.123	611.82
426.499	610.46
426.875	609.79
427.251	626.51
427.627	639.62
428.003	626.51
428.379	624.02
428.756	649.33
429.132	649.79
429.507	650.46
429.883	667.64
430.259	657.47
430.635	666.51
431.011	670.8
431.387	687.07
431.763	699.28
432.138	708.54
432.514	711.93
432.89	691.59
433.265	727.52
433.641	734.53
434.016	740.18
434.392	760.29
434.767	734.75
435.143	754.87
435.518	766.62
435.894	769.33
436.269	768.2
436.644	794.19
437.02	800.52
437.395	789.67
437.77	797.35
438.145	799.61
438.52	796.67
438.895	851.59
439.271	839.16
439.646	837.12
440.021	823.11
440.395	843.9
440.77	867.18
441.145	854.07
441.52	886.62
441.895	870.8
442.27	872.38
442.645	853.4
443.019	875.54
443.394	859.27
443.769	918.25
444.143	866.95
444.518	908.99
444.892	912.38
445.267	926.84
445.641	921.19
446.016	930
446.39	939.04
446.764	926.16
447.139	934.98
447.513	925.26
447.887	963.68
448.262	979.72
448.636	947.86
449.01	982.21
449.384	978.14
449.758	957.8
450.132	960.74
450.506	1024.69
450.88	1002.54
451.254	1000.28
451.628	1015.88
452.002	1046.84
452.376	1033.5
452.75	1051.13
453.123	1051.58
453.497	1092.03
453.871	1093.62
454.244	1078.25
454.618	1060.17
454.992	1126.16
455.365	1118.02
455.739	1109.66
456.112	1161.41
456.486	1150.56
456.859	1155.99
457.232	1173.61
457.606	1196.89
457.979	1233.72
458.352	1238.02
458.725	1228.75
459.099	1226.95
459.472	1265.14
459.845	1275.08
460.218	1264.01
460.591	1308.98
460.964	1348.98
461.337	1357.34
461.71	1364.12
462.083	1402.31
462.456	1367.05
462.829	1414.28
463.201	1407.28
463.574	1461.06
463.947	1468.97
464.32	1479.14
464.692	1488.18
465.065	1499.71
465.438	1526.6
465.81	1539.03
466.183	1553.72
466.555	1575.18
466.928	1616.77
467.3	1604.34
467.672	1681.62
468.045	1686.82
468.417	1707.38
468.789	1720.49
469.161	1757.78
469.534	1788.96
469.906	1865.57
470.278	1844.33
470.65	1882.52
471.022	1940.15
471.394	1959.58
471.766	1989.41
472.138	2030.99
472.51	2082.52
472.882	2106.02
473.253	2124.1
473.625	2222.17
473.997	2229.63
474.369	2297.43
474.74	2307.37
475.112	2393.92
475.484	2454.03
475.855	2495.39
476.227	2541.26
476.598	2590.98
476.97	2640.24
477.341	2751.42
477.713	2800.01
478.084	2839.56
478.455	2950.06
478.827	3030.29
479.198	3155.03
479.569	3184.86
479.94	3287.23
480.311	3296.5
480.682	3410.84
481.053	3528.35
481.424	3652.64
481.795	3698.74
482.166	3812.41
482.537	3895.58
482.908	3984.16
483.279	4112.97
483.65	4180.77
484.021	4322.91
484.391	4443.13
484.762	4480.64
485.133	4649.91
485.503	4717.02
485.874	4884.02
486.244	5003.12
486.615	5134.86
486.985	5282.66
487.356	5465.93
487.726	5441.3
488.097	5651.01
488.467	5743.89
488.837	5931.91
489.207	6083.54
489.578	6222.52
489.948	6339.13
490.318	6490.31
490.688	6587.03
491.058	6719.46
491.428	6932.56
491.798	7014.36
492.168	7198.09
492.538	7335.03
492.908	7517.18
493.278	7651.41
493.648	7708.13
494.017	7853.89
494.387	8023.38
494.757	8121
495.126	8266.76
495.496	8444.83
495.866	8444.83
496.235	8672.17
496.605	8797.37
496.974	8873.52
497.344	9019.28
497.713	9215.89
498.082	9285.94
498.452	9398.48
498.821	9450.23
499.19	9627.85
499.559	9756.21
499.928	9817.68
500.298	9956.66
500.667	10096.99
501.036	10131.34
501.405	10238.23
501.774	10316.2
502.143	10424.9
502.512	10533.82
502.88	10687.26
503.249	10693.14
503.618	10854.04
503.987	10900.14
504.356	11051.77
504.724	11094.71
505.093	11174.93
505.462	11234.82
505.83	11402.04
506.199	11427.58
506.567	11615.82
506.936	11506.22
507.304	11733.11
507.672	11737.63
508.041	11811.07
508.409	11950.05
508.777	12014.91
509.145	12102.14
509.514	12194.34
509.882	12279.31
510.25	12337.39
510.618	12380.55
510.986	12419.87
511.354	12583.26
511.722	12648.34
512.09	12664.84
512.458	12645.18
512.826	12769.47
513.193	12909.8
513.561	12873.64
513.929	12988.9
514.297	13063.92
514.664	13147.54
515.032	13194.77
515.4	13232.96
515.767	13320.41
516.135	13327.19
516.502	13256.01
516.869	13493.52
517.237	13481.99
517.604	13460.07
517.972	13484.7
518.339	13629.1
518.706	13568.32
519.073	13713.4
519.44	13642.89
519.808	13752.04
520.175	13777.58
520.542	13900.96
520.909	13953.39
521.276	13961.53
521.643	14008.76
522.009	14037.68
522.376	14170.79
522.743	14136.89
523.11	14262.76
523.477	14323.55
523.843	14376.2
524.21	14468.63
524.577	14558.57
524.943	14607.38
525.31	14519.48
525.676	14710.66
526.043	14668.17
526.409	14671.79
526.776	14836.3
527.142	14729.41
527.508	14825.46
527.874	14850.77
528.241	14890.77
528.607	14850.99
528.973	15010.31
529.339	14901.16
529.705	14967.83
530.071	15095.28
530.437	14970.31
530.803	15060.93
531.169	15093.25
531.535	14977.09
531.901	15078.56
532.267	15082.17
532.632	15029.52
532.998	15083.08
533.364	15088.95
533.73	15038.33
534.095	15217.76
534.461	15080.59
534.826	15224.32
535.192	15049.63
535.557	15211.21
535.923	15053.02
536.288	15139.35
536.653	15069.97
537.019	15061.16
537.384	15111.78
537.749	15040.14
538.114	15073.81
538.479	15015.96
538.845	15008.28
539.21	14956.08
539.575	14917.88
539.94	14950.43
540.305	15059.58
540.67	14899.81
541.034	14940.03
541.399	14914.27
541.764	14809.64
542.129	14941.39
542.494	14894.61
542.858	14861.16
543.223	14789.07
543.587	14806.25
543.952	14756.53
544.316	14784.78
544.681	14676.76
545.045	14778.68
545.41	14781.84
545.774	14691.45
546.138	14668.85
546.503	14581.62
546.867	14504.56
547.231	14583.66
547.595	14609.64
547.959	14593.37
548.324	14479.48
548.688	14457.78
549.052	14427.95
549.416	14463.43
549.779	14466.15
550.143	14416.2
550.507	14440.83
550.871	14378.69
551.235	14389.54
551.599	14460.72
551.962	14350.89
552.326	14309.31
552.689	14324.68
553.053	14269.31
553.417	14218.92
553.78	14363.55
554.143	14224.57
554.507	14324
554.87	14307.96
555.234	14274.06
555.597	14179.37
555.96	14228.86
556.323	14264.57
556.686	14102.99
557.05	14244.91
557.413	14240.61
557.776	14240.16
558.139	14212.37
558.502	14236.77
558.865	14219.37
559.228	14233.16
559.59	14259.82
559.953	14208.98
560.316	14247.39
560.679	14232.25
561.041	14356.77
561.404	14276.55
561.767	14296.43
562.129	14264.79
562.492	14365.81
562.854	14374.17
563.217	14272.25
563.579	14260.27
563.941	14301.86
564.304	14305.47
564.666	14486.71
565.028	14410.1
565.39	14422.08
565.753	14523.09
566.115	14519.7
566.477	14542.53
566.839	14519.7
567.201	14641.28
567.563	14628.17
567.925	14688.29
568.287	14667.72
568.648	14652.58
569.01	14640.83
569.372	14737.78
569.734	14681.96
570.095	14749.08
570.457	14740.94
570.819	14707.72
571.18	14707.04
571.542	14806.02
571.903	14753.37
572.265	14795.18
572.626	14876.3
572.987	14830.88
573.349	14788.17
573.71	14820.03
574.071	14888.73
574.432	14879.69
574.794	14944.32
575.155	14931.44
575.516	14948.39
575.877	14930.09
576.238	14945.68
576.599	15007.37
576.96	14935.06
577.32	15007.83
577.681	15042.63
578.042	15063.19
578.403	15101.83
578.763	14993.36
579.124	15062.06
579.485	15043.53
579.845	15123.08
580.206	15026.81
580.566	15041.95
580.927	15100.25
581.287	15098.44
581.648	15022.97
582.008	15133.47
582.368	15082.63
582.728	15001.5
583.089	15073.13
583.449	15081.95
583.809	15013.93
584.169	15053.7
584.529	14986.36
584.889	15100.48
585.249	14932.57
585.609	14921.05
585.969	15022.06
586.329	14963.53
586.688	15116.3
587.048	14959.69
587.408	14914.27
587.768	14901.16
588.127	14870.88
588.487	14875.17
588.846	14901.39
589.206	14844.44
589.565	14889.41
589.925	14858.9
590.284	14892.12
590.643	14852.58
591.003	14946.13
591.362	14886.02
591.721	14901.39
592.08	14896.64
592.44	14877.89
592.799	14861.16
593.158	14853.71
593.517	14920.82
593.876	14820.03
594.235	14751.34
594.593	14829.75
594.952	14798.11
595.311	14756.53
595.67	14787.27
596.029	14877.89
596.387	14853.48
596.746	14863.87
597.104	14766.7
597.463	14783.42
597.822	14810.77
598.18	14773.03
598.538	14673.15
598.897	14844.67
599.255	14613.49
599.613	14904.78
599.972	14796.08
600.33	14824.78
600.688	14770.09
601.046	14780.04
601.404	14896.64
601.762	14800.37
602.12	14902.74
602.478	14866.59
602.836	14814.16
603.194	14768.96
603.552	14785.01
603.91	14734.61
604.268	14809.19
604.625	14735.52
604.983	14806.25
605.341	14681.51
605.698	14831.79
606.056	14853.71
606.413	14860.94
606.771	14923.31
607.128	14885.34
607.485	14898.68
607.843	14856.19
608.2	14901.39
608.557	14845.57
608.914	14895.06
609.272	14963.08
609.629	14926.02
609.986	14984.55
610.343	14855.74
610.7	15091.21
611.057	14973.93
611.414	14966.92
611.771	15029.97
612.127	14954.04
612.484	15051.89
612.841	15004.89
613.198	15049.63
613.554	15041.27
613.911	15175.05
614.267	15043.53
614.624	15060.93
614.98	15088.73
615.337	15220.02
615.693	15133.25
616.05	15152.68
616.406	15235.84
616.762	15116.3
617.118	15217.76
617.475	15162.4
617.831	15071.55
618.187	15176.18
618.543	15234.03
618.899	15240.36
619.255	15294.37
619.611	15238.1
619.967	15366.23
620.323	15273.13
620.678	15300.02
621.034	15294.15
621.39	15295.05
621.746	15261.15
622.101	15403.97
622.457	15298.21
622.812	15276.75
623.168	15297.31
623.523	15332.79
623.879	15325.33
624.234	15301.6
624.589	15339.79
624.945	15394.26
625.3	15416.18
625.655	15374.82
626.01	15399.68
626.365	15304.99
626.72	15255.28
627.075	15296.41
627.43	15283.98
627.785	15242.62
628.14	15275.84
628.495	15350.42
628.85	15235.39
629.205	15286.01
629.559	15248.72
629.914	15245.56
630.269	15278.1
630.623	15215.96
630.978	15146.58
631.332	15135.05
631.687	15288.72
632.041	15152.68
632.396	15183.41
632.75	15065.9
633.104	15084.89
633.459	14993.14
633.813	15009.18
634.167	15078.33
634.521	15088.95
634.875	15070.42
635.229	15029.29
635.583	14991.55
635.937	15042.85
636.291	14970.76
636.645	14990.2
636.999	14988.62
637.352	14975.74
637.706	14825.46
638.06	14980.03
638.413	14865.68
638.767	14820.71
639.121	14889.18
639.474	14858.23
639.828	14783.88
640.181	14808.06
640.534	14795.4
640.888	14711.79
641.241	14676.08
641.594	14649.64
641.947	14772.58
642.301	14669.76
642.654	14708.85
643.007	14707.04
643.36	14745.91
643.713	14623.66
644.066	14681.28
644.419	14602.41
644.771	14631.79
645.124	14428.41
645.477	14367.62
645.83	14309.54
646.182	14216.21
646.535	14204.01
646.888	14376.43
647.24	14152.03
647.593	14231.12
647.945	14204.01
648.298	14204.68
648.65	14055.76
649.002	14046.5
649.355	14199.94
649.707	14189.54
650.059	14254.85
650.411	14342.53
650.763	14399.03
651.115	14525.35
651.467	14502.3
651.819	14478.57
652.171	14472.92
652.523	14413.94
652.875	14469.76
653.227	14451.23
653.578	14445.58
653.93	14437.22
654.282	14388.18
654.633	14427.95
654.985	14453.26
655.337	14410.33
655.688	14408.75
656.039	14460.27
656.391	14427.05
656.742	14392.93
657.094	14478.35
657.445	14463.21
657.796	14436.54
658.147	14373.04
658.498	14424.56
658.849	14439.93
659.2	14500.95
659.551	14407.62
659.902	14509.31
660.253	14403.32
660.604	14469.31
660.955	14439.25
661.306	14441.51
661.656	14418.91
662.007	14417.33
662.358	14489.42
662.708	14465.24
663.059	14489.87
663.409	14378.46
663.76	14509.99
664.11	14497.56
664.461	14482.64
664.811	14487.16
665.161	14536.88
665.511	14559.25
665.862	14512.92
666.212	14512.7
666.562	14542.98
666.912	14495.3
667.262	14464.79
667.612	14519.48
667.962	14625.01
668.312	14470.66
668.662	14584.79
669.011	14535.75
669.361	14473.83
669.711	14547.95
670.06	14421.17
670.41	14453.94
670.76	14472.47
671.109	14491
671.459	14444.68
671.808	14452.81
672.157	14359.93
672.507	14342.76
672.856	14345.7
673.205	14423.21
673.554	14498.46
673.904	14318.8
674.253	14328.07
674.602	14375.53
674.951	14154.51
675.3	14178.92
675.649	14311.8
675.998	14277.9
676.346	14322.42
676.695	14349.09
677.044	14275.64
677.393	14238.35
677.741	14374.85
678.09	14213.27
678.438	14183.89
678.787	14208.98
679.135	14173.72
679.484	14107.28
679.832	14169.43
680.181	14033.61
680.529	14066.83
680.877	14002.65
681.225	14041.75
681.573	14054.4
681.922	13997.46
682.27	13958.36
682.618	13982.09
682.966	13985.03
683.314	13977.34
683.661	13874.75
684.009	13778.71
684.357	13748.42
684.705	13831.81
685.053	13764.92
685.4	13744.58
685.748	13677.69
686.095	13598.82
686.443	13621.65
686.79	13550.46
687.138	13568.99
687.485	13668.43
687.832	13514.98
688.18	13484.93
688.527	13378.04
688.874	13408.77
689.221	13471.37
689.568	13387.3
689.915	13416.68
690.262	13303.92
690.609	13305.05
690.956	13298.94
691.303	13199.29
691.65	13124.26
691.997	13117.03
692.344	13080.64
692.69	12956.13
693.037	13027.09
693.383	12917.49
693.73	12959.29
694.077	12876.36
694.423	12866.64
694.769	12830.26
695.116	12792.97
695.462	12750.03
695.808	12760.2
696.155	12765.85
696.501	12582.13
696.847	12620.54
697.193	12534.44
697.539	12497.84
697.885	12457.61
698.231	12408.12
698.577	12433.66
698.923	12367.22
699.269	12307.78
699.614	12225.3
699.96	12192.31
700.306	12185.3
700.651	12119.31
700.997	12071.86
701.342	12003.61
701.688	11938.3
702.033	11941.92
702.379	11917.96
702.724	11838.42
703.069	11924.97
703.415	11714.35
703.76	11751.87
704.105	11748.02
704.45	11705.31
704.795	11585.54
705.14	11586.67
705.485	11546.9
705.83	11569.5
706.175	11514.13
706.52	11500.57
706.865	11503.74
707.209	11380.35
707.554	11326.11
707.899	11396.62
708.243	11312.78
708.588	11265.78
708.932	11198.66
709.277	11141.03
709.621	11180.36
709.966	11125.22
710.31	11086.57
710.654	11050.19
710.998	11075.5
711.342	11054.26
711.687	10978.33
712.031	10951.44
712.375	10995.28
712.719	10938.33
713.063	10872.57
713.407	10938.1
713.75	10839.12
714.094	10885.67
714.438	10738.79
714.782	10856.07
715.125	10753.47
715.469	10739.01
715.812	10710.31
716.156	10642.06
716.499	10605.23
716.843	10729.97
717.186	10577.21
717.53	10638
717.873	10675.96
718.216	10602.07
718.559	10611.11
718.902	10478.45
719.246	10484.1
719.589	10515.06
719.932	10393.48
720.275	10463.09
720.617	10399.81
720.96	10408.85
721.303	10485.23
721.646	10518.9
721.989	10377.44
722.331	10405.23
722.674	10379.92
723.016	10401.17
723.359	10357.78
723.701	10379.02
724.044	10278.01
724.386	10303.09
724.729	10360.04
725.071	10294.5
725.413	10268.74
725.755	10260.38
726.097	10270.55
726.439	10222.87
726.782	10158.24
727.124	10278.23
727.465	10239.14
727.807	10251.11
728.149	10187.61
728.491	10228.29
728.833	10217.44
729.175	10119.14
729.516	10215.41
729.858	10121.17
730.199	10195.97
730.541	10125.02
730.882	10128.41
731.224	10176.77
731.565	10065.36
731.906	10148.29
732.248	10138.35
732.589	10069.88
732.93	10119.37
733.271	10139.93
733.612	10151
733.953	10136.32
734.294	10190.33
734.635	10096.77
734.976	10132.47
735.317	10063.55
735.658	10110.55
735.999	10119.82
736.339	10079.37
736.68	10181.06
737.021	10092.93
737.361	10099.48
737.702	10166.37
738.042	10155.52
738.383	10065.58
738.723	10153.49
739.063	10113.49
739.404	10189.87
739.744	10160.04
740.084	10143.32
740.424	10205.69
740.764	10194.62
741.104	10203.21
741.444	10230.78
741.784	10146.26
742.124	10206.14
742.464	10212.7
742.804	10303.09
743.143	10275.07
743.483	10271.68
743.823	10242.75
744.162	10343.09
744.502	10354.16
744.841	10342.41
745.181	10450.43
745.52	10361.39
745.86	10502.18
746.199	10484.33
746.538	10499.92
746.877	10597.55
747.216	10678.67
747.556	10668.96
747.895	10633.25
748.234	10685.91
748.573	10805.68
748.911	10924.09
749.25	10902.62
749.589	11018.55
749.928	11000.7
750.267	11130.87
750.605	11152.33
750.944	11283.4
751.283	11366.57
751.621	11466
751.96	11513.45
752.298	11560.46
752.636	11688.82
752.975	11760
753.313	11808.59
753.651	12009.03
753.989	12012.88
754.327	12069.6
754.666	12179.88
755.004	12281.57
755.342	12435.69
755.679	12616.93
756.017	12665.51
756.355	12870.25
756.693	12855.34
757.031	13048.56
757.368	13082.23
757.706	13303.92
758.044	13402.9
758.381	13628.2
758.719	13642.21
759.056	13869.78
759.394	13990.9
759.731	14192.93
760.068	14266.15
760.405	14376.66
760.743	14559.48
761.08	14754.95
761.417	14913.59
761.754	15019.8
762.091	15153.36
762.428	15241.72
762.765	15384.76
763.102	15570.97
763.438	15710.86
763.775	15786.79
764.112	16093.22
764.449	16279.88
764.785	16355.59
765.122	16454.34
765.458	16490.27
765.795	16732.07
766.131	16882.8
766.467	16975.23
766.804	17026.08
767.14	17199.18
767.476	17276.24
767.812	17375.45
768.148	17588.1
768.485	17566.63
768.821	17612.05
769.157	17766.4
769.492	17843.23
769.828	17988.54
770.164	17986.05
770.5	18039.16
770.836	18218.14
771.171	18250.9
771.507	18383.78
771.842	18256.55
772.178	18453.38
772.513	18538.13
772.849	18688.86
773.184	18650.67
773.519	18744.22
773.855	18800.72
774.19	18757.56
774.525	18793.04
774.86	18977.44
775.195	19013.14
775.53	18982.18
775.865	18992.58
776.2	18991.68
776.535	18858.35
776.87	18912.81
777.205	19016.31
777.539	19023.09
777.874	19095.18
778.209	19065.57
778.543	19056.53
778.878	19030.54
779.212	19034.39
779.547	19095.85
779.881	19180.6
780.215	19168.85
780.55	19219.01
780.884	19032.58
781.218	19136.76
781.552	19202.74
781.886	19101.73
782.22	19095.4
782.554	19025.57
782.888	19002.97
783.222	18997.55
783.556	18935.63
783.889	18987.38
784.223	18849.31
784.557	18835.3
784.89	18932.92
785.224	18860.15
785.557	18793.49
785.891	18858.57
786.224	18829.65
786.558	18911.45
786.891	18727.5
787.224	18642.98
787.557	18694.28
787.891	18556.43
788.224	18591.23
788.557	18520.05
788.89	18589.2
789.223	18572.93
789.556	18490.45
789.888	18394.86
790.221	18444.8
790.554	18375.19
790.887	18212.26
791.219	18228.31
791.552	18394.86
791.884	18107.86
792.217	18136.11
792.549	18065.82
792.882	17979.27
793.214	17951.7
793.546	18045.26
793.879	17934.75
794.211	17836.23
794.543	17950.12
794.875	17880.74
795.207	17882.1
795.539	17808.43
795.871	17799.84
796.203	17624.03
796.535	17511.49
796.867	17553.07
797.198	17586.29
797.53	17548.1
797.862	17517.59
798.193	17524.37
798.525	17379.29
798.856	17408.89
799.188	17240.99
799.519	17191.72
799.85	17136.58
800.182	17153.98
800.513	17208.9
800.844	17064.49
801.175	17141.33
801.506	17032.41
801.837	16907.21
802.168	16960.99
802.499	16832.18
802.83	16815.91
803.161	16769.59
803.491	16784.5
803.822	16745.63
804.153	16692.3
804.483	16593.09
804.814	16538.18
805.145	16571.85
805.475	16441.46
805.805	16524.85
806.136	16417.73
806.466	16383.61
806.796	16391.29
807.126	16354.91
807.457	16246.89
807.787	16226.32
808.117	16196.27
808.447	16122.37
808.777	16175.03
809.107	16071.3
809.436	16051.41
809.766	15989.04
810.096	15918.08
810.426	15930.51
810.755	15885.77
811.085	15922.38
811.414	15871.98
811.744	15733.91
812.073	15846.67
812.403	15675.15
812.732	15698.2
813.061	15671.54
813.39	15613.46
813.719	15600.8
814.049	15648.03
814.378	15565.1
814.707	15508.38
815.036	15541.15
815.365	15415.95
815.693	15350.19
816.022	15380.92
816.351	15280.13
816.68	15232.9
817.008	15273.81
817.337	15210.31
817.665	15109.29
817.994	15132.79
818.322	15067.71
818.651	15105.68
818.979	15018.67
819.307	15069.97
819.636	15012.57
819.964	15025.45
820.292	15035.17
820.62	14989.97
820.948	14912.24
821.276	14940.93
821.604	14818.9
821.932	14967.37
822.259	15076.75
822.587	14942.74
822.915	14970.31
823.243	15016.19
823.57	14850.77
823.898	14870.65
824.225	14792.69
824.553	14852.58
824.88	14851.22
825.207	14954.49
825.535	14900.03
825.862	14883.08
826.189	14772.58
826.516	14928.73
826.843	14960.82
827.17	14883.08
827.497	14921.5
827.824	14869.52
828.151	14924.44
828.478	14937.55
828.805	14994.94
829.131	14898
829.458	14991.33
829.785	14872.24
830.111	14877.43
830.438	14935.51
830.764	14898.22
831.09	14912.24
831.417	14914.49
831.743	15004.21
832.069	14923.76
832.395	14732.58
832.722	14939.13
833.048	14803.76
833.374	14844.89
833.7	14836.3
834.026	14845.57
834.351	14798.79
834.677	14716.76
835.003	14825.68
835.329	14765.35
835.654	14744.1
835.98	14749.98
836.306	14701.17
836.631	14707.72
836.956	14715.18
837.282	14710.21
837.607	14594.5
837.932	14613.03
838.258	14573.49
838.583	14585.01
838.908	14401.06
839.233	14510.44
839.558	14503.66
839.883	14466.82
840.208	14302.99
840.533	14342.31
840.858	14423.21
841.182	14356.32
841.507	14385.02
841.832	14278.58
842.156	14199.71
842.481	14326.26
842.805	14195.42
843.13	14131.24
843.454	14154.06
843.778	14131.69
844.103	14059.15
844.427	14013.05
844.751	14052.6
845.075	13925.82
845.399	13930.57
845.723	13899.61
846.047	13914.07
846.371	13737.12
846.695	13703.45
847.019	13738.93
847.343	13556.56
847.666	13561.54
847.99	13492.61
848.313	13488.77
848.637	13355.67
848.96	13414.65
849.284	13371.48
849.607	13293.52
849.931	13166.97
850.254	13140.08
850.577	13067.99
850.9	13039.06
851.223	12970.59
851.546	12927.43
851.869	12804.04
852.192	12898.95
852.515	12758.62
852.838	12775.34
853.161	12715.91
853.483	12737.6
853.806	12544.16
854.129	12562.92
854.451	12502.81
854.774	12458.74
855.096	12458.74
855.419	12406.31
855.741	12399.76
856.063	12365.86
856.385	12266.88
856.708	12282.7
857.03	12256.26
857.352	12183.49
857.674	12274.79
857.996	12073.21
858.318	12057.39
858.64	12086.32
858.961	11946.21
859.283	11973.56
859.605	11896.72
859.926	11899.43
860.248	11797.51
860.57	11889.94
860.891	11850.62
861.212	11765.65
861.534	11780.11
861.855	11702.15
862.176	11753
862.498	11705.09
862.819	11698.31
863.14	11594.81
863.461	11550.06
863.782	11607.69
864.103	11616.95
864.424	11556.39
864.745	11566.33
865.065	11452.66
865.386	11471.2
865.707	11412.44
866.027	11440.01
866.348	11362.95
866.668	11402.72
866.989	11352.1
867.309	11332.22
867.63	11387.58
867.95	11295.83
868.27	11284.76
868.59	11275.95
868.91	11246.79
869.23	11228.49
869.55	11183.29
869.87	11214.25
870.19	11114.14
870.51	11180.58
870.83	11157.31
871.15	11090.64
871.469	11172.45
871.789	11082.28
872.109	11129.28
872.428	11036.18
872.748	11038.89
873.067	11065.33
873.386	11065.1
873.706	10968.38
874.025	10916.86
874.344	10907.59
874.663	10921.83
874.982	10940.81
875.301	10954.6
875.62	10908.95
875.939	10867.6
876.258	10853.13
876.577	10808.61
876.896	10818.56
877.214	10727.26
877.533	10748.05
877.852	10695.62
878.17	10800.03
878.489	10718.22
878.807	10741.72
879.125	10733.36
879.444	10686.36
879.762	10696.98
880.08	10705.79
880.398	10621.5
880.716	10583.54
881.034	10537.21
881.352	10599.58
881.67	10525.68
881.988	10498.11
882.306	10552.35
882.624	10406.59
882.941	10396.87
883.259	10383.99
883.577	10427.16
883.894	10396.65
884.212	10328.85
884.529	10411.79
884.846	10274.84
885.164	10248.63
885.481	10249.08
885.798	10259.48
886.115	10196.43
886.432	10238.91
886.75	10179.48
887.067	10158.24
887.383	10151.23
887.7	10124.79
888.017	10060.16
888.334	10002.99
888.651	10009.54
888.967	9933.38
889.284	10053.15
889.6	9989.88
889.917	9864.01
890.233	9861.07
890.55	9820.84
890.866	9839.83
891.182	9792.14
891.498	9760.51
891.815	9753.05
892.131	9677.12
892.447	9665.14
892.763	9631.24
893.079	9617.46
893.395	9516.67
893.71	9584.24
894.026	9552.38
894.342	9473.51
894.657	9417.92
894.973	9438.71
895.289	9425.15
895.604	9375.43
895.92	9338.6
896.235	9305.83
896.55	9252.27
896.865	9245.94
897.181	9244.81
897.496	9258.37
897.811	9116.68
898.126	9176.79
898.441	9076
898.756	9080.75
899.071	9005.95
899.386	8995.78
899.7	8926.4
900.015	8896.8
900.33	8849.57
900.644	8912.62
900.959	8829.46
901.273	8803.02
901.588	8764.37
901.902	8720.76
902.216	8716.01
902.531	8712.85
902.845	8605.06
903.159	8580.42
903.473	8599.63
903.787	8460.65
904.101	8490.48
904.415	8493.87
904.729	8412.74
905.042	8423.82
905.356	8400.32
905.67	8407.55
905.984	8343.59
906.297	8320.77
906.611	8204.16
906.924	8261.56
907.237	8156.25
907.551	8180.21
907.864	8128.91
908.177	8112.19
908.491	8126.65
908.804	8082.13
909.117	8002.59
909.43	8021.79
909.743	7914.23
910.056	7909.26
910.368	7920.78
910.681	7841.69
910.994	7771.86
911.307	7803.5
911.619	7741.12
911.932	7775.7
912.244	7601.92
912.557	7676.72
912.869	7668.58
913.181	7552.65
913.494	7576.16
913.806	7528.47
914.118	7537.29
914.43	7413.45
914.742	7488.25
915.054	7395.6
915.366	7349.04
915.678	7386.11
915.99	7308.37
916.302	7259.33
916.613	7262.72
916.925	7206.67
917.236	7178.65
917.548	7143.4
917.859	7208.71
918.171	7090.07
918.482	7071.99
918.794	7067.47
919.105	7027.02
919.416	6888.04
919.727	6956.06
920.038	6901.82
920.349	6864.09
920.66	6890.53
920.971	6871.99
921.282	6784.31
921.593	6767.14
921.903	6775.05
922.214	6709.51
922.525	6702.51
922.835	6674.03
923.146	6640.81
923.456	6616.18
923.767	6600.36
924.077	6539.57
924.387	6548.84
924.697	6498.9
925.008	6507.71
925.318	6389.3
925.628	6438.33
925.938	6420.71
926.248	6311.11
926.558	6373.7
926.867	6306.13
927.177	6265.91
927.487	6222.52
927.796	6202.63
928.106	6212.35
928.416	6165.57
928.725	6170.77
929.034	6112.92
929.344	6137.55
929.653	6065.01
929.962	6077.89
930.271	6062.07
930.581	6043.09
930.89	5955.86
931.199	5968.97
931.508	5925.35
931.817	5925.8
932.125	5922.87
932.434	5901.17
932.743	5846.26
933.051	5827.05
933.36	5794.51
933.669	5764
933.977	5748.41
934.286	5698.01
934.594	5685.58
934.902	5634.29
935.21	5632.71
935.519	5647.39
935.827	5614.63
936.135	5558.13
936.443	5536.44
936.751	5510.45
937.059	5527.85
937.367	5495.99
937.674	5493.5
937.982	5410.79
938.29	5443.11
938.597	5378.47
938.905	5351.13
939.213	5344.58
939.52	5322.2
939.827	5337.57
940.135	5293.73
940.442	5259.83
940.749	5234.98
941.056	5219.38
941.363	5219.83
941.67	5145.71
941.977	5084.24
942.284	5133.51
942.591	5091.93
942.898	5171.25
943.205	5083.79
943.511	5041.31
943.818	5050.57
944.125	5023.23
944.431	4981.65
944.738	4919.05
945.044	4916.79
945.35	4945.94
945.657	4865.27
945.963	4850.8
946.269	4863.23
946.575	4841.77
946.881	4807.19
947.187	4779.85
947.493	4770.35
947.799	4737.59
948.105	4721.32
948.41	4721.32
948.716	4674.54
949.022	4697.14
949.327	4672.28
949.633	4623.24
949.938	4561.09
950.244	4592.73
950.549	4574.2
950.854	4506.41
951.16	4555.67
951.465	4480.19
951.77	4497.59
952.075	4466.63
952.38	4404.26
952.685	4427.31
952.99	4384.38
953.294	4353.64
953.599	4403.13
953.904	4352.51
954.209	4325.17
954.513	4317.94
954.818	4274.32
955.122	4284.27
955.426	4225.51
955.731	4265.28
956.035	4195.23
956.339	4223.25
956.643	4225.28
956.948	4167.43
957.252	4170.37
957.556	4119.98
957.86	4100.54
958.163	4100.54
958.467	4076.36
958.771	4048.57
959.075	4084.72
959.378	4037.49
959.682	4002.01
959.985	4001.11
960.289	3975.12
960.592	3946.2
960.896	3956.36
961.199	3965.18
961.502	3931.51
961.805	3854.45
962.108	3850.38
962.411	3855.58
962.714	3840.66
963.017	3815.8
963.32	3798.85
963.623	3826.88
963.926	3744.39
964.228	3749.82
964.531	3706.88
964.833	3726.09
965.136	3701.68
965.438	3673.43
965.741	3702.36
966.043	3697.39
966.345	3631.85
966.648	3663.49
966.95	3644.06
967.252	3576.49
967.554	3597.05
967.856	3596.6
968.158	3559.77
968.46	3521.35
968.761	3507.11
969.063	3534.68
969.365	3529.48
969.666	3462.59
969.968	3445.87
970.269	3419.66
970.571	3461.01
970.872	3416.49
971.174	3388.92
971.475	3382.14
971.776	3382.14
972.077	3362.93
972.378	3368.58
972.679	3330.62
972.98	3318.19
973.281	3294.69
973.582	3289.26
973.883	3272.32
974.183	3234.58
974.484	3228.7
974.785	3244.07
975.085	3217.63
975.386	3189.83
975.686	3205.88
975.986	3178.53
976.287	3171.98
976.587	3118.65
976.887	3142.38
977.187	3143.5
977.487	3138.76
977.787	3069.16
978.087	3055.37
978.387	3058.31
978.687	3079.33
978.987	3067.35
979.286	2998.65
979.586	3018.08
979.885	2988.93
980.185	2971.76
980.484	2957.3
980.784	2943.51
981.083	2962.49
981.382	2924.3
981.682	2912.55
981.981	2917.3
982.28	2893.12
982.579	2870.97
982.878	2886.79
983.177	2894.7
983.475	2872.1
983.774	2788.03
984.073	2843.85
984.372	2767.24
984.67	2748.26
984.969	2791.2
985.267	2762.95
985.566	2763.85
985.864	2741.03
986.162	2735.38
986.461	2710.97
986.759	2704.65
987.057	2674.36
987.355	2676.17
987.653	2650.41
987.951	2633.01
988.249	2648.6
988.547	2620.81
988.844	2632.11
989.142	2597.3
989.44	2575.84
989.737	2574.93
990.035	2583.97
990.332	2579.45
990.63	2570.41
990.927	2493.8
991.224	2507.36
991.521	2498.55
991.819	2515.72
992.116	2491.77
992.413	2505.56
992.71	2496.52
993.006	2461.71
993.303	2437.53
993.6	2442.73
993.897	2446.8
994.193	2416.97
994.49	2401.83
994.787	2364.99
995.083	2336.29
995.379	2370.87
995.676	2350.76
995.972	2344.43
996.268	2344.43
996.565	2329.52
996.861	2335.62
997.157	2300.82
997.453	2273.92
997.749	2277.09
998.044	2242.06
998.34	2259.91
998.636	2239.12
998.932	2227.82
999.227	2204.77
999.523	2185.34
999.818	2174.49
1000.114	2185.11
1000.409	2157.99
1000.704	2165.9
1001	2138.33
1001.295	2143.08
1001.59	2106.24
1001.885	2135.17
1002.18	2099.01
1002.475	2085.68
1002.77	2076.87
1003.065	2045.91
1003.359	2039.81
1003.654	2042.97
1003.949	2038.22
1004.243	2028.96
1004.538	2022.4
1004.832	1996.19
1005.127	1989.86
1005.421	1954.84
1005.715	1929.75
1006.009	1997.55
1006.304	1932.92
1006.598	1928.17
1006.892	1928.62
1007.186	1894.05
1007.48	1913.71
1007.773	1870.54
1008.067	1883.2
1008.361	1847.04
1008.655	1861.28
1008.948	1841.84
1009.242	1840.26
1009.535	1823.77
1009.829	1841.84
1010.122	1801.85
1010.415	1821.28
1010.708	1776.54
1011.001	1751.45
1011.295	1775.63
1011.588	1753.71
1011.881	1746.03
1012.173	1740.83
1012.466	1730.89
1012.759	1714.84
1013.052	1727.5
1013.344	1696.76
1013.637	1663.09
1013.93	1643.21
1014.222	1644.79
1014.514	1645.01
1014.807	1649.76
1015.099	1631.23
1015.391	1648.4
1015.683	1601.17
1015.976	1621.51
1016.268	1591.23
1016.56	1578.57
1016.851	1579.25
1017.143	1558.01
1017.435	1536.77
1017.727	1520.27
1018.018	1557.11
1018.31	1527.05
1018.602	1498.12
1018.893	1531.34
1019.185	1489.09
1019.476	1484.79
1019.767	1481.18
1020.058	1490.22
1020.35	1458.58
1020.641	1452.02
1020.932	1445.7
1021.223	1420.16
1021.514	1403.66
1021.804	1422.42
1022.095	1394.85
1022.386	1395.75
1022.677	1389.88
1022.967	1360.73
1023.258	1372.7
1023.548	1360.05
1023.839	1334.29
1024.129	1326.6
1024.419	1366.6
1024.709	1312.59
1025	1294.74
1025.29	1303.78
1025.58	1332.71
1025.87	1285.47
1026.16	1275.76
1026.449	1281.86
1026.739	1292.48
1027.029	1238.02
1027.319	1242.99
1027.608	1236.89
1027.898	1256.77
1028.187	1230.33
1028.477	1216.55
1028.766	1217.68
1029.055	1177.23
1029.344	1185.59
1029.634	1184.01
1029.923	1186.72
1030.212	1202.31
1030.501	1165.03
1030.79	1138.13
1031.078	1157.34
1031.367	1140.85
1031.656	1118.93
1031.945	1101.52
1032.233	1144.01
1032.522	1098.59
1032.81	1076.21
1033.099	1066.72
1033.387	1078.93
1033.675	1067.4
1033.963	1099.94
1034.251	1064.01
1034.54	1083.67
1034.828	1065.14
1035.116	1040.96
1035.403	1045.03
1035.691	1021.98
1035.979	1029.21
1036.267	1049.77
1036.554	1011.81
1036.842	1006.39
1037.129	1051.81
1037.417	975.43
1037.704	994.41
1037.992	1012.49
1038.279	974.07
1038.566	967.52
1038.853	967.52
1039.14	967.52
