Data from hue_120_FLMS001491_00067.txt Node
Date: Tue Feb 07 16:59:49 GMT 2017
User: dcchb
Spectrometer: FLMS00149
Trigger mode: 0
Integration Time (sec): 2.000000E-2
Scans to average: 10
Electric dark correction enabled: true
Nonlinearity correction enabled: false
Boxcar width: 0
XAxis mode: Wavelengths
Number of Pixels in Spectrum: 2048
>>>>>Begin Spectral Data<<<<<
341.393	-6.06
341.776	-6.06
342.16	-6.06
342.543	-71.59
342.927	-67.98
343.31	-59.62
343.693	-64.81
344.077	-73.18
344.46	-82.44
344.843	-60.52
345.226	-52.84
345.61	-17.36
345.993	-21.2
346.376	2.08
346.759	13.38
347.142	40.49
347.525	34.84
347.908	60.61
348.291	69.42
348.674	100.15
349.057	111
349.44	111.9
349.823	143.77
350.206	179.25
350.588	199.81
350.971	204.78
351.354	219.02
351.737	254.95
352.119	251.34
352.502	271
352.884	274.16
353.267	261.05
353.65	295.63
354.032	293.82
354.414	317.77
354.797	322.97
355.179	315.97
355.562	330.66
355.944	327.94
356.326	338.79
356.709	338.56
357.091	336.53
357.473	344.21
357.855	358
358.238	347.83
358.62	339.47
359.002	348.73
359.384	323.2
359.766	342.18
360.148	337.66
360.53	337.21
360.912	331.33
361.294	334.27
361.676	306.25
362.057	319.36
362.439	335.17
362.821	318.45
363.203	301.28
363.584	322.29
363.966	333.37
364.348	327.72
364.729	338.79
365.111	344.21
365.493	327.27
365.874	314.16
366.256	332.69
366.637	314.61
367.019	311.67
367.4	334.27
367.781	302.63
368.163	329.53
368.544	300.37
368.925	317.77
369.306	336.76
369.688	291.79
370.069	318.45
370.45	297.66
370.831	299.7
371.212	300.15
371.593	302.41
371.974	333.37
372.355	313.25
372.736	333.82
373.117	332.46
373.498	310.09
373.879	334.5
374.26	314.38
374.641	309.41
375.021	326.36
375.402	330.2
375.783	320.26
376.163	346.02
376.544	313.03
376.925	316.42
377.305	318
377.686	330.43
378.066	321.84
378.447	346.02
378.827	334.27
379.208	307.6
379.588	335.63
379.968	358.68
380.349	341.05
380.729	332.69
381.109	345.12
381.489	354.38
381.87	343.08
382.25	360.94
382.63	344.44
383.01	361.39
383.39	357.55
383.77	361.61
384.15	362.97
384.53	349.64
384.91	346.7
385.29	354.16
385.67	327.72
386.049	358.68
386.429	385.57
386.809	361.16
387.189	352.8
387.568	352.35
387.948	380.6
388.328	372.46
388.707	369.75
389.087	364.1
389.466	342.63
389.846	363.65
390.225	373.37
390.605	359.35
390.984	401.84
391.363	381.28
391.743	388.96
392.122	391.44
392.501	377.21
392.881	373.59
393.26	391.9
393.639	400.26
394.018	380.37
394.397	409.3
394.776	390.31
395.155	403.65
395.534	387.38
395.913	381.28
396.292	426.7
396.671	390.77
397.05	387.6
397.429	418.34
397.808	423.53
398.186	414.27
398.565	408.85
398.944	403.2
399.323	408.85
399.701	398
400.08	399.81
400.458	401.39
400.837	409.07
401.215	428.05
401.594	445.68
401.972	407.72
402.351	444.78
402.729	439.13
403.107	447.04
403.486	448.62
403.864	426.47
404.242	421.73
404.62	436.19
404.999	434.16
405.377	444.78
405.755	453.59
406.133	436.87
406.511	455.62
406.889	461.5
407.267	469.18
407.645	440.71
408.023	435.29
408.401	455.85
408.779	478
409.156	466.24
409.534	462.18
409.912	475.96
410.29	466.02
410.667	471.44
411.045	506.47
411.422	506.24
411.8	479.35
412.178	513.93
412.555	522.06
412.933	517.32
413.31	516.64
413.687	509.41
414.065	520.03
414.442	527.03
414.819	543.76
415.197	522.74
415.574	564.32
415.951	556.86
416.328	562.74
416.705	550.76
417.082	543.98
417.46	562.06
417.837	574.49
418.214	565.23
418.591	574.26
418.967	566.13
419.344	562.51
419.721	559.58
420.098	575.62
420.475	558.45
420.852	561.38
421.228	592.12
421.605	597.99
421.982	602.06
422.358	599.35
422.735	615.17
423.111	595.28
423.488	619.24
423.864	614.94
424.241	639.12
424.617	625.34
424.994	616.52
425.37	635.73
425.746	633.92
426.123	659.23
426.499	648.61
426.875	659.91
427.251	673.7
427.627	654.94
428.003	670.99
428.379	680.7
428.756	640.48
429.132	680.25
429.507	684.09
429.883	696.3
430.259	700.14
430.635	713.7
431.011	718.22
431.387	751.66
431.763	739.46
432.138	755.95
432.514	749.4
432.89	741.49
433.265	780.81
433.641	757.31
434.016	759.34
434.392	778.55
434.767	799.34
435.143	815.16
435.518	788.27
435.894	826.69
436.269	826.46
436.644	836.4
437.02	818.1
437.395	821.04
437.77	835.05
438.145	850.42
438.52	859.23
438.895	865.33
439.271	866.23
439.646	867.82
440.021	870.08
440.395	899.23
440.77	890.41
441.145	887.93
441.52	934.71
441.895	903.75
442.27	928.15
442.645	924.31
443.019	919.79
443.394	899.23
443.769	954.82
444.143	953.01
444.518	969.51
444.892	946.68
445.267	963.18
445.641	992.56
446.016	979.9
446.39	1017.19
446.764	1010.41
447.139	977.64
447.513	993.46
447.887	1005.67
448.262	1037.98
448.636	1016.06
449.01	1017.87
449.384	1033.01
449.758	1071.43
450.132	1058.77
450.506	1061.26
450.88	1063.07
451.254	1077.3
451.628	1096.96
452.002	1094.48
452.376	1103.97
452.75	1136.96
453.123	1138.54
453.497	1157.75
453.871	1144.87
454.244	1164.98
454.618	1172.67
454.992	1201.14
455.365	1187.36
455.739	1230.97
456.112	1250.4
456.486	1247.24
456.859	1262.38
457.232	1281.36
457.606	1274.13
457.979	1281.14
458.352	1303.28
458.725	1323.62
459.099	1351.65
459.472	1379.44
459.845	1402.04
460.218	1411.3
460.591	1409.27
460.964	1404.53
461.337	1430.74
461.71	1483.85
462.083	1498.08
462.456	1489.95
462.829	1531.3
463.201	1538.76
463.574	1536.5
463.947	1576.5
464.32	1586.44
464.692	1618.76
465.065	1616.95
465.438	1640
465.81	1690.62
466.183	1713.67
466.555	1748.47
466.928	1765.19
467.3	1781.69
467.672	1833.44
468.045	1837.96
468.417	1847.68
468.789	1894.68
469.161	1916.15
469.534	1954.34
469.906	1992.76
470.278	2012.19
470.65	2073.21
471.022	2102.59
471.394	2139.2
471.766	2169.48
472.138	2189.36
472.51	2261.9
472.882	2299.19
473.253	2364.95
473.625	2405.18
473.997	2435.23
474.369	2522.46
474.74	2514.78
475.112	2552.29
475.484	2671.38
475.855	2714.55
476.227	2772.85
476.598	2848.33
476.97	2921.32
477.341	2995.67
477.713	3068.44
478.084	3090.58
478.455	3202.44
478.827	3274.98
479.198	3405.6
479.569	3424.13
479.94	3586.84
480.311	3651.02
480.682	3722.2
481.053	3865.7
481.424	3957.68
481.795	4030.22
482.166	4142.31
482.537	4268.18
482.908	4375.75
483.279	4477.66
483.65	4591.79
484.021	4750.65
484.391	4822.06
484.762	4942.51
485.133	5057.31
485.503	5202.17
485.874	5299.34
486.244	5448.71
486.615	5570.74
486.985	5723.28
487.356	5893.67
487.726	6025.87
488.097	6221.35
488.467	6339.31
488.837	6485.07
489.207	6620.89
489.578	6759.41
489.948	6904.04
490.318	7063.81
490.688	7182.23
491.058	7379.06
491.428	7517.58
491.798	7662.21
492.168	7901.53
492.538	7994.86
492.908	8121.86
493.278	8333.61
493.648	8465.36
494.017	8553.26
494.387	8763.2
494.757	8910.77
495.126	9106.24
495.496	9190.99
495.866	9272.57
496.235	9461.04
496.605	9578.55
496.974	9715.95
497.344	9868.71
497.713	9989.61
498.082	10147.12
498.452	10239.32
498.821	10356.15
499.19	10492.87
499.559	10615.36
499.928	10752.3
500.298	10895.58
500.667	11015.8
501.036	11039.75
501.405	11168.11
501.774	11319.97
502.143	11354.09
502.512	11470.25
502.88	11610.36
503.249	11727.87
503.618	11816.91
503.987	11801.99
504.356	12000.18
504.724	12140.51
505.093	12150.68
505.462	12204.47
505.83	12378.7
506.199	12511.35
506.567	12695.3
506.936	12694.85
507.304	12804.23
507.672	12900.49
508.041	12929.19
508.409	13051
508.777	13101.17
509.145	13239.02
509.514	13292.8
509.882	13369.63
510.25	13457.09
510.618	13482.4
510.986	13552.91
511.354	13685.56
511.722	13714.03
512.09	13894.37
512.458	13735.5
512.826	13927.81
513.193	14074.47
513.561	14015.04
513.929	14161.03
514.297	14174.13
514.664	14313.34
515.032	14398.08
515.4	14463.39
515.767	14436.27
516.135	14499.77
516.502	14448.02
516.869	14665.42
517.237	14682.37
517.604	14633.78
517.972	14730.05
518.339	14791.74
518.706	14791.74
519.073	14921.91
519.44	14903.38
519.808	15071.06
520.175	15021.79
520.542	15111.28
520.909	15311.73
521.276	15152.86
521.643	15288
522.009	15287.78
522.376	15452.07
522.743	15486.64
523.11	15564.6
523.477	15682.34
523.843	15667.43
524.21	15773.19
524.577	15747.42
524.943	15844.15
525.31	15878.49
525.676	15936.8
526.043	15967.98
526.409	16014.08
526.776	16088.43
527.142	16101.54
527.508	16178.6
527.874	16259.05
528.241	16264.02
528.607	16177.24
528.973	16247.52
529.339	16244.14
529.705	16303.34
530.071	16363.91
530.437	16340.86
530.803	16410.68
531.169	16434.64
531.535	16275.09
531.901	16373.85
532.267	16328.88
532.632	16343.57
532.998	16489.1
533.364	16457.01
533.73	16410.91
534.095	16477.35
534.461	16481.87
534.826	16454.98
535.192	16388.54
535.557	16437.58
535.923	16463.11
536.288	16402.55
536.653	16330.01
537.019	16303.12
537.384	16364.36
537.749	16367.52
538.114	16382.21
538.479	16330.46
538.845	16254.76
539.21	16273.74
539.575	16294.98
539.94	16246.17
540.305	16189.45
540.67	16150.8
541.034	16172.27
541.399	16180.63
541.764	16122.1
542.129	16113.52
542.494	16094.53
542.858	16071.71
543.223	15991.71
543.587	16080.07
543.952	15961.2
544.316	15950.36
544.681	15909.23
545.045	15910.13
545.41	15800.08
545.774	15864.94
546.138	15834.65
546.503	15857.7
546.867	15703.36
547.231	15865.84
547.595	15717.82
547.959	15805.73
548.324	15688.44
548.688	15612.74
549.052	15584.94
549.416	15665.39
549.779	15591.27
550.143	15549.46
550.507	15616.58
550.871	15557.37
551.235	15519.86
551.599	15489.8
551.962	15462.46
552.326	15368.45
552.689	15483.93
553.053	15312.18
553.417	15372.07
553.78	15595.11
554.143	15410.26
554.507	15335.91
554.87	15277.61
555.234	15450.03
555.597	15264.05
555.96	15347.21
556.323	15295.23
556.686	15243.26
557.05	15349.92
557.413	15395.34
557.776	15252.3
558.139	15339.07
558.502	15318.96
558.865	15319.41
559.228	15296.59
559.59	15289.81
559.953	15219.08
560.316	15362.8
560.679	15307.21
561.041	15364.84
561.404	15398.51
561.767	15395.34
562.129	15352.41
562.492	15437.83
562.854	15391.95
563.217	15323.03
563.579	15403.93
563.941	15478.05
564.304	15391.05
564.666	15498.84
565.028	15394.44
565.39	15518.05
565.753	15523.25
566.115	15508.79
566.477	15558.5
566.839	15570.93
567.201	15689.12
567.563	15612.97
567.925	15746.07
568.287	15603.47
568.648	15732.28
569.01	15681.66
569.372	15850.47
569.734	15718.95
570.095	15722.79
570.457	15793.53
570.819	15819.51
571.18	15774.09
571.542	15804.82
571.903	15861.55
572.265	15889.57
572.626	15878.04
572.987	15770.93
573.349	15859.96
573.71	15839.17
574.071	15968.44
574.432	15899.51
574.794	16039.17
575.155	15962.11
575.516	15896.8
575.877	16064.93
576.238	16031.94
576.599	16081.88
576.96	16096.12
577.32	16034.65
577.681	16083.01
578.042	16111.26
578.403	16032.62
578.763	16061.77
579.124	16051.82
579.485	16175.44
579.845	16157.36
580.206	16133.18
580.566	16043.46
580.927	16080.3
581.287	16190.13
581.648	16022.67
582.008	16130.69
582.368	16019.73
582.728	16127.75
583.089	16077.36
583.449	16062.44
583.809	16105.38
584.169	16097.47
584.529	16046.85
584.889	16138.38
585.249	16027.19
585.609	15907.65
585.969	16033.29
586.329	15985.38
586.688	15977.93
587.048	16008.89
587.408	15963.92
587.768	15962.79
588.127	15974.76
588.487	15881.66
588.846	16032.39
589.206	15898.38
589.565	15861.32
589.925	15926.18
590.284	15932.28
590.643	15933.41
591.003	15947.19
591.362	15954.65
591.721	15914.88
592.08	15847.99
592.44	15937.48
592.799	15950.81
593.158	15937.02
593.517	15931.83
593.876	15911.71
594.235	15775.22
594.593	15857.93
594.952	15776.35
595.311	15777.03
595.67	15781.1
596.029	15821.32
596.387	15928.21
596.746	15880.75
597.104	15808.44
597.463	15825.61
597.822	15810.25
598.18	15863.13
598.538	15753.07
598.897	15819.51
599.255	15767.09
599.613	15896.57
599.972	15776.58
600.33	15883.01
600.688	15751.72
601.046	15797.14
601.404	15893.18
601.762	15860.64
602.12	15883.01
602.478	15949.68
602.836	15937.48
603.194	15786.75
603.552	15832.85
603.91	15814.99
604.268	15810.02
604.625	15797.82
604.983	15847.99
605.341	15708.1
605.698	15805.73
606.056	15844.6
606.413	15783.81
606.771	15874.65
607.128	15858.83
607.485	15808.67
607.843	15817.48
608.2	15918.04
608.557	15897.7
608.914	15913.07
609.272	16015.21
609.629	15958.49
609.986	16061.09
610.343	15982.9
610.7	16071.48
611.057	16028.1
611.414	16086.17
611.771	16038.49
612.127	16080.3
612.484	16126.4
612.841	16060.19
613.198	16060.86
613.554	16047.76
613.911	16177.47
614.267	16130.47
614.624	16126.4
614.98	16097.47
615.337	16146.06
615.693	16136.34
616.05	16176.34
616.406	16186.28
616.762	16205.94
617.118	16181.76
617.475	16193.29
617.831	16261.08
618.187	16356
618.543	16268.54
618.899	16376.56
619.255	16384.02
619.611	16265.38
619.967	16393.96
620.323	16325.04
620.678	16300.63
621.034	16330.01
621.39	16348.54
621.746	16345.15
622.101	16473.73
622.457	16312.38
622.812	16352.61
623.168	16431.47
623.523	16335.43
623.879	16372.27
624.234	16314.19
624.589	16382.44
624.945	16363.45
625.3	16388.09
625.655	16373.85
626.01	16272.83
626.365	16388.54
626.72	16242.55
627.075	16373.4
627.43	16332.27
627.785	16314.87
628.14	16301.31
628.495	16367.07
628.85	16324.81
629.205	16232.38
629.559	16391.25
629.914	16295.66
630.269	16275.77
630.623	16201.88
630.978	16210.92
631.332	16223.8
631.687	16308.54
632.041	16208.2
632.396	16184.02
632.75	16137.7
633.104	16120.52
633.459	16110.35
633.813	16117.81
634.167	16076
634.521	16015.67
634.875	16051.37
635.229	16082.56
635.583	15958.04
635.937	15998.94
636.291	15945.39
636.645	15925.05
636.999	15873.3
637.352	15982.67
637.706	15866.97
638.06	15883.47
638.413	15824.26
638.767	15844.82
639.121	15815.67
639.474	15783.13
639.828	15777.71
640.181	15840.08
640.534	15836.91
640.888	15701.32
641.241	15614.55
641.594	15749.68
641.947	15755.79
642.301	15689.8
642.654	15704.94
643.007	15803.24
643.36	15673.08
643.713	15572.97
644.066	15724.15
644.419	15539.07
644.771	15552.63
645.124	15426.3
645.477	15404.61
645.83	15268.57
646.182	15142.02
646.535	15139.98
646.888	15143.6
647.24	15081.23
647.593	15207.1
647.945	15136.37
648.298	15036.48
648.65	15084.39
649.002	15060.44
649.355	15082.13
649.707	15025.41
650.059	15200.77
650.411	15429.24
650.763	15345.18
651.115	15441.44
651.467	15464.95
651.819	15483.03
652.171	15405.96
652.523	15352.41
652.875	15380.88
653.227	15230.15
653.578	15522.57
653.93	15382.69
654.282	15323.26
654.633	15292.97
654.985	15400.09
655.337	15440.31
655.688	15459.52
656.039	15532.74
656.391	15360.32
656.742	15437.38
657.094	15462.69
657.445	15544.27
657.796	15461.56
658.147	15362.8
658.498	15406.87
658.849	15527.09
659.2	15376.36
659.551	15376.36
659.902	15399.64
660.253	15398.51
660.604	15348.79
660.955	15330.71
661.306	15450.26
661.656	15385.85
662.007	15422.01
662.358	15499.3
662.708	15465.62
663.059	15475.34
663.409	15317.38
663.76	15505.85
664.11	15512.85
664.461	15459.52
664.811	15472.18
665.161	15502.91
665.511	15428.56
665.862	15442.8
666.212	15531.84
666.562	15593.3
666.912	15442.35
667.262	15458.84
667.612	15470.82
667.962	15488
668.312	15398.96
668.662	15451.61
669.011	15463.36
669.361	15417.04
669.711	15390.82
670.06	15495
670.41	15381.11
670.76	15343.82
671.109	15443.03
671.459	15417.94
671.808	15360.99
672.157	15330.94
672.507	15248.68
672.856	15309.47
673.205	15321
673.554	15299.98
673.904	15229.47
674.253	15305.63
674.602	15302.69
674.951	15124.39
675.3	15021.12
675.649	15200.55
675.998	15223.82
676.346	15142.92
676.695	15270.83
677.044	15177.95
677.393	15198.06
677.741	15189.25
678.09	15142.47
678.438	15073.09
678.787	15132.75
679.135	15048.46
679.484	15003.49
679.832	15003.04
680.181	14940.89
680.529	14933.44
680.877	14860.22
681.225	14946.77
681.573	14967.33
681.922	14939.31
682.27	14824.96
682.618	14917.39
682.966	14766.89
683.314	14834.91
683.661	14779.77
684.009	14651.18
684.357	14695.93
684.705	14660.67
685.053	14673.1
685.4	14657.06
685.748	14552.2
686.095	14539.1
686.443	14505.42
686.79	14375.26
687.138	14467.91
687.485	14548.36
687.832	14401.47
688.18	14457.97
688.527	14346.33
688.874	14210.29
689.221	14283.96
689.568	14189.95
689.915	14177.52
690.262	14205.54
690.609	14126.9
690.956	14071.08
691.303	14003.97
691.65	14002.84
691.997	13897.3
692.344	13876.51
692.69	13833.58
693.037	13768.27
693.383	13757.42
693.73	13857.53
694.077	13678.55
694.423	13674.03
694.769	13644.2
695.116	13613.24
695.462	13537.31
695.808	13596.07
696.155	13559.91
696.501	13440.59
696.847	13369.18
697.193	13322.63
697.539	13312.46
697.885	13268.17
698.231	13228.85
698.577	13098.68
698.923	13085.35
699.269	13093.71
699.614	13015.52
699.96	12942.98
700.306	12937.33
700.651	12904.34
700.997	12810.33
701.342	12779.82
701.688	12728.97
702.033	12733.04
702.379	12672.7
702.724	12594.74
703.069	12634.96
703.415	12411.24
703.76	12486.49
704.105	12471.13
704.45	12428.64
704.795	12357.23
705.14	12313.16
705.485	12271.13
705.83	12206.05
706.175	12223
706.52	12150.91
706.865	12100.97
707.209	12036.79
707.554	12019.61
707.899	12088.31
708.243	11972.16
708.588	11957.47
708.932	11851.71
709.277	11924.7
709.621	11849.22
709.966	11843.35
710.31	11843.35
710.654	11702.79
710.998	11773.97
711.342	11761.32
711.687	11602.22
712.031	11662.33
712.375	11586.18
712.719	11617.14
713.063	11510.02
713.407	11678.61
713.75	11623.92
714.094	11559.06
714.438	11508.21
714.782	11471.38
715.125	11486.07
715.469	11426.18
715.812	11366.52
716.156	11265.06
716.499	11292.63
716.843	11299.63
717.186	11267.32
717.53	11313.87
717.873	11313.64
718.216	11280.65
718.559	11156.59
718.902	11193.19
719.246	11249.69
719.589	11180.31
719.932	11124.95
720.275	11085.85
720.617	11129.24
720.96	11062.12
721.303	11062.35
721.646	11132.63
721.989	11056.47
722.331	11057.15
722.674	11016.48
723.016	11041.33
723.359	10978.28
723.701	11086.76
724.044	11011.5
724.386	10941.68
724.729	11018.96
725.071	10962.92
725.413	10972.41
725.755	11009.7
726.097	10874.33
726.439	10807.22
726.782	10872.75
727.124	10954.56
727.465	10879.3
727.807	10822.58
728.149	10843.15
728.491	10912.75
728.833	10834.56
729.175	10805.41
729.516	10799.08
729.858	10836.14
730.199	10851.28
730.541	10778.74
730.882	10808.57
731.224	10881.79
731.565	10744.17
731.906	10769.48
732.248	10778.06
732.589	10734.9
732.93	10643.83
733.271	10713.66
733.612	10759.53
733.953	10727.67
734.294	10698.97
734.635	10663.04
734.976	10751.17
735.317	10644.73
735.658	10686.54
735.999	10737.39
736.339	10659.88
736.68	10727.67
737.021	10728.57
737.361	10597.96
737.702	10785.07
738.042	10727.44
738.383	10712.08
738.723	10779.19
739.063	10734.45
739.404	10770.61
739.744	10741.23
740.084	10725.86
740.424	10739.2
740.764	10783.71
741.104	10815.35
741.444	10776.93
741.784	10790.04
742.124	10810.38
742.464	10882.02
742.804	10857.16
743.143	10886.54
743.483	10834.33
743.823	10839.31
744.162	10944.39
744.502	10942.35
744.841	10909.13
745.181	10990.49
745.52	11006.08
745.86	11118.62
746.199	11071.84
746.538	11134.44
746.877	11290.82
747.216	11239.07
747.556	11323.59
747.895	11367.65
748.234	11352.51
748.573	11342.12
748.911	11402
749.25	11545.05
749.589	11590.25
749.928	11643.8
750.267	11873.85
750.605	11893.29
750.944	11863.91
751.283	11964.7
751.621	12103.68
751.96	12137.58
752.298	12223.68
752.636	12397
752.975	12425.03
753.313	12446.04
753.651	12669.54
753.989	12622.54
754.327	12837.22
754.666	12907.27
755.004	13080.15
755.342	13240.82
755.679	13415.73
756.017	13473.13
756.355	13647.14
756.693	13787.25
757.031	13890.75
757.368	14021.82
757.706	14104.3
758.044	14309.95
758.381	14443.96
758.719	14567.34
759.056	14781.8
759.394	14908.35
759.731	15025.18
760.068	15253.88
760.405	15319.87
760.743	15506.53
761.08	15711.27
761.417	15865.84
761.754	15918.04
762.091	16208.43
762.428	16294.08
762.765	16472.83
763.102	16672.15
763.438	16836.89
763.775	16943.33
764.112	17153.94
764.449	17354.16
764.785	17439.58
765.122	17617.43
765.458	17677.54
765.795	17947.59
766.131	18142.16
766.467	18138.32
766.804	18261.48
767.14	18428.03
767.476	18595.03
767.812	18674.13
768.148	18781.92
768.485	18890.39
768.821	18938.75
769.157	19122.03
769.492	19249.25
769.828	19385.07
770.164	19330.83
770.5	19456.71
770.836	19689.02
771.171	19786.64
771.507	19855.34
771.842	19745.74
772.178	19900.54
772.513	20006.07
772.849	20066.63
773.184	20110.25
773.519	20233.18
773.855	20279.06
774.19	20332.84
774.525	20348.21
774.86	20561.08
775.195	20568.09
775.53	20518.37
775.865	20588.2
776.2	20488.32
776.535	20447.19
776.87	20542.78
777.205	20570.12
777.539	20600.18
777.874	20732.15
778.209	20538.03
778.543	20742.32
778.878	20662.55
779.212	20700.74
779.547	20602.89
779.881	20724.7
780.215	20692.83
780.55	20825.26
780.884	20576
781.218	20636.34
781.552	20792.04
781.886	20761.76
782.22	20663.91
782.554	20708.88
782.888	20633.4
783.222	20557.24
783.556	20485.15
783.889	20541.2
784.223	20511.82
784.557	20427.98
784.89	20553.4
785.224	20478.15
785.557	20314.54
785.891	20340.98
786.224	20338.94
786.558	20379.62
786.891	20259.62
787.224	20268.21
787.557	20212.62
787.891	20225.95
788.224	20247.65
788.557	20223.69
788.89	20137.59
789.223	20248.55
789.556	20009.01
789.888	20055.56
790.221	20023.02
790.554	19873.87
790.887	19908.67
791.219	19805.17
791.552	19833.87
791.884	19652.18
792.217	19697.15
792.549	19578.06
792.882	19628
793.214	19571.51
793.546	19620.32
793.879	19564.27
794.211	19468.91
794.543	19499.87
794.875	19410.38
795.207	19516.14
795.539	19291.06
795.871	19316.82
796.203	19206.99
796.535	19154.79
796.867	19130.39
797.198	19148.69
797.53	19010.16
797.862	19010.62
798.193	19050.39
798.525	18803.62
798.856	18975.14
799.188	18781.7
799.519	18724.07
799.85	18637.74
800.182	18716.61
800.513	18647.69
800.844	18582.83
801.175	18623.28
801.506	18590.74
801.837	18519.1
802.168	18559.33
802.499	18387.58
802.83	18304.19
803.161	18292.89
803.491	18284.31
803.822	18323.85
804.153	18142.62
804.483	18084.09
804.814	18078.21
805.145	18075.05
805.475	17997.54
805.805	17920.48
806.136	17939.23
806.466	17925.67
806.796	17859.46
807.126	17757.99
807.457	17702.18
807.787	17816.52
808.117	17725.9
808.447	17574.95
808.777	17654.27
809.107	17548.06
809.436	17456.08
809.766	17418.12
810.096	17426.25
810.426	17393.71
810.755	17362.98
811.085	17448.85
811.414	17194.84
811.744	17199.14
812.073	17194.84
812.403	17124.79
812.732	17122.08
813.061	17034.62
813.39	17038.92
813.719	16973.16
814.049	17063.1
814.378	16944.23
814.707	16916.43
815.036	16881.41
815.365	16846.15
815.693	16691.81
816.022	16687.06
816.351	16642.09
816.68	16624.24
817.008	16641.19
817.337	16440.97
817.665	16442.1
817.994	16538.36
818.322	16500.4
818.651	16405.03
818.979	16361.87
819.307	16445.26
819.636	16441.64
819.964	16208.2
820.292	16380.4
820.62	16402.77
820.948	16247.52
821.276	16314.19
821.604	16304.02
821.932	16262.44
822.259	16317.35
822.587	16269.9
822.915	16265.38
823.243	16280.29
823.57	16186.96
823.898	16231.25
824.225	16162.1
824.553	16158.71
824.88	16249.11
825.207	16254.3
825.535	16162.1
825.862	16314.19
826.189	16238.03
826.516	16289.78
826.843	16327.3
827.17	16345.83
827.497	16308.09
827.824	16327.75
828.151	16372.04
828.478	16279.61
828.805	16306.73
829.131	16295.21
829.458	16214.31
829.785	16115.55
830.111	16294.98
830.438	16253.63
830.764	16211.37
831.09	16264.7
831.417	16141.76
831.743	16324.81
832.069	16246.17
832.395	16175.44
832.722	16227.64
833.048	16132.5
833.374	16168.2
833.7	16128.21
834.026	16040.3
834.351	16117.36
834.677	16096.12
835.003	16068.32
835.329	16068.32
835.654	15991.49
835.98	16012.05
836.306	16035.33
836.631	15967.76
836.956	15977.93
837.282	15970.47
837.607	15957.14
837.932	15912.84
838.258	15880.3
838.583	15845.73
838.908	15803.02
839.233	15826.97
839.558	15764.83
839.883	15802.11
840.208	15717.82
840.533	15695.9
840.858	15707.2
841.182	15697.71
841.507	15632.85
841.832	15551.27
842.156	15513.76
842.481	15535.23
842.805	15526.19
843.13	15495.91
843.454	15433.76
843.778	15392.41
844.103	15388.79
844.427	15266.31
844.751	15296.59
845.075	15174.78
845.399	15199.87
845.723	15213.43
846.047	15170.26
846.371	15041
846.695	14978.63
847.019	14916.71
847.343	14892.98
847.666	14881.23
847.99	14693.44
848.313	14778.64
848.637	14603.27
848.96	14594.91
849.284	14602.14
849.607	14498.19
849.931	14467.23
850.254	14316.73
850.577	14309.95
850.9	14184.98
851.223	14228.37
851.546	14060.92
851.869	14047.58
852.192	14054.14
852.515	13888.04
852.838	13860.02
853.161	13928.72
853.483	13751.32
853.806	13762.62
854.129	13594.26
854.451	13609.4
854.774	13569.63
855.096	13536.41
855.419	13479.46
855.741	13559.01
856.063	13463.64
856.385	13395.62
856.708	13342.74
857.03	13293.03
857.352	13303.87
857.674	13241.05
857.996	13212.58
858.318	13171.9
858.64	13115.18
858.961	13160.37
859.283	13105.91
859.605	13001.06
859.926	13049.64
860.248	12991.11
860.57	12893.04
860.891	12971.23
861.212	12870.21
861.534	12796.99
861.855	12799.25
862.176	12759.03
862.498	12789.54
862.819	12793.6
863.14	12708.86
863.461	12682.42
863.782	12617.79
864.103	12739.37
864.424	12612.14
864.745	12592.71
865.065	12606.72
865.386	12496.89
865.707	12484.46
866.027	12565.81
866.348	12506.83
866.668	12432.48
866.989	12392.48
867.309	12406.04
867.63	12365.37
867.95	12378.7
868.27	12262.54
868.59	12291.47
868.91	12262.54
869.23	12328.76
869.55	12235.88
869.87	12234.97
870.19	12234.75
870.51	12168.31
870.83	12211.25
871.15	12061.42
871.469	12150.01
871.789	12168.54
872.109	12115.2
872.428	12035.43
872.748	12061.42
873.067	12069.56
873.386	12007.86
873.706	12007.86
874.025	11964.25
874.344	11986.62
874.663	11892.84
874.982	11895.55
875.301	11912.72
875.62	11873.4
875.939	11849.67
876.258	11867.98
876.577	11774.65
876.896	11804.03
877.214	11768.77
877.533	11692.62
877.852	11687.64
878.17	11775.78
878.489	11711.6
878.807	11745.5
879.125	11671.15
879.444	11661.88
879.762	11633.18
880.08	11581.21
880.398	11578.04
880.716	11632.5
881.034	11524.26
881.352	11521.55
881.67	11544.82
881.988	11474.99
882.306	11438.16
882.624	11351.61
882.941	11326.98
883.259	11301.89
883.577	11306.19
883.894	11292.4
884.212	11312.51
884.529	11237.94
884.846	11220.76
885.164	11196.36
885.481	11125.63
885.798	11186.64
886.115	11054.44
886.432	11048.34
886.75	11025.52
887.067	11039.3
887.383	11039.53
887.7	10997.04
888.017	10938.06
888.334	11020.32
888.651	10989.13
888.967	10842.24
889.284	10850.6
889.6	10846.08
889.917	10766.54
890.233	10754.34
890.55	10749.82
890.866	10765.64
891.182	10680.67
891.498	10610.84
891.815	10625.07
892.131	10546.66
892.447	10537.39
892.763	10449.26
893.079	10407.9
893.395	10475.25
893.71	10404.06
894.026	10382.37
894.342	10417.17
894.657	10291.3
894.973	10336.04
895.289	10289.26
895.604	10258.08
895.92	10180.11
896.235	10134.24
896.55	10154.13
896.865	10069.61
897.181	10035.48
897.496	10069.83
897.811	10006.11
898.126	9999.78
898.441	9956.62
898.756	9830.29
899.071	9828.71
899.386	9822.83
899.7	9802.72
900.015	9637.3
900.33	9666.91
900.644	9626
900.959	9668.26
901.273	9571.09
901.588	9620.35
901.902	9491.09
902.216	9484.09
902.531	9452.68
902.845	9383.3
903.159	9292.45
903.473	9342.62
903.787	9278.67
904.101	9180.59
904.415	9177.88
904.729	9169.74
905.042	9128.84
905.356	9081.16
905.67	9072.8
905.984	9048.62
906.297	8991.9
906.611	9000.94
906.924	8971.78
907.237	8861.73
907.551	8867.15
907.864	8832.13
908.177	8830.54
908.491	8753.48
908.804	8718.91
909.117	8609.76
909.43	8647.5
909.743	8590.32
910.056	8580.61
910.368	8524.34
910.681	8483.21
910.994	8448.41
911.307	8514.39
911.619	8384.45
911.932	8453.83
912.244	8381.29
912.557	8340.39
912.869	8338.13
913.181	8221.97
913.494	8194.63
913.806	8113.73
914.118	8154.86
914.43	8128.19
914.742	8066.72
915.054	8010.23
915.366	8042.99
915.678	7948.99
915.99	7934.97
916.302	7893.85
916.613	7905.6
916.925	7835.99
917.236	7799.84
917.548	7763.91
917.859	7778.59
918.171	7697.92
918.482	7673.29
918.794	7652.72
919.105	7687.75
919.416	7567.08
919.727	7512.16
920.038	7566.17
920.349	7438.26
920.66	7425.61
920.971	7490.24
921.282	7424.48
921.593	7365.27
921.903	7315.56
922.214	7304.94
922.525	7276.91
922.835	7210.47
923.146	7199.85
923.456	7165.5
923.767	7145.17
924.077	7152.4
924.387	7146.75
924.697	7117.14
925.008	7008.9
925.318	7060.42
925.628	6941.1
925.938	6965.51
926.248	6916.02
926.558	6906.53
926.867	6891.16
927.177	6816.59
927.487	6763.48
927.796	6717.15
928.106	6750.37
928.416	6724.61
928.725	6718.74
929.034	6671.73
929.344	6640.09
929.653	6641.45
929.962	6597.16
930.271	6552.86
930.581	6497.27
930.89	6496.59
931.199	6477.39
931.508	6446.88
931.817	6404.62
932.125	6451.4
932.434	6397.84
932.743	6347.9
933.051	6328.69
933.36	6308.35
933.669	6285.3
933.977	6234.45
934.286	6227.45
934.594	6209.6
934.902	6191.29
935.21	6132.76
935.519	6123.05
935.827	6102.93
936.135	6028.81
936.443	6001.24
936.751	6022.48
937.059	5963.28
937.367	5969.6
937.674	5971.18
937.982	5953.33
938.29	5860.45
938.597	5887.12
938.905	5799.44
939.213	5808.48
939.52	5784.52
939.827	5741.59
940.135	5737.29
940.442	5754.24
940.749	5737.97
941.056	5697.52
941.363	5622.27
941.67	5619.1
941.977	5602.38
942.284	5599.22
942.591	5596.05
942.898	5528.03
943.205	5520.12
943.511	5431.31
943.818	5434.48
944.125	5407.81
944.431	5436.51
944.738	5399.67
945.044	5354.25
945.35	5331.43
945.657	5263.41
945.963	5284.42
946.269	5267.25
946.575	5234.71
946.881	5230.87
947.187	5236.06
947.493	5187.25
947.799	5154.26
948.105	5115.39
948.41	5112.68
948.716	5101.15
949.022	5057.08
949.327	5077.87
949.633	4985.9
949.938	5012.79
950.244	5003.98
950.549	4979.8
950.854	4913.59
951.16	4866.58
951.465	4886.69
951.77	4862.06
952.075	4811.89
952.38	4788.84
952.685	4857.99
952.99	4766.92
953.294	4787.94
953.599	4736.42
953.904	4744.78
954.209	4667.04
954.513	4647.38
954.818	4657.1
955.122	4695.51
955.426	4607.6
955.731	4584.33
956.035	4591.11
956.339	4558.11
956.643	4579.81
956.948	4516.31
957.252	4484.67
957.556	4496.87
957.86	4466.82
958.163	4417.55
958.467	4440.6
958.771	4435.18
959.075	4431.79
959.378	4319.02
959.682	4388.4
959.985	4347.95
960.289	4322.64
960.592	4332.13
960.896	4290.33
961.199	4269.76
961.502	4239.48
961.805	4223.21
962.108	4169.88
962.411	4231.34
962.714	4131.46
963.017	4165.58
963.32	4159.03
963.623	4125.81
963.926	4090.1
964.228	4078.35
964.531	4099.14
964.833	4062.99
965.136	4000.62
965.438	4018.92
965.741	3957.68
966.043	3970.11
966.345	3933.72
966.648	3934.63
966.95	3952.03
967.252	3914.29
967.554	3867.74
967.856	3853.95
968.158	3836.33
968.46	3820.28
968.761	3796.1
969.063	3759.49
969.365	3786.61
969.666	3764.24
969.968	3717.01
970.269	3748.87
970.571	3715.65
970.872	3702.32
971.174	3674.97
971.475	3650.57
971.776	3679.04
972.077	3619.61
972.378	3607.18
972.679	3588.87
972.98	3584.81
973.281	3577.8
973.582	3538.48
973.883	3512.27
974.183	3466.62
974.484	3494.64
974.785	3484.02
975.085	3486.96
975.386	3467.97
975.686	3459.84
975.986	3388.2
976.287	3408.09
976.587	3407.41
976.887	3386.85
977.187	3387.75
977.487	3361.08
977.787	3306.85
978.087	3299.84
978.387	3317.24
978.687	3318.15
978.987	3272.27
979.286	3270.69
979.586	3230.24
979.885	3246.96
980.185	3245.83
980.484	3220.52
980.784	3194.99
981.083	3181.88
981.382	3142.78
981.682	3183.69
981.981	3132.16
982.28	3167.64
982.579	3075.44
982.878	3089
983.177	3066.18
983.475	3052.17
983.774	3046.74
984.073	3019.85
984.372	3011.94
984.67	3020.75
984.969	3001.09
985.267	2990.25
985.566	2983.01
985.864	2982.11
986.162	2968.78
986.461	2939.63
986.759	2914.32
987.057	2923.58
987.355	2900.31
987.653	2882.9
987.951	2842
988.249	2866.41
988.547	2875.9
988.844	2827.54
989.142	2833.64
989.44	2764.04
989.737	2787.99
990.035	2753.64
990.332	2787.09
990.63	2690.37
990.927	2706.41
991.224	2764.49
991.521	2755.9
991.819	2693.3
992.116	2687.2
992.413	2671.61
992.71	2662.8
993.006	2667.54
993.303	2678.84
993.6	2623.25
993.897	2613.31
994.193	2586.87
994.49	2558.85
994.787	2568.11
995.083	2547.55
995.379	2551.84
995.676	2557.04
995.972	2519.98
996.268	2503.71
996.565	2484.5
996.861	2451.05
997.157	2474.1
997.453	2465.74
997.749	2437.04
998.044	2417.15
998.34	2433.42
998.636	2436.14
998.932	2402.01
999.227	2348.68
999.523	2382.58
999.818	2316.37
1000.114	2336.03
1000.409	2290.6
1000.704	2284.5
1001	2284.5
1001.295	2279.76
1001.59	2307.33
1001.885	2267.33
1002.18	2222.58
1002.475	2225.52
1002.77	2232.53
1003.065	2231.17
1003.359	2187.78
1003.654	2190.49
1003.949	2185.52
1004.243	2141.91
1004.538	2137.84
1004.832	2133.55
1005.127	2148.23
1005.421	2108.24
1005.715	2108.69
1006.009	2112.3
1006.304	2079.76
1006.598	2059.65
1006.892	2080.21
1007.186	2042.7
1007.48	2032.98
1007.773	2058.75
1008.067	2008.35
1008.361	1987.79
1008.655	1964.51
1008.948	1972.87
1009.242	1993.21
1009.535	1953.44
1009.829	1946.43
1010.122	1901.01
1010.415	1953.89
1010.708	1905.3
1011.001	1903.04
1011.295	1888.81
1011.588	1895.13
1011.881	1849.26
1012.173	1869.82
1012.466	1856.49
1012.759	1864.4
1013.052	1844.29
1013.344	1802.03
1013.637	1808.81
1013.93	1773.1
1014.222	1749.83
1014.514	1747.79
1014.807	1743.73
1015.099	1753.44
1015.391	1712.77
1015.683	1727.45
1015.976	1712.77
1016.268	1715.03
1016.56	1710.73
1016.851	1697.17
1017.143	1696.72
1017.435	1656.72
1017.727	1664.63
1018.018	1644.97
1018.31	1654.69
1018.602	1604.07
1018.893	1618.3
1019.185	1602.03
1019.476	1608.81
1019.767	1607.46
1020.058	1570.17
1020.35	1574.46
1020.641	1548.7
1020.932	1534.01
1021.223	1563.84
1021.514	1517.29
1021.804	1489.49
1022.095	1477.52
1022.386	1482.94
1022.677	1476.61
1022.967	1442.72
1023.258	1482.72
1023.548	1433.9
1023.839	1405.43
1024.129	1429.61
1024.419	1429.84
1024.709	1406.33
1025	1402.49
1025.29	1360.91
1025.58	1367.46
1025.87	1352.1
1026.16	1347.35
1026.449	1364.3
1026.739	1346
1027.029	1355.94
1027.319	1333.79
1027.608	1324.08
1027.898	1324.53
1028.187	1297.41
1028.477	1276.84
1028.766	1277.3
1029.055	1276.17
1029.344	1284.53
1029.634	1251.76
1029.923	1275.72
1030.212	1240.01
1030.501	1237.75
1030.79	1189.16
1031.078	1202.27
1031.367	1226.22
1031.656	1195.72
1031.945	1217.19
1032.233	1157.3
1032.522	1174.7
1032.81	1156.17
1033.099	1173.12
1033.387	1167.47
1033.675	1141.48
1033.963	1146
1034.251	1140.13
1034.54	1116.17
1034.828	1117.08
1035.116	1097.19
1035.403	1120.46
1035.691	1088.83
1035.979	1106.23
1036.267	1102.39
1036.554	1080.47
1036.842	1061.71
1037.129	1036.63
1037.417	1066.46
1037.704	1030.3
1037.992	1028.04
1038.279	1051.77
1038.566	1002.28
1038.853	1002.28
1039.14	1002.28
