Data from hue_180_FLMS001491_00085.txt Node
Date: Tue Feb 07 16:47:36 GMT 2017
User: dcchb
Spectrometer: FLMS00149
Trigger mode: 0
Integration Time (sec): 2.000000E-2
Scans to average: 10
Electric dark correction enabled: true
Nonlinearity correction enabled: false
Boxcar width: 0
XAxis mode: Wavelengths
Number of Pixels in Spectrum: 2048
>>>>>Begin Spectral Data<<<<<
341.393	-4.86
341.776	-4.86
342.16	-4.86
342.543	-58.42
342.927	-69.94
343.31	-83.5
343.693	-62.48
344.077	-69.49
344.46	-43.28
344.843	-54.8
345.226	-28.81
345.61	-27
345.993	-19.32
346.376	-5.76
346.759	7.8
347.142	37.63
347.525	47.12
347.908	36.5
348.291	62.71
348.674	90.73
349.057	111.97
349.44	137.06
349.823	137.06
350.206	178.19
350.588	184.06
350.971	204.63
351.354	215.7
351.737	236.72
352.119	244.63
352.502	259.54
352.884	246.43
353.267	280.78
353.65	299.77
354.032	307.9
354.414	294.57
354.797	323.72
355.179	324.62
355.562	322.36
355.944	329.14
356.326	328.01
356.709	316.71
357.091	349.26
357.473	335.92
357.855	342.48
358.238	321.23
358.62	351.52
359.002	337.73
359.384	353.32
359.766	346.77
360.148	319.88
360.53	324.4
360.912	317.39
361.294	326.21
361.676	339.09
362.057	326.43
362.439	335.92
362.821	330.73
363.203	336.38
363.584	321.91
363.966	310.84
364.348	328.69
364.729	316.71
365.111	319.88
365.493	299.99
365.874	319.88
366.256	313.33
366.637	317.39
367.019	314.46
367.4	304.51
367.781	316.49
368.163	318.07
368.544	304.96
368.925	288.92
369.306	309.71
369.688	309.26
370.069	322.14
370.45	311.97
370.831	295.47
371.212	310.84
371.593	334.57
371.974	314.23
372.355	301.57
372.736	314.23
373.117	317.62
373.498	320.56
373.879	314.46
374.26	301.12
374.641	299.54
375.021	317.17
375.402	322.36
375.783	327.56
376.163	324.62
376.544	323.72
376.925	324.62
377.305	314.23
377.686	339.77
378.066	337.96
378.447	354.23
378.827	338.18
379.208	333.44
379.588	325.98
379.968	328.69
380.349	348.8
380.729	329.82
381.109	321.01
381.489	317.17
381.87	346.32
382.25	333.44
382.63	329.82
383.01	330.27
383.39	339.99
383.77	341.8
384.15	354
384.53	334.34
384.91	325.53
385.29	337.05
385.67	349.93
386.049	344.74
386.429	316.26
386.809	350.61
387.189	360.56
387.568	367.56
387.948	361.01
388.328	346.77
388.707	354.45
389.087	370.95
389.466	339.54
389.846	351.74
390.225	368.24
390.605	347
390.984	360.78
391.363	367.33
391.743	369.14
392.122	369.59
392.501	386.77
392.881	339.31
393.26	380.67
393.639	378.18
394.018	382.25
394.397	356.49
394.776	387.45
395.155	397.62
395.534	358.07
395.913	361.91
396.292	366.21
396.671	394.9
397.05	384.74
397.429	375.7
397.808	405.98
398.186	379.76
398.565	378.86
398.944	403.04
399.323	404.17
399.701	395.13
400.08	404.17
400.458	401.23
400.837	400.1
401.215	411.85
401.594	419.31
401.972	416.37
402.351	414.57
402.729	416.6
403.107	436.03
403.486	422.7
403.864	420.67
404.242	438.75
404.62	419.31
404.999	444.62
405.377	455.47
405.755	450.27
406.133	469.48
406.511	419.09
406.889	457.05
407.267	459.99
407.645	450.72
408.023	466.99
408.401	470.38
408.779	469.03
409.156	490.04
409.534	475.58
409.912	497.73
410.29	500.89
410.667	514.45
411.045	505.41
411.422	505.64
411.8	505.41
412.178	518.07
412.555	561
412.933	546.31
413.31	547.9
413.687	561.91
414.065	567.1
414.442	565.07
414.819	574.79
415.197	577.72
415.574	594
415.951	602.58
416.328	618.85
416.705	612.53
417.082	594.22
417.46	626.09
417.837	609.59
418.214	624.5
418.591	627.89
418.967	647.33
419.344	675.8
419.721	670.15
420.098	671.28
420.475	669.02
420.852	692.3
421.228	709.47
421.605	720.55
421.982	727.33
422.358	736.82
422.735	716.93
423.111	771.84
423.488	750.6
423.864	778.85
424.241	786.31
424.617	796.93
424.994	819.53
425.37	806.19
425.746	815.91
426.123	854.55
426.499	851.16
426.875	857.94
427.251	868.11
427.627	897.94
428.003	895.68
428.379	909.92
428.756	908.11
429.132	917.15
429.507	938.62
429.883	936.13
430.259	939.98
430.635	961.67
431.011	986.3
431.387	989.24
431.763	1014.55
432.138	1020.2
432.514	1030.59
432.89	1011.39
433.265	1049.12
433.641	1040.99
434.016	1087.09
434.392	1102.23
434.767	1149.24
435.143	1138.16
435.518	1133.64
435.894	1151.04
436.269	1187.2
436.644	1201.21
437.02	1212.06
437.395	1221.1
437.77	1245.5
438.145	1262
438.52	1280.76
438.895	1309.46
439.271	1309.01
439.646	1357.82
440.021	1356.91
440.395	1361.43
440.77	1391.49
441.145	1407.53
441.52	1419.74
441.895	1421.54
442.27	1466.97
442.645	1467.42
443.019	1482.79
443.394	1469.9
443.769	1507.64
444.143	1488.44
444.518	1523.91
444.892	1540.64
445.267	1572.95
445.641	1561.65
446.016	1565.72
446.39	1584.48
446.764	1586.96
447.139	1610.24
447.513	1627.64
447.887	1618.83
448.262	1633.52
448.636	1660.18
449.01	1678.94
449.384	1702.22
449.758	1690.01
450.132	1727.75
450.506	1755.77
450.88	1757.58
451.254	1775.21
451.628	1758.03
452.002	1807.52
452.376	1802.33
452.75	1805.04
453.123	1854.98
453.497	1881.65
453.871	1866.96
454.244	1941.98
454.618	1936.11
454.992	1982.89
455.365	1942.43
455.739	2051.81
456.112	2034.64
456.486	2051.81
456.859	2119.38
457.232	2118.48
457.606	2105.82
457.979	2154.18
458.352	2190.34
458.725	2214.07
459.099	2218.59
459.472	2273.5
459.845	2301.52
460.218	2308.07
460.591	2275.76
460.964	2335.42
461.337	2372.48
461.71	2433.27
462.083	2458.35
462.456	2477.11
462.829	2503.78
463.201	2542.19
463.574	2551.01
463.947	2616.99
464.32	2639.37
464.692	2663.55
465.065	2683.21
465.438	2741.06
465.81	2784.9
466.183	2815.41
466.555	2858.34
466.928	2906.03
467.3	2943.54
467.672	3006.59
468.045	3042.52
468.417	3063.54
468.789	3113.7
469.161	3109.18
469.534	3182.63
469.906	3235.06
470.278	3266.47
470.65	3292.46
471.022	3416.97
471.394	3504.43
471.766	3483.19
472.138	3532.9
472.51	3642.96
472.882	3648.38
473.253	3710.98
473.625	3791.65
473.997	3867.36
474.369	3917.52
474.74	3957.75
475.112	4059.22
475.484	4107.8
475.855	4197.52
476.227	4240.91
476.598	4364.97
476.97	4456.94
477.341	4547.11
477.713	4596.83
478.084	4646.54
478.455	4773.32
478.827	4801.34
479.198	4963.37
479.569	4924.5
479.94	5116.36
480.311	5190.26
480.682	5339.41
481.053	5481.78
481.424	5539.4
481.795	5627.54
482.166	5720.41
482.537	5774.88
482.908	5935.1
483.279	6035.43
483.65	6163.57
484.021	6267.74
484.391	6321.3
484.762	6426.61
485.133	6484.01
485.503	6557
485.874	6700.05
486.244	6799.71
486.615	6938.01
486.985	7049.19
487.356	7158.34
487.726	7239.92
488.097	7369.41
488.467	7470.2
488.837	7662.74
489.207	7751.1
489.578	7863.64
489.948	7941.83
490.318	8111.09
490.688	8134.14
491.058	8264.98
491.428	8348.82
491.798	8411.64
492.168	8575.25
492.538	8673.11
492.908	8784.06
493.278	8845.76
493.648	8905.87
494.017	9033.55
494.387	9083.49
494.757	9172.75
495.126	9262.02
495.496	9342.92
495.866	9405.06
496.235	9459.98
496.605	9550.6
496.974	9584.72
497.344	9746.52
497.713	9743.81
498.082	9880.76
498.452	9936.8
498.821	9954.43
499.19	10005.27
499.559	10056.35
499.928	10137.25
500.298	10147.87
500.667	10292.05
501.036	10249.79
501.405	10337.24
501.774	10349.22
502.143	10441.42
502.512	10539.04
502.88	10547.41
503.249	10501.76
503.618	10629.44
503.987	10678.7
504.356	10699.49
504.724	10673.05
505.093	10786.5
505.462	10840.05
505.83	10872.37
506.199	10980.62
506.567	11030.78
506.936	11003.21
507.304	11056.77
507.672	11116.88
508.041	11128.63
508.409	11228.97
508.777	11236.65
509.145	11237.33
509.514	11309.65
509.882	11302.19
510.25	11310.1
510.618	11429.19
510.986	11390.32
511.354	11523.2
511.722	11517.55
512.09	11532.69
512.458	11469.87
512.826	11552.58
513.193	11618.11
513.561	11652.24
513.929	11660.82
514.297	11731.1
514.664	11750.76
515.032	11724.32
515.4	11842.74
515.767	11795.74
516.135	11909.18
516.502	11763.87
516.869	11869.63
517.237	11904.21
517.604	11847.71
517.972	11993.92
518.339	11982.17
518.706	11866.69
519.073	11994.83
519.44	11938.1
519.808	12004.09
520.175	12022.4
520.542	12110.53
520.909	12091.77
521.276	12051.77
521.643	12123.86
522.009	12231.88
522.376	12142.17
522.743	12176.06
523.11	12250.41
523.477	12299
523.843	12286.57
524.21	12303.07
524.577	12356.62
524.943	12339.9
525.31	12364.53
525.676	12402.72
526.043	12402.05
526.409	12438.88
526.776	12500.12
527.142	12404.31
527.508	12494.02
527.874	12464.87
528.241	12517.75
528.607	12427.13
528.973	12462.61
529.339	12505.55
529.705	12433.46
530.071	12514.59
530.437	12403.4
530.803	12456.06
531.169	12453.12
531.535	12355.49
531.901	12330.41
532.267	12338.09
532.632	12322.27
532.998	12310.3
533.364	12336.96
533.73	12348.71
534.095	12288.38
534.461	12268.04
534.826	12299.22
535.192	12323.4
535.557	12220.81
535.923	12202.28
536.288	12199.11
536.653	12167.93
537.019	12055.84
537.384	12033.69
537.749	11985.33
538.114	11919.8
538.479	11949.63
538.845	11882.74
539.21	11810.42
539.575	11806.36
539.94	11713.7
540.305	11744.21
540.67	11694.49
541.034	11609.07
541.399	11622.63
541.764	11573.37
542.129	11489.75
542.494	11487.04
542.858	11419.7
543.223	11378.57
543.587	11490.66
543.952	11329.31
544.316	11296.09
544.681	11186.71
545.045	11175.86
545.41	11238.24
545.774	11098.13
546.138	11117.11
546.503	11045.25
546.867	10928.64
547.231	10994.17
547.595	10958.92
547.959	10908.3
548.324	10861.97
548.688	10743.11
549.052	10716.44
549.416	10651.13
549.779	10663.79
550.143	10661.53
550.507	10655.65
550.871	10510.12
551.235	10499.27
551.599	10418.82
551.962	10468.54
552.326	10411.82
552.689	10475.09
553.053	10307.41
553.417	10291.82
553.78	10284.14
554.143	10207.3
554.507	10197.81
554.87	10197.81
555.234	10244.36
555.597	10120.52
555.96	10093.86
556.323	10116.68
556.686	10111.71
557.05	10148.32
557.413	10095.89
557.776	10011.38
558.139	10034.88
558.502	9932.06
558.865	9957.37
559.228	9936.12
559.59	9864.26
559.953	9876.46
560.316	9984.71
560.679	9871.27
561.041	9905.62
561.404	9855.9
561.767	9891.15
562.129	9817.03
562.492	9823.13
562.854	9791.95
563.217	9789.23
563.579	9835.79
563.941	9867.88
564.304	9761.89
564.666	9838.72
565.028	9765.51
565.39	9793.3
565.753	9829.91
566.115	9804.6
566.477	9855.45
566.839	9826.97
567.201	9816.13
567.563	9731.83
567.925	9782
568.287	9796.24
568.648	9778.61
569.01	9770.03
569.372	9901.32
569.734	9749.91
570.095	9788.78
570.457	9823.81
570.819	9824.71
571.18	9825.62
571.542	9827.65
571.903	9793.75
572.265	9836.46
572.626	9844.6
572.987	9823.36
573.349	9830.59
573.71	9805.28
574.071	9803.02
574.432	9867.65
574.794	9879.4
575.155	9803.92
575.516	9792.17
575.877	9818.84
576.238	9819.97
576.599	9844.6
576.96	9793.98
577.32	9798.95
577.681	9817.03
578.042	9764.6
578.403	9783.58
578.763	9871.72
579.124	9860.42
579.485	9841.44
579.845	9823.81
580.206	9835.79
580.566	9842.79
580.927	9767.31
581.287	9758.95
581.648	9785.62
582.008	9837.14
582.368	9766.18
582.728	9730.03
583.089	9754.88
583.449	9751.27
583.809	9700.2
584.169	9798.95
584.529	9675.34
584.889	9686.19
585.249	9650.71
585.609	9649.58
585.969	9725.06
586.329	9641.44
586.688	9664.94
587.048	9605.74
587.408	9589.47
587.768	9659.52
588.127	9654.32
588.487	9664.94
588.846	9683.02
589.206	9573.65
589.565	9620.88
589.925	9616.36
590.284	9545.17
590.643	9575.45
591.003	9556.92
591.362	9587.21
591.721	9519.41
592.08	9543.59
592.44	9553.31
592.799	9527.55
593.158	9485.51
593.517	9505.85
593.876	9520.77
594.235	9447.77
594.593	9445.74
594.952	9567.32
595.311	9392.86
595.67	9458.85
596.029	9520.09
596.387	9464.27
596.746	9468.34
597.104	9449.58
597.463	9423.82
597.822	9501.56
598.18	9429.92
598.538	9392.18
598.897	9492.97
599.255	9314.67
599.613	9486.42
599.972	9415.23
600.33	9431.73
600.688	9394.22
601.046	9447.77
601.404	9415.01
601.762	9401
602.12	9387.66
602.478	9495
602.836	9430.37
603.194	9325.29
603.552	9387.89
603.91	9384.05
604.268	9398.28
604.625	9381.56
604.983	9412.29
605.341	9298.63
605.698	9331.17
606.056	9328
606.413	9378.85
606.771	9406.87
607.128	9348.57
607.485	9331.17
607.843	9332.3
608.2	9422.69
608.557	9438.96
608.914	9393.76
609.272	9461.11
609.629	9462.46
609.986	9467.89
610.343	9401.9
610.7	9450.71
611.057	9462.46
611.414	9415.91
611.771	9427.89
612.127	9472.63
612.484	9402.8
612.841	9455.91
613.198	9384.95
613.554	9444.61
613.911	9468.11
614.267	9473.99
614.624	9476.25
614.98	9441.9
615.337	9543.14
615.693	9431.28
616.05	9478.73
616.406	9506.98
616.762	9487.77
617.118	9495
617.475	9476.02
617.831	9542.01
618.187	9476.02
618.543	9553.76
618.899	9523.93
619.255	9514.44
619.611	9537.26
619.967	9558.05
620.323	9621.55
620.678	9529.81
621.034	9528
621.39	9532.74
621.746	9491.39
622.101	9568.22
622.457	9535.68
622.812	9511.28
623.168	9575.91
623.523	9543.14
623.879	9592.4
624.234	9484.61
624.589	9545.62
624.945	9517.15
625.3	9551.73
625.655	9540.65
626.01	9500.88
626.365	9532.97
626.72	9475.12
627.075	9555.57
627.43	9519.18
627.785	9482.58
628.14	9528.45
628.495	9527.32
628.85	9472.18
629.205	9433.31
629.559	9503.59
629.914	9424.95
630.269	9440.54
630.623	9408.68
630.978	9454.33
631.332	9510.6
631.687	9390.37
632.041	9365.29
632.396	9399.87
632.75	9447.77
633.104	9356.03
633.459	9374.78
633.813	9410.04
634.167	9305.86
634.521	9343.14
634.875	9390.6
635.229	9324.39
635.583	9239.42
635.937	9274.9
636.291	9291.62
636.645	9243.71
636.999	9257.95
637.352	9317.61
637.706	9189.25
638.06	9265.41
638.413	9250.49
638.767	9189.48
639.121	9209.81
639.474	9089.37
639.828	9139.31
640.181	9200.32
640.534	9157.39
640.888	9170.72
641.241	9098.86
641.594	9124.17
641.947	9182.24
642.301	9120.78
642.654	9180.89
643.007	9115.81
643.36	9055.92
643.713	9025.41
644.066	9067.67
644.419	9039.65
644.771	9050.04
645.124	8953.78
645.477	8932.08
645.83	8893.21
646.182	8838.07
646.535	8773.89
646.888	8884.85
647.24	8715.14
647.593	8873.55
647.945	8713.1
648.298	8749.49
648.65	8763.5
649.002	8763.95
649.355	8834.91
649.707	8845.76
650.059	8801.46
650.411	8936.15
650.763	8927.34
651.115	9050.04
651.467	8993.32
651.819	8986.32
652.171	8991.97
652.523	9023.83
652.875	8983.38
653.227	8930.95
653.578	9023.6
653.93	9062.93
654.282	8989.71
654.633	8961.01
654.985	8968.01
655.337	8989.03
655.688	9005.53
656.039	8949.93
656.391	9006.66
656.742	8938.86
657.094	8985.64
657.445	9014.11
657.796	9021.8
658.147	8922.36
658.498	8988.58
658.849	9003.72
659.2	8987.22
659.551	8925.3
659.902	9074
660.253	9020.67
660.604	9049.59
660.955	9061.57
661.306	9079.42
661.656	9057.5
662.007	9067.9
662.358	9073.55
662.708	9099.99
663.059	9136.82
663.409	9010.27
663.76	9119.87
664.11	9118.52
664.461	9082.59
664.811	9110.83
665.161	9134.56
665.511	9086.2
665.862	9087.78
666.212	9074.45
666.562	9080.1
666.912	9000.78
667.262	9065.19
667.612	9073.55
667.962	9069.25
668.312	9080.55
668.662	9116.94
669.011	9147.44
669.361	9118.29
669.711	9099.99
670.06	9047.11
670.41	9048.91
670.76	9086.2
671.109	9114.45
671.459	9067.45
671.808	9022.93
672.157	9095.02
672.507	9023.15
672.856	8959.2
673.205	9020.44
673.554	8990.61
673.904	8957.17
674.253	9013.44
674.602	8984.51
674.951	8896.38
675.3	8801.92
675.649	8970.95
675.998	9002.36
676.346	8946.77
676.695	8986.54
677.044	8863.83
677.393	8844.85
677.741	8961.23
678.09	8895.02
678.438	8883.27
678.787	8968.92
679.135	8903.83
679.484	8875.36
679.832	8867.22
680.181	8835.13
680.529	8835.59
680.877	8831.52
681.225	8798.07
681.573	8798.75
681.922	8772.54
682.27	8731.41
682.618	8737.74
682.966	8697.29
683.314	8779.54
683.661	8696.61
684.009	8601.69
684.357	8616.61
684.705	8585.88
685.053	8677.17
685.4	8569.83
685.748	8558.98
686.095	8537.29
686.443	8549.94
686.79	8487.8
687.138	8510.4
687.485	8445.99
687.832	8425.2
688.18	8480.34
688.527	8337.07
688.874	8347.46
689.221	8327.35
689.568	8249.61
689.915	8310.63
690.262	8293.68
690.609	8232.89
690.956	8184.53
691.303	8176.62
691.65	8117.64
691.997	8146.11
692.344	8153.12
692.69	8101.59
693.037	8082.39
693.383	8022.73
693.73	8046.68
694.077	7996.74
694.423	8011.88
694.769	7971.65
695.116	7944.31
695.462	7911.54
695.808	7846.01
696.155	7859.34
696.501	7817.76
696.847	7772.34
697.193	7657.99
697.539	7768.72
697.885	7646.24
698.231	7685.79
698.577	7636.52
698.923	7661.38
699.269	7567.37
699.614	7470.2
699.96	7524.89
700.306	7535.06
700.651	7492.35
700.997	7408.96
701.342	7436.98
701.688	7356.08
702.033	7321.5
702.379	7368.05
702.724	7371.22
703.069	7324.21
703.415	7240.15
703.76	7232.92
704.105	7205.12
704.45	7220.71
704.795	7148.63
705.14	7112.02
705.485	7109.98
705.83	7058.68
706.175	7095.29
706.52	7058.23
706.865	7021.85
707.209	7017.33
707.554	6978.46
707.899	6977.33
708.243	6956.77
708.588	6975.97
708.932	6862.31
709.277	6884.23
709.621	6862.53
709.966	6858.01
710.31	6846.71
710.654	6818.46
710.998	6762.42
711.342	6753.38
711.687	6768.07
712.031	6698.24
712.375	6744.12
712.719	6669.77
713.063	6736.21
713.407	6725.81
713.75	6651.69
714.094	6598.13
714.438	6641.52
714.782	6642.42
715.125	6608.53
715.469	6591.8
715.812	6635.87
716.156	6534.86
716.499	6503.22
716.843	6536.21
717.186	6497.57
717.53	6582.76
717.873	6508.87
718.216	6498.25
718.559	6524.91
718.902	6492.82
719.246	6454.41
719.589	6447.85
719.932	6463.45
720.275	6473.84
720.617	6402.2
720.96	6417.35
721.303	6390.45
721.646	6443.11
721.989	6420.96
722.331	6418.7
722.674	6450.11
723.016	6408.08
723.359	6398.36
723.701	6395.43
724.044	6361.53
724.386	6288.99
724.729	6410.57
725.071	6381.87
725.413	6362.66
725.755	6338.25
726.097	6317.24
726.439	6285.82
726.782	6300.96
727.124	6371.7
727.465	6313.17
727.807	6323.11
728.149	6286.5
728.491	6269.33
728.833	6388.87
729.175	6303
729.516	6321.75
729.858	6314.3
730.199	6289.44
730.541	6287.18
730.882	6311.81
731.224	6283.34
731.565	6309.55
731.906	6362.88
732.248	6298.93
732.589	6300.06
732.93	6257.12
733.271	6262.1
733.612	6291.92
733.953	6258.03
734.294	6274.98
734.635	6286.28
734.976	6326.05
735.317	6272.94
735.658	6323.34
735.999	6332.15
736.339	6298.48
736.68	6301.19
737.021	6346.61
737.361	6393.62
737.702	6400.4
738.042	6350
738.383	6340.96
738.723	6401.53
739.063	6333.73
739.404	6393.17
739.744	6381.19
740.084	6409.44
740.424	6382.77
740.764	6413.28
741.104	6403.11
741.444	6463.22
741.784	6438.14
742.124	6478.36
742.464	6486.95
742.804	6497.8
743.143	6540.96
743.483	6528.98
743.823	6521.3
744.162	6546.83
744.502	6648.07
744.841	6645.59
745.181	6643.78
745.52	6693.95
745.86	6727.85
746.199	6722.87
746.538	6833.83
746.877	6825.02
747.216	6886.26
747.556	6938.46
747.895	6925.13
748.234	7036.31
748.573	6991.57
748.911	7068.85
749.25	7184.56
749.589	7192.92
749.928	7347.49
750.267	7381.61
750.605	7399.47
750.944	7509.97
751.283	7537.09
751.621	7656.41
751.96	7687.82
752.298	7780.25
752.636	7870.41
752.975	8011.43
753.313	8099.79
753.651	8236.73
753.989	8235.6
754.327	8403.51
754.666	8492.77
755.004	8600.34
755.342	8766.66
755.679	8831.07
756.017	8961.91
756.355	9113.55
756.693	9275.8
757.031	9364.16
757.368	9525.06
757.706	9618.39
758.044	9794.66
758.381	9935.44
758.719	10092.95
759.056	10254.98
759.394	10371.14
759.731	10546.28
760.068	10664.92
760.405	10840.51
760.743	10996.43
761.08	11227.16
761.417	11281.62
761.754	11433.48
762.091	11652.01
762.428	11864.66
762.765	11968.84
763.102	12211.09
763.438	12323.86
763.775	12425.77
764.112	12612.21
764.449	12856.72
764.785	12985.31
765.122	13044.29
765.458	13242.93
765.795	13459.65
766.131	13580.77
766.467	13675.91
766.804	13870.48
767.14	13949.58
767.476	14069.8
767.812	14178.95
768.148	14384.37
768.485	14535.32
768.821	14590.92
769.157	14787.97
769.492	14837.69
769.828	15046.5
770.164	15003.33
770.5	15208.3
770.836	15275.19
771.171	15412.14
771.507	15547.5
771.842	15507.05
772.178	15608.29
772.513	15806.25
772.849	15869.75
773.184	15926.7
773.519	16013.25
773.855	16090.54
774.19	16149.74
774.525	16218.9
774.86	16348.38
775.195	16400.81
775.53	16453.01
775.865	16435.39
776.2	16439.68
776.535	16476.06
776.87	16586.34
777.205	16584.54
777.539	16572.56
777.874	16693.91
778.209	16648.71
778.543	16782.72
778.878	16679.67
779.212	16844.42
779.547	16835.38
779.881	16905.66
780.215	16864.08
780.55	16929.16
780.884	16946.56
781.218	16871.76
781.552	16996.95
781.886	16934.36
782.22	16928.26
782.554	16912.89
782.888	16914.92
783.222	16865.43
783.556	16810.07
783.889	16928.48
784.223	16844.87
784.557	16783.17
784.89	16954.47
785.224	16872.44
785.557	16867.01
785.891	16890.52
786.224	16864.53
786.558	16915.37
786.891	16769.62
787.224	16756.28
787.557	16822.5
787.891	16754.7
788.224	16808.03
788.557	16739.56
788.89	16785.21
789.223	16869.73
789.556	16664.53
789.888	16742.27
790.221	16683.52
790.554	16596.74
790.887	16615.5
791.219	16579.56
791.552	16490.3
791.884	16469.96
792.217	16468.15
792.549	16484.2
792.882	16433.81
793.214	16364.2
793.546	16445.56
793.879	16281.72
794.211	16222.74
794.543	16272.45
794.875	16305.9
795.207	16328.27
795.539	16298.67
795.871	16204.21
796.203	16111.55
796.535	16050.09
796.867	16078.79
797.198	16058
797.53	16004.66
797.862	15884.89
798.193	15966.02
798.525	15857.78
798.856	15927.15
799.188	15670.66
799.519	15709.76
799.85	15664.11
800.182	15650.77
800.513	15689.64
800.844	15510.89
801.175	15713.82
801.506	15665.69
801.837	15471.8
802.168	15454.85
802.499	15419.14
802.83	15412.14
803.161	15392.7
803.491	15335.08
803.822	15408.97
804.153	15389.76
804.483	15188.64
804.814	15157.45
805.145	15148.19
805.475	15261.86
805.805	15112.94
806.136	15157.45
806.466	15128.53
806.796	15054.41
807.126	14957.46
807.457	14962.88
807.787	14986.61
808.117	14872.49
808.447	14871.36
808.777	14873.85
809.107	14851.93
809.436	14844.92
809.766	14725.83
810.096	14765.83
810.426	14660.74
810.755	14656.9
811.085	14658.26
811.414	14666.17
811.744	14565.15
812.073	14595.21
812.403	14563.57
812.732	14467.08
813.061	14429.79
813.39	14295.1
813.719	14345.05
814.049	14369.23
814.378	14360.19
814.707	14306.4
815.036	14365.38
815.365	14199.06
815.693	14063.25
816.022	14154.09
816.351	14086.3
816.68	14038.84
817.008	14120.65
817.337	13940.31
817.665	14018.05
817.994	14018.95
818.322	14014.66
818.651	13948.67
818.979	13912.06
819.307	14004.94
819.636	13959.52
819.964	13851.05
820.292	13894.89
820.62	13928.79
820.948	13804.04
821.276	13912.06
821.604	13838.39
821.932	13811.5
822.259	13937.15
822.587	13790.71
822.915	13791.39
823.243	13859.41
823.57	13862.57
823.898	13827.09
824.225	13795.46
824.553	13777.83
824.88	13830.71
825.207	13951.38
825.535	13839.07
825.862	13893.76
826.189	13834.1
826.516	13889.69
826.843	13829.35
827.17	13875.91
827.497	13953.42
827.824	13874.55
828.151	13912.97
828.478	13886.75
828.805	13951.84
829.131	13896.47
829.458	13819.18
829.785	13734.67
830.111	13836.81
830.438	13908
830.764	13900.76
831.09	13894.44
831.417	13743.25
831.743	13898.28
832.069	13882.23
832.395	13804.95
832.722	13878.39
833.048	13750.94
833.374	13760.43
833.7	13709.58
834.026	13718.85
834.351	13731.5
834.677	13784.61
835.003	13758.4
835.329	13701
835.654	13676.36
835.98	13672.97
836.306	13741.9
836.631	13629.81
836.956	13717.49
837.282	13654.9
837.607	13580.09
837.932	13593.65
838.258	13522.24
838.583	13493.77
838.908	13552.07
839.233	13469.59
839.558	13480.21
839.883	13411.29
840.208	13428.23
840.533	13341.46
840.858	13403.83
841.182	13387.33
841.507	13385.52
841.832	13340.78
842.156	13294
842.481	13279.99
842.805	13249.26
843.13	13125.19
843.454	13220.33
843.778	13098.53
844.103	13167.9
844.427	13090.62
844.751	13054.68
845.075	13038.87
845.399	12979.43
845.723	12965.65
846.047	12932.65
846.371	12796.84
846.695	12838.65
847.019	12777.86
847.343	12756.16
847.666	12670.06
847.99	12604.3
848.313	12647.69
848.637	12493.57
848.96	12545.09
849.284	12500.8
849.607	12312.33
849.931	12317.76
850.254	12256.29
850.577	12179.68
850.9	12104.43
851.223	12116.18
851.546	11979.01
851.869	12052.23
852.192	12008.16
852.515	11912.57
852.838	11842.06
853.161	11887.26
853.483	11778.33
853.806	11799.58
854.129	11829.63
854.451	11643.2
854.774	11665.34
855.096	11697.88
855.419	11674.83
855.741	11568.85
856.063	11525.23
856.385	11423.09
856.708	11370.66
857.03	11388.74
857.352	11400.94
857.674	11311.68
857.996	11280.27
858.318	11240.95
858.64	11251.79
858.961	11157.56
859.283	11245.02
859.605	11132.93
859.926	11151.91
860.248	11129.99
860.57	11017.22
860.891	11054.74
861.212	11034.17
861.534	11005.47
861.855	10898.81
862.176	11023.33
862.498	10972.03
862.819	10949.2
863.14	10904.69
863.461	10850
863.782	10809.09
864.103	10814.29
864.424	10795.76
864.745	10743.56
865.065	10771.36
865.386	10707.18
865.707	10673.5
866.027	10768.42
866.348	10640.74
866.668	10745.14
866.989	10639.61
867.309	10606.16
867.63	10586.05
867.95	10605.48
868.27	10501.98
868.59	10579.72
868.91	10569.78
869.23	10497.01
869.55	10424.25
869.87	10490.91
870.19	10458.82
870.51	10428.31
870.83	10442.78
871.15	10412.04
871.469	10396.68
871.789	10483.91
872.109	10401.65
872.428	10318.49
872.748	10317.58
873.067	10383.79
873.386	10379.95
873.706	10301.09
874.025	10158.49
874.344	10172.73
874.663	10231.71
874.982	10218.38
875.301	10221.99
875.62	10233.97
875.939	10163.91
876.258	10174.76
876.577	10149.45
876.896	10184.48
877.214	10049.79
877.533	10090.7
877.852	10061.54
878.17	10081.43
878.489	10130.92
878.807	10070.36
879.125	10004.37
879.444	10044.14
879.762	9942.9
880.08	9982.45
880.398	9876.92
880.716	9965.73
881.034	9892.96
881.352	9894.77
881.67	9878.05
881.988	9848.22
882.306	9858.38
882.624	9776.13
882.941	9780.42
883.259	9730.25
883.577	9747.2
883.894	9648.9
884.212	9681.89
884.529	9674.89
884.846	9635.57
885.164	9643.25
885.481	9586.3
885.798	9618.62
886.115	9544.95
886.432	9543.36
886.75	9497.72
887.067	9549.47
887.383	9444.84
887.7	9541.78
888.017	9481.45
888.334	9448.23
888.651	9402.8
888.967	9403.26
889.284	9316.7
889.6	9292.3
889.917	9241.45
890.233	9295.91
890.55	9202.13
890.866	9163.26
891.182	9114
891.498	9138.4
891.815	9170.72
892.131	9087.11
892.447	9039.88
892.763	9043.27
893.079	8966.88
893.395	8928.24
893.71	8938.86
894.026	8923.72
894.342	8910.16
894.657	8887.79
894.973	8755.36
895.289	8858.86
895.604	8858.41
895.92	8726.66
896.235	8639.43
896.55	8705.19
896.865	8595.59
897.181	8606.89
897.496	8614.8
897.811	8513.34
898.126	8574.12
898.441	8485.77
898.756	8509.04
899.071	8403.28
899.386	8474.01
899.7	8363.28
900.015	8365.09
900.33	8295.04
900.644	8289.16
900.959	8211.2
901.273	8248.03
901.588	8209.16
901.902	8133.91
902.216	8122.16
902.531	8126.45
902.845	8076.51
903.159	8055.27
903.473	8000.81
903.787	7955.16
904.101	7962.84
904.415	7905.89
904.729	7885.56
905.042	7829.74
905.356	7836.07
905.67	7816.18
905.984	7806.91
906.297	7702.51
906.611	7708.61
906.924	7728.05
907.237	7638.78
907.551	7678.56
907.864	7611.89
908.177	7574.6
908.491	7509.97
908.804	7523.08
909.117	7433.36
909.43	7393.82
909.743	7401.95
910.056	7406.92
910.368	7326.93
910.681	7309.07
910.994	7328.06
911.307	7217.1
911.619	7208.06
911.932	7234.95
912.244	7166.7
912.557	7185.69
912.869	7130.1
913.181	7122.41
913.494	7067.95
913.806	7018.46
914.118	6981.17
914.43	6918.58
914.742	6919.71
915.054	6901.63
915.366	6894.39
915.678	6825.92
915.99	6806.94
916.302	6745.25
916.613	6729.88
916.925	6756.77
917.236	6712.25
917.548	6698.47
917.859	6671.8
918.171	6634.06
918.482	6611.69
918.794	6572.14
919.105	6603.56
919.416	6514.07
919.727	6519.26
920.038	6461.41
920.349	6458.02
920.66	6488.08
920.971	6396.1
921.282	6450.34
921.593	6394.3
921.903	6339.38
922.214	6305.71
922.525	6296.67
922.835	6221.19
923.146	6216.45
923.456	6166.05
923.767	6170.35
924.077	6111.14
924.387	6163.79
924.697	6050.58
925.008	6103.91
925.318	6038.37
925.628	6017.81
925.938	6007.86
926.248	6015.32
926.558	5926.74
926.867	5904.36
927.177	5880.64
927.487	5854.42
927.796	5873.63
928.106	5839.51
928.416	5785.05
928.725	5850.13
929.034	5712.05
929.344	5760.41
929.653	5722.67
929.962	5704.6
930.271	5656.91
930.581	5688.33
930.89	5634.32
931.199	5568.33
931.508	5607.65
931.817	5569.23
932.125	5579.4
932.434	5544.6
932.743	5479.97
933.051	5451.27
933.36	5409.46
933.669	5394.77
933.977	5402
934.286	5433.64
934.594	5390.71
934.902	5349.12
935.21	5291.95
935.519	5258.28
935.827	5266.87
936.135	5237.72
936.443	5235.68
936.751	5218.28
937.059	5222.12
937.367	5155.68
937.674	5121.11
937.982	5142.12
938.29	5102.13
938.597	5099.19
938.905	5074.1
939.213	5043.37
939.52	4986.87
939.827	5016.7
940.135	4950.94
940.442	4904.16
940.749	4889.02
941.056	4931.28
941.363	4894.9
941.67	4881.79
941.977	4851.28
942.284	4776.48
942.591	4801.79
942.898	4816.71
943.205	4797.73
943.511	4712.98
943.818	4739.2
944.125	4694.68
944.431	4699.65
944.738	4661.23
945.044	4658.75
945.35	4628.47
945.657	4612.2
945.963	4584.4
946.269	4534.91
946.575	4522.03
946.881	4505.98
947.187	4492.65
947.493	4490.16
947.799	4499.2
948.105	4458.98
948.41	4447.91
948.716	4435.25
949.022	4396.38
949.327	4370.17
949.633	4354.57
949.938	4363.39
950.244	4331.98
950.549	4298.98
950.854	4255.37
951.16	4283.16
951.465	4251.53
951.77	4218.08
952.075	4217.18
952.38	4197.74
952.685	4156.61
952.99	4131.08
953.294	4152.09
953.599	4081.59
953.904	4121.81
954.209	4099.21
954.513	4080.46
954.818	4064.41
955.122	4057.63
955.426	4012.89
955.731	3966.34
956.035	3952.55
956.339	3960.01
956.643	3951.65
956.948	3938.31
957.252	3934.47
957.556	3897.86
957.86	3863.06
958.163	3878.43
958.467	3834.81
958.771	3827.36
959.075	3784.42
959.378	3815.61
959.682	3781.48
959.985	3735.61
960.289	3752.78
960.592	3718.21
960.896	3718.89
961.199	3707.36
961.502	3673.24
961.805	3683.18
962.108	3641.83
962.411	3654.71
962.714	3630.53
963.017	3621.26
963.32	3584.43
963.623	3602.05
963.926	3570.41
964.228	3531.32
964.531	3504.43
964.833	3517.31
965.136	3481.83
965.438	3504.65
965.741	3458.1
966.043	3442.51
966.345	3399.12
966.648	3462.17
966.95	3387.59
967.252	3362.74
967.554	3362.74
967.856	3356.18
968.158	3304.21
968.46	3348.73
968.761	3318.9
969.063	3282.29
969.365	3249.52
969.666	3296.52
969.968	3283.42
970.269	3245.23
970.571	3245
970.872	3221.05
971.174	3191.89
971.475	3230.99
971.776	3216.53
972.077	3186.7
972.378	3178.33
972.679	3140.37
972.98	3115.74
973.281	3084.78
973.582	3100.37
973.883	3088.62
974.183	3087.04
974.484	3056.08
974.785	3035.74
975.085	3022.86
975.386	3017.21
975.686	3002.29
975.986	2991.9
976.287	3009.53
976.587	2959.36
976.887	2963.42
977.187	2967.27
977.487	2919.36
977.787	2904.44
978.087	2911.22
978.387	2905.8
978.687	2897.44
978.987	2877.55
979.286	2851.79
979.586	2827.16
979.885	2809.98
980.185	2820.6
980.484	2759.36
980.784	2773.37
981.083	2782.86
981.382	2785.58
981.682	2789.19
981.981	2729.53
982.28	2727.72
982.579	2702.64
982.878	2717.33
983.177	2699.7
983.475	2681.62
983.774	2670.1
984.073	2657.9
984.372	2641.17
984.67	2663.55
984.969	2681.17
985.267	2609.99
985.566	2615.41
985.864	2608.18
986.162	2596.43
986.461	2556.66
986.759	2516.66
987.057	2515.75
987.355	2529.76
987.653	2520.5
987.951	2497.67
988.249	2489.09
988.547	2465.58
988.844	2485.92
989.142	2487.96
989.44	2440.27
989.737	2441.18
990.035	2431.01
990.332	2417.9
990.63	2432.37
990.927	2387.17
991.224	2377.68
991.521	2362.76
991.819	2360.73
992.116	2375.42
992.413	2349.2
992.71	2342.2
993.006	2341.75
993.303	2285.93
993.6	2305.36
993.897	2297.23
994.193	2280.96
994.49	2260.84
994.787	2260.84
995.083	2237.12
995.379	2228.75
995.676	2241.64
995.972	2228.75
996.268	2214.74
996.565	2202.99
996.861	2172.49
997.157	2159.38
997.453	2170.9
997.749	2144.24
998.044	2129.77
998.34	2116.89
998.636	2078.25
998.932	2093.62
999.227	2084.13
999.523	2090.23
999.818	2065.6
1000.114	2034.64
1000.409	2039.16
1000.704	2026.73
1001	2033.73
1001.295	2000.29
1001.59	2045.26
1001.885	2019.49
1002.18	2008.42
1002.475	1984.47
1002.77	1958.03
1003.065	1928.88
1003.359	1890.01
1003.654	1953.28
1003.949	1916.9
1004.243	1920.29
1004.538	1878.71
1004.832	1894.98
1005.127	1878.48
1005.421	1853.17
1005.715	1828.54
1006.009	1872.83
1006.304	1846.39
1006.598	1840.29
1006.892	1840.97
1007.186	1781.76
1007.48	1799.39
1007.773	1794.87
1008.067	1764.13
1008.361	1764.81
1008.655	1728.88
1008.948	1741.31
1009.242	1765.49
1009.535	1720.75
1009.829	1691.82
1010.122	1727.3
1010.415	1701.54
1010.708	1671.93
1011.001	1683.23
1011.295	1642.33
1011.588	1646.4
1011.881	1645.49
1012.173	1650.24
1012.466	1640.07
1012.759	1616.79
1013.052	1626.28
1013.344	1584.48
1013.637	1611.82
1013.93	1584.03
1014.222	1599.17
1014.514	1580.18
1014.807	1572.73
1015.099	1551.71
1015.391	1516.68
1015.683	1534.76
1015.976	1560.3
1016.268	1520.75
1016.56	1497.25
1016.851	1496.34
1017.143	1483.92
1017.435	1476.91
1017.727	1473.07
1018.018	1456.57
1018.31	1440.75
1018.602	1444.37
1018.893	1446.4
1019.185	1434.88
1019.476	1405.27
1019.767	1397.59
1020.058	1373.18
1020.35	1386.97
1020.641	1374.31
1020.932	1347.87
1021.223	1369.57
1021.514	1338.38
1021.804	1317.82
1022.095	1341.09
1022.386	1345.61
1022.677	1298.16
1022.967	1306.29
1023.258	1300.64
1023.548	1282.11
1023.839	1275.56
1024.129	1282.57
1024.419	1261.32
1024.709	1242.57
1025	1252.28
1025.29	1232.4
1025.58	1217.26
1025.87	1213.41
1026.16	1218.61
1026.449	1207.09
1026.739	1205.73
1027.029	1170.48
1027.319	1198.27
1027.608	1182.68
1027.898	1187.65
1028.187	1166.86
1028.477	1191.95
1028.766	1149.01
1029.055	1156.92
1029.344	1117.37
1029.634	1110.82
1029.923	1137.48
1030.212	1120.99
1030.501	1128.22
1030.79	1105.62
1031.078	1106.52
1031.367	1091.16
1031.656	1064.49
1031.945	1070.82
1032.233	1040.09
1032.522	1065.62
1032.81	1053.87
1033.099	1030.59
1033.387	1039.86
1033.675	1042.57
1033.963	1021.56
1034.251	1006.64
1034.54	1020.43
1034.828	1031.27
1035.116	986.53
1035.403	1000.31
1035.691	1005.28
1035.979	1005.96
1036.267	971.39
1036.554	975.91
1036.842	957.15
1037.129	963.03
1037.417	941.56
1037.704	944.72
1037.992	944.27
1038.279	954.21
1038.566	923.03
1038.853	923.03
1039.14	923.03
