Data from hue_310_FLMS001491_52.txt Node
Date: Mon Feb 06 15:49:52 GMT 2017
User: dcchb
Spectrometer: FLMS00149
Trigger mode: 0
Integration Time (sec): 2.000000E-2
Scans to average: 10
Electric dark correction enabled: true
Nonlinearity correction enabled: false
Boxcar width: 0
XAxis mode: Wavelengths
Number of Pixels in Spectrum: 2048
>>>>>Begin Spectral Data<<<<<
341.393	9.59
341.776	9.59
342.16	9.59
342.543	-76.74
342.927	-74.48
343.31	-66.11
343.693	-69.73
344.077	-65.21
344.46	-46.68
344.843	-54.36
345.226	-50.97
345.61	-13.69
345.993	-21.37
346.376	-0.81
346.759	-2.84
347.142	21.12
347.525	42.36
347.908	69.48
348.291	66.54
348.674	74.22
349.057	118.06
349.44	128.91
349.823	144.05
350.206	169.13
350.588	193.77
350.971	193.54
351.354	229.7
351.737	235.12
352.119	248.91
352.502	263.37
352.884	263.14
353.267	273.09
353.65	288.23
354.032	316.93
354.414	314.21
354.797	306.53
355.179	306.08
355.562	330.94
355.944	335.68
356.326	321.9
356.709	343.82
357.091	336.14
357.473	339.75
357.855	333.65
358.238	349.69
358.62	330.94
359.002	337.49
359.384	348.34
359.766	354.89
360.148	351.5
360.53	341.11
360.912	351.05
361.294	321.45
361.676	330.71
362.057	336.36
362.439	330.03
362.821	329.58
363.203	313.08
363.584	301.11
363.966	339.07
364.348	332.97
364.729	306.08
365.111	319.41
365.493	325.51
365.874	315.34
366.256	322.12
366.637	309.7
367.019	331.62
367.4	337.94
367.781	317.38
368.163	311.5
368.544	314.67
368.925	298.85
369.306	306.76
369.688	298.62
370.069	309.7
370.45	326.64
370.831	307.89
371.212	320.32
371.593	332.07
371.974	331.39
372.355	315.12
372.736	332.29
373.117	316.93
373.498	325.29
373.879	307.21
374.26	308.11
374.641	317.83
375.021	310.15
375.402	325.06
375.783	316.47
376.163	324.61
376.544	338.4
376.925	317.6
377.305	320.99
377.686	330.26
378.066	332.52
378.447	329.13
378.827	338.17
379.208	327.1
379.588	326.64
379.968	339.98
380.349	325.97
380.729	327.55
381.109	351.05
381.489	353.08
381.87	347.89
382.25	344.72
382.63	348.79
383.01	337.49
383.39	349.24
383.77	342.46
384.15	339.07
384.53	344.5
384.91	349.24
385.29	357.83
385.67	341.78
386.049	350.82
386.429	339.52
386.809	366.64
387.189	355.12
387.568	368.45
387.948	337.04
388.328	362.12
388.707	375.46
389.087	366.64
389.466	363.25
389.846	371.16
390.225	368
390.605	375.23
390.984	371.84
391.363	365.29
391.743	363.03
392.122	384.27
392.501	391.73
392.881	370.48
393.26	370.26
393.639	370.03
394.018	374.33
394.397	396.25
394.776	380.43
395.155	398.28
395.534	385.85
395.913	394.21
396.292	392.63
396.671	412.52
397.05	395.34
397.429	403.03
397.808	389.47
398.186	405.74
398.565	395.57
398.944	416.13
399.323	408.45
399.701	414.55
400.08	395.12
400.458	417.94
400.837	405.29
401.215	404.38
401.594	430.37
401.972	396.02
402.351	433.31
402.729	414.78
403.107	437.15
403.486	427.21
403.864	426.75
404.242	437.38
404.62	447.77
404.999	436.7
405.377	449.58
405.755	459.3
406.133	443.48
406.511	462.46
406.889	464.04
407.267	474.21
407.645	490.48
408.023	480.09
408.401	478.96
408.779	479.18
409.156	499.75
409.534	511.5
409.912	485.74
410.29	511.05
410.667	512.18
411.045	539.97
411.422	519.86
411.8	519.18
412.178	542.68
412.555	538.16
412.933	572.51
413.31	568.22
413.687	572.29
414.065	577.48
414.442	593.98
414.819	599.63
415.197	590.59
415.574	607.99
415.951	609.8
416.328	594.66
416.705	633.98
417.082	633.75
417.46	651.16
417.837	656.35
418.214	646.18
418.591	681.21
418.967	690.48
419.344	697.48
419.721	697.71
420.098	710.81
420.475	695.67
420.852	714.88
421.228	729.57
421.605	728.44
421.982	726.18
422.358	731.83
422.735	770.7
423.111	781.32
423.488	777.48
423.864	777.03
424.241	820.64
424.617	819.06
424.994	824.26
425.37	815.44
425.746	836.69
426.123	844.14
426.499	871.26
426.875	837.36
427.251	864.48
427.627	873.07
428.003	891.15
428.379	906.29
428.756	892.73
429.132	913.07
429.507	915.1
429.883	913.75
430.259	951.94
430.635	937.02
431.011	998.72
431.387	991.26
431.763	1004.82
432.138	1003.01
432.514	1022.9
432.89	1036
433.265	1040.3
433.641	1065.61
434.016	1060.41
434.392	1089.79
434.767	1093.18
435.143	1101.31
435.518	1080.75
435.894	1124.14
436.269	1118.71
436.644	1131.59
437.02	1170.92
437.395	1127.98
437.77	1171.37
438.145	1188.54
438.52	1214.53
438.895	1199.84
439.271	1208.65
439.646	1249.78
440.021	1243.46
440.395	1239.16
440.77	1244.36
441.145	1244.36
441.52	1253.17
441.895	1296.11
442.27	1298.14
442.645	1296.11
443.019	1295.88
443.394	1304.7
443.769	1304.47
444.143	1261.76
444.518	1313.28
444.892	1334.53
445.267	1340.4
445.641	1342.66
446.016	1318.48
446.39	1374.98
446.764	1344.47
447.139	1349.22
447.513	1359.84
447.887	1351.48
448.262	1404.58
448.636	1366.62
449.01	1383.57
449.384	1381.76
449.758	1393.51
450.132	1412.72
450.506	1432.83
450.88	1412.94
451.254	1397.35
451.628	1434.41
452.002	1442.55
452.376	1444.35
452.75	1441.42
453.123	1481.42
453.497	1470.79
453.871	1474.86
454.244	1506.27
454.618	1518.93
454.992	1508.31
455.365	1559.38
455.739	1554.63
456.112	1526.16
456.486	1546.95
456.859	1549.89
457.232	1564.35
457.606	1579.04
457.979	1606.61
458.352	1593.05
458.725	1642.09
459.099	1647.97
459.472	1714.4
459.845	1685.25
460.218	1720.51
460.591	1697.23
460.964	1696.1
461.337	1739.26
461.71	1762.99
462.083	1749.66
462.456	1771.8
462.829	1758.92
463.201	1795.76
463.574	1762.99
463.947	1817
464.32	1852.93
464.692	1879.15
465.065	1857.9
465.438	1881.41
465.81	1912.36
466.183	1904
466.555	1932.93
466.928	1922.99
467.3	1955.53
467.672	1983.1
468.045	1978.58
468.417	2016.09
468.789	2017.22
469.161	2062.42
469.534	2068.07
469.906	2101.51
470.278	2096.99
470.65	2103.55
471.022	2135.64
471.394	2146.48
471.766	2163.88
472.138	2181.51
472.51	2208.63
472.882	2205.69
473.253	2294.5
473.625	2277.1
473.997	2311.68
474.369	2330.43
474.74	2317.78
475.112	2380.38
475.484	2406.36
475.855	2432.58
476.227	2429.41
476.598	2487.72
476.97	2484.33
477.341	2526.81
477.713	2576.75
478.084	2595.96
478.455	2631.67
478.827	2612.69
479.198	2695.4
479.569	2694.04
479.94	2722.06
480.311	2742.85
480.682	2799.8
481.053	2883.86
481.424	2860.14
481.795	2915.95
482.166	2924.54
482.537	2961.15
482.908	2982.62
483.279	3004.31
483.65	3047.7
484.021	3102.39
484.391	3141.94
484.762	3184.2
485.133	3157.76
485.503	3198.88
485.874	3243.86
486.244	3252.44
486.615	3346.9
486.985	3354.36
487.356	3377.19
487.726	3369.05
488.097	3464.87
488.467	3428.26
488.837	3500.57
489.207	3529.05
489.578	3537.86
489.948	3592.32
490.318	3644.3
490.688	3647.69
491.058	3693.34
491.428	3710.51
491.798	3721.36
492.168	3788.47
492.538	3819.43
492.908	3802.03
493.278	3898.53
493.648	3877.96
494.017	3900.56
494.387	3931.97
494.757	3992.08
495.126	3997.06
495.496	4038.41
495.866	4050.16
496.235	4108.24
496.605	4102.59
496.974	4100.33
497.344	4136.94
497.713	4154.34
498.082	4165.87
498.452	4157.28
498.821	4199.76
499.19	4250.61
499.559	4256.48
499.928	4288.35
500.298	4304.39
500.667	4356.14
501.036	4321.57
501.405	4348.23
501.774	4382.58
502.143	4362.92
502.512	4391.85
502.88	4420.55
503.249	4422.81
503.618	4499.64
503.987	4463.48
504.356	4469.13
504.724	4451.51
505.093	4507.1
505.462	4518.62
505.83	4515.91
506.199	4571.28
506.567	4605.63
506.936	4600.43
507.304	4633.88
507.672	4694.89
508.041	4650.37
508.409	4668
508.777	4688.11
509.145	4709.81
509.514	4696.47
509.882	4768.11
510.25	4771.72
510.618	4799.75
510.986	4795.9
511.354	4804.72
511.722	4878.39
512.09	4893.98
512.458	4859.41
512.826	4881.1
513.193	4863.47
513.561	4895.11
513.929	4925.85
514.297	4955.45
514.664	4938.05
515.032	4993.87
515.4	4980.53
515.767	4993.19
516.135	5039.74
516.502	4970.59
516.869	5048.1
517.237	5061.89
517.604	5035.9
517.972	5137.59
518.339	5121.32
518.706	5096.69
519.073	5120.19
519.44	5152.05
519.808	5186.86
520.175	5146.63
520.542	5250.13
520.909	5302.11
521.276	5223.24
521.643	5226.18
522.009	5313.86
522.376	5183.01
522.743	5331.48
523.11	5364.25
523.477	5408.54
523.843	5354.53
524.21	5458.71
524.577	5478.82
524.943	5474.08
525.31	5495.1
525.676	5602.44
526.043	5580.97
526.409	5561.76
526.776	5645.37
527.142	5617.8
527.508	5660.97
527.874	5726.73
528.241	5699.61
528.607	5743.68
528.973	5801.98
529.339	5737.12
529.705	5811.02
530.071	5871.58
530.437	5856.67
530.803	5882.88
531.169	5962.65
531.535	5976.44
531.901	5945.71
532.267	5983.22
532.632	6026.83
532.998	6064.35
533.364	6117.68
533.73	6112.25
534.095	6168.3
534.461	6132.59
534.826	6262.08
535.192	6228.86
535.557	6238.8
535.923	6237.67
536.288	6301.85
536.653	6310.89
537.019	6238.35
537.384	6339.37
537.749	6338.01
538.114	6349.31
538.479	6379.82
538.845	6363.32
539.21	6453.94
539.575	6447.39
539.94	6486.71
540.305	6525.8
540.67	6557.44
541.034	6578.23
541.399	6631.11
541.764	6603.32
542.129	6715.85
542.494	6692.8
542.858	6676.76
543.223	6732.58
543.587	6737.1
543.952	6841.05
544.316	6802.41
544.681	6886.47
545.045	6915.4
545.41	6902.06
545.774	6904.32
546.138	6908.17
546.503	6941.16
546.867	6977.54
547.231	7089.4
547.595	7062.74
547.959	7145.67
548.324	7102.29
548.688	7090.76
549.052	7114.26
549.416	7136.18
549.779	7223.64
550.143	7206.92
550.507	7299.12
550.871	7243.98
551.235	7267.25
551.599	7337.31
551.962	7304.09
552.326	7386.8
552.689	7365.1
553.053	7408.94
553.417	7383.18
553.78	7448.72
554.143	7505.44
554.507	7493.01
554.87	7505.89
555.234	7607.13
555.597	7562.84
555.96	7577.75
556.323	7612.78
556.686	7676.73
557.05	7655.26
557.413	7645.1
557.776	7727.35
558.139	7748.14
558.502	7702.72
558.865	7753.57
559.228	7792.66
559.59	7783.17
559.953	7790.63
560.316	7886.67
560.679	7871.76
561.041	7929.83
561.404	7915.37
561.767	8004.41
562.129	7955.37
562.492	8050.96
562.854	7993.79
563.217	7997.63
563.579	8106.78
563.941	8133.22
564.304	8162.37
564.666	8179.77
565.028	8203.05
565.39	8244.63
565.753	8222.71
566.115	8227.45
566.477	8309.26
566.839	8367.79
567.201	8372.99
567.563	8444.17
567.925	8450.5
568.287	8434.23
568.648	8464.51
569.01	8607.33
569.372	8599.42
569.734	8552.42
570.095	8678.51
570.457	8635.35
570.819	8650.94
571.18	8731.39
571.542	8715.58
571.903	8842.13
572.265	8852.52
572.626	8905.85
572.987	8907.66
573.349	8977.04
573.71	9015.46
574.071	9026.75
574.432	9129.35
574.794	9217.03
575.155	9248.67
575.516	9331.15
575.877	9379.29
576.238	9454.54
576.599	9482.34
576.96	9563.69
577.32	9678.71
577.681	9753.29
578.042	9855.88
578.403	9932.27
578.763	9992.6
579.124	10136.78
579.485	10264.46
579.845	10337.45
580.206	10455.42
580.566	10594.62
580.927	10655.64
581.287	10860.6
581.648	10954.16
582.008	11207.71
582.368	11252.23
582.728	11451.55
583.089	11594.82
583.449	11827.81
583.809	12035.94
584.169	12082.27
584.529	12296.05
584.889	12585.53
585.249	12720.67
585.609	12856.03
585.969	13128.57
586.329	13357.49
586.688	13580.98
587.048	13838.61
587.408	14034.53
587.768	14305.71
588.127	14479.72
588.487	14796.77
588.846	15101.62
589.206	15253.71
589.565	15521.72
589.925	15928.95
590.284	16077.19
590.643	16408.93
591.003	16858.19
591.362	17073.77
591.721	17276.03
592.08	17586.76
592.44	17775.9
592.799	18213.86
593.158	18481.19
593.517	18689.78
593.876	19112.14
594.235	19434.16
594.593	19726.13
594.952	19985.56
595.311	20315.95
595.67	20665.54
596.029	21043.39
596.387	21404.96
596.746	21772.63
597.104	21965.4
597.463	22265.73
597.822	22602.22
598.18	22818.03
598.538	23208.08
598.897	23651.91
599.255	23734.16
599.613	24268.16
599.972	24374.15
600.33	24810.07
600.688	25025.88
601.046	25248.7
601.404	25702.93
601.762	25993.31
602.12	26309.24
602.478	26586.97
602.836	26918.94
603.194	26959.39
603.552	27349.66
603.91	27373.16
604.268	27937.67
604.625	28054.28
604.983	28342.86
605.341	28593.02
605.698	28983.97
606.056	29364.52
606.413	29422.15
606.771	29758.64
607.128	30072.53
607.485	30242.69
607.843	30422.8
608.2	30887.2
608.557	31133.52
608.914	31258.49
609.272	31631.58
609.629	31941.18
609.986	32118.8
610.343	32100.05
610.7	32503.65
611.057	32771.44
611.414	32992.9
611.771	33147.7
612.127	33558.76
612.484	33628.59
612.841	33853.9
613.198	33822.94
613.554	34109.94
613.911	34437.84
614.267	34498.4
614.624	34733.2
614.98	34785.4
615.337	35215.67
615.693	35333.18
616.05	35417.7
616.406	35713.96
616.762	35819.27
617.118	35944.01
617.475	36057.91
617.831	36266.49
618.187	36492.47
618.543	36667.38
618.899	36907.15
619.255	37009.97
619.611	37122.29
619.967	37303.52
620.323	37465.1
620.678	37376.97
621.034	37412.67
621.39	37610.86
621.746	37677.3
622.101	38209.04
622.457	37890.18
622.812	38169.49
623.168	38224.18
623.523	38348.24
623.879	38535.13
624.234	38361.35
624.589	38671.4
624.945	38690.83
625.3	38793.66
625.655	38755.01
626.01	38987.77
626.365	39139.63
626.72	39011.73
627.075	39211.27
627.43	39099.41
627.785	39233.42
628.14	39269.57
628.495	39266.19
628.85	39319.07
629.205	39303.7
629.559	39637.25
629.914	39539.85
630.269	39705.72
630.623	39517.25
630.978	39610.13
631.332	39835.66
631.687	39916.79
632.041	39751.6
632.396	39806.51
632.75	39914.76
633.104	39961.31
633.459	39906.39
633.813	39843.57
634.167	39824.36
634.521	39803.8
634.875	40042.21
635.229	39945.72
635.583	39699.62
635.937	39947.52
636.291	39916.34
636.645	39988.43
636.999	39828.88
637.352	39949.33
637.706	39855.55
638.06	39955.88
638.413	39876.79
638.767	39740.75
639.121	39970.8
639.474	39673.18
639.828	39729.22
640.181	39657.14
640.534	39898.48
640.888	39745.04
641.241	39571.49
641.594	39674.76
641.947	39809.22
642.301	39754.53
642.654	39799.96
643.007	39838.37
643.36	39749.34
643.713	39750.69
644.066	39820.07
644.419	39600.41
644.771	39358.39
645.124	39115
645.477	39094.66
645.83	38801.34
646.182	38699.87
646.535	38590.27
646.888	38659.42
647.24	38490.61
647.593	38530.84
647.945	38579.42
648.298	38456.26
648.65	38419.88
649.002	38333.78
649.355	38569.03
649.707	38447.45
650.059	38630.5
650.411	38967.66
650.763	39216.92
651.115	39479.06
651.467	39342.79
651.819	39359.74
652.171	39359.74
652.523	39174.21
652.875	39296.24
653.227	39111.84
653.578	39357.03
653.93	39324.94
654.282	39181.44
654.633	39129.01
654.985	39206.3
655.337	39111.16
655.688	39074.78
656.039	39361.32
656.391	38969.24
656.742	39263.02
657.094	38961.56
657.445	39336.92
657.796	39095.79
658.147	39143.02
658.498	39156.36
658.849	39090.82
659.2	39064.38
659.551	38848.34
659.902	39043.59
660.253	39015.12
660.604	38951.62
660.955	38826.87
661.306	39115.68
661.656	39079.98
662.007	39016.93
662.358	39012.63
662.708	38963.37
663.059	38918.17
663.409	38685.64
663.76	38863.71
664.11	38881.34
664.461	38971.96
664.811	38913.2
665.161	38980.54
665.511	38751.17
665.862	38872.52
666.212	39018.96
666.562	39021.45
666.912	38871.85
667.262	38716.14
667.612	38858.06
667.962	38895.35
668.312	38888.79
668.662	38822.81
669.011	38863.94
669.361	38786.88
669.711	38735.58
670.06	38714.11
670.41	38658.07
670.76	38487.9
671.109	38853.09
671.459	38804.28
671.808	38794.33
672.157	38792.07
672.507	38642.92
672.856	38518.18
673.205	38666.43
673.554	38766.54
673.904	38632.76
674.253	38781
674.602	38647.9
674.951	38212.88
675.3	37955.49
675.649	38391.41
675.998	38480.44
676.346	38519.31
676.695	38573.77
677.044	38348.24
677.393	38496.26
677.741	38535.36
678.09	38395.93
678.438	38382.37
678.787	38334.23
679.135	38410.61
679.484	38076.84
679.832	38232.31
680.181	38126.55
680.529	38079.55
680.877	38045.65
681.225	38152.99
681.573	38401.58
681.922	37990.74
682.27	37903.51
682.618	37849.5
682.966	37730.41
683.314	37960
683.661	37714.81
684.009	37560.92
684.357	37597.98
684.705	37472.33
685.053	37397.08
685.4	37327.03
685.748	37119.35
686.095	37334.26
686.443	37063.08
686.79	37011.33
687.138	37304.88
687.485	37193.47
687.832	37009.97
688.18	37102.4
688.527	36907.6
688.874	36786.25
689.221	36856.3
689.568	36777.66
689.915	36645.01
690.262	36743.77
690.609	36538.8
690.956	36494.51
691.303	36338.58
691.65	36243.67
691.997	36308.75
692.344	35994.41
692.69	35993.95
693.037	36056.78
693.383	35679.16
693.73	35846.84
694.077	35734.3
694.423	35713.96
694.769	35513.29
695.116	35411.37
695.462	35467.19
695.808	35308.1
696.155	35337.7
696.501	35134.54
696.847	35084.6
697.193	34881.67
697.539	34961.21
697.885	34665.4
698.231	34548.57
698.577	34517.16
698.923	34523.26
699.269	34452.53
699.614	34242.36
699.96	34253.44
700.306	34232.19
700.651	34127.34
700.997	34047.79
701.342	34012.99
701.688	33893.67
702.033	33735.26
702.379	33760.57
702.724	33591.31
703.069	33931.86
703.415	33357.41
703.76	33443.29
704.105	33558.54
704.45	33423.17
704.795	33065.44
705.14	33050.3
705.485	33104.99
705.83	33033.35
706.175	33013.69
706.52	32880.36
706.865	32677.88
707.209	32664.55
707.554	32534.84
707.899	32634.04
708.243	32455.06
708.588	32418.23
708.932	32206.26
709.277	32234.28
709.621	32278.8
709.966	32066.37
710.31	32169.2
710.654	31836.55
710.998	31933.72
711.342	31938.47
711.687	31803.56
712.031	31729.21
712.375	31565.37
712.719	31608.08
713.063	31368.77
713.407	31585.26
713.75	31387.75
714.094	31402.21
714.438	31277.69
714.782	31331.48
715.125	31128.55
715.469	31249.45
715.812	31026.4
716.156	30846.29
716.499	30961.32
716.843	31026.4
717.186	30668.45
717.53	30960.87
717.873	30913.18
718.216	30718.16
718.559	30574.44
718.902	30271.62
719.246	30454.89
719.589	30288.79
719.932	30234.11
720.275	30232.75
720.617	30316.36
720.96	30253.31
721.303	30083.15
721.646	30116.37
721.989	29925.87
722.331	30110.72
722.674	29830.95
723.016	29962.02
723.359	29965.41
723.701	29905.08
724.044	29683.61
724.386	29531.98
724.729	29766.77
725.071	29797.28
725.413	29544.86
725.755	29697.4
726.097	29487.23
726.439	29358.2
726.782	29321.14
727.124	29549.15
727.465	29263.96
727.807	29266.45
728.149	29197.98
728.491	29127.69
728.833	29197.07
729.175	29014.7
729.516	29064.42
729.858	28875.27
730.199	29064.87
730.541	29039.34
730.882	28963.63
731.224	29051.09
731.565	28779.91
731.906	28721.6
732.248	28830.08
732.589	28566.35
732.93	28433.93
733.271	28519.35
733.612	28473.47
733.953	28556.64
734.294	28385.12
734.635	28369.97
734.976	28440.71
735.317	28238.9
735.658	28218.11
735.999	28277.1
736.339	28209.3
736.68	28293.82
737.021	28194.16
737.361	27957.33
737.702	28213.59
738.042	28064.22
738.383	27949.87
738.723	28030.77
739.063	27900.83
739.404	28050.66
739.744	27898.12
740.084	27717.56
740.424	27816.54
740.764	27685.02
741.104	27810.67
741.444	27699.03
741.784	27569.54
742.124	27602.99
742.464	27567.06
742.804	27497.91
743.143	27447.06
743.483	27414.97
743.823	27260.17
744.162	27360.51
744.502	27278.25
744.841	27184.69
745.181	27311.7
745.52	27090.23
745.86	27248.42
746.199	27186.05
746.538	27021.99
746.877	27074.19
747.216	27055.88
747.556	26974.98
747.895	26959.84
748.234	26894.08
748.573	26739.73
748.911	26770.02
749.25	26601.21
749.589	26645.95
749.928	26702.22
750.267	26512.62
750.605	26486.63
750.944	26497.71
751.283	26504.71
751.621	26408.22
751.96	26266.75
752.298	26237.6
752.636	26123.71
752.975	26127.32
753.313	26065.4
753.651	26181.11
753.989	26008
754.327	25948.57
754.666	25927.1
755.004	25977.27
755.342	25811.85
755.679	25770.27
756.017	25641.68
756.355	25785.18
756.693	25492.31
757.031	25566.66
757.368	25471.97
757.706	25352.2
758.044	25318.53
758.381	25319.89
758.719	25366.44
759.056	25252.54
759.394	25141.58
759.731	25001.02
760.068	25093
760.405	24907.69
760.743	24668.38
761.08	24841.03
761.417	24702.27
761.754	24589.06
762.091	24553.13
762.428	24512.9
762.765	24415.05
763.102	24426.58
763.438	24234.26
763.775	24148.16
764.112	24100.26
764.449	24173.47
764.785	23983.65
765.122	23953.37
765.458	23822.3
765.795	23808.51
766.131	23818
766.467	23616.2
766.804	23539.59
767.14	23474.51
767.476	23435.87
767.812	23332.14
768.148	23340.95
768.485	23160.39
768.821	23099.38
769.157	23041.07
769.492	23034.97
769.828	23048.08
770.164	22743.91
770.5	22762.89
770.836	22781.65
771.171	22571.03
771.507	22562.22
771.842	22418.27
772.178	22376.91
772.513	22344.37
772.849	22200.65
773.184	22121.78
773.519	22030.93
773.855	22103.47
774.19	21896.47
774.525	21845.4
774.86	21845.4
775.195	21702.13
775.53	21598.4
775.865	21519.76
776.2	21427.33
776.535	21311.85
776.87	21293.78
777.205	21204.29
777.539	21129.26
777.874	21119.09
778.209	21024.4
778.543	20964.75
778.878	20750.29
779.212	20841.58
779.547	20667.8
779.881	20655.37
780.215	20638.88
780.55	20499.22
780.884	20331.09
781.218	20363.41
781.552	20408.38
781.886	20242.5
782.22	20119.8
782.554	20069.18
782.888	19961.38
783.222	19829.41
783.556	19796.64
783.889	19715.29
784.223	19576.99
784.557	19592.58
784.89	19620.37
785.224	19434.84
785.557	19392.58
785.891	19388.97
786.224	19272.81
786.558	19228.29
786.891	19060.39
787.224	19039.6
787.557	18961.63
787.891	18922.09
788.224	18905.14
788.557	18810.68
788.89	18839.38
789.223	18796.89
789.556	18676.22
789.888	18496.56
790.221	18426.73
790.554	18290.47
790.887	18358.94
791.219	18343.8
791.552	18261.99
791.884	18097.02
792.217	17977.03
792.549	18062.67
792.882	17967.76
793.214	17777.26
793.546	17912.17
793.879	17747.65
794.211	17671.05
794.543	17683.7
794.875	17604.61
795.207	17643.48
795.539	17462.46
795.871	17489.81
796.203	17386.31
796.535	17287.1
796.867	17311.06
797.198	17217.05
797.53	17218.18
797.862	17011.4
798.193	17087.33
798.525	16972.99
798.856	16975.02
799.188	16807.57
799.519	16845.98
799.85	16672.2
800.182	16723.73
800.513	16692.09
800.844	16453
801.175	16648.7
801.506	16514.47
801.837	16420.23
802.168	16339.78
802.499	16302.5
802.83	16225.89
803.161	16212.1
803.491	16135.27
803.822	16206.68
804.153	16110.18
804.483	15921.71
804.814	15896.86
805.145	15945.44
805.475	15887.14
805.805	15860.7
806.136	15832.68
806.466	15819.34
806.796	15752.45
807.126	15620.03
807.457	15561.95
807.787	15657.31
808.117	15552.68
808.447	15524.21
808.777	15521.95
809.107	15479.24
809.436	15408.73
809.766	15497.54
810.096	15356.98
810.426	15252.35
810.755	15281.5
811.085	15208.51
811.414	15149.31
811.744	15012.81
812.073	14945.92
812.403	15043.55
812.732	14940.05
813.061	14912.7
813.39	14896.2
813.719	14863.44
814.049	14851.01
814.378	14816.66
814.707	14771.91
815.036	14737.11
815.365	14709.77
815.693	14502.09
816.022	14547.74
816.351	14470
816.68	14404.92
817.008	14444.92
817.337	14289.67
817.665	14224.36
817.994	14306.16
818.322	14355.65
818.651	14234.75
818.979	14190.23
819.307	14281.76
819.636	14129.9
819.964	14063.46
820.292	14172.61
820.62	14099.62
820.948	14016.68
821.276	14013.52
821.604	14013.29
821.932	14128.77
822.259	14061.65
822.587	13985.04
822.915	13976.23
823.243	14067.98
823.57	14026.62
823.898	13991.6
824.225	13888.32
824.553	13990.69
824.88	13971.93
825.207	14060.75
825.535	13945.49
825.862	13950.47
826.189	13863.46
826.516	13990.92
826.843	14082.89
827.17	14054.64
827.497	13980.97
827.824	14000.63
828.151	14100.29
828.478	13931.03
828.805	14003.35
829.131	13939.17
829.458	13888.77
829.785	13869.34
830.111	13930.35
830.438	13957.7
830.764	13923.35
831.09	13939.62
831.417	13963.35
831.743	13928.55
832.069	13841.77
832.395	13917.25
832.722	13973.97
833.048	13869.79
833.374	13873.41
833.7	13787.53
834.026	13885.84
834.351	13848.32
834.677	13883.58
835.003	13870.47
835.329	13712.73
835.654	13756.8
835.98	13684.26
836.306	13804.26
836.631	13712.96
836.956	13673.19
837.282	13619.4
837.607	13549.8
837.932	13609.46
838.258	13646.97
838.583	13616.69
838.908	13604.94
839.233	13570.14
839.558	13418.5
839.883	13458.05
840.208	13388.67
840.533	13410.37
840.858	13433.64
841.182	13347.32
841.507	13352.29
841.832	13223.93
842.156	13327.21
842.481	13298.28
842.805	13269.13
843.13	13212.41
843.454	13169.24
843.778	13164.5
844.103	13147.55
844.427	13094.44
844.751	13059.19
845.075	13037.5
845.399	13009.93
845.723	12970.15
846.047	12897.84
846.371	12790.72
846.695	12786.43
847.019	12721.57
847.343	12677.51
847.666	12628.02
847.99	12544.85
848.313	12616.49
848.637	12490.39
848.96	12440.45
849.284	12348.47
849.607	12316.39
849.931	12226.67
850.254	12302.6
850.577	12174.92
850.9	12112.1
851.223	12059.22
851.546	12009.05
851.869	11882.72
852.192	11976.06
852.515	11823.97
852.838	11778.32
853.161	11770.64
853.483	11734.03
853.806	11629.4
854.129	11642.73
854.451	11637.08
854.774	11582.85
855.096	11508.5
855.419	11508.95
855.741	11445.9
856.063	11348.95
856.385	11357.09
856.708	11347.15
857.03	11312.8
857.352	11332.91
857.674	11284.77
857.996	11221.72
858.318	11199.58
858.64	11159.13
858.961	11073.03
859.283	11070.99
859.605	11018.79
859.926	11010.43
860.248	10997.55
860.57	10990.54
860.891	10944.22
861.212	10934.95
861.534	10938.79
861.855	10943.54
862.176	10915.07
862.498	10882.75
862.819	10877.1
863.14	10854.5
863.461	10793.94
863.782	10729.99
864.103	10772.25
864.424	10748.06
864.745	10702.19
865.065	10624.23
865.386	10660.61
865.707	10624.45
866.027	10658.35
866.348	10594.85
866.668	10598.92
866.989	10571.35
867.309	10468.3
867.63	10522.99
867.95	10503.55
868.27	10432.14
868.59	10550.1
868.91	10457.45
869.23	10441.86
869.55	10319.38
869.87	10420.62
870.19	10323.9
870.51	10350.79
870.83	10314.63
871.15	10286.38
871.469	10304.69
871.789	10269.89
872.109	10344.46
872.428	10235.99
872.748	10240.28
873.067	10268.98
873.386	10214.29
873.706	10224.69
874.025	10099.95
874.344	10147.18
874.663	10126.39
874.982	10177.91
875.301	10146.27
875.62	10128.19
875.939	10083
876.258	10050.23
876.577	9976.56
876.896	10020.4
877.214	9958.71
877.533	9966.62
877.852	10025.82
878.17	9948.76
878.489	9918.03
878.807	9898.6
879.125	9867.18
879.444	9938.82
879.762	9865.83
880.08	9869.67
880.398	9824.47
880.716	9828.77
881.034	9729.56
881.352	9803
881.67	9760.52
881.988	9765.94
882.306	9742.67
882.624	9693.86
882.941	9674.87
883.259	9652.95
883.577	9621.31
883.894	9576.57
884.212	9617.25
884.529	9571.82
884.846	9579.06
885.164	9526.63
885.481	9473.52
885.798	9529.57
886.115	9435.11
886.432	9453.86
886.75	9398.5
887.067	9379.51
887.383	9313.75
887.7	9324.15
888.017	9304.71
888.334	9283.7
888.651	9278.95
888.967	9239.4
889.284	9261.1
889.6	9174.32
889.917	9087.09
890.233	9160.76
890.55	9107.88
890.866	9155.34
891.182	9053.42
891.498	9029.69
891.815	9043.7
892.131	8942.01
892.447	8966.87
892.763	8949.69
893.079	8862.92
893.395	8900.88
893.71	8873.09
894.026	8773.65
894.342	8857.27
894.657	8704.73
894.973	8731.39
895.289	8683.49
895.604	8685.52
895.92	8692.53
896.235	8634
896.55	8584.51
896.865	8619.08
897.181	8528.24
897.496	8530.04
897.811	8490.27
898.126	8533.43
898.441	8395.81
898.756	8388.58
899.071	8389.26
899.386	8422.02
899.7	8352.87
900.015	8302.25
900.33	8228.13
900.644	8221.13
900.959	8186.32
901.273	8147.46
901.588	8145.2
901.902	8079.21
902.216	8088.25
902.531	8045.31
902.845	8038.31
903.159	7968.48
903.473	7961.7
903.787	7915.14
904.101	7920.79
904.415	7847.35
904.729	7843.96
905.042	7810.29
905.356	7803.74
905.67	7752.66
905.984	7741.36
906.297	7713.79
906.611	7635.6
906.924	7661.59
907.237	7633.8
907.551	7573.91
907.864	7486.68
908.177	7503.4
908.491	7493.69
908.804	7442.62
909.117	7407.81
909.43	7387.02
909.743	7353.35
910.056	7312
910.368	7316.06
910.681	7268.83
910.994	7234.94
911.307	7207.14
911.619	7131.89
911.932	7163.98
912.244	7077.65
912.557	7059.35
912.869	7080.82
913.181	7020.93
913.494	7032.23
913.806	6931.67
914.118	6997.43
914.43	6872.46
914.742	6888.51
915.054	6796.53
915.366	6806.02
915.678	6786.14
915.99	6785.68
916.302	6718.57
916.613	6723.31
916.925	6725.35
917.236	6688.74
917.548	6628.63
917.859	6649.19
918.171	6567.61
918.482	6546.82
918.794	6555.41
919.105	6595.41
919.416	6488.29
919.727	6499.36
920.038	6420.5
920.349	6436.54
920.66	6423.88
920.971	6375.98
921.282	6345.47
921.593	6255.98
921.903	6238.35
922.214	6292.36
922.525	6226.6
922.835	6204.68
923.146	6168.75
923.456	6159.03
923.767	6105.93
924.077	6155.42
924.387	6041.3
924.697	6059.83
925.008	6065.48
925.318	6039.71
925.628	5973.95
925.938	5975.76
926.248	5909.32
926.558	5908.64
926.867	5888.76
927.177	5878.59
927.487	5830.45
927.796	5754.75
928.106	5757.91
928.416	5754.75
928.725	5743
929.034	5724.47
929.344	5711.14
929.653	5690.57
929.962	5634.98
930.271	5570.35
930.581	5593.4
930.89	5544.13
931.199	5465.04
931.508	5524.93
931.817	5534.42
932.125	5465.94
932.434	5483.34
932.743	5439.28
933.051	5346.62
933.36	5372.39
933.669	5364.7
933.977	5288.55
934.286	5292.62
934.594	5292.84
934.902	5207.19
935.21	5212.84
935.519	5226.63
935.827	5166.97
936.135	5120.19
936.443	5116.35
936.751	5100.98
937.059	5134.65
937.367	5036.8
937.674	5042.68
937.982	5018.72
938.29	5003.58
938.597	5008.1
938.905	4929.23
939.213	4938.27
939.52	4864.83
939.827	4895.34
940.135	4899.18
940.442	4869.12
940.749	4836.36
941.056	4817.83
941.363	4734.89
941.67	4762.01
941.977	4735.12
942.284	4716.59
942.591	4759.3
942.898	4660.77
943.205	4700.54
943.511	4608.34
943.818	4645.4
944.125	4600.2
944.431	4562.69
944.738	4552.97
945.044	4574.67
945.35	4531.73
945.657	4522.01
945.963	4459.87
946.269	4489.47
946.575	4428.91
946.881	4439.08
947.187	4433.65
947.493	4377.16
947.799	4384.62
948.105	4396.82
948.41	4390.27
948.716	4338.52
949.022	4299.87
949.327	4289.25
949.633	4272.3
949.938	4242.47
950.244	4261.23
950.549	4232.76
950.854	4164.51
951.16	4200.21
951.465	4145.75
951.77	4138.07
952.075	4121.8
952.38	4081.57
952.685	4076.83
952.99	4041.35
953.294	4032.54
953.599	4020.33
953.904	4021.01
954.209	4007
954.513	3975.81
954.818	3986.21
955.122	3971.07
955.426	3907.34
955.731	3864.18
956.035	3904.85
956.339	3871.86
956.643	3862.14
956.948	3881.13
957.252	3873.67
957.556	3818.08
957.86	3776.27
958.163	3822.15
958.467	3799.1
958.771	3779.21
959.075	3766.33
959.378	3733.56
959.682	3724.75
959.985	3641.36
960.289	3669.15
960.592	3683.17
960.896	3650.85
961.199	3616.95
961.502	3598.65
961.805	3592.55
962.108	3575.82
962.411	3578.31
962.714	3539.67
963.017	3506.22
963.32	3541.02
963.623	3492.21
963.926	3491.98
964.228	3495.83
964.531	3425.09
964.833	3449.5
965.136	3424.19
965.438	3387.35
965.741	3391.87
966.043	3421.48
966.345	3357.52
966.648	3337.64
966.95	3335.83
967.252	3292.67
967.554	3314.36
967.856	3295.15
968.158	3256.96
968.46	3261.93
968.761	3239.34
969.063	3245.66
969.365	3235.27
969.666	3173.35
969.968	3185.33
970.269	3202.73
970.571	3190.75
970.872	3174.7
971.174	3121.6
971.475	3153.91
971.776	3174.48
972.077	3069.62
972.378	3117.08
972.679	3098.32
972.98	3029.17
973.281	3039.57
973.582	3023.97
973.883	2992.79
974.183	3000.47
974.484	2988.95
974.785	2984.43
975.085	2956.41
975.386	2955.73
975.686	2974.03
975.986	2928.38
976.287	2925.22
976.587	2900.14
976.887	2915.73
977.187	2901.04
977.487	2840.48
977.787	2810.19
978.087	2870.31
978.387	2800.7
978.687	2817.65
978.987	2823.3
979.286	2807.03
979.586	2789.4
979.885	2770.87
980.185	2762.74
980.484	2728.39
980.784	2736.07
981.083	2702.63
981.382	2679.12
981.682	2718.9
981.981	2717.09
982.28	2674.38
982.579	2665.79
982.878	2655.62
983.177	2641.16
983.475	2637.77
983.774	2639.8
984.073	2594.83
984.372	2618.56
984.67	2573.59
984.969	2578.11
985.267	2580.14
985.566	2584.89
985.864	2541.05
986.162	2536.3
986.461	2543.31
986.759	2504.89
987.057	2492.24
987.355	2472.8
987.653	2447.04
987.951	2441.16
988.249	2435.74
988.547	2454.27
988.844	2434.61
989.142	2439.58
989.44	2443.88
989.737	2381.28
990.035	2378.79
990.332	2372.47
990.63	2382.64
990.927	2350.55
991.224	2341.05
991.521	2367.49
991.819	2317.78
992.116	2320.94
992.413	2315.07
992.71	2286.14
993.006	2251.34
993.303	2290.66
993.6	2280.04
993.897	2266.25
994.193	2236.88
994.49	2236.88
994.787	2214.28
995.083	2205.24
995.379	2190.1
995.676	2184.22
995.972	2183.54
996.268	2179.93
996.565	2177.89
996.861	2127.95
997.157	2143.77
997.453	2133.15
997.749	2114.62
998.044	2123.66
998.34	2125.92
998.636	2046.82
998.932	2051.57
999.227	2011.8
999.523	2045.69
999.818	2033.94
1000.114	2045.02
1000.409	2041.63
1000.704	2009.54
1001	2008.86
1001.295	1967.5
1001.59	1980.16
1001.885	1994.4
1002.18	1953.27
1002.475	1931.8
1002.77	1929.31
1003.065	1921.86
1003.359	1915.98
1003.654	1897.9
1003.949	1896.55
1004.243	1884.57
1004.538	1862.87
1004.832	1857.68
1005.127	1862.65
1005.421	1823.1
1005.715	1852.03
1006.009	1825.36
1006.304	1829.66
1006.598	1793.72
1006.892	1798.47
1007.186	1798.02
1007.48	1755.53
1007.773	1750.56
1008.067	1758.24
1008.361	1746.04
1008.655	1728.19
1008.948	1735.19
1009.242	1716.21
1009.535	1681.18
1009.829	1684.12
1010.122	1680.28
1010.415	1675.08
1010.708	1674.86
1011.001	1658.59
1011.295	1627.17
1011.588	1634.18
1011.881	1624.46
1012.173	1607.06
1012.466	1576.33
1012.759	1620.62
1013.052	1609.1
1013.344	1600.28
1013.637	1574.29
1013.93	1582.2
1014.222	1545.37
1014.514	1540.4
1014.807	1557.12
1015.099	1525.26
1015.391	1530.45
1015.683	1526.39
1015.976	1508.31
1016.268	1492.94
1016.56	1506.73
1016.851	1488.65
1017.143	1465.6
1017.435	1459.04
1017.727	1453.62
1018.018	1440.06
1018.31	1430.34
1018.602	1442.09
1018.893	1415.2
1019.185	1374.75
1019.476	1404.58
1019.767	1398.03
1020.058	1374.3
1020.35	1385.15
1020.641	1377.92
1020.932	1369.1
1021.223	1339.05
1021.514	1360.74
1021.804	1310.35
1022.095	1308.09
1022.386	1318.71
1022.677	1281.87
1022.967	1290.69
1023.258	1281.65
1023.548	1276.68
1023.839	1265.83
1024.129	1250.91
1024.419	1271.7
1024.709	1235.55
1025	1242.78
1025.29	1238.03
1025.58	1228.09
1025.87	1224.47
1026.16	1198.71
1026.449	1225.83
1026.739	1221.31
1027.029	1159.16
1027.319	1156.45
1027.608	1187.86
1027.898	1189.22
1028.187	1161.2
1028.477	1158.71
1028.766	1128.66
1029.055	1153.97
1029.344	1164.14
1029.634	1103.8
1029.923	1131.14
1030.212	1118.26
1030.501	1126.85
1030.79	1084.36
1031.078	1085.72
1031.367	1062.67
1031.656	1073.29
1031.945	1059.73
1032.233	1051.6
1032.522	1032.39
1032.81	1046.4
1033.099	1030.13
1033.387	1026.29
1033.675	1048.88
1033.963	1000.3
1034.251	1008.21
1034.54	996
1034.828	1006.85
1035.116	976.34
1035.403	991.71
1035.691	955.55
1035.979	968.66
1036.267	964.82
1036.554	985.61
1036.842	963.24
1037.129	944.93
1037.417	949.23
1037.704	934.31
1037.992	923.24
1038.279	944.03
1038.566	929.11
1038.853	929.11
1039.14	929.11
