Data from hue_340_FLMS001491_34.txt Node
Date: Mon Feb 06 15:43:01 GMT 2017
User: dcchb
Spectrometer: FLMS00149
Trigger mode: 0
Integration Time (sec): 2.000000E-2
Scans to average: 10
Electric dark correction enabled: true
Nonlinearity correction enabled: false
Boxcar width: 0
XAxis mode: Wavelengths
Number of Pixels in Spectrum: 2048
>>>>>Begin Spectral Data<<<<<
341.393	-19.11
341.776	-19.11
342.16	-19.11
342.543	-53.69
342.927	-58.2
343.31	-77.64
343.693	-62.95
344.077	-64.08
344.46	-56.85
344.843	-48.26
345.226	-44.19
345.61	-36.28
345.993	-18.21
346.376	-5.55
346.759	6.65
347.142	32.64
347.525	55.92
347.908	42.13
348.291	68.8
348.674	92.07
349.057	115.8
349.44	135.91
349.823	159.19
350.206	147.21
350.588	188.79
350.971	219.98
351.354	229.47
351.737	205.74
352.119	262.01
352.502	250.49
352.884	250.94
353.267	261.11
353.65	296.14
354.032	306.31
354.414	310.37
354.797	307.66
355.179	320.54
355.562	317.15
355.944	303.37
356.326	323.48
356.709	316.93
357.091	342.24
357.473	335.46
357.855	333.42
358.238	340.2
358.62	337.49
359.002	318.73
359.384	332.97
359.766	335.01
360.148	351.5
360.53	321.45
360.912	330.71
361.294	317.38
361.676	331.39
362.057	334.1
362.439	322.58
362.821	323.25
363.203	335.23
363.584	312.63
363.966	320.99
364.348	318.96
364.729	312.18
365.111	308.11
365.493	331.84
365.874	310.83
366.256	300.88
366.637	322.58
367.019	314.44
367.4	317.15
367.781	307.89
368.163	311.28
368.544	296.36
368.925	303.14
369.306	304.95
369.688	298.62
370.069	303.82
370.45	290.94
370.831	299.98
371.212	289.81
371.593	316.7
371.974	323.25
372.355	283.03
372.736	318.28
373.117	304.27
373.498	325.29
373.879	306.31
374.26	312.86
374.641	299.75
375.021	320.32
375.402	328.23
375.783	331.39
376.163	308.57
376.544	302.92
376.925	317.83
377.305	313.08
377.686	309.24
378.066	293.42
378.447	317.6
378.827	337.27
379.208	320.54
379.588	329.58
379.968	316.47
380.349	324.84
380.729	306.08
381.109	328
381.489	313.31
381.87	344.72
382.25	332.97
382.63	345.85
383.01	320.77
383.39	330.94
383.77	338.62
384.15	320.54
384.53	325.97
384.91	335.91
385.29	343.14
385.67	347.66
386.049	347.21
386.429	333.65
386.809	336.81
387.189	338.62
387.568	343.59
387.948	336.14
388.328	327.77
388.707	332.07
389.087	344.04
389.466	358.28
389.846	337.04
390.225	358.28
390.605	353.99
390.984	346.76
391.363	362.12
391.743	359.19
392.122	355.8
392.501	355.12
392.881	357.6
393.26	357.6
393.639	348.56
394.018	373.87
394.397	342.24
394.776	360.32
395.155	360.77
395.534	343.14
395.913	369.35
396.292	370.03
396.671	390.6
397.05	370.03
397.429	360.99
397.808	346.08
398.186	365.74
398.565	385.4
398.944	369.58
399.323	364.16
399.701	375.91
400.08	361.9
400.458	362.58
400.837	393.08
401.215	363.25
401.594	372.97
401.972	377.26
402.351	382.01
402.729	400.09
403.107	386.53
403.486	396.02
403.864	392.4
404.242	397.83
404.62	386.3
404.999	387.43
405.377	417.04
405.755	405.06
406.133	416.59
406.511	407.55
406.889	405.51
407.267	419.97
407.645	437.38
408.023	423.14
408.401	429.47
408.779	431.95
409.156	416.36
409.534	450.71
409.912	435.34
410.29	424.49
410.667	436.92
411.045	451.61
411.422	435.12
411.8	456.58
412.178	448.45
412.555	466.98
412.933	454.1
413.31	466.53
413.687	488
414.065	460.88
414.442	475.34
414.819	477.83
415.197	461.1
415.574	499.75
415.951	491.39
416.328	481.89
416.705	494.55
417.082	497.71
417.46	517.6
417.837	512.18
418.214	512.4
418.591	496.36
418.967	518.73
419.344	506.75
419.721	526.41
420.098	523.7
420.475	534.32
420.852	560.31
421.228	542.68
421.605	550.59
421.982	534.55
422.358	553.76
422.735	572.51
423.111	562.57
423.488	584.72
423.864	595.34
424.241	570.03
424.617	606.18
424.994	594.66
425.37	572.74
425.746	590.82
426.123	582.68
426.499	619.52
426.875	583.13
427.251	623.13
427.627	623.59
428.003	624.94
428.379	617.94
428.756	631.95
429.132	651.83
429.507	663.13
429.883	634.21
430.259	665.84
430.635	632.62
431.011	669.23
431.387	671.72
431.763	697.71
432.138	689.57
432.514	702.23
432.89	702.23
433.265	697.26
433.641	726.86
434.016	699.74
434.392	730.25
434.767	746.52
435.143	735.9
435.518	729.35
435.894	740.42
436.269	763.24
436.644	778.16
437.02	783.58
437.395	763.69
437.77	757.14
438.145	791.94
438.52	801.89
438.895	807.99
439.271	827.42
439.646	789.68
440.021	823.58
440.395	805.05
440.77	809.34
441.145	821.77
441.52	852.51
441.895	842.34
442.27	846.86
442.645	828.55
443.019	850.92
443.394	845.27
443.769	877.82
444.143	837.36
444.518	875.78
444.892	854.31
445.267	868.55
445.641	878.72
446.016	853.18
446.39	852.73
446.764	908.32
447.139	889.34
447.513	892.05
447.887	890.02
448.262	880.75
448.636	898.38
449.01	890.24
449.384	893.18
449.758	923.92
450.132	929.34
450.506	942.22
450.88	927.98
451.254	938.83
451.628	934.99
452.002	932.5
452.376	940.19
452.75	952.16
453.123	970.92
453.497	970.02
453.871	972.95
454.244	1014.08
454.618	994.42
454.992	1022.67
455.365	1013.41
455.739	1001.2
456.112	1007.76
456.486	1051.37
456.859	1034.2
457.232	1051.14
457.606	1052.5
457.979	1057.02
458.352	1073.29
458.725	1079.17
459.099	1102.89
459.472	1101.09
459.845	1097.92
460.218	1129.11
460.591	1140.86
460.964	1127.3
461.337	1144.48
461.71	1142.67
462.083	1165.27
462.456	1169.56
462.829	1170.69
463.201	1187.41
463.574	1190.8
463.947	1213.63
464.32	1230.8
464.692	1240.29
465.065	1224.02
465.438	1249.78
465.81	1250.01
466.183	1289.78
466.555	1299.95
466.928	1309.89
467.3	1297.47
467.672	1319.61
468.045	1353.96
468.417	1328.43
468.789	1392.15
469.161	1371.81
469.534	1372.27
469.906	1407.97
470.278	1410.23
470.65	1433.06
471.022	1468.99
471.394	1494.3
471.766	1466.28
472.138	1499.72
472.51	1537.69
472.882	1519.38
473.253	1565.71
473.625	1583.79
473.997	1617.01
474.369	1624.69
474.74	1660.17
475.112	1643.67
475.484	1678.25
475.855	1691.58
476.227	1719.15
476.598	1755.31
476.97	1761.63
477.341	1764.35
477.713	1833.27
478.084	1834.17
478.455	1851.35
478.827	1874.63
479.198	1915.98
479.569	1910.56
479.94	1973.61
480.311	1979.26
480.682	2038.01
481.053	2049.54
481.424	2101.74
481.795	2122.08
482.166	2155.52
482.537	2133.6
482.908	2203.43
483.279	2241.85
483.65	2261.06
484.021	2269.19
484.391	2296.54
484.762	2341.96
485.133	2355.29
485.503	2393.71
485.874	2399.36
486.244	2450.88
486.615	2459.02
486.985	2500.6
487.356	2554.16
487.726	2595.28
488.097	2607.94
488.467	2642.74
488.837	2697.88
489.207	2725.45
489.578	2752.57
489.948	2757.99
490.318	2837.31
490.688	2833.24
491.058	2835.73
491.428	2910.76
491.798	2934.26
492.168	2965.22
492.538	2961.83
492.908	2999.34
493.278	3026.23
493.648	3071.2
494.017	3087.93
494.387	3133.8
494.757	3143.29
495.126	3172.44
495.496	3135.16
495.866	3178.55
496.235	3219.68
496.605	3229.39
496.974	3260.13
497.344	3303.97
497.713	3305.77
498.082	3307.13
498.452	3349.84
498.821	3352.1
499.19	3393.91
499.559	3422.61
499.928	3416.73
500.298	3445.21
500.667	3469.84
501.036	3483.85
501.405	3501.02
501.774	3525.88
502.143	3555.26
502.512	3509.61
502.88	3559.55
503.249	3570.17
503.618	3570.63
503.987	3631.19
504.356	3632.77
504.724	3655.37
505.093	3625.99
505.462	3691.98
505.83	3636.61
506.199	3720.68
506.567	3737.63
506.936	3739.89
507.304	3784.41
507.672	3777.63
508.041	3797.97
508.409	3808.59
508.777	3785.54
509.145	3857.4
509.514	3839.77
509.882	3875.7
510.25	3896.95
510.618	3910.96
510.986	3875.48
511.354	3957.06
511.722	3929.94
512.09	3986.21
512.458	3966.32
512.826	4012.87
513.193	3969.94
513.561	3970.16
513.929	4039.09
514.297	4067.11
514.664	4100.33
515.032	4049.48
515.4	4083.61
515.767	4119.09
516.135	4094.68
516.502	4078.41
516.869	4133.55
517.237	4124.51
517.604	4144.62
517.972	4176.94
518.339	4157.96
518.706	4186.43
519.073	4166.99
519.44	4194.79
519.808	4261.68
520.175	4236.37
520.542	4300.32
520.909	4272.75
521.276	4320.89
521.643	4340.1
522.009	4333.09
522.376	4338.06
522.743	4388.68
523.11	4392.3
523.477	4420.55
523.843	4451.73
524.21	4472.75
524.577	4515.91
524.943	4512.07
525.31	4530.15
525.676	4597.72
526.043	4572.18
526.409	4583.03
526.776	4645.63
527.142	4619.19
527.508	4666.42
527.874	4704.83
528.241	4687.66
528.607	4684.04
528.973	4818.28
529.339	4752.06
529.705	4810.37
530.071	4849.46
530.437	4834.77
530.803	4837.26
531.169	4926.07
531.535	4867.99
531.901	4880.65
532.267	4988.89
532.632	5006.52
532.998	5005.84
533.364	4994.77
533.73	5049.91
534.095	5069.34
534.461	5104.6
534.826	5107.76
535.192	5119.51
535.557	5114.31
535.923	5102.34
536.288	5189.34
536.653	5172.39
537.019	5189.11
537.384	5180.75
537.749	5274.76
538.114	5228.89
538.479	5249.23
538.845	5312.73
539.21	5294.2
539.575	5404.48
539.94	5306.63
540.305	5385.27
540.67	5365.61
541.034	5398.83
541.399	5432.27
541.764	5464.81
542.129	5461.42
542.494	5464.36
542.858	5511.37
543.223	5524.02
543.587	5555.43
543.952	5560.18
544.316	5601.99
544.681	5622.32
545.045	5670.01
545.41	5681.31
545.774	5692.83
546.138	5706.62
546.503	5735.32
546.867	5777.12
547.231	5810.34
547.595	5786.39
547.959	5883.56
548.324	5834.75
548.688	5872.94
549.052	5872.49
549.416	5873.39
549.779	5874.52
550.143	5934.18
550.507	5936.67
550.871	5936.67
551.235	6006.95
551.599	6002.88
551.962	6003.1
552.326	5979.38
552.689	6046.95
553.053	6046.49
553.417	6066.15
553.78	6164.46
554.143	6117.9
554.507	6126.72
554.87	6171.91
555.234	6249.65
555.597	6191.12
555.96	6236.55
556.323	6291.01
556.686	6274.06
557.05	6275.41
557.413	6314.74
557.776	6302.98
558.139	6335.07
558.502	6411.68
558.865	6368.97
559.228	6418.46
559.59	6426.82
559.953	6404
560.316	6517.89
560.679	6489.19
561.041	6527.38
561.404	6568.06
561.767	6541.85
562.129	6528.74
562.492	6611.9
562.854	6585.46
563.217	6593.6
563.579	6603.99
563.941	6684.67
564.304	6724.22
564.666	6725.57
565.028	6681.96
565.39	6710.2
565.753	6828.85
566.115	6792.24
566.477	6825.91
566.839	6869.52
567.201	6884.21
567.563	6942.06
567.925	6952.01
568.287	6945
568.648	7001.5
569.01	7057.54
569.372	7093.25
569.734	6955.17
570.095	7076.97
570.457	7166.92
570.819	7145.9
571.18	7225.9
571.542	7258.44
571.903	7204.66
572.265	7314.71
572.626	7363.97
572.987	7326.91
573.349	7366.68
573.71	7389.96
574.071	7500.47
574.432	7478.32
574.794	7575.49
575.155	7622.72
575.516	7649.16
575.877	7730.29
576.238	7690.97
576.599	7794.92
576.96	7940
577.32	7939.78
577.681	8029.94
578.042	8066.78
578.403	8109.26
578.763	8220.9
579.124	8319.65
579.485	8466.09
579.845	8503.38
580.206	8596.26
580.566	8673.09
580.927	8793.31
581.287	8963.48
581.648	8948.34
582.008	9188.56
582.368	9250.48
582.728	9405.28
583.089	9572.95
583.449	9654.53
583.809	9823.34
584.169	9982.66
584.529	10140.62
584.889	10231.24
585.249	10406.83
585.609	10598.24
585.969	10820.38
586.329	10903.32
586.688	11167.94
587.048	11340.59
587.408	11518.21
587.768	11762.05
588.127	11955.49
588.487	12143.51
588.846	12345.76
589.206	12578.53
589.565	12734.23
589.925	13047.67
590.284	13221.45
590.643	13516.58
591.003	13761.32
591.362	14054.42
591.721	14268.2
592.08	14595.65
592.44	14769.65
592.799	14999.7
593.158	15246.48
593.517	15629.29
593.876	15817.76
594.235	16106.12
594.593	16308.14
594.952	16628.81
595.311	16848.7
595.67	17095.92
596.029	17509.02
596.387	17797.82
596.746	18146.29
597.104	18290.47
597.463	18579.05
597.822	18897.23
598.18	19011.35
598.538	19296.31
598.897	19736.98
599.255	19789.41
599.613	20292.45
599.972	20405.89
600.33	20803.39
600.688	20913.67
601.046	21234.34
601.404	21661.45
601.762	21754.56
602.12	22161.32
602.478	22366.97
602.836	22574.65
603.194	22727.18
603.552	23038.14
603.91	23257.57
604.268	23549.76
604.625	23731.9
604.983	24078.11
605.341	24211.67
605.698	24486.01
606.056	24867.69
606.413	25016.39
606.771	25295.25
607.128	25548.58
607.485	25588.13
607.843	25844.84
608.2	26180.43
608.557	26446.18
608.914	26412.96
609.272	26786.06
609.629	27089.33
609.986	27423.56
610.343	27385.59
610.7	27660.61
611.057	27838.91
611.414	28042.75
611.771	28186.93
612.127	28476.19
612.484	28520.93
612.841	28841.6
613.198	28885.89
613.554	29080.24
613.911	29386.9
614.267	29641.13
614.624	29622.6
614.98	29763.61
615.337	30096.93
615.693	30099.65
616.05	30275.46
616.406	30500.31
616.762	30569.69
617.118	30654.66
617.475	30734.21
617.831	31093.97
618.187	31245.6
618.543	31305.49
618.899	31599.27
619.255	31658.02
619.611	31710.68
619.967	31901.63
620.323	31974.85
620.678	32008.97
621.034	32051.46
621.39	32219.14
621.746	32268.4
622.101	32705.23
622.457	32509.07
622.812	32751.1
623.168	32790.42
623.523	32925.56
623.879	32953.58
624.234	32934.6
624.589	33241.26
624.945	33085.33
625.3	33354.02
625.655	33451.42
626.01	33473.34
626.365	33636.73
626.72	33648.03
627.075	33703.85
627.43	33675.82
627.785	33605.99
628.14	33769.15
628.495	33848.7
628.85	33917.17
629.205	33699.33
629.559	33978.87
629.914	33942.03
630.269	33973.22
630.623	33968.47
630.978	33969.15
631.332	34078.52
631.687	34125.76
632.041	34191.29
632.396	34259.31
632.75	34131.4
633.104	34210.27
633.459	34041.69
633.813	34263.38
634.167	34103.83
634.521	34162.82
634.875	34372.08
635.229	34222.7
635.583	34030.39
635.937	34181.57
636.291	34188.8
636.645	34172.99
636.999	34164.85
637.352	34341.34
637.706	34132.99
638.06	34247.33
638.413	34270.38
638.767	34197.17
639.121	34233.32
639.474	34013.67
639.828	34052.31
640.181	34156.94
640.534	34181.12
640.888	34050.28
641.241	34082.14
641.594	34115.81
641.947	34204.62
642.301	34129.82
642.654	34374.11
643.007	34222.48
643.36	34132.53
643.713	34029.71
644.066	34148.35
644.419	33986.78
644.771	33691.87
645.124	33571.87
645.477	33502.72
645.83	33229.28
646.182	33223.63
646.535	33039.23
646.888	33166.23
647.24	32999.46
647.593	33186.34
647.945	33081.71
648.298	33020.02
648.65	32849.63
649.002	32766.92
649.355	33047.14
649.707	32916.52
650.059	33129.85
650.411	33472.44
650.763	33395.6
651.115	33912.88
651.467	33747.91
651.819	33752.43
652.171	33703.39
652.523	33663.62
652.875	33566
653.227	33549.05
653.578	33801.47
653.93	33915.82
654.282	33424.53
654.633	33448.03
654.985	33558.99
655.337	33417.75
655.688	33462.27
656.039	33702.94
656.391	33419.33
656.742	33596.73
657.094	33452.78
657.445	33635.37
657.796	33436.96
658.147	33511.53
658.498	33403.06
658.849	33566
659.2	33485.09
659.551	33429.5
659.902	33419.11
660.253	33437.64
660.604	33453
660.955	33318.77
661.306	33435.6
661.656	33322.61
662.007	33391.99
662.358	33351.99
662.708	33370.29
663.059	33305.89
663.409	33165.1
663.76	33450.74
664.11	33368.04
664.461	33262.28
664.811	33417.75
665.161	33299.11
665.511	33330.52
665.862	33420.69
666.212	33436.06
666.562	33372.55
666.912	33397.86
667.262	33258.21
667.612	33219.56
667.962	33223.18
668.312	33196.97
668.662	33422.04
669.011	33237.87
669.361	33266.34
669.711	33179.79
670.06	33041.04
670.41	33092.79
670.76	33084.65
671.109	33188.6
671.459	33081.71
671.808	32992
672.157	33140.92
672.507	32977.31
672.856	32977.99
673.205	33094.82
673.554	33208.49
673.904	33033.35
674.253	33211.88
674.602	33017.31
674.951	32618.68
675.3	32447.83
675.649	33020.02
675.998	32947.71
676.346	32936.18
676.695	33074.71
677.044	32738
677.393	32983.64
677.741	32786.81
678.09	32842.17
678.438	32793.13
678.787	32797.65
679.135	32783.19
679.484	32650.54
679.832	32729.41
680.181	32429.98
680.529	32682.18
680.877	32462.07
681.225	32517.44
681.573	32641.27
681.922	32390.21
682.27	32298.46
682.618	32288.74
682.966	32289.65
683.314	32279.02
683.661	32224.79
684.009	31978.69
684.357	32033.15
684.705	31929.2
685.053	32027.73
685.4	32019.6
685.748	31939.37
686.095	31912.71
686.443	31794.07
686.79	31720.62
687.138	31709.77
687.485	31786.38
687.832	31591.36
688.18	31634.07
688.527	31472.94
688.874	31376.22
689.221	31356.79
689.568	31272.95
689.915	31217.58
690.262	31315.43
690.609	31138.49
690.956	31164.03
691.303	30990.7
691.65	30919.06
691.997	30891.94
692.344	30731.95
692.69	30709.57
693.037	30706.64
693.383	30413.99
693.73	30582.57
694.077	30367.21
694.423	30448.11
694.769	30193.66
695.116	30165.18
695.462	30079.76
695.808	30051.96
696.155	30057.84
696.501	29914.34
696.847	29915.47
697.193	29661.01
697.539	29756.6
697.885	29591.41
698.231	29456.73
698.577	29547.57
698.923	29354.58
699.269	29356.39
699.614	29150.07
699.96	29138.99
700.306	29140.8
700.651	28965.66
700.997	28786.91
701.342	28843.63
701.688	28835.95
702.033	28850.19
702.379	28679.34
702.724	28755.95
703.069	28601.38
703.415	28344.89
703.76	28367.49
704.105	28388.96
704.45	28328.39
704.795	28184.67
705.14	28109.64
705.485	28091.11
705.83	28009.76
706.175	27989.19
706.52	27899.93
706.865	27904
707.209	27694.51
707.554	27692.03
707.899	27749.43
708.243	27657.22
708.588	27585.81
708.932	27404.8
709.277	27352.6
709.621	27372.03
709.966	27155.32
710.31	27295.65
710.654	26906.28
710.998	27101.31
711.342	27006.62
711.687	27020.41
712.031	26830.81
712.375	26783.35
712.719	26785.38
713.063	26772.28
713.407	26778.6
713.75	26660.87
714.094	26671.49
714.438	26372.74
714.782	26524.15
715.125	26418.39
715.469	26427.88
715.812	26255.45
716.156	26209.58
716.499	26179.52
716.843	26308.56
717.186	26098.85
717.53	26234.44
717.873	26219.52
718.216	26153.76
718.559	25994.67
718.902	25925.52
719.246	25828.8
719.589	25917.38
719.932	25774.34
720.275	25758.07
720.617	25720.78
720.96	25662.02
721.303	25662.47
721.646	25706.99
721.989	25547.45
722.331	25663.38
722.674	25485.53
723.016	25482.37
723.359	25366.44
723.701	25376.61
724.044	25249.38
724.386	25106.11
724.729	25101.36
725.071	25151.75
725.413	25216.61
725.755	25135.94
726.097	25006.67
726.439	24881.93
726.782	24801.25
727.124	24946.79
727.465	24837.19
727.807	24801.03
728.149	24824.76
728.491	24708.38
728.833	24763.52
729.175	24653.69
729.516	24534.37
729.858	24573.01
730.199	24529.17
730.541	24448.27
730.882	24520.13
731.224	24528.27
731.565	24335.05
731.906	24427.48
732.248	24400.81
732.589	24255.28
732.93	24247.82
733.271	24144.32
733.612	24260.7
733.953	24160.59
734.294	24146.13
734.635	23980.26
734.976	24119.69
735.317	24045.79
735.658	24023.42
735.999	24039.69
736.339	23992.69
736.68	24050.31
737.021	23914.05
737.361	23846.48
737.702	23935.51
738.042	23787.27
738.383	23839.47
738.723	23823.65
739.063	23728.06
739.404	23771.68
739.744	23630.66
740.084	23532.81
740.424	23593.38
740.764	23519.71
741.104	23728.74
741.444	23371.69
741.784	23357.68
742.124	23407.62
742.464	23484.91
742.804	23472.93
743.143	23334.85
743.483	23279.49
743.823	23229.54
744.162	23201.07
744.502	23299.83
744.841	23193.84
745.181	23251.01
745.52	23069.55
745.86	23154.52
746.199	23007.18
746.538	23019.15
746.877	22970.34
747.216	23093.73
747.556	22980.74
747.895	22992.71
748.234	22876.56
748.573	22873.4
748.911	22824.13
749.25	22794.3
749.589	22616.23
749.928	22764.92
750.267	22688.77
750.605	22713.63
750.944	22560.64
751.283	22625.72
751.621	22652.61
751.96	22460.07
752.298	22465.95
752.636	22430.92
752.975	22315.22
753.313	22226.86
753.651	22372.17
753.989	22176.92
754.327	22205.84
754.666	22086.98
755.004	22065.96
755.342	22079.74
755.679	22098.73
756.017	21871.39
756.355	21978.28
756.693	21771.28
757.031	21813.31
757.368	21676.37
757.706	21779.64
758.044	21677.04
758.381	21659.64
758.719	21649.02
759.056	21557.95
759.394	21509.36
759.731	21332.19
760.068	21451.51
760.405	21298.75
760.743	21193.67
761.08	21248.35
761.417	21046.78
761.754	21045.2
762.091	20992.54
762.428	20963.84
762.765	20844.3
763.102	20898.08
763.438	20760
763.775	20632.1
764.112	20649.27
764.449	20634.36
764.785	20640.01
765.122	20445.44
765.458	20369.51
765.795	20385.55
766.131	20287.02
766.467	20240.7
766.804	20216.29
767.14	20036.63
767.476	20163.86
767.812	19987.37
768.148	20019.69
768.485	19869.63
768.821	19753.48
769.157	19715.96
769.492	19792.12
769.828	19647.27
770.164	19461.51
770.5	19444.56
770.836	19421.51
771.171	19299.7
771.507	19258.12
771.842	19203.21
772.178	19199.82
772.513	19056.77
772.849	18983.55
773.184	19000.73
773.519	19052.48
773.855	18883.22
774.19	18811.13
774.525	18725.03
774.86	18710.12
775.195	18639.83
775.53	18550.8
775.865	18457.47
776.2	18442.78
776.535	18231.03
776.87	18267.87
777.205	18216.12
777.539	18064.71
777.874	18088.66
778.209	17932.06
778.543	17920.98
778.878	17740.42
779.212	17751.95
779.547	17639.86
779.881	17695.68
780.215	17601.9
780.55	17596.25
780.884	17451.62
781.218	17334.33
781.552	17458.4
781.886	17317.84
782.22	17203.71
782.554	17160.33
782.888	17058.41
783.222	16968.24
783.556	16936.15
783.889	16937.28
784.223	16718.98
784.557	16700.45
784.89	16752.65
785.224	16671.07
785.557	16563.51
785.891	16454.36
786.224	16489.38
786.558	16500.23
786.891	16325.09
787.224	16260.46
787.557	16168.71
787.891	16292.33
788.224	16202.61
788.557	16130.75
788.89	16037.19
789.223	16081.48
789.556	15862.28
789.888	15805.11
790.221	15816.18
790.554	15720.36
790.887	15738.44
791.219	15727.59
791.552	15509.52
791.884	15538
792.217	15499.58
792.549	15457.32
792.882	15360.6
793.214	15275.63
793.546	15368.73
793.879	15228.17
794.211	15171.23
794.543	15202.64
794.875	15073.83
795.207	15096.88
795.539	15023.43
795.871	15007.16
796.203	14860.5
796.535	14736.89
796.867	14808.3
797.198	14777.79
797.53	14715.19
797.862	14634.29
798.193	14691.92
798.525	14511.81
798.856	14556.78
799.188	14428.42
799.519	14352.94
799.85	14205.6
800.182	14295.54
800.513	14310.91
800.844	14128.09
801.175	14219.39
801.506	14218.93
801.837	14148.2
802.168	14080.41
802.499	13999.96
802.83	13941.2
803.161	13914.54
803.491	13899.85
803.822	13839.73
804.153	13823.01
804.483	13783.24
804.814	13689.23
805.145	13606.07
805.475	13616.46
805.805	13641.77
806.136	13541.21
806.466	13591.61
806.796	13498.73
807.126	13368.79
807.457	13454.66
807.787	13386.41
808.117	13298.51
808.447	13295.34
808.777	13292.18
809.107	13249.69
809.436	13214.44
809.766	13178.74
810.096	13155.91
810.426	13114.78
810.755	13043.15
811.085	13106.42
811.414	13017.38
811.744	12853.55
812.073	12919.08
812.403	12824.62
812.732	12791.17
813.061	12809.25
813.39	12721.35
813.719	12710.27
814.049	12747.11
814.378	12705.98
814.707	12689.48
815.036	12621.46
815.365	12585.76
815.693	12409.49
816.022	12461.47
816.351	12504.18
816.68	12424.18
817.008	12457.62
817.337	12315.48
817.665	12334.92
817.994	12274.13
818.322	12338.08
818.651	12226.44
818.979	12200.68
819.307	12272.54
819.636	12191.64
819.964	12071.19
820.292	12199.1
820.62	12104.87
820.948	12057.63
821.276	12060.12
821.604	12028.71
821.932	12055.83
822.259	12045.43
822.587	12009.73
822.915	12028.48
823.243	12068.48
823.57	12010.86
823.898	11955.26
824.225	11958.88
824.553	11981.48
824.88	12018.99
825.207	12061.7
825.535	12029.61
825.862	11976.73
826.189	11925.89
826.516	12072.55
826.843	12049.95
827.17	12079.56
827.497	12056.96
827.824	12058.99
828.151	12029.61
828.478	12067.8
828.805	11992.78
829.131	11940.12
829.458	11971.99
829.785	11958.2
830.111	11992.78
830.438	11924.31
830.764	11927.24
831.09	11927.92
831.417	11880.69
831.743	11986.68
832.069	11952.33
832.395	11892.44
832.722	12010.86
833.048	11842.73
833.374	11910.97
833.7	11875.04
834.026	11835.27
834.351	11860.58
834.677	11882.05
835.003	11886.79
835.329	11878.43
835.654	11762.95
835.98	11804.31
836.306	11795.95
836.631	11793.69
836.956	11789.39
837.282	11791.2
837.607	11773.57
837.932	11697.19
838.258	11647.93
838.583	11656.52
838.908	11569.29
839.233	11653.13
839.558	11583.98
839.883	11554.37
840.208	11503.3
840.533	11550.98
840.858	11553.47
841.182	11550.76
841.507	11491.55
841.832	11410.19
842.156	11334.04
842.481	11393.02
842.805	11393.47
843.13	11370.87
843.454	11300.37
843.778	11294.27
844.103	11257.2
844.427	11251.55
844.751	11236.19
845.075	11181.27
845.399	11158.22
845.723	11027.15
846.047	11152.8
846.371	11032.35
846.695	11051.33
847.019	10850.89
847.343	10915.29
847.666	10798.91
847.99	10782.19
848.313	10699.48
848.637	10656.32
848.96	10681.4
849.284	10682.53
849.607	10581.06
849.931	10545.81
850.254	10504
850.577	10416.55
850.9	10353.05
851.223	10358.92
851.546	10335.65
851.869	10226.04
852.192	10323.44
852.515	10207.06
852.838	10240.06
853.161	10132.71
853.483	10087.74
853.806	10021.3
854.129	10086.61
854.451	9981.31
854.774	9967.52
855.096	9951.48
855.419	9889.33
855.741	9828.77
856.063	9852.04
856.385	9780.86
856.708	9820.18
857.03	9732.27
857.352	9746.74
857.674	9656.34
857.996	9637.59
858.318	9683.01
858.64	9641.43
858.961	9570.47
859.283	9584.71
859.605	9538.15
859.926	9494.54
860.248	9470.58
860.57	9465.61
860.891	9460.64
861.212	9411.38
861.534	9479.4
861.855	9385.61
862.176	9372.51
862.498	9342.45
862.819	9369.34
863.14	9314.66
863.461	9293.87
863.782	9287.09
864.103	9320.08
864.424	9229.01
864.745	9220.42
865.065	9121.89
865.386	9138.84
865.707	9110.37
866.027	9176.58
866.348	9197.82
866.668	9144.49
866.989	9070.14
867.309	8997.6
867.63	9017.94
867.95	9025.4
868.27	9018.62
868.59	9006.64
868.91	8968.45
869.23	8953.99
869.55	9003.25
869.87	8951.73
870.19	8920.54
870.51	8927.1
870.83	8904.27
871.15	8856.36
871.469	8814.56
871.789	8884.61
872.109	8837.15
872.428	8801.9
872.748	8858.85
873.067	8827.44
873.386	8804.61
873.706	8774.78
874.025	8761.68
874.344	8716.71
874.663	8689.59
874.982	8728.91
875.301	8665.41
875.62	8661.57
875.939	8674.22
876.258	8666.54
876.577	8592.19
876.896	8601
877.214	8555.35
877.533	8598.97
877.852	8545.86
878.17	8621.34
878.489	8535.02
878.807	8517.16
879.125	8521.23
879.444	8548.57
879.762	8525.52
880.08	8447.11
880.398	8481.23
880.716	8460.89
881.034	8406.88
881.352	8430.84
881.67	8406.43
881.988	8390.61
882.306	8449.82
882.624	8360.56
882.941	8317.62
883.259	8199.88
883.577	8288.47
883.894	8255.25
884.212	8208.24
884.529	8273.33
884.846	8215.93
885.164	8158.08
885.481	8170.51
885.798	8204.85
886.115	8115.37
886.432	8118.3
886.75	8100.9
887.067	8059.1
887.383	8056.38
887.7	7995.82
888.017	8010.28
888.334	8037.18
888.651	7969.83
888.967	7954.24
889.284	7921.25
889.6	7898.42
889.917	7869.95
890.233	7905.88
890.55	7810.74
890.866	7796.05
891.182	7801.7
891.498	7809.39
891.815	7734.58
892.131	7737.75
892.447	7717.64
892.763	7685.55
893.079	7658.43
893.395	7610.97
893.71	7633.34
894.026	7634.47
894.342	7619.33
894.657	7494.82
894.973	7557.41
895.289	7512.44
895.604	7504.31
895.92	7416.85
896.235	7418.89
896.55	7412.79
896.865	7294.14
897.181	7340.92
897.496	7388.83
897.811	7320.36
898.126	7287.82
898.441	7257.76
898.756	7225.67
899.071	7186.58
899.386	7247.37
899.7	7158.1
900.015	7115.17
900.33	7032.68
900.644	7072.23
900.959	7074.26
901.273	7067.26
901.588	6978.67
901.902	6975.51
902.216	6904.55
902.531	6960.82
902.845	6932.35
903.159	6947.71
903.473	6806.47
903.787	6824.55
904.101	6749.98
904.415	6815.74
904.729	6814.83
905.042	6701.62
905.356	6682.41
905.67	6728.74
905.984	6683.31
906.297	6595.63
906.611	6608.06
906.924	6610.55
907.237	6590.21
907.551	6597.89
907.864	6514.5
908.177	6543.88
908.491	6455.52
908.804	6440.83
909.117	6423.88
909.43	6349.08
909.743	6344.11
910.056	6351.8
910.368	6295.75
910.681	6326.49
910.994	6293.94
911.307	6237.45
911.619	6131.24
911.932	6235.42
912.244	6164.46
912.557	6110.45
912.869	6098.7
913.181	6095.76
913.494	6082.2
913.806	6017.12
914.118	5989.55
914.43	5954.07
914.742	6038.13
915.054	5964.01
915.366	5910.9
915.678	5887.85
915.99	5912.94
916.302	5881.3
916.613	5787.07
916.925	5814.86
917.236	5834.07
917.548	5759.04
917.859	5735.54
918.171	5687.63
918.482	5709.33
918.794	5684.24
919.105	5672.04
919.416	5619.84
919.727	5583.45
920.038	5573.74
920.349	5601.53
920.66	5519.28
920.971	5561.53
921.282	5514.3
921.593	5469.56
921.903	5366.51
922.214	5400.86
922.525	5403.12
922.835	5369.45
923.146	5351.6
923.456	5349.56
923.767	5309.79
924.077	5263.92
924.387	5248.77
924.697	5235.89
925.008	5239.74
925.318	5191.83
925.628	5164.93
925.938	5169.45
926.248	5091.49
926.558	5089.68
926.867	5080.87
927.177	5051.49
927.487	5025.96
927.796	4977.6
928.106	5006.07
928.416	4934.66
928.725	4988.67
929.034	4928.33
929.344	5004.26
929.653	4897.37
929.962	4897.15
930.271	4830.48
930.581	4801.33
930.89	4809.92
931.199	4753.87
931.508	4750.93
931.817	4790.71
932.125	4752.97
932.434	4677.94
932.743	4693.99
933.051	4705.96
933.36	4614.44
933.669	4629.58
933.977	4623.48
934.286	4578.06
934.594	4619.86
934.902	4527.21
935.21	4499.42
935.519	4520.43
935.827	4507.55
936.135	4483.14
936.443	4460.09
936.751	4477.72
937.059	4413.32
937.367	4387.1
937.674	4403.6
937.982	4343.26
938.29	4383.49
938.597	4345.07
938.905	4311.85
939.213	4341.91
939.52	4282.92
939.827	4322.7
940.135	4220.78
940.442	4204.06
940.749	4218.97
941.056	4226.2
941.363	4152.98
941.67	4122.48
941.977	4128.35
942.284	4156.83
942.591	4113.21
942.898	4127
943.205	4065.75
943.511	4043.38
943.818	4058.98
944.125	4011.97
944.431	4020.78
944.738	3990.05
945.044	3948.92
945.35	3957.73
945.657	3934.23
945.963	3900.56
946.269	3845.65
946.575	3877.06
946.881	3875.25
947.187	3865.08
947.493	3803.16
947.799	3850.85
948.105	3805.65
948.41	3756.16
948.716	3806.33
949.022	3737.18
949.327	3731.3
949.633	3669.15
949.938	3674.35
950.244	3685.2
950.549	3637.74
950.854	3642.49
951.16	3604.98
951.465	3625.09
951.77	3668.93
952.075	3564.98
952.38	3601.59
952.685	3588.71
952.99	3578.76
953.294	3510.29
953.599	3532.66
953.904	3550.29
954.209	3472.78
954.513	3454.02
954.818	3441.59
955.122	3435.04
955.426	3466
955.731	3428.48
956.035	3373.57
956.339	3347.58
956.643	3395.72
956.948	3372.21
957.252	3318.2
957.556	3344.42
957.86	3279.33
958.163	3293.12
958.467	3298.32
958.771	3265.32
959.075	3230.3
959.378	3211.99
959.682	3232.33
959.985	3212.67
960.289	3197.75
960.592	3171.99
960.896	3160.24
961.199	3163.41
961.502	3138.77
961.805	3147.81
962.108	3139.23
962.411	3119.11
962.714	3111.43
963.017	3071.66
963.32	3092.67
963.623	3071.2
963.926	3051.77
964.228	3038.89
964.531	3022.62
964.833	3074.14
965.136	3016.06
965.438	2963.18
965.741	2977.65
966.043	2976.74
966.345	2932.45
966.648	2929.29
966.95	2931.32
967.252	2875.28
967.554	2869.63
967.856	2859.23
968.158	2869.4
968.46	2870.31
968.761	2830.98
969.063	2857.2
969.365	2812
969.666	2790.31
969.968	2783.53
970.269	2784.66
970.571	2781.95
970.872	2746.69
971.174	2735.62
971.475	2751.89
971.776	2715.73
972.077	2679.58
972.378	2689.97
972.679	2664.44
972.98	2673.93
973.281	2657.2
973.582	2658.33
973.883	2667.37
974.183	2664.89
974.484	2624.89
974.785	2609.3
975.085	2631.22
975.386	2600.93
975.686	2579.01
975.986	2547.83
976.287	2533.37
976.587	2528.39
976.887	2490.65
977.187	2544.89
977.487	2502.41
977.787	2527.72
978.087	2476.19
978.387	2480.26
978.687	2450.66
978.987	2455.18
979.286	2452.24
979.586	2459.47
979.885	2437.77
980.185	2402.07
980.484	2393.03
980.784	2390.54
981.083	2376.08
981.382	2372.24
981.682	2363.2
981.981	2344.9
982.28	2345.35
982.579	2334.73
982.878	2314.84
983.177	2321.39
983.475	2285.01
983.774	2296.31
984.073	2282.3
984.372	2271.68
984.67	2255.41
984.969	2248.63
985.267	2285.46
985.566	2263.77
985.864	2226.48
986.162	2247.95
986.461	2195.97
986.759	2207.5
987.057	2167.73
987.355	2143.55
987.653	2165.24
987.951	2145.58
988.249	2161.17
988.547	2126.14
988.844	2134.51
989.142	2163.66
989.44	2104.68
989.737	2110.78
990.035	2122.53
990.332	2072.36
990.63	2087.95
990.927	2053.15
991.224	2080.27
991.521	2025.13
991.819	2033.27
992.116	2047.73
992.413	2060.61
992.71	2010.44
993.006	2022.64
993.303	1995.53
993.6	1992.59
993.897	1982.87
994.193	1950.56
994.49	1964.79
994.787	1978.8
995.083	1941.52
995.379	1913.49
995.676	1908.98
995.972	1906.26
996.268	1906.72
996.565	1878.47
996.861	1885.02
997.157	1903.55
997.453	1862.87
997.749	1844.8
998.044	1850.45
998.34	1857.68
998.636	1841.86
998.932	1825.36
999.227	1815.87
999.523	1815.87
999.818	1785.36
1000.114	1770.22
1000.409	1756.44
1000.704	1747.17
1001	1766.15
1001.295	1778.13
1001.59	1726.61
1001.885	1739.94
1002.18	1719.15
1002.475	1695.42
1002.77	1690.9
1003.065	1695.2
1003.359	1695.87
1003.654	1714.86
1003.949	1681.64
1004.243	1662.43
1004.538	1671.24
1004.832	1671.69
1005.127	1626.04
1005.421	1666.27
1005.715	1624.69
1006.009	1603.9
1006.304	1645.93
1006.598	1606.84
1006.892	1588.98
1007.186	1607.97
1007.48	1577.91
1007.773	1566.61
1008.067	1543.34
1008.361	1577.91
1008.655	1523.45
1008.948	1494.3
1009.242	1542.88
1009.535	1531.81
1009.829	1504.24
1010.122	1519.61
1010.415	1487.97
1010.708	1485.71
1011.001	1451.13
1011.295	1466.28
1011.588	1450.23
1011.881	1449.55
1012.173	1442.32
1012.466	1429.67
1012.759	1414.75
1013.052	1402.32
1013.344	1406.16
1013.637	1411.14
1013.93	1375.88
1014.222	1354.41
1014.514	1376.33
1014.807	1370.46
1015.099	1371.59
1015.391	1357.58
1015.683	1381.53
1015.976	1359.39
1016.268	1338.82
1016.56	1343.11
1016.851	1312.61
1017.143	1314.87
1017.435	1303.34
1017.727	1318.03
1018.018	1283.45
1018.31	1279.39
1018.602	1254.76
1018.893	1246.39
1019.185	1260.63
1019.476	1253.63
1019.767	1260.18
1020.058	1247.52
1020.35	1245.94
1020.641	1207.07
1020.932	1217.69
1021.223	1201.88
1021.514	1195.1
1021.804	1161.88
1022.095	1173.18
1022.386	1174.76
1022.677	1186.73
1022.967	1160.75
1023.258	1158.71
1023.548	1132.72
1023.839	1143.57
1024.129	1141.76
1024.419	1138.83
1024.709	1100.18
1025	1118.71
1025.29	1117.81
1025.58	1090.47
1025.87	1091.82
1026.16	1091.37
1026.449	1092.95
1026.739	1055.89
1027.029	1070.58
1027.319	1047.3
1027.608	1050.24
1027.898	1052.05
1028.187	1029.9
1028.477	1033.97
1028.766	1002.56
1029.055	1009.79
1029.344	1019.06
1029.634	996.46
1029.923	1017.25
1030.212	989.45
1030.501	1004.14
1030.79	993.75
1031.078	984.48
1031.367	966.4
1031.656	964.37
1031.945	946.74
1032.233	960.75
1032.522	947.64
1032.81	932.28
1033.099	949
1033.387	941.54
1033.675	910.36
1033.963	907.42
1034.251	903.13
1034.54	909.23
1034.828	870.58
1035.116	893.86
1035.403	904.26
1035.691	887.31
1035.979	873.07
1036.267	875.78
1036.554	866.29
1036.842	859.29
1037.129	873.75
1037.417	868.32
1037.704	859.06
1037.992	844.82
1038.279	831.04
1038.566	850.02
1038.853	850.02
1039.14	850.02
