Data from hue_230_FLMS001491_00032.txt Node
Date: Tue Feb 07 16:37:08 GMT 2017
User: dcchb
Spectrometer: FLMS00149
Trigger mode: 0
Integration Time (sec): 2.000000E-2
Scans to average: 10
Electric dark correction enabled: true
Nonlinearity correction enabled: false
Boxcar width: 0
XAxis mode: Wavelengths
Number of Pixels in Spectrum: 2048
>>>>>Begin Spectral Data<<<<<
341.393	4
341.776	4
342.16	4
342.543	-36.23
342.927	-73.74
343.31	-56.11
343.693	-80.29
344.077	-67.19
344.46	-71.26
344.843	-59.5
345.226	-35.1
345.61	-29.45
345.993	-33.06
346.376	-13.86
346.759	9.87
347.142	33.37
347.525	54.84
347.908	55.52
348.291	69.76
348.674	99.59
349.057	122.86
349.44	129.42
349.823	142.98
350.206	157.67
350.588	187.95
350.971	227.95
351.354	220.71
351.737	255.06
352.119	243.54
352.502	263.88
352.884	277.89
353.267	291.22
353.65	288.51
354.032	285.12
354.414	297.77
354.797	285.8
355.179	327.38
355.562	328.73
355.944	326.93
356.326	327.83
356.709	333.93
357.091	314.72
357.473	321.5
357.855	318.34
358.238	331.9
358.62	354.95
359.002	341.62
359.384	352.69
359.766	341.62
360.148	332.58
360.53	356.08
360.912	333.03
361.294	321.28
361.676	335.74
362.057	336.19
362.439	331.9
362.821	325.8
363.203	326.93
363.584	305.46
363.966	338
364.348	306.14
364.729	317.89
365.111	298.68
365.493	318.79
365.874	327.83
366.256	304.1
366.637	325.12
367.019	292.13
367.4	323.99
367.781	314.27
368.163	308.62
368.544	318.79
368.925	296.42
369.306	314.27
369.688	309.3
370.069	307.49
370.45	313.37
370.831	308.62
371.212	314.72
371.593	299.58
371.974	319.47
372.355	316.98
372.736	338.68
373.117	305.46
373.498	314.72
373.879	309.75
374.26	300.71
374.641	329.64
375.021	318.34
375.402	292.13
375.783	314.27
376.163	323.31
376.544	309.98
376.925	325.34
377.305	316.31
377.686	330.32
378.066	322.41
378.447	323.99
378.827	338.23
379.208	324.44
379.588	320.6
379.968	328.06
380.349	343.2
380.729	327.83
381.109	350.65
381.489	327.38
381.87	341.84
382.25	332.35
382.63	371.9
383.01	342.75
383.39	353.59
383.77	328.73
384.15	356.76
384.53	356.3
384.91	350.2
385.29	381.39
385.67	365.12
386.049	362.18
386.429	353.82
386.809	347.26
387.189	356.08
387.568	347.49
387.948	361.05
388.328	353.82
388.707	356.08
389.087	352.69
389.466	365.34
389.846	367.15
390.225	357.66
390.605	373.25
390.984	364.67
391.363	356.76
391.743	376.64
392.122	370.09
392.501	367.6
392.881	374.83
393.26	368.73
393.639	365.57
394.018	378.22
394.397	375.06
394.776	398.34
395.155	394.04
395.534	377.32
395.913	387.94
396.292	385.91
396.671	415.51
397.05	367.6
397.429	388.62
397.808	398.11
398.186	394.5
398.565	392.46
398.944	401.27
399.323	393.59
399.701	397.89
400.08	437.43
400.458	390.65
400.837	394.27
401.215	398.34
401.594	404.66
401.972	408.51
402.351	419.81
402.729	420.48
403.107	429.75
403.486	439.01
403.864	438.11
404.242	445.79
404.62	425
404.999	424.78
405.377	437.21
405.755	433.59
406.133	440.6
406.511	451.89
406.889	467.26
407.267	466.13
407.645	477.88
408.023	472.91
408.401	468.39
408.779	481.27
409.156	485.11
409.534	497.09
409.912	496.87
410.29	506.58
410.667	515.62
411.045	506.81
411.422	513.59
411.8	509.29
412.178	547.49
412.555	557.2
412.933	561.5
413.31	532.34
413.687	554.27
414.065	544.32
414.442	575.51
414.819	562.17
415.197	583.42
415.574	610.99
415.951	626.35
416.328	610.53
416.705	602.17
417.082	608.27
417.46	610.76
417.837	656.64
418.214	645.34
418.591	627.26
418.967	639.23
419.344	663.19
419.721	661.61
420.098	663.64
420.475	696.63
420.852	693.24
421.228	696.41
421.605	708.61
421.982	717.2
422.358	740.47
422.735	761.04
423.111	738.89
423.488	760.59
423.864	778.21
424.241	782.96
424.617	809.17
424.994	796.29
425.37	820.47
425.746	818.44
426.123	844.2
426.499	814.15
426.875	858.66
427.251	865.9
427.627	879
428.003	874.71
428.379	885.1
428.756	901.83
429.132	919
429.507	932.79
429.883	925.55
430.259	934.82
430.635	944.99
431.011	956.97
431.387	965.55
431.763	999.23
432.138	994.03
432.514	1028.6
432.89	1034.93
433.265	1046
433.641	1046.46
434.016	1069.73
434.392	1089.39
434.767	1107.02
435.143	1103.86
435.518	1126
435.894	1137.98
436.269	1166.45
436.644	1194.02
437.02	1172.78
437.395	1210.52
437.77	1229.28
438.145	1264.53
438.52	1258.43
438.895	1288.71
439.271	1302.04
439.646	1294.58
440.021	1350.63
440.395	1355.15
440.77	1355.83
441.145	1360.12
441.52	1386.33
441.895	1396.5
442.27	1390.4
442.645	1426.56
443.019	1444.19
443.394	1456.16
443.769	1455.48
444.143	1471.98
444.518	1496.39
444.892	1478.76
445.267	1507.46
445.641	1514.47
446.016	1510.17
446.39	1530.06
446.764	1558.08
447.139	1561.92
447.513	1583.39
447.887	1588.36
448.262	1555.37
448.636	1567.35
449.01	1631.07
449.384	1595.59
449.758	1639.43
450.132	1628.59
450.506	1623.62
450.88	1671.07
451.254	1674.01
451.628	1710.62
452.002	1699.55
452.376	1730.51
452.75	1743.39
453.123	1762.59
453.497	1724.18
453.871	1787.23
454.244	1810.5
454.618	1839.66
454.992	1834.46
455.365	1830.84
455.739	1910.16
456.112	1911.97
456.486	1888.24
456.859	1950.61
457.232	1956.49
457.606	1951.29
457.979	1994.91
458.352	2014.34
458.725	2050.72
459.099	2039.88
459.472	2092.98
459.845	2098.41
460.218	2126.2
460.591	2146.09
460.964	2172.53
461.337	2207.33
461.71	2190.38
462.083	2276.71
462.456	2264.95
462.829	2258.4
463.201	2293.65
463.574	2284.39
463.947	2357.16
464.32	2403.03
464.692	2398.28
465.065	2418.4
465.438	2458.62
465.81	2510.6
466.183	2492.29
466.555	2524.38
466.928	2532.07
467.3	2542.24
467.672	2636.47
468.045	2675.11
468.417	2641.89
468.789	2693.64
469.161	2718.73
469.534	2750.59
469.906	2786.97
470.278	2796.24
470.65	2825.17
471.022	2873.07
471.394	2949
471.766	2957.82
472.138	3021.77
472.51	3045.5
472.882	3059.06
473.253	3085.95
473.625	3139.06
473.997	3239.62
474.369	3217.47
474.74	3236.45
475.112	3292.95
475.484	3336.34
475.855	3388.54
476.227	3405.04
476.598	3485.04
476.97	3502.21
477.341	3576.33
477.713	3626.5
478.084	3629.66
478.455	3727.29
478.827	3756.44
479.198	3836.66
479.569	3834.63
479.94	3954.18
480.311	3971.12
480.682	4025.59
481.053	4114.85
481.424	4242.76
481.795	4179.48
482.166	4258.35
482.537	4339.02
482.908	4417.44
483.279	4405.92
483.65	4516.19
484.021	4539.92
484.391	4647.72
484.762	4657.66
485.133	4650.2
485.503	4706.02
485.874	4862.4
486.244	4845.23
486.615	4943.3
486.985	4985.11
487.356	5048.61
487.726	5050.64
488.097	5181.71
488.467	5174.03
488.837	5287.47
489.207	5336.74
489.578	5377.64
489.948	5422.16
490.318	5496.73
490.688	5559.33
491.058	5555.04
491.428	5681.14
491.798	5700.8
492.168	5759.55
492.538	5820.57
492.908	5866.67
493.278	5909.15
493.648	5959.77
494.017	5965.65
494.387	6016.49
494.757	6115.7
495.126	6153.89
495.496	6161.35
495.866	6153.44
496.235	6229.6
496.605	6256.94
496.974	6311.4
497.344	6404.51
497.713	6355.47
498.082	6406.31
498.452	6435.69
498.821	6491.74
499.19	6518.4
499.559	6560.89
499.928	6558.63
500.298	6618.51
500.667	6655.57
501.036	6605.63
501.405	6724.05
501.774	6692.86
502.143	6742.12
502.512	6726.98
502.88	6804.5
503.249	6814.67
503.618	6773.99
503.987	6847.21
504.356	6856.25
504.724	6887.43
505.093	6962.91
505.462	6916.58
505.83	7007.88
506.199	7008.33
506.567	7106.86
506.936	7075.45
507.304	7119.52
507.672	7131.27
508.041	7175.11
508.409	7226.41
508.777	7250.36
509.145	7285.39
509.514	7227.31
509.882	7308.66
510.25	7251.94
510.618	7283.35
510.986	7327.87
511.354	7345.72
511.722	7435.44
512.09	7431.15
512.458	7426.85
512.826	7476.12
513.193	7433.18
513.561	7490.35
513.929	7484.48
514.297	7565.83
514.664	7549.34
515.032	7590.24
515.4	7615.77
515.767	7618.94
516.135	7645.83
516.502	7560.86
516.869	7714.08
517.237	7729.22
517.604	7642.89
517.972	7716.56
518.339	7697.13
518.706	7700.74
519.073	7696
519.44	7726.28
519.808	7833.4
520.175	7788.2
520.542	7800.4
520.909	7894.64
521.276	7828.42
521.643	7880.4
522.009	7917.91
522.376	7938.7
522.743	7973.51
523.11	7972.83
523.477	7985.26
523.843	8032.94
524.21	8069.1
524.577	8101.86
524.943	8086.04
525.31	8120.85
525.676	8147.51
526.043	8163.33
526.409	8154.07
526.776	8210.11
527.142	8175.99
527.508	8234.74
527.874	8236.1
528.241	8209.66
528.607	8251.24
528.973	8333.27
529.339	8247.62
529.705	8319.94
530.071	8296.66
530.437	8329.88
530.803	8371.01
531.169	8359.94
531.535	8286.94
531.901	8242.88
532.267	8295.53
532.632	8356.55
532.998	8397.45
533.364	8382.99
533.73	8361.97
534.095	8370.56
534.461	8370.33
534.826	8381.63
535.192	8340.73
535.557	8434.06
535.923	8376.21
536.288	8368.97
536.653	8322.42
537.019	8302.76
537.384	8318.13
537.749	8337.11
538.114	8347.05
538.479	8328.07
538.845	8268.86
539.21	8219.15
539.575	8278.81
539.94	8268.19
540.305	8271.8
540.67	8230.45
541.034	8269.32
541.399	8291.24
541.764	8223.22
542.129	8215.76
542.494	8244.01
542.858	8267.73
543.223	8250.79
543.587	8281.97
543.952	8192.48
544.316	8222.99
544.681	8189.32
545.045	8235.19
545.41	8228.41
545.774	8191.8
546.138	8140.51
546.503	8175.76
546.867	8119.72
547.231	8144.12
547.595	8155.87
547.959	8050.34
548.324	8034.52
548.688	8099.38
549.052	8068.87
549.416	8075.42
549.779	8013.5
550.143	8063.9
550.507	8026.84
550.871	8015.54
551.235	7984.8
551.599	8074.52
551.962	8077.46
552.326	7965.37
552.689	8026.16
553.053	7933.73
553.417	7964.69
553.78	8086.5
554.143	8001.07
554.507	8004.69
554.87	7976.22
555.234	8036.1
555.597	7984.13
555.96	8042.66
556.323	8002.43
556.686	7985.03
557.05	7988.19
557.413	7973.51
557.776	7980.96
558.139	7969.21
558.502	7988.42
558.865	7941.42
559.228	7994.07
559.59	8021.87
559.953	7979.15
560.316	8037.46
560.679	8018.93
561.041	8026.61
561.404	8058.47
561.767	8041.75
562.129	8018.93
562.492	8112.71
562.854	8032.94
563.217	8136.21
563.579	8189.54
563.941	8103.9
564.304	8197.23
564.666	8159.04
565.028	8154.29
565.39	8116.1
565.753	8197.91
566.115	8277.45
566.477	8244.01
566.839	8223.44
567.201	8236.32
567.563	8229.09
567.925	8287.62
568.287	8347.05
568.648	8284.01
569.01	8347.96
569.372	8375.75
569.734	8302.08
570.095	8411.23
570.457	8333.95
570.819	8403.32
571.18	8415.98
571.542	8433.38
571.903	8499.37
572.265	8499.82
572.626	8485.58
572.987	8546.6
573.349	8546.15
573.71	8536.88
574.071	8602.64
574.432	8587.05
574.794	8606.71
575.155	8607.84
575.516	8601.96
575.877	8671.57
576.238	8685.58
576.599	8745.91
576.96	8683.09
577.32	8685.8
577.681	8792.69
578.042	8769.64
578.403	8808.74
578.763	8859.13
579.124	8820.04
579.485	8755.18
579.845	8811.9
580.206	8808.29
580.566	8869.3
580.927	8914.95
581.287	8934.84
581.648	8926.7
582.008	8970.77
582.368	8910.88
582.728	9015.29
583.089	8992.69
583.449	9015.51
583.809	9008.05
584.169	9041.73
584.529	9020.71
584.889	9046.47
585.249	9061.84
585.609	9025.23
585.969	9090.76
586.329	9039.01
586.688	9157.43
587.048	9135.06
587.408	9107.49
587.768	9055.96
588.127	9088.28
588.487	9146.81
588.846	9164.66
589.206	9119.92
589.565	9179.12
589.925	9243.08
590.284	9157.43
590.643	9222.96
591.003	9279.23
591.362	9268.39
591.721	9267.71
592.08	9213.25
592.44	9217.77
592.799	9230.2
593.158	9220.93
593.517	9265.9
593.876	9254.15
594.235	9285.56
594.593	9269.29
594.952	9268.61
595.311	9264.32
595.67	9347.48
596.029	9375.5
596.387	9363.52
596.746	9363.75
597.104	9329.18
597.463	9425.67
597.822	9417.53
598.18	9381.6
598.538	9390.19
598.897	9447.59
599.255	9323.98
599.613	9492.34
599.972	9465.22
600.33	9469.28
600.688	9424.54
601.046	9519.91
601.404	9469.51
601.762	9512.22
602.12	9594.03
602.478	9502.96
602.836	9466.12
603.194	9447.14
603.552	9512.22
603.91	9427.93
604.268	9584.31
604.625	9446.69
604.983	9454.6
605.341	9460.02
605.698	9548.38
606.056	9522.62
606.413	9514.71
606.771	9513.35
607.128	9547.25
607.485	9579.11
607.843	9530.3
608.2	9614.14
608.557	9582.28
608.914	9627.47
609.272	9596.51
609.629	9662.27
609.986	9708.83
610.343	9650.98
610.7	9626.12
611.057	9707.02
611.414	9658.88
611.771	9621.37
612.127	9698.66
612.484	9691.2
612.841	9714.7
613.198	9692.56
613.554	9656.4
613.911	9755.15
614.267	9721.48
614.624	9767.36
614.98	9767.36
615.337	9806.68
615.693	9801.71
616.05	9762.61
616.406	9805.1
616.762	9783.4
617.118	9741.82
617.475	9777.98
617.831	9854.36
618.187	9813.46
618.543	9804.19
618.899	9911.76
619.255	9869.05
619.611	9877.64
619.967	9852.33
620.323	9890.74
620.678	9899.78
621.034	9906.56
621.39	9853.91
621.746	9763.74
622.101	9954.24
622.457	9893.91
622.812	9887.8
623.168	9855.04
623.523	9918.99
623.879	9892.1
624.234	9878.54
624.589	9846
624.945	9859.33
625.3	9826.79
625.655	9875.6
626.01	9877.18
626.365	9906.34
626.72	9881.48
627.075	9910.86
627.43	9858.2
627.785	9817.52
628.14	9901.82
628.495	9902.27
628.85	9867.47
629.205	9783.17
629.559	9951.53
629.914	9745.66
630.269	9848.71
630.623	9794.02
630.978	9730.75
631.332	9782.27
631.687	9811.65
632.041	9782.95
632.396	9827.02
632.75	9832.44
633.104	9781.37
633.459	9695.49
633.813	9713.12
634.167	9732.78
634.521	9753.57
634.875	9710.86
635.229	9655.72
635.583	9660.24
635.937	9705.21
636.291	9647.13
636.645	9637.19
636.999	9654.36
637.352	9643.29
637.706	9525.1
638.06	9574.14
638.413	9643.07
638.767	9575.04
639.121	9570.53
639.474	9530.3
639.828	9555.38
640.181	9536.18
640.534	9588.6
640.888	9466.35
641.241	9466.57
641.594	9535.27
641.947	9462.73
642.301	9483.97
642.654	9437.65
643.007	9469.06
643.36	9373.24
643.713	9442.84
644.066	9462.96
644.419	9377.99
644.771	9382.73
645.124	9362.4
645.477	9288.05
645.83	9228.16
646.182	9201.5
646.535	9114.72
646.888	9187.26
647.24	9131.89
647.593	9177.09
647.945	9148.84
648.298	9128.5
648.65	9041.27
649.002	9064.78
649.355	9138.9
649.707	9073.36
650.059	9142.29
650.411	9260.02
650.763	9260.48
651.115	9322.85
651.467	9343.86
651.819	9320.81
652.171	9305
652.523	9316.97
652.875	9290.08
653.227	9260.48
653.578	9315.62
653.93	9321.94
654.282	9251.66
654.633	9242.17
654.985	9316.97
655.337	9273.13
655.688	9249.18
656.039	9302.74
656.391	9272
656.742	9245.56
657.094	9222.96
657.445	9335.05
657.796	9244.43
658.147	9269.52
658.498	9208.5
658.849	9283.3
659.2	9279.69
659.551	9262.51
659.902	9285.56
660.253	9320.36
660.604	9323.3
660.955	9250.31
661.306	9317.88
661.656	9331.66
662.007	9309.52
662.358	9283.3
662.708	9289.4
663.059	9276.97
663.409	9262.96
663.76	9316.29
664.11	9299.12
664.461	9326.92
664.811	9276.52
665.161	9312.23
665.511	9243.98
665.862	9353.58
666.212	9337.76
666.562	9307.03
666.912	9303.64
667.262	9317.65
667.612	9323.3
667.962	9407.37
668.312	9323.53
668.662	9300.7
669.011	9326.69
669.361	9311.77
669.711	9327.82
670.06	9278.78
670.41	9321.27
670.76	9284.43
671.109	9275.84
671.459	9337.09
671.808	9247.82
672.157	9333.02
672.507	9162.4
672.856	9271.78
673.205	9238.1
673.554	9250.31
673.904	9210.08
674.253	9261.61
674.602	9174.38
674.951	9126.02
675.3	9032.69
675.649	9206.47
675.998	9173.25
676.346	9187.71
676.695	9207.37
677.044	9153.36
677.393	9201.27
677.741	9208.95
678.09	9115.85
678.438	9100.48
678.787	9088.96
679.135	9135.73
679.484	9045.34
679.832	9147.71
680.181	8988.17
680.529	9039.01
680.877	8994.27
681.225	9021.16
681.573	9015.29
681.922	8946.36
682.27	8970.31
682.618	8941.39
682.966	8972.8
683.314	8960.37
683.661	8907.72
684.009	8874.5
684.357	8863.2
684.705	8807.16
685.053	8870.43
685.4	8821.39
685.748	8832.47
686.095	8777.78
686.443	8708.4
686.79	8773.71
687.138	8756.08
687.485	8734.84
687.832	8695.75
688.18	8744.78
688.527	8617.1
688.874	8660.72
689.221	8679.48
689.568	8579.82
689.915	8559.7
690.262	8566.03
690.609	8491.01
690.956	8490.33
691.303	8435.41
691.65	8371.69
691.997	8391.35
692.344	8419.6
692.69	8380.5
693.037	8355.42
693.383	8327.62
693.73	8317.68
694.077	8228.19
694.423	8297.34
694.769	8211.92
695.116	8193.16
695.462	8154.29
695.808	8185.25
696.155	8139.38
696.501	8104.58
696.847	8067.51
697.193	8000.17
697.539	8065.25
697.885	8006.72
698.231	7879.04
698.577	7964.92
698.923	7914.07
699.269	7854.41
699.614	7780.29
699.96	7739.16
700.306	7785.04
700.651	7702.78
700.997	7776
701.342	7778.03
701.688	7712.27
702.033	7589.56
702.379	7604.48
702.724	7572.61
703.069	7557.24
703.415	7475.67
703.76	7571.93
704.105	7531.26
704.45	7477.7
704.795	7442.22
705.14	7378.94
705.485	7405.38
705.83	7347.31
706.175	7383.01
706.52	7328.78
706.865	7341.21
707.209	7268.89
707.554	7264.6
707.899	7253.98
708.243	7289.68
708.588	7205.16
708.932	7164.94
709.277	7171.04
709.621	7144.6
709.966	7115.45
710.31	7129.91
710.654	7097.14
710.998	7058.5
711.342	7060.08
711.687	7033.42
712.031	6969.24
712.375	7004.72
712.719	6962.23
713.063	7024.15
713.407	7037.71
713.75	6956.36
714.094	6952.51
714.438	6910.03
714.782	6922.23
715.125	6880.43
715.469	6922.01
715.812	6889.47
716.156	6844.04
716.499	6845.17
716.843	6888.34
717.186	6776.93
717.53	6850.82
717.873	6877.26
718.216	6865.96
718.559	6812.63
718.902	6736.02
719.246	6764.27
719.589	6729.24
719.932	6708
720.275	6718.4
720.617	6717.94
720.96	6653.99
721.303	6686.99
721.646	6739.64
721.989	6706.65
722.331	6683.6
722.674	6627.55
723.016	6653.77
723.359	6663.26
723.701	6658.29
724.044	6639.08
724.386	6577.84
724.729	6602.24
725.071	6619.87
725.413	6584.16
725.755	6578.97
726.097	6533.54
726.439	6543.94
726.782	6548.23
727.124	6583.71
727.465	6518.85
727.807	6606.31
728.149	6531.96
728.491	6567.89
728.833	6616.7
729.175	6571.73
729.516	6486.09
729.858	6538.97
730.199	6541
730.541	6517.05
730.882	6473.66
731.224	6522.47
731.565	6537.61
731.906	6509.36
732.248	6537.38
732.589	6524.96
732.93	6467.78
733.271	6507.33
733.612	6510.72
733.953	6517.05
734.294	6488.12
734.635	6409.93
734.976	6573.32
735.317	6442.25
735.658	6469.36
735.999	6506.88
736.339	6502.58
736.68	6518.85
737.021	6517.05
737.361	6508.46
737.702	6581.68
738.042	6498.74
738.383	6494.22
738.723	6518.85
739.063	6531.28
739.404	6550.04
739.744	6554.56
740.084	6531.96
740.424	6536.93
740.764	6573.77
741.104	6574.67
741.444	6549.59
741.784	6498.74
742.124	6583.03
742.464	6553.43
742.804	6573.32
743.143	6622.13
743.483	6664.39
743.823	6667.78
744.162	6652.41
744.502	6788
744.841	6742.12
745.181	6818.06
745.52	6815.57
745.86	6809.69
746.199	6793.2
746.538	6778.28
746.877	6873.87
747.216	6988.45
747.556	6915.45
747.895	7006.52
748.234	6984.6
748.573	7028.45
748.911	7125.84
749.25	7118.16
749.589	7131.04
749.928	7226.86
750.267	7243.35
750.605	7345.72
750.944	7362.45
751.283	7428.66
751.621	7424.14
751.96	7516.12
752.298	7650.35
752.636	7662.1
752.975	7764.47
753.313	7803.11
753.651	7958.82
753.989	7906.16
754.327	7985.93
754.666	8063.22
755.004	8220.28
755.342	8331.46
755.679	8415.98
756.017	8423.44
756.355	8597.44
756.693	8652.81
757.031	8761.05
757.368	8890.09
757.706	8965.34
758.044	9034.49
758.381	9172.34
758.719	9232.45
759.056	9418.44
759.394	9448.04
759.731	9583.41
760.068	9681.03
760.405	9820.24
760.743	9893.68
761.08	9949.95
761.417	10086.44
761.754	10216.61
762.091	10352.88
762.428	10503.83
762.765	10540.22
763.102	10665.86
763.438	10716.03
763.775	10894.56
764.112	10982.92
764.449	11157.83
764.785	11256.13
765.122	11339.74
765.458	11386.97
765.795	11473.07
766.131	11574.09
766.467	11728.89
766.804	11833.06
767.14	11900.18
767.476	11995.32
767.812	12100.4
768.148	12172.26
768.485	12213.62
768.821	12320.74
769.157	12418.13
769.492	12494.06
769.828	12636.89
770.164	12562.99
770.5	12644.12
770.836	12715.08
771.171	12682.31
771.507	12830.78
771.842	12777.9
772.178	12938.12
772.513	12938.8
772.849	13029.42
773.184	13068.74
773.519	13111.9
773.855	13172.01
774.19	13213.59
774.525	13175.63
774.86	13241.16
775.195	13317.55
775.53	13300.6
775.865	13272.57
776.2	13299.92
776.535	13282.52
776.87	13397.09
777.205	13383.53
777.539	13372.23
777.874	13494.04
778.209	13362.06
778.543	13470.54
778.878	13445.23
779.212	13446.58
779.547	13409.97
779.881	13466.02
780.215	13381.27
780.55	13474.15
780.884	13442.51
781.218	13462.17
781.552	13431.44
781.886	13473.7
782.22	13484.55
782.554	13422.63
782.888	13313.93
783.222	13389.86
783.556	13293.82
783.889	13370.2
784.223	13251.56
784.557	13351.67
784.89	13404.77
785.224	13282.74
785.557	13256.53
785.891	13235.74
786.224	13240.94
786.558	13193.93
786.891	13177.66
787.224	13160.04
787.557	13109.64
787.891	13073.26
788.224	13147.38
788.557	13073.26
788.89	13102.41
789.223	13106.7
789.556	12951.91
789.888	12979.48
790.221	12991.68
790.554	12873.26
790.887	12961.62
791.219	12910.78
791.552	12913.26
791.884	12933.6
792.217	12791.46
792.549	12770.44
792.882	12655.42
793.214	12676.43
793.546	12759.37
793.879	12676.21
794.211	12606.6
794.543	12687.73
794.875	12659.94
795.207	12716.66
795.539	12595.53
795.871	12610.22
796.203	12477.34
796.535	12428.76
796.867	12396.89
797.198	12354.18
797.53	12403.22
797.862	12383.56
798.193	12409.09
798.525	12280.06
798.856	12266.27
799.188	12110.57
799.519	12155.32
799.85	12120.06
800.182	12080.52
800.513	12156.9
800.844	12013.17
801.175	12093.4
801.506	12076.9
801.837	12004.13
802.168	11931.59
802.499	11985.6
802.83	11960.52
803.161	11958.71
803.491	11866.28
803.822	11867.87
804.153	11913.97
804.483	11814.76
804.814	11727.98
805.145	11693.18
805.475	11741.09
805.805	11666.06
806.136	11710.81
806.466	11641.66
806.796	11606.18
807.126	11546.29
807.457	11528.21
807.787	11564.82
808.117	11520.98
808.447	11452.28
808.777	11494.09
809.107	11428.1
809.436	11471.94
809.766	11431.27
810.096	11320.31
810.426	11283.47
810.755	11329.12
811.085	11254.55
811.414	11307.88
811.744	11178.17
812.073	11181.56
812.403	11207.32
812.732	11157.83
813.061	11166.42
813.39	11051.62
813.719	11019.53
814.049	11123.7
814.378	11042.12
814.707	11019.53
815.036	10990.37
815.365	10953.09
815.693	10872.19
816.022	10900.43
816.351	10875.12
816.68	10795.13
817.008	10852.3
817.337	10755.8
817.665	10744.73
817.994	10785.86
818.322	10760.78
818.651	10772.3
818.979	10652.98
819.307	10711.96
819.636	10726.88
819.964	10628.58
820.292	10677.61
820.62	10712.87
820.948	10588.8
821.276	10694.34
821.604	10638.97
821.932	10582.93
822.259	10558.97
822.587	10597.39
822.915	10644.85
823.243	10606.88
823.57	10560.1
823.898	10557.84
824.225	10537.51
824.553	10500.67
824.88	10622.93
825.207	10586.09
825.535	10614.11
825.862	10716.26
826.189	10583.83
826.516	10651.17
826.843	10654.56
827.17	10731.17
827.497	10629.48
827.824	10587.45
828.151	10680.55
828.478	10615.47
828.805	10663.6
829.131	10699.54
829.458	10629.71
829.785	10621.35
830.111	10674.68
830.438	10679.2
830.764	10671.74
831.09	10628.35
831.417	10606.66
831.743	10641.01
832.069	10615.02
832.395	10610.27
832.722	10607.79
833.048	10564.62
833.374	10508.81
833.7	10545.41
834.026	10533.44
834.351	10535.47
834.677	10543.15
835.003	10592.65
835.329	10581.57
835.654	10493.44
835.98	10427.68
836.306	10455.47
836.631	10469.71
836.956	10467.9
837.282	10451.86
837.607	10389.26
837.932	10391.97
838.258	10413.67
838.583	10351.3
838.908	10288.7
839.233	10378.41
839.558	10323.5
839.883	10238.3
840.208	10285.76
840.533	10241.02
840.858	10180.68
841.182	10236.72
841.507	10225.88
841.832	10167.12
842.156	10149.94
842.481	10182.94
842.805	10160.79
843.13	10132.77
843.454	10104.75
843.778	10146.56
844.103	10013.9
844.427	10076.27
844.751	10027.91
845.075	9975.03
845.399	10041.7
845.723	9909.05
846.047	9900.23
846.371	9846.68
846.695	9842.38
847.019	9786.79
847.343	9780.24
847.666	9703.18
847.99	9669.28
848.313	9686
848.637	9614.14
848.96	9621.15
849.284	9504.54
849.607	9519.91
849.931	9444.88
850.254	9407.82
850.577	9352.23
850.9	9358.33
851.223	9299.8
851.546	9329.18
851.869	9213.7
852.192	9328.72
852.515	9190.65
852.838	9158.33
853.161	9147.26
853.483	9050.54
853.806	9070.88
854.129	8977.09
854.451	8932.8
854.774	8945
855.096	8837.89
855.419	8900.03
855.741	8827.49
856.063	8818.23
856.385	8788.4
856.708	8819.13
857.03	8747.5
857.352	8769.19
857.674	8730.32
857.996	8726.48
858.318	8611.91
858.64	8674.28
858.961	8578.01
859.283	8523.77
859.605	8514.51
859.926	8515.86
860.248	8641.51
860.57	8525.13
860.891	8556.99
861.212	8452.59
861.534	8427.28
861.855	8385.7
862.176	8431.12
862.498	8455.75
862.819	8415.3
863.14	8362.2
863.461	8376.88
863.782	8313.84
864.103	8329.2
864.424	8323.33
864.745	8311.12
865.065	8270.45
865.386	8218.24
865.707	8251.69
866.027	8228.87
866.348	8217.34
866.668	8172.82
866.989	8188.19
867.309	8157.46
867.63	8192.26
867.95	8167.62
868.27	8114.74
868.59	8108.64
868.91	8058.25
869.23	8077.46
869.55	7990.91
869.87	8072.49
870.19	8050.34
870.51	8043.11
870.83	8016.89
871.15	8017.57
871.469	8043.11
871.789	8061.86
872.109	7982.77
872.428	7988.87
872.748	7967.63
873.067	7949.78
873.386	7931.7
873.706	7955.43
874.025	7900.06
874.344	7865.49
874.663	7933.51
874.982	7848.31
875.301	7888.08
875.62	7822.77
875.939	7855.77
876.258	7841.53
876.577	7818.93
876.896	7851.02
877.214	7768.99
877.533	7792.27
877.852	7757.24
878.17	7729.44
878.489	7781.19
878.807	7744.81
879.125	7661.87
879.444	7739.16
879.762	7686.05
880.08	7683.12
880.398	7639.95
880.716	7685.83
881.034	7605.83
881.352	7614.64
881.67	7605.61
881.988	7549.11
882.306	7600.86
882.624	7618.49
882.941	7513.4
883.259	7505.95
883.577	7480.86
883.894	7495.78
884.212	7562.67
884.529	7475.21
884.846	7485.83
885.164	7386.85
885.481	7367.42
885.798	7412.16
886.115	7347.53
886.432	7378.04
886.75	7344.6
887.067	7328.78
887.383	7318.61
887.7	7326.74
888.017	7270.47
888.334	7238.38
888.651	7257.14
888.967	7176.69
889.284	7213.3
889.6	7184.83
889.917	7107.31
890.233	7168.33
890.55	7092.17
890.866	7072.96
891.182	7089.46
891.498	7056.92
891.815	6993.87
892.131	6983.93
892.447	6968.79
892.763	6962.23
893.079	6948.67
893.395	6942.57
893.71	6897.83
894.026	6855.34
894.342	6857.6
894.657	6827.77
894.973	6799.07
895.289	6781.67
895.604	6795.46
895.92	6713.88
896.235	6693.54
896.55	6724.5
896.865	6723.82
897.181	6665.06
897.496	6674.33
897.811	6602.02
898.126	6577.84
898.441	6621.9
898.756	6606.08
899.071	6550.72
899.386	6499.42
899.7	6474.11
900.015	6434.79
900.33	6366.54
900.644	6399.76
900.959	6411.51
901.273	6334
901.588	6394.11
901.902	6323.38
902.216	6316.83
902.531	6285.87
902.845	6251.97
903.159	6283.38
903.473	6224.62
903.787	6217.39
904.101	6179.43
904.415	6177.17
904.729	6090.62
905.042	6098.98
905.356	6075.48
905.67	6061.01
905.984	6080.9
906.297	6012.65
906.611	5986.89
906.924	5999.32
907.237	5948.02
907.551	5969.49
907.864	5919.77
908.177	5887.91
908.491	5902.6
908.804	5832.77
909.117	5802.49
909.43	5760.23
909.743	5765.43
910.056	5762.72
910.368	5700.57
910.681	5655.83
910.994	5697.63
911.307	5681.81
911.619	5689.27
911.932	5657.86
912.244	5605.43
912.557	5587.13
912.869	5504.64
913.181	5491.08
913.494	5509.16
913.806	5473.68
914.118	5455.83
914.43	5432.1
914.742	5418.77
915.054	5386.68
915.366	5377.64
915.678	5311.43
915.99	5375.83
916.302	5272.79
916.613	5270.98
916.925	5314.82
917.236	5284.08
917.548	5239.57
917.859	5237.08
918.171	5228.72
918.482	5171.09
918.794	5139
919.105	5085.22
919.416	5081.15
919.727	5110.08
920.038	5067.59
920.349	5084.09
920.66	4998.22
920.971	5014.26
921.282	4998.22
921.593	4990.98
921.903	4933.36
922.214	4951.21
922.525	4908.73
922.835	4905.34
923.146	4843.42
923.456	4845.9
923.767	4788.28
924.077	4781.5
924.387	4788.5
924.697	4752.57
925.008	4716.19
925.318	4783.08
925.628	4719.58
925.938	4700.82
926.248	4621.5
926.558	4656.3
926.867	4662.18
927.177	4642.07
927.487	4609.53
927.796	4566.81
928.106	4588.06
928.416	4541.5
928.725	4554.61
929.034	4533.82
929.344	4504.44
929.653	4464.22
929.962	4459.93
930.271	4424.45
930.581	4418.12
930.89	4399.59
931.199	4400.94
931.508	4397.33
931.817	4368.18
932.125	4353.49
932.434	4326.82
932.743	4302.42
933.051	4339.25
933.36	4241.85
933.669	4271
933.977	4265.13
934.286	4218.12
934.594	4212.47
934.902	4164.79
935.21	4178.35
935.519	4168.18
935.827	4109.88
936.135	4076.43
936.443	4095.87
936.751	4068.07
937.059	4128.86
937.367	4058.35
937.674	4054.51
937.982	3972.48
938.29	3978.81
938.597	3989.43
938.905	3954.4
939.213	3908.75
939.52	3922.54
939.827	3925.25
940.135	3905.14
940.442	3889.54
940.749	3848.19
941.056	3880.51
941.363	3841.18
941.67	3819.26
941.977	3841.41
942.284	3772.26
942.591	3764.8
942.898	3739.94
943.205	3748.31
943.511	3762.54
943.818	3760.96
944.125	3699.49
944.431	3690.91
944.738	3663.34
945.044	3640.29
945.35	3615.88
945.657	3649.32
945.963	3596.9
946.269	3568.42
946.575	3624.69
946.881	3581.53
947.187	3552.6
947.493	3522.55
947.799	3523.45
948.105	3525.94
948.41	3500.18
948.716	3480.06
949.022	3465.15
949.327	3485.49
949.633	3447.97
949.938	3481.19
950.244	3443.23
950.549	3409.56
950.854	3393.96
951.16	3394.64
951.465	3368.65
951.77	3319.84
952.075	3316.68
952.38	3282.33
952.685	3321.65
952.99	3281.88
953.294	3291.59
953.599	3278.71
953.904	3259.28
954.209	3242.1
954.513	3206.62
954.818	3235.78
955.122	3198.94
955.426	3189.22
955.731	3154.2
956.035	3149.23
956.339	3166.63
956.643	3138.83
956.948	3084.59
957.252	3069.91
957.556	3089.79
957.86	3051.6
958.163	3070.13
958.467	3076.68
958.771	3010.02
959.075	3017.03
959.378	2944.71
959.682	2996.69
959.985	2985.61
960.289	2981.77
960.592	2982.22
960.896	2958.5
961.199	2939.06
961.502	2934.32
961.805	2933.64
962.108	2887.09
962.411	2891.15
962.714	2844.83
963.017	2903.58
963.32	2880.98
963.623	2815
963.926	2838.95
964.228	2831.04
964.531	2767.09
964.833	2783.59
965.136	2787.88
965.438	2765.28
965.741	2745.17
966.043	2744.94
966.345	2724.83
966.648	2735.68
966.95	2683.47
967.252	2683.02
967.554	2659.52
967.856	2683.25
968.158	2663.59
968.46	2656.36
968.761	2650.48
969.063	2611.39
969.365	2623.59
969.666	2619.97
969.968	2593.76
970.269	2585.4
970.571	2570.03
970.872	2557.15
971.174	2533.42
971.475	2530.94
971.776	2542.24
972.077	2505.4
972.378	2535.23
972.679	2500.88
972.98	2516.47
973.281	2470.15
973.582	2487.32
973.883	2488.45
974.183	2441
974.484	2447.32
974.785	2428.11
975.085	2432.63
975.386	2415.23
975.686	2400.77
975.986	2391.28
976.287	2405.29
976.587	2363.03
976.887	2368.68
977.187	2322.58
977.487	2345.4
977.787	2365.74
978.087	2346.08
978.387	2332.3
978.687	2337.72
978.987	2285.52
979.286	2264.28
979.586	2271.51
979.885	2270.38
980.185	2264.05
980.484	2264.5
980.784	2260.21
981.083	2211.85
981.382	2220.44
981.682	2182.47
981.981	2219.31
982.28	2191.96
982.579	2174.34
982.878	2185.41
983.177	2182.02
983.475	2179.53
983.774	2164.17
984.073	2148.8
984.372	2151.29
984.67	2138.4
984.969	2146.54
985.267	2084.17
985.566	2109.03
985.864	2065.86
986.162	2094.34
986.461	2083.49
986.759	2078.07
987.057	2035.58
987.355	2039.65
987.653	2062.25
987.951	2031.51
988.249	2020.89
988.547	2020.22
988.844	1990.16
989.142	1991.06
989.44	1979.76
989.737	1958.52
990.035	1957.39
990.332	1978.41
990.63	1924.85
990.927	1962.36
991.224	1948.13
991.521	1886.66
991.819	1915.81
992.116	1890.28
992.413	1902.7
992.71	1882.82
993.006	1857.51
993.303	1858.64
993.6	1855.02
993.897	1837.85
994.193	1841.91
994.49	1844.17
994.787	1822.25
995.083	1815.7
995.379	1828.58
995.676	1770.5
995.972	1794.68
996.268	1769.15
996.565	1776.61
996.861	1746.55
997.157	1771.18
997.453	1741.58
997.749	1723.05
998.044	1692.99
998.34	1737.51
998.636	1729.38
998.932	1690.73
999.227	1693.22
999.523	1675.37
999.818	1685.31
1000.114	1665.87
1000.409	1656.83
1000.704	1648.47
1001	1638.08
1001.295	1637.4
1001.59	1629.94
1001.885	1655.93
1002.18	1636.04
1002.475	1618.87
1002.77	1590.4
1003.065	1586.78
1003.359	1585.88
1003.654	1561.02
1003.949	1571.41
1004.243	1574.35
1004.538	1536.39
1004.832	1563.5
1005.127	1528.25
1005.421	1560.34
1005.715	1513.79
1006.009	1490.51
1006.304	1495.71
1006.598	1469.27
1006.892	1502.49
1007.186	1498.65
1007.48	1500.45
1007.773	1468.14
1008.067	1463.62
1008.361	1478.31
1008.655	1416.62
1008.948	1407.8
1009.242	1431.08
1009.535	1436.95
1009.829	1388.14
1010.122	1370.97
1010.415	1399.44
1010.708	1360.8
1011.001	1362.15
1011.295	1371.64
1011.588	1355.15
1011.881	1380.01
1012.173	1336.17
1012.466	1340.46
1012.759	1322.15
1013.052	1330.97
1013.344	1318.31
1013.637	1313.79
1013.93	1310.4
1014.222	1292.32
1014.514	1286.22
1014.807	1314.92
1015.099	1264.75
1015.391	1267.69
1015.683	1265.43
1015.976	1262.95
1016.268	1252.78
1016.56	1240.35
1016.851	1246.68
1017.143	1223.85
1017.435	1220.69
1017.727	1201.25
1018.018	1220.24
1018.31	1228.82
1018.602	1198.54
1018.893	1191.31
1019.185	1182.05
1019.476	1176.4
1019.767	1180.24
1020.058	1154.25
1020.35	1133.46
1020.641	1154.25
1020.932	1143.18
1021.223	1140.01
1021.514	1122.39
1021.804	1107.92
1022.095	1122.61
1022.386	1113.8
1022.677	1123.29
1022.967	1098.66
1023.258	1091.2
1023.548	1093.46
1023.839	1089.62
1024.129	1093.69
1024.419	1076.74
1024.709	1074.93
1025	1064.08
1025.29	1041.94
1025.58	1013.24
1025.87	1052.33
1026.16	1036.29
1026.449	1005.55
1026.739	1028.38
1027.029	1010.98
1027.319	998.32
1027.608	981.6
1027.898	992.9
1028.187	1007.59
1028.477	991.54
1028.766	970.53
1029.055	987.7
1029.344	976.85
1029.634	955.61
1029.923	957.42
1030.212	956.06
1030.501	950.41
1030.79	951.99
1031.078	911.54
1031.367	908.38
1031.656	914.93
1031.945	905.67
1032.233	891.88
1032.522	893.92
1032.81	892.79
1033.099	899.11
1033.387	882.39
1033.675	875.61
1033.963	835.61
1034.251	861.15
1034.54	868.16
1034.828	851.66
1035.116	858.66
1035.403	841.26
1035.691	834.26
1035.979	825.44
1036.267	816.41
1036.554	822.73
1036.842	832
1037.129	815.05
1037.417	820.7
1037.704	814.15
1037.992	796.07
1038.279	811.89
1038.566	803.07
1038.853	803.07
1039.14	803.07
