Data from hue_330_FLMS001491_16.txt Node
Date: Mon Feb 06 15:44:59 GMT 2017
User: dcchb
Spectrometer: FLMS00149
Trigger mode: 0
Integration Time (sec): 2.000000E-2
Scans to average: 10
Electric dark correction enabled: true
Nonlinearity correction enabled: false
Boxcar width: 0
XAxis mode: Wavelengths
Number of Pixels in Spectrum: 2048
>>>>>Begin Spectral Data<<<<<
341.393	-7.29
341.776	-7.29
342.16	-7.29
342.543	-46.83
342.927	-68.53
343.31	-68.76
343.693	-76.44
344.077	-73.27
344.46	-67.63
344.843	-48.19
345.226	-47.74
345.61	-17.01
345.993	-22.2
346.376	-3.22
346.759	14.63
347.142	39.04
347.525	29.1
347.908	50.79
348.291	95.53
348.674	85.59
349.057	109.77
349.44	138.02
349.823	162.88
350.206	156.32
350.588	189.54
350.971	202.42
351.354	247.39
351.737	234.97
352.119	253.04
352.502	262.54
352.884	294.17
353.267	285.13
353.65	307.28
354.032	293.95
354.414	308.18
354.797	319.48
355.179	317.45
355.562	315.87
355.944	308.64
356.326	349.54
356.709	345.02
357.091	347.28
357.473	331.23
357.855	344.12
358.238	351.35
358.62	368.07
359.002	324.23
359.384	341.63
359.766	328.97
360.148	328.97
360.53	346.38
360.912	327.62
361.294	352.25
361.676	325.58
362.057	326.49
362.439	314.96
362.821	330.1
363.203	312.03
363.584	323.78
363.966	333.72
364.348	350.89
364.729	317.45
365.111	322.65
365.493	342.99
365.874	338.01
366.256	323.32
366.637	308.86
367.019	316.77
367.4	321.52
367.781	308.18
368.163	339.82
368.544	328.07
368.925	339.37
369.306	320.61
369.688	334.85
370.069	302.99
370.45	322.65
370.831	330.33
371.212	326.04
371.593	310.67
371.974	309.54
372.355	333.27
372.736	339.6
373.117	321.07
373.498	303.21
373.879	317.68
374.26	309.99
374.641	327.17
375.021	321.74
375.402	304.34
375.783	328.3
376.163	316.77
376.544	333.27
376.925	319.03
377.305	343.66
377.686	344.79
378.066	331.01
378.447	318.13
378.827	353.83
379.208	336.88
379.588	329.2
379.968	342.53
380.349	322.42
380.729	331.91
381.109	345.47
381.489	338.92
381.87	343.89
382.25	364.23
382.63	365.58
383.01	335.08
383.39	316.55
383.77	344.34
384.15	338.47
384.53	339.14
384.91	361.74
385.29	352.02
385.67	354.74
386.049	345.7
386.429	349.31
386.809	354.74
387.189	354.51
387.568	354.06
387.948	342.08
388.328	354.51
388.707	357.22
389.087	341.86
389.466	363.32
389.846	345.25
390.225	373.72
390.605	364.23
390.984	372.59
391.363	376.43
391.743	368.3
392.122	359.03
392.501	367.84
392.881	374.4
393.26	380.95
393.639	379.37
394.018	371.46
394.397	384.57
394.776	377.11
395.155	397
395.534	404.45
395.913	379.14
396.292	387.05
396.671	376.66
397.05	398.35
397.429	392.25
397.808	382.76
398.186	386.37
398.565	383.21
398.944	375.75
399.323	397.22
399.701	398.35
400.08	402.87
400.458	417.33
400.837	398.35
401.215	404.9
401.594	409.88
401.972	390.44
402.351	405.36
402.729	405.58
403.107	424.11
403.486	405.36
403.864	416.43
404.242	423.44
404.62	435.41
404.999	418.01
405.377	436.99
405.755	447.84
406.133	429.76
406.511	433.38
406.889	423.21
407.267	452.81
407.645	441.74
408.023	456.88
408.401	440.38
408.779	445.58
409.156	474.73
409.534	472.7
409.912	477.22
410.29	479.93
410.667	461.17
411.045	474.51
411.422	483.55
411.8	507.73
412.178	507.73
412.555	502.98
412.933	525.58
413.31	510.21
413.687	521.74
414.065	522.42
414.442	524
414.819	552.02
415.197	526.03
415.574	561.51
415.951	576.2
416.328	555.41
416.705	548.18
417.082	567.61
417.46	555.41
417.837	582.08
418.214	557.44
418.591	586.59
418.967	605.13
419.344	602.64
419.721	616.65
420.098	609.42
420.475	615.07
420.852	617.55
421.228	620.04
421.605	632.7
421.982	648.51
422.358	661.85
422.735	675.18
423.111	644.67
423.488	653.26
423.864	665.46
424.241	680.15
424.617	666.82
424.994	692.81
425.37	684.9
425.746	711.56
426.123	709.76
426.499	724.44
426.875	710.66
427.251	726.03
427.627	744.56
428.003	724.44
428.379	743.88
428.756	740.71
429.132	748.62
429.507	792.24
429.883	759.92
430.259	794.95
430.635	771.9
431.011	811.9
431.387	810.77
431.763	819.58
432.138	810.32
432.514	816.65
432.89	823.2
433.265	846.47
433.641	848.28
434.016	859.81
434.392	882.18
434.767	865.91
435.143	901.84
435.518	890.99
435.894	921.05
436.269	893.48
436.644	909.75
437.02	922.86
437.395	909.75
437.77	936.64
438.145	941.84
438.52	993.36
438.895	967.38
439.271	973.25
439.646	988.17
440.021	1010.09
440.395	1010.99
440.77	972.8
441.145	1009.86
441.52	1010.76
441.895	1029.75
442.27	1038.79
442.645	1015.28
443.019	1044.21
443.394	1054.61
443.769	1056.64
444.143	1033.81
444.518	1055.73
444.892	1045.34
445.267	1058.22
445.641	1074.49
446.016	1064.77
446.39	1074.04
446.764	1114.72
447.139	1073.59
447.513	1083.76
447.887	1103.64
448.262	1083.3
448.636	1105.45
449.01	1111.55
449.384	1108.61
449.758	1113.59
450.132	1123.76
450.506	1121.04
450.88	1137.31
451.254	1142.74
451.628	1135.05
452.002	1162.4
452.376	1169.86
452.75	1154.72
453.123	1163.98
453.497	1189.74
453.871	1188.61
454.244	1204.21
454.618	1194.26
454.992	1204.66
455.365	1202.62
455.739	1233.36
456.112	1241.94
456.486	1249.18
456.859	1253.02
457.232	1282.17
457.606	1258.44
457.979	1272.45
458.352	1284.66
458.725	1308.84
459.099	1319.68
459.472	1328.04
459.845	1311.77
460.218	1329.63
460.591	1346.57
460.964	1360.81
461.337	1377.08
461.71	1375.5
462.083	1396.74
462.456	1408.49
462.829	1407.14
463.201	1404.2
463.574	1426.8
463.947	1429.96
464.32	1442.62
464.692	1447.36
465.065	1471.54
465.438	1487.59
465.81	1478.77
466.183	1477.19
466.555	1537.53
466.928	1547.02
467.3	1550.19
467.672	1567.13
468.045	1576.85
468.417	1588.38
468.789	1615.04
469.161	1622.95
469.534	1627.7
469.906	1672.44
470.278	1657.75
470.65	1674.93
471.022	1698.66
471.394	1703.85
471.766	1744.08
472.138	1748.15
472.51	1790.86
472.882	1791.53
473.253	1814.81
473.625	1827.69
473.997	1889.16
474.369	1852.55
474.74	1903.62
475.112	1900.23
475.484	1929.84
475.855	1942.04
476.227	1965.32
476.598	1974.13
476.97	2052.54
477.341	2056.61
477.713	2052.09
478.084	2075.6
478.455	2137.06
478.827	2155.82
479.198	2189.94
479.569	2205.31
479.94	2240.11
480.311	2251.18
480.682	2296.83
481.053	2324.18
481.424	2374.57
481.795	2408.47
482.166	2415.02
482.537	2399.43
482.908	2477.84
483.279	2463.61
483.65	2487.34
484.021	2562.36
484.391	2580.89
484.762	2593.55
485.133	2603.26
485.503	2633.77
485.874	2722.58
486.244	2730.04
486.615	2775.24
486.985	2801.23
487.356	2769.81
487.726	2866.53
488.097	2889.36
488.467	2867.66
488.837	2919.64
489.207	2965.52
489.578	3026.98
489.948	3033.76
490.318	3069.92
490.688	3089.81
491.058	3062.91
491.428	3140.2
491.798	3156.02
492.168	3228.56
492.538	3189.46
492.908	3246.64
493.278	3324.15
493.648	3290.93
494.017	3299.74
494.387	3363.92
494.757	3358.73
495.126	3384.49
495.496	3439.18
495.866	3445.05
496.235	3466.75
496.605	3472.39
496.974	3519.4
497.344	3537.93
497.713	3557.82
498.082	3549.68
498.452	3612.73
498.821	3602.79
499.19	3604.82
499.559	3646.4
499.928	3680.3
500.298	3651.82
500.667	3690.47
501.036	3684.82
501.405	3752.61
501.774	3736.79
502.143	3701.54
502.512	3800.3
502.88	3809.79
503.249	3800.07
503.618	3848.43
503.987	3803.91
504.356	3801.2
504.724	3868.32
505.093	3858.83
505.462	3887.75
505.83	3907.86
506.199	3899.73
506.567	3957.35
506.936	3948.77
507.304	4007.3
507.672	3984.92
508.041	3999.39
508.409	4044.81
508.777	4068.09
509.145	4054.3
509.514	4076.45
509.882	4105.15
510.25	4067.41
510.618	4127.74
510.986	4100.63
511.354	4136.56
511.722	4177.46
512.09	4179.49
512.458	4153.05
512.826	4202.09
513.193	4206.84
513.561	4264.24
513.929	4223.56
514.297	4233.5
514.664	4290.23
515.032	4255.2
515.4	4320.51
515.767	4307.85
516.135	4304.69
516.502	4296.55
516.869	4357.57
517.237	4333.39
517.604	4361.64
517.972	4395.53
518.339	4377.91
518.706	4390.79
519.073	4417.68
519.44	4455.65
519.808	4454.29
520.175	4445.02
520.542	4481.63
520.909	4503.33
521.276	4504.23
521.643	4527.51
522.009	4563.44
522.376	4572.7
522.743	4537.23
523.11	4600.27
523.477	4592.82
523.843	4649.09
524.21	4692.25
524.577	4726.82
524.943	4697.45
525.31	4722.08
525.676	4739.93
526.043	4795.98
526.409	4748.75
526.776	4848.18
527.142	4836.2
527.508	4889.53
527.874	4862.19
528.241	4901.51
528.607	4871.68
528.973	4926.82
529.339	4964.11
529.705	4987.83
530.071	4989.87
530.437	5044.33
530.803	5067.83
531.169	5103.09
531.535	5090.43
531.901	5137.89
532.267	5104.89
532.632	5117.1
532.998	5157.55
533.364	5213.14
533.73	5194.16
534.095	5272.35
534.461	5226.7
534.826	5252.69
535.192	5313.02
535.557	5307.83
535.923	5369.97
536.288	5309.63
536.653	5416.3
537.019	5373.14
537.384	5407.26
537.749	5474.38
538.114	5410.87
538.479	5491.32
538.845	5523.64
539.21	5522.06
539.575	5548.5
539.94	5633.02
540.305	5591.89
540.67	5612.68
541.034	5670.3
541.399	5660.81
541.764	5666.24
542.129	5708.04
542.494	5761.83
542.858	5715.5
543.223	5740.58
543.587	5806.34
543.952	5814.48
544.316	5891.31
544.681	5808.38
545.045	5881.14
545.41	5909.17
545.774	5949.17
546.138	5933.8
546.503	5928.15
546.867	5998.2
547.231	5995.04
547.595	6053.57
547.959	6082.27
548.324	6101.03
548.688	6033.01
549.052	6129.05
549.416	6136.73
549.779	6145.32
550.143	6219.44
550.507	6169.27
550.871	6252.66
551.235	6239.1
551.599	6254.69
551.962	6248.14
552.326	6318.42
552.689	6339.21
553.053	6313
553.417	6321.13
553.78	6346.44
554.143	6349.61
554.507	6379.21
554.87	6376.72
555.234	6482.48
555.597	6416.5
555.96	6492.65
556.323	6497.4
556.686	6507.79
557.05	6600
557.413	6557.74
557.776	6576.95
558.139	6639.09
558.502	6641.8
558.865	6668.24
559.228	6661.01
559.59	6679.32
559.953	6696.49
560.316	6768.13
560.679	6750.73
561.041	6816.04
561.404	6853.32
561.767	6817.62
562.129	6820.78
562.492	6895.58
562.854	6890.84
563.217	6828.01
563.579	6908.69
563.941	6915.92
564.304	6966.31
564.666	7039.53
565.028	6999.08
565.39	7065.07
565.753	7047.22
566.115	7149.59
566.477	7086.08
566.839	7124.5
567.201	7143.71
567.563	7193.2
567.925	7249.47
568.287	7216.7
568.648	7283.59
569.01	7240.88
569.372	7334.89
569.734	7303.03
570.095	7396.81
570.457	7432.06
570.819	7451.27
571.18	7443.14
571.542	7541.67
571.903	7558.61
572.265	7576.92
572.626	7598.39
572.987	7652.4
573.349	7774.65
573.71	7783.92
574.071	7762.68
574.432	7889.91
574.794	7962.45
575.155	7955.67
575.516	7943.92
575.877	8081.99
576.238	8088.77
576.599	8123.8
576.96	8242.66
577.32	8346.39
577.681	8427.07
578.042	8466.39
578.403	8533.73
578.763	8568.53
579.124	8729.21
579.485	8798.36
579.845	8989.09
580.206	9026.37
580.566	9116.99
580.927	9225.46
581.287	9359.25
581.648	9429.75
582.008	9632.91
582.368	9704.77
582.728	9903.19
583.089	10018.89
583.449	10170.98
583.809	10393.34
584.169	10521.25
584.529	10595.6
584.889	10965.98
585.249	11060.67
585.609	11238.29
585.969	11500.43
586.329	11625.85
586.688	11816.36
587.048	12096.35
587.408	12294.31
587.768	12508.54
588.127	12701.98
588.487	12981.07
588.846	13239.6
589.206	13404.79
589.565	13670.32
589.925	13974.72
590.284	14110.31
590.643	14430.3
591.003	14765.88
591.362	15004.29
591.721	15237.96
592.08	15580.1
592.44	15879.3
592.799	16113.19
593.158	16419.85
593.517	16694.42
593.876	17054.86
594.235	17257.34
594.593	17583.44
594.952	17970.54
595.311	18153.36
595.67	18501.6
596.029	18935.26
596.387	19282.15
596.746	19489.15
597.104	19796.26
597.463	20054.33
597.822	20413.87
598.18	20612.06
598.538	20909.22
598.897	21227.41
599.255	21375.43
599.613	21964.79
599.972	22107.84
600.33	22502.63
600.688	22718.44
601.046	23152.1
601.404	23419.44
601.762	23734.46
602.12	24128.8
602.478	24259.42
602.836	24498.06
603.194	24736.47
603.552	25035.67
603.91	25202.9
604.268	25617.8
604.625	25748.65
604.983	26103.89
605.341	26199.93
605.698	26575.74
606.056	26874.94
606.413	27090.76
606.771	27443.52
607.128	27573.23
607.485	27779.1
607.843	28003.05
608.2	28282.36
608.557	28717.38
608.914	28736.82
609.272	29107.88
609.629	29310.59
609.986	29744.47
610.343	29695.43
610.7	30195.76
611.057	30219.26
611.414	30418.13
611.771	30626.03
612.127	30969.3
612.484	31106.92
612.841	31309.85
613.198	31319.12
613.554	31675.72
613.911	31851.54
614.267	32021.93
614.624	32245.2
614.98	32355.48
615.337	32587.34
615.693	32722.92
616.05	32759.53
616.406	33208.79
616.762	33180.09
617.118	33259.18
617.475	33468.44
617.831	33850.8
618.187	33850.13
618.543	33998.15
618.899	34272.49
619.255	34322.88
619.611	34376.67
619.967	34599.71
620.323	34767.62
620.678	34793.83
621.034	34796.09
621.39	34947.73
621.746	35043.09
622.101	35494.38
622.457	35282.86
622.812	35466.36
623.168	35681.49
623.523	35690.98
623.879	35922.39
624.234	35767.82
624.589	35946.57
624.945	36001.71
625.3	36079.9
625.655	36115.83
626.01	36322.6
626.365	36441.7
626.72	36401.47
627.075	36440.34
627.43	36559.43
627.785	36578.19
628.14	36743.16
628.495	36838.52
628.85	36779.99
629.205	36737.96
629.559	37018.18
629.914	36690.73
630.269	36958.07
630.623	37014.11
630.978	36837.17
631.332	37224.05
631.687	37236.7
632.041	37142.7
632.396	37288
632.75	37233.77
633.104	37193.99
633.459	37074.22
633.813	37057.73
634.167	37209.81
634.521	37301.79
634.875	37250.94
635.229	37273.99
635.583	37126.42
635.937	37168.91
636.291	37210.72
636.645	37222.92
636.999	37164.62
637.352	37399.64
637.706	37162.36
638.06	37472.18
638.413	37280.55
638.767	37094.79
639.121	37262.24
639.474	37148.35
639.828	37122.81
640.181	37283.48
640.534	37169.14
640.888	37177.72
641.241	37031.96
641.594	37062.02
641.947	37169.81
642.301	37120.32
642.654	37201.68
643.007	37176.14
643.36	37175.69
643.713	37142.02
644.066	37300.43
644.419	37090.49
644.771	36876.26
645.124	36469.72
645.477	36500.9
645.83	36155.83
646.182	36176.17
646.535	36148.15
646.888	36215.49
647.24	35997.19
647.593	36246.45
647.945	36152.89
648.298	35976.17
648.65	35955.16
649.002	35795.16
649.355	36119.45
649.707	35973.23
650.059	36107.47
650.411	36501.81
650.763	36636.95
651.115	37119.87
651.467	36858.41
651.819	36943.38
652.171	36738.41
652.523	36697.51
652.875	36835.36
653.227	36643.95
653.578	37011.17
653.93	36799.88
654.282	36600.56
654.633	36511.75
654.985	36678.98
655.337	36599.21
655.688	36742.93
656.039	36754.23
656.391	36414.35
656.742	36472.2
657.094	36594.46
657.445	36757.62
657.796	36630.17
658.147	36611.64
658.498	36553.11
658.849	36565.54
659.2	36544.29
659.551	36537.97
659.902	36586.33
660.253	36515.37
660.604	36579.09
660.955	36394.24
661.306	36478.76
661.656	36512.88
662.007	36499.1
662.358	36364.86
662.708	36361.47
663.059	36456.16
663.409	36281.48
663.76	36487.57
664.11	36523.95
664.461	36474.69
664.811	36489.38
665.161	36440.57
665.511	36358.76
665.862	36448.02
666.212	36437.4
666.562	36493.22
666.912	36463.84
667.262	36365.09
667.612	36468.36
667.962	36440.34
668.312	36410.06
668.662	36471.07
669.011	36381.59
669.361	36349.27
669.711	36327.8
670.06	36226.56
670.41	36258.65
670.76	36194.92
671.109	36374.13
671.459	36226.56
671.808	36340.91
672.157	36280.57
672.507	36085.1
672.856	36133.68
673.205	36201.48
673.554	36218.65
673.904	36090.97
674.253	36360.57
674.602	36078.32
674.951	35639.91
675.3	35553.58
675.649	35964.42
675.998	36078.09
676.346	35903.41
676.695	36122.16
677.044	35959.68
677.393	35973.46
677.741	35993.35
678.09	35895.5
678.438	35857.31
678.787	35890.53
679.135	35913.35
679.484	35763.75
679.832	35856.4
680.181	35674.26
680.529	35841.26
680.877	35665.22
681.225	35529.86
681.573	35705.22
681.922	35610.53
682.27	35504.09
682.618	35547.71
682.966	35383.87
683.314	35469.07
683.661	35377.54
684.009	35158.57
684.357	35077.67
684.705	35081.73
685.053	35171.67
685.4	35038.34
685.748	34865.24
686.095	34804.23
686.443	34830.21
686.79	34900.27
687.138	34790.22
687.485	34790.89
687.832	34708.41
688.18	34663.44
688.527	34502.31
688.874	34502.54
689.221	34489.66
689.568	34313.39
689.915	34306.61
690.262	34306.39
690.609	34159.95
690.956	33940.29
691.303	34003.12
691.65	33945.27
691.997	33867.3
692.344	33712.05
692.69	33677.93
693.037	33702.79
693.383	33437.03
693.73	33466.86
694.077	33317.94
694.423	33331.95
694.769	33299.18
695.116	33194.78
695.462	33098.73
695.808	33156.59
696.155	33069.36
696.501	32839.31
696.847	32814.9
697.193	32653.32
697.539	32696.48
697.885	32503.5
698.231	32469.6
698.577	32348.47
698.923	32340.11
699.269	32215.37
699.614	32063.73
699.96	31977.18
700.306	32000.46
700.651	31969.05
700.997	31736.51
701.342	31784.19
701.688	31768.15
702.033	31566.12
702.379	31621.03
702.724	31552.56
703.069	31586.68
703.415	31079.8
703.76	31281.83
704.105	31295.62
704.45	31223.76
704.795	30941.5
705.14	31023.99
705.485	30827.38
705.83	30765.69
706.175	30855.86
706.52	30687.95
706.865	30541.97
707.209	30528.18
707.554	30306.27
707.899	30467.84
708.243	30314.17
708.588	30251.8
708.932	30107.63
709.277	30164.57
709.621	30037.8
709.966	29921.64
710.31	30046.84
710.654	29734.75
710.998	29883.9
711.342	29753.96
711.687	29741.76
712.031	29621.76
712.375	29418.15
712.719	29455.67
713.063	29356.23
713.407	29502.22
713.75	29410.92
714.094	29371.83
714.438	29082.79
714.782	29381.54
715.125	29059.97
715.469	29138.39
715.812	28924.83
716.156	28839.86
716.499	28950.37
716.843	29000.54
717.186	28727.78
717.53	28942.46
717.873	28833.54
718.216	28702.01
718.559	28636.48
718.902	28395.36
719.246	28476.48
719.589	28403.49
719.932	28377.28
720.275	28327.11
720.617	28328.69
720.96	28191.97
721.303	28321.23
721.646	28179.09
721.989	28065.42
722.331	28170.73
722.674	28137.73
723.016	28082.14
723.359	27930.96
723.701	27946.1
724.044	27853
724.386	27689.61
724.729	27843.05
725.071	27665.2
725.413	27705.43
725.755	27622.04
726.097	27543.4
726.439	27413.91
726.782	27373.01
727.124	27444.65
727.465	27433.57
727.807	27345.21
728.149	27286.46
728.491	27237.87
728.833	27262.28
729.175	27175.05
729.516	27123.52
729.858	26979.35
730.199	27034.71
730.541	26979.35
730.882	27027.93
731.224	26993.81
731.565	26877.2
731.906	26882.63
732.248	26903.42
732.589	26735.51
732.93	26589.75
733.271	26659.81
733.612	26676.3
733.953	26695.06
734.294	26596.53
734.635	26589.53
734.976	26642.86
735.317	26468.85
735.658	26317.67
735.999	26456.42
736.339	26218.92
736.68	26365.35
737.021	26292.36
737.361	26193.83
737.702	26345.01
738.042	26186.15
738.383	26125.81
738.723	26271.34
739.063	26132.36
739.404	26162.42
739.744	26007.62
740.084	26033.16
740.424	25984.57
740.764	25830.9
741.104	25963.78
741.444	25795.2
741.784	25763.56
742.124	25875.2
742.464	25741.64
742.804	25720.4
743.143	25630.46
743.483	25543.23
743.823	25381.2
744.162	25400.86
744.502	25582.77
744.841	25386.39
745.181	25477.92
745.52	25436.34
745.86	25418.94
746.199	25347.75
746.538	25297.13
746.877	25341.42
747.216	25300.07
747.556	25220.07
747.895	25144.59
748.234	25055.78
748.573	25079.96
748.911	24911.15
749.25	24903.47
749.589	24826.18
749.928	24781.66
750.267	24990.02
750.605	24810.14
750.944	24782.79
751.283	24729.69
751.621	24767.88
751.96	24605.85
752.298	24614.89
752.636	24553.42
752.975	24540.09
753.313	24402.69
753.651	24495.34
753.989	24323.15
754.327	24306.2
754.666	24300.32
755.004	24305.29
755.342	24166.54
755.679	24077.95
756.017	24003.15
756.355	24111.85
756.693	23924.96
757.031	23945.08
757.368	23785.08
757.706	23776.04
758.044	23680.68
758.381	23815.81
758.719	23594.58
759.056	23563.62
759.394	23635.03
759.731	23382.15
760.068	23284.3
760.405	23337.63
760.743	23229.16
761.08	23264.87
761.417	23186
761.754	23039.34
762.091	22997.76
762.428	22924.54
762.765	22806.35
763.102	22831.66
763.438	22747.82
763.775	22678.44
764.112	22633.47
764.449	22669.18
764.785	22506.7
765.122	22389.86
765.458	22387.83
765.795	22237.78
766.131	22254.27
766.467	22102.64
766.804	21972.93
767.14	21945.81
767.476	21941.74
767.812	21871.68
768.148	21869.2
768.485	21640.73
768.821	21665.81
769.157	21625.36
769.492	21572.94
769.828	21518.02
770.164	21320.51
770.5	21222.89
770.836	21266.95
771.171	21122.33
771.507	21089.56
771.842	21059.95
772.178	20990.35
772.513	20887.76
772.849	20812.96
773.184	20753.52
773.519	20720.98
773.855	20612.96
774.19	20587.65
774.525	20436.92
774.86	20430.82
775.195	20348.11
775.53	20242.58
775.865	20165.97
776.2	19979.08
776.535	19969.59
776.87	19939.08
777.205	19893.88
777.539	19694.79
777.874	19781.12
778.209	19662.7
778.543	19643.72
778.878	19413.9
779.212	19484.85
779.547	19273.79
779.881	19377.51
780.215	19222.04
780.55	19305.88
780.884	19149.5
781.218	18979.33
781.552	19049.61
781.886	19056.62
782.22	18739.56
782.554	18844.87
782.888	18671.32
783.222	18589.06
783.556	18523.75
783.889	18494.15
784.223	18250.54
784.557	18261.16
784.89	18324.21
785.224	18142.29
785.557	18201.95
785.891	18120.82
786.224	18029.75
786.558	17970.54
786.891	17832.24
787.224	17761.74
787.557	17669.08
787.891	17684.68
788.224	17681.74
788.557	17615.07
788.89	17619.59
789.223	17537.11
789.556	17344.57
789.888	17377.79
790.221	17365.36
790.554	17111.13
790.887	17058.03
791.219	17093.51
791.552	17078.14
791.884	17046.05
792.217	16958.37
792.549	16806.28
792.882	16712.5
793.214	16698.49
793.546	16672.73
793.879	16616.68
794.211	16544.59
794.543	16588.66
794.875	16494.2
795.207	16536.46
795.539	16377.14
795.871	16347.08
796.203	16174.66
796.535	16190.48
796.867	16194.77
797.198	16133.53
797.53	16073.87
797.862	16032.97
798.193	15998.17
798.525	15870.71
798.856	15840.2
799.188	15766.76
799.519	15642.24
799.85	15630.27
800.182	15665.75
800.513	15579.87
800.844	15462.59
801.175	15502.59
801.506	15490.16
801.837	15444.28
802.168	15426.2
802.499	15362.93
802.83	15202.03
803.161	15154.35
803.491	15195.93
803.822	15223.27
804.153	15092.2
804.483	14914.13
804.814	14923.62
805.145	14943.51
805.475	14955.03
805.805	14859.21
806.136	14827.58
806.466	14848.14
806.796	14814.02
807.126	14654.02
807.457	14638.65
807.787	14662.83
808.117	14504.19
808.447	14479.79
808.777	14665.32
809.107	14480.01
809.436	14427.81
809.766	14460.13
810.096	14352.79
810.426	14335.84
810.755	14286.12
811.085	14327.48
811.414	14266.69
811.744	14147.37
812.073	14089.29
812.403	14063.98
812.732	13997.32
813.061	14017.2
813.39	13903.76
813.719	13864.44
814.049	13916.64
814.378	13857.88
814.707	13745.12
815.036	13778.11
815.365	13720.26
815.693	13648.4
816.022	13606.37
816.351	13581.96
816.68	13525.69
817.008	13517.55
817.337	13414.28
817.665	13468.97
817.994	13409.99
818.322	13358.91
818.651	13318.24
818.979	13377.9
819.307	13343.55
819.636	13255.19
819.964	13262.65
820.292	13266.04
820.62	13350.55
820.948	13231.91
821.276	13216.32
821.604	13220.84
821.932	13178.13
822.259	13141.29
822.587	13224
822.915	13133.84
823.243	13210.67
823.57	13161.41
823.898	13098.36
824.225	13119.6
824.553	13158.24
824.88	13138.13
825.207	13189.88
825.535	13134.06
825.862	13143.1
826.189	13080.96
826.516	13126.15
826.843	13091.58
827.17	13144.23
827.497	13182.42
827.824	13137
828.151	13160.95
828.478	13085.48
828.805	13175.87
829.131	13064.68
829.458	13071.92
829.785	13003.67
830.111	13030.79
830.438	13123.67
830.764	13085.7
831.09	13001.64
831.417	12974.97
831.743	13055.19
832.069	13056.1
832.395	13038.7
832.722	12987.62
833.048	12962.54
833.374	13023.56
833.7	12964.57
834.026	12990.11
834.351	13036.21
834.677	12913.05
835.003	12892.26
835.329	12931.35
835.654	12926.16
835.98	12862.2
836.306	12877.12
836.631	12812.49
836.956	12897.01
837.282	12779.04
837.607	12691.59
837.932	12772.04
838.258	12816.33
838.583	12787.63
838.908	12654.98
839.233	12648.65
839.558	12650.68
839.883	12490.01
840.208	12595.09
840.533	12591.7
840.858	12604.13
841.182	12538.6
841.507	12565.26
841.832	12525.04
842.156	12429.45
842.481	12435.55
842.805	12467.64
843.13	12348.55
843.454	12400.3
843.778	12242.79
844.103	12302.22
844.427	12241.2
844.751	12273.97
845.075	12160.08
845.399	12211.15
845.723	12181.77
846.047	12067.2
846.371	12028.78
846.695	11978.16
847.019	11971.83
847.343	11822.46
847.666	11865.85
847.99	11818.84
848.313	11782.91
848.637	11678.28
848.96	11664.04
849.284	11669.24
849.607	11444.84
849.931	11418.63
850.254	11397.38
850.577	11394.22
850.9	11304.96
851.223	11278.74
851.546	11247.33
851.869	11210.72
852.192	11229.03
852.515	11163.94
852.838	11077.39
853.161	11106.54
853.483	11064.51
853.806	10943.84
854.129	10912.42
854.451	10888.24
854.774	10898.19
855.096	10839.43
855.419	10832.2
855.741	10727.12
856.063	10685.31
856.385	10720.57
856.708	10669.49
857.03	10627.69
857.352	10625.65
857.674	10630.85
857.996	10594.92
858.318	10464.75
858.64	10528.71
858.961	10445.77
859.283	10479.89
859.605	10287.58
859.926	10356.96
860.248	10342.04
860.57	10289.62
860.891	10298.88
861.212	10282.16
861.534	10293.68
861.855	10170.3
862.176	10299.33
862.498	10177.08
862.819	10187.7
863.14	10186.57
863.461	10115.61
863.782	10114.93
864.103	10132.56
864.424	10062.73
864.745	10104.99
865.065	10007.36
865.386	10002.17
865.707	9970.98
866.027	10000.81
866.348	9945.44
866.668	9912
866.989	9919.23
867.309	9872.9
867.63	9863.64
867.95	9914.71
868.27	9832.45
868.59	9830.87
868.91	9751.55
869.23	9812.79
869.55	9734.6
869.87	9831.55
870.19	9745.22
870.51	9818.22
870.83	9739.12
871.15	9651.22
871.469	9702.51
871.789	9672.68
872.109	9661.84
872.428	9642.4
872.748	9640.82
873.067	9720.37
873.386	9581.61
873.706	9598.79
874.025	9484.44
874.344	9498
874.663	9523.99
874.982	9480.15
875.301	9483.08
875.62	9460.49
875.939	9454.38
876.258	9459.13
876.577	9392.46
876.896	9415.52
877.214	9372.8
877.533	9369.87
877.852	9341.17
878.17	9330.55
878.489	9347.27
878.807	9381.62
879.125	9314.05
879.444	9277.67
879.762	9269.76
880.08	9294.61
880.398	9231.79
880.716	9237.89
881.034	9216.65
881.352	9218.91
881.67	9147.73
881.988	9113.83
882.306	9135.75
882.624	9103.88
882.941	9089.65
883.259	8996.09
883.577	8977.79
883.894	9033.15
884.212	9064.34
884.529	9004.23
884.846	8961.97
885.164	8900.95
885.481	8911.57
885.798	8942.99
886.115	8891.46
886.432	8834.29
886.75	8776.66
887.067	8827.51
887.383	8770.33
887.7	8771.69
888.017	8764.91
888.334	8709.32
888.651	8700.28
888.967	8699.38
889.284	8638.59
889.6	8637.68
889.917	8545.71
890.233	8602.88
890.55	8625.93
890.866	8485.37
891.182	8572.6
891.498	8506.39
891.815	8500.06
892.131	8369.44
892.447	8380.06
892.763	8442.89
893.079	8356.11
893.395	8332.15
893.71	8296.45
894.026	8288.54
894.342	8315.21
894.657	8211.03
894.973	8200.86
895.289	8182.1
895.604	8153.63
895.92	8173.06
896.235	8104.59
896.55	8109.11
896.865	8029.34
897.181	8063.23
897.496	8051.94
897.811	8001.09
898.126	7947.08
898.441	7949.11
898.756	7883.58
899.071	7861.43
899.386	7840.64
899.7	7799.96
900.015	7732.62
900.33	7724.26
900.644	7692.62
900.959	7749.34
901.273	7643.58
901.588	7656.47
901.902	7625.73
902.216	7576.69
902.531	7546.19
902.845	7509.8
903.159	7494.89
903.473	7430.71
903.787	7485.62
904.101	7407.21
904.415	7440.65
904.729	7360.65
905.042	7316.14
905.356	7313.2
905.67	7268.68
905.984	7324.5
906.297	7251.5
906.611	7151.17
906.924	7193.2
907.237	7195.23
907.551	7111.62
907.864	7174.67
908.177	7067.78
908.491	7074.79
908.804	7026.2
909.117	6964.05
909.43	6936.48
909.743	6911.4
910.056	6969.03
910.368	6915.02
910.681	6823.72
910.994	6828.92
911.307	6830.27
911.619	6714.34
911.932	6770.84
912.244	6727.68
912.557	6686.32
912.869	6625.76
913.181	6646.55
913.494	6671.63
913.806	6561.58
914.118	6500.11
914.43	6466.21
914.742	6489.04
915.054	6446.1
915.366	6484.74
915.678	6455.37
915.99	6383.96
916.302	6326.78
916.613	6334.01
916.925	6316.84
917.236	6297.18
917.548	6277.07
917.859	6241.81
918.171	6231.19
918.482	6172.21
918.794	6127.24
919.105	6167.69
919.416	6050.63
919.727	6108.03
920.038	6049.05
920.349	6000.24
920.66	6008.15
920.971	5997.75
921.282	5971.76
921.593	5913.46
921.903	5903.52
922.214	5882.95
922.525	5884.53
922.835	5815.84
923.146	5794.14
923.456	5763.41
923.767	5765.22
924.077	5758.89
924.387	5700.81
924.697	5723.41
925.008	5697.19
925.318	5665.11
925.628	5589.85
925.938	5588.05
926.248	5586.46
926.558	5584.88
926.867	5558.22
927.177	5530.65
927.487	5426.92
927.796	5453.81
928.106	5441.38
928.416	5453.81
928.725	5376.98
929.034	5418.56
929.344	5325.23
929.653	5368.62
929.962	5333.14
930.271	5254.27
930.581	5293.14
930.89	5238
931.199	5256.3
931.508	5180.37
931.817	5179.47
932.125	5169.75
932.434	5197.09
932.743	5060.15
933.051	5113.26
933.36	5049.98
933.669	5002.07
933.977	4956.2
934.286	5006.82
934.594	4998.46
934.902	4953.03
935.21	4931.34
935.519	4944.67
935.827	4902.87
936.135	4892.02
936.443	4859.02
936.751	4798.69
937.059	4792.81
937.367	4790.1
937.674	4757.33
937.982	4767.28
938.29	4710.33
938.597	4720.72
938.905	4680.5
939.213	4662.65
939.52	4697
939.827	4600.73
940.135	4579.71
940.442	4595.53
940.749	4567.51
941.056	4522.76
941.363	4496.77
941.67	4538.36
941.977	4472.82
942.284	4443.89
942.591	4426.27
942.898	4400.05
943.205	4431.92
943.511	4417
943.818	4388.08
944.125	4305.82
944.431	4309.43
944.738	4313.5
945.044	4325.25
945.35	4268.08
945.657	4300.17
945.963	4257.46
946.269	4218.14
946.575	4226.73
946.881	4265.14
947.187	4221.75
947.493	4158.48
947.799	4138.37
948.105	4139.04
948.41	4121.87
948.716	4102.89
949.022	4085.03
949.327	4057.92
949.633	4044.81
949.938	4045.94
950.244	3991.7
950.549	4011.14
950.854	3966.62
951.16	3977.01
951.465	3939.5
951.77	3940.4
952.075	3902.21
952.38	3871.48
952.685	3882.55
952.99	3778.38
953.294	3836.68
953.599	3812.5
953.904	3765.95
954.209	3770.92
954.513	3780.64
954.818	3752.39
955.122	3697.7
955.426	3689.79
955.731	3709.22
956.035	3684.82
956.339	3697.02
956.643	3681.2
956.948	3625.16
957.252	3613.86
957.556	3569.57
957.86	3581.32
958.163	3568.21
958.467	3607.31
958.771	3585.84
959.075	3551.94
959.378	3515.11
959.682	3520.53
959.985	3487.08
960.289	3438.27
960.592	3459.74
960.896	3443.02
961.199	3457.93
961.502	3454.09
961.805	3426.07
962.108	3374.54
962.411	3351.27
962.714	3342.23
963.017	3373.19
963.32	3317.14
963.623	3344.71
963.926	3321.21
964.228	3294.09
964.531	3310.36
964.833	3275.56
965.136	3229.69
965.438	3244.83
965.741	3196.92
966.043	3186.07
966.345	3164.15
966.648	3173.65
966.95	3166.64
967.252	3153.31
967.554	3146.08
967.856	3142.91
968.158	3090.94
968.46	3112.18
968.761	3099.07
969.063	3057.49
969.365	3074.21
969.666	3062.69
969.968	3025.4
970.269	3012.29
970.571	3008.45
970.872	2983.14
971.174	2952.41
971.475	2942.92
971.776	2931.39
972.077	2918.96
972.378	2928.91
972.679	2926.87
972.98	2887.55
973.281	2920.54
973.582	2906.31
973.883	2869.7
974.183	2870.6
974.484	2786.31
974.785	2813.65
975.085	2845.74
975.386	2789.25
975.686	2742.24
975.986	2769.81
976.287	2769.14
976.587	2711.96
976.887	2735.01
977.187	2780.66
977.487	2685.97
977.787	2707.67
978.087	2698.4
978.387	2663.38
978.687	2705.64
978.987	2631.51
979.286	2646.43
979.586	2655.24
979.885	2593.77
980.185	2603.72
980.484	2597.39
980.784	2628.57
981.083	2553.55
981.382	2579.54
981.682	2573.21
981.981	2532.31
982.28	2516.71
982.579	2507.67
982.878	2538.63
983.177	2518.97
983.475	2498.63
983.774	2504.28
984.073	2479.43
984.372	2421.12
984.67	2463.83
984.969	2434.46
985.267	2428.81
985.566	2452.08
985.864	2417.06
986.162	2394.46
986.461	2391.29
986.759	2374.12
987.057	2369.37
987.355	2316.04
987.653	2343.61
987.951	2345.19
988.249	2354.68
988.547	2292.54
988.844	2312.43
989.142	2307.45
989.44	2299.77
989.737	2282.6
990.035	2308.36
990.332	2246.89
990.63	2217.74
990.927	2221.81
991.224	2244.4
991.521	2223.61
991.819	2200.34
992.116	2194.91
992.413	2182.94
992.71	2156.95
993.006	2166.67
993.303	2170.06
993.6	2149.04
993.897	2139.55
994.193	2141.36
994.49	2104.29
994.787	2090.28
995.083	2093.67
995.379	2076.73
995.676	2114.69
995.972	2064.3
996.268	2057.52
996.565	2031.3
996.861	2032.21
997.157	2050.51
997.453	2008.48
997.749	2004.86
998.044	1996.95
998.34	1981.36
998.636	1993.56
998.932	1956.28
999.227	1957.63
999.523	1958.76
999.818	1941.59
1000.114	1956.05
1000.409	1907.92
1000.704	1908.59
1001	1885.32
1001.295	1911.08
1001.59	1901.81
1001.885	1848.26
1002.18	1856.84
1002.475	1843.28
1002.77	1840.35
1003.065	1814.59
1003.359	1829.27
1003.654	1812.33
1003.949	1793.79
1004.243	1795.15
1004.538	1773.46
1004.832	1812.55
1005.127	1766
1005.421	1762.38
1005.715	1757.64
1006.009	1740.69
1006.304	1722.38
1006.598	1721.48
1006.892	1735.04
1007.186	1674.25
1007.48	1713.34
1007.773	1693.23
1008.067	1670.63
1008.361	1669.73
1008.655	1627.7
1008.948	1650.52
1009.242	1642.39
1009.535	1645.1
1009.829	1616.4
1010.122	1623.63
1010.415	1616.85
1010.708	1603.97
1011.001	1563.07
1011.295	1565.55
1011.588	1573.24
1011.881	1579.11
1012.173	1535.72
1012.466	1530.52
1012.759	1514.93
1013.052	1544.08
1013.344	1521.26
1013.637	1494.14
1013.93	1496.18
1014.222	1490.07
1014.514	1486.23
1014.807	1455.27
1015.099	1470.41
1015.391	1448.49
1015.683	1424.99
1015.976	1455.27
1016.268	1440.81
1016.56	1407.82
1016.851	1418.21
1017.143	1405.56
1017.435	1386.8
1017.727	1377.08
1018.018	1366.46
1018.31	1380.7
1018.602	1357.42
1018.893	1365.33
1019.185	1337.99
1019.476	1325.56
1019.767	1320.13
1020.058	1323.52
1020.35	1326.24
1020.641	1309.06
1020.932	1307.93
1021.223	1284.43
1021.514	1315.16
1021.804	1286.24
1022.095	1247.14
1022.386	1248.27
1022.677	1254.83
1022.967	1240.36
1023.258	1234.49
1023.548	1262.06
1023.839	1222.06
1024.129	1202.4
1024.419	1206.69
1024.709	1198.56
1025	1215.73
1025.29	1171.44
1025.58	1172.79
1025.87	1193.13
1026.16	1141.38
1026.449	1156.75
1026.739	1150.2
1027.029	1152.91
1027.319	1111.78
1027.608	1157.43
1027.898	1147.48
1028.187	1103.87
1028.477	1114.94
1028.766	1075.4
1029.055	1077.88
1029.344	1068.16
1029.634	1094.6
1029.923	1066.36
1030.212	1078.33
1030.501	1058.22
1030.79	1061.16
1031.078	1055.06
1031.367	1056.64
1031.656	1009.41
1031.945	1022.06
1032.233	1027.04
1032.522	1008.28
1032.81	1000.14
1033.099	992.69
1033.387	997.43
1033.675	982.06
1033.963	971.44
1034.251	986.36
1034.54	962.18
1034.828	984.1
1035.116	973.93
1035.403	940.03
1035.691	951.33
1035.979	943.65
1036.267	918.34
1036.554	923.76
1036.842	933.25
1037.129	928.73
1037.417	907.49
1037.704	912.46
1037.992	905.23
1038.279	897.77
1038.566	885.34
1038.853	885.34
1039.14	885.34
