Data from hue_70_FLMS001491_38.txt Node
Date: Mon Feb 06 15:20:46 GMT 2017
User: dcchb
Spectrometer: FLMS00149
Trigger mode: 0
Integration Time (sec): 2.000000E-2
Scans to average: 10
Electric dark correction enabled: true
Nonlinearity correction enabled: false
Boxcar width: 0
XAxis mode: Wavelengths
Number of Pixels in Spectrum: 2048
>>>>>Begin Spectral Data<<<<<
341.393	-28.28
341.776	-28.28
342.16	-28.28
342.543	-59.24
342.927	-59.69
343.31	-62.85
343.693	-66.02
344.077	-53.36
344.46	-66.47
344.843	-53.13
345.226	-49.07
345.61	-29.18
345.993	-33.25
346.376	-16.3
346.759	5.62
347.142	18.95
347.525	38.61
347.908	55.34
348.291	86.52
348.674	77.48
349.057	147.09
349.44	121.32
349.823	141.44
350.206	174.88
350.588	195.9
350.971	209.01
351.354	240.87
351.737	243.36
352.119	233.19
352.502	270.7
352.884	262.11
353.267	285.39
353.65	310.7
354.032	303.92
354.414	288.33
354.797	318.83
355.179	306.86
355.562	312.51
355.944	341.88
356.326	350.25
356.709	339.17
357.091	344.82
357.473	348.89
357.855	361.09
358.238	336.01
358.62	335.1
359.002	339.85
359.384	346.86
359.766	322.22
360.148	333.52
360.53	351.83
360.912	346.63
361.294	345.95
361.676	342.34
362.057	345.95
362.439	340.53
362.821	317.03
363.203	347.99
363.584	330.58
363.966	327.42
364.348	322.68
364.729	329.91
365.111	322.68
365.493	318.38
365.874	308.66
366.256	331.49
366.637	322.45
367.019	327.42
367.4	322.68
367.781	314.54
368.163	322
368.544	321.32
368.925	309.12
369.306	317.25
369.688	307.99
370.069	307.76
370.45	333.75
370.831	311.83
371.212	312.28
371.593	304.82
371.974	326.74
372.355	302.34
372.736	314.09
373.117	323.81
373.498	301.21
373.879	323.35
374.26	331.26
374.641	293.07
375.021	301.88
375.402	311.6
375.783	329.23
376.163	307.08
376.544	319.06
376.925	320.42
377.305	317.7
377.686	320.64
378.066	323.81
378.447	329
378.827	324.26
379.208	311.15
379.588	317.25
379.968	323.13
380.349	329.45
380.729	329.45
381.109	319.74
381.489	305.27
381.87	342.34
382.25	312.05
382.63	364.48
383.01	328.1
383.39	337.82
383.77	334.65
384.15	344.37
384.53	331.94
384.91	329.68
385.29	359.96
385.67	350.92
386.049	364.48
386.429	371.26
386.809	350.7
387.189	349.79
387.568	345.73
387.948	335.78
388.328	354.99
388.707	342.79
389.087	335.33
389.466	336.01
389.846	352.73
390.225	388.44
390.605	348.44
390.984	357.93
391.363	369.91
391.743	367.42
392.122	363.35
392.501	362.9
392.881	349.34
393.26	383.69
393.639	364.48
394.018	348.44
394.397	369.23
394.776	361.54
395.155	378.04
395.534	376.23
395.913	364.48
396.292	356.12
396.671	381.2
397.05	393.41
397.429	373.3
397.808	378.72
398.186	385.5
398.565	381.2
398.944	383.01
399.323	376.23
399.701	375.1
400.08	365.16
400.458	385.5
400.837	383.01
401.215	379.17
401.594	390.02
401.972	400.19
402.351	406.74
402.729	399.96
403.107	378.49
403.486	394.31
403.864	390.24
404.242	393.86
404.62	403.35
404.999	407.64
405.377	419.85
405.755	400.41
406.133	412.84
406.511	401.54
406.889	417.81
407.267	412.84
407.645	404.25
408.023	429.11
408.401	400.19
408.779	409.23
409.156	421.88
409.534	415.78
409.912	418.94
410.29	439.73
410.667	438.38
411.045	418.04
411.422	438.38
411.8	437.7
412.178	413.75
412.555	447.87
412.933	447.42
413.31	428.21
413.687	438.6
414.065	466.17
414.442	439.51
414.819	443.12
415.197	461.2
415.574	444.25
415.951	460.52
416.328	475.44
416.705	467.3
417.082	468.21
417.46	451.03
417.837	470.69
418.214	463.01
418.591	476.12
418.967	497.59
419.344	471.82
419.721	479.96
420.098	497.36
420.475	508.21
420.852	503.46
421.228	495.55
421.605	496.23
421.982	498.26
422.358	503.69
422.735	496.23
423.111	498.94
423.488	504.82
423.864	517.7
424.241	508.21
424.617	517.25
424.994	524.7
425.37	511.6
425.746	522.9
426.123	552.5
426.499	550.69
426.875	529.45
427.251	541.65
427.627	535.32
428.003	534.42
428.379	558.38
428.756	559.73
429.132	565.38
429.507	569.45
429.883	555.66
430.259	561.99
430.635	592.95
431.011	565.38
431.387	615.32
431.763	586.85
432.138	586.85
432.514	601.31
432.89	578.71
433.265	627.53
433.641	609
434.016	599.96
434.392	613.51
434.767	618.03
435.143	638.83
435.518	653.51
435.894	644.02
436.269	632.27
436.644	655.32
437.02	670.24
437.395	638.37
437.77	660.07
438.145	649.45
438.52	654.64
438.895	683.8
439.271	670.91
439.646	686.51
440.021	672.27
440.395	672.72
440.77	676.11
441.145	710.01
441.52	730.35
441.895	671.14
442.27	717.69
442.645	715.89
443.019	705.94
443.394	743
443.769	684.02
444.143	706.17
444.518	724.7
444.892	730.35
445.267	716.79
445.641	703
446.016	740.07
446.39	762.89
446.764	727.64
447.139	747.3
447.513	750.91
447.887	761.31
448.262	749.56
448.636	771.93
449.01	781.42
449.384	790.69
449.758	808.31
450.132	794.98
450.506	794.98
450.88	789.56
451.254	798.14
451.628	837.46
452.002	802.89
452.376	826.39
452.75	830.91
453.123	824.58
453.497	850.8
453.871	842.44
454.244	872.49
454.618	876.33
454.992	871.14
455.365	891.7
455.739	907.29
456.112	890.12
456.486	920.63
456.859	939.38
457.232	952.94
457.606	942.77
457.979	923.11
458.352	973.96
458.725	980.96
459.099	982.32
459.472	995.2
459.845	999.72
460.218	982.32
460.591	1049.21
460.964	1023.9
461.337	1067.06
461.71	1057.12
462.083	1085.82
462.456	1058.93
462.829	1106.16
463.201	1107.97
463.574	1085.82
463.947	1117.46
464.32	1140.28
464.692	1151.13
465.065	1147.51
465.438	1179.15
465.81	1179.15
466.183	1195.87
466.555	1222.76
466.928	1230.9
467.3	1246.49
467.672	1285.81
468.045	1331.24
468.417	1298.92
468.789	1308.19
469.161	1344.34
469.534	1363.33
469.906	1382.76
470.278	1419.14
470.65	1437.67
471.022	1457.79
471.394	1506.82
471.766	1506.15
472.138	1540.27
472.51	1578.46
472.882	1587.5
473.253	1644
473.625	1690.32
473.997	1727.38
474.369	1755.41
474.74	1775.97
475.112	1824.78
475.484	1847.61
475.855	1921.96
476.227	1952.91
476.598	1984.55
476.97	2025.91
477.341	2098
477.713	2152.91
478.084	2168.5
478.455	2260.93
478.827	2302.96
479.198	2396.74
479.569	2426.57
479.94	2523.52
480.311	2553.35
480.682	2636.96
481.053	2756.96
481.424	2824.98
481.795	2896.84
482.166	2930.29
482.537	3026.56
482.908	3145.88
483.279	3238.08
483.65	3313.78
484.021	3427.23
484.391	3521.46
484.762	3590.84
485.133	3687.11
485.503	3760.32
485.874	3884.39
486.244	3972.52
486.615	4132.52
486.985	4216.81
487.356	4365.51
487.726	4479.18
488.097	4574.77
488.467	4679.85
488.837	4814.99
489.207	4905.83
489.578	5066.51
489.948	5190.8
490.318	5360.96
490.688	5386.95
491.058	5543.33
491.428	5740.39
491.798	5815.19
492.168	6003.66
492.538	6135.86
492.908	6247.94
493.278	6391.67
493.648	6530.2
494.017	6661.27
494.387	6794.6
494.757	6914.82
495.126	7094.7
495.496	7212.66
495.866	7317.29
496.235	7517.06
496.605	7659.21
496.974	7737.62
497.344	7928.12
497.713	8009.93
498.082	8211.06
498.452	8340.54
498.821	8467.09
499.19	8548.45
499.559	8648.11
499.928	8860.98
500.298	8879.51
500.667	9089.45
501.036	9096.46
501.405	9274.08
501.774	9375.32
502.143	9546.16
502.512	9620.74
502.88	9810.34
503.249	9906.15
503.618	10001.97
503.987	10145.47
504.356	10186.14
504.724	10407.83
505.093	10497.77
505.462	10573.93
505.83	10611.67
506.199	10861.38
506.567	10957.65
506.936	11036.29
507.304	11292.56
507.672	11260.92
508.041	11363.51
508.409	11484.19
508.777	11614.81
509.145	11825.65
509.514	11809.83
509.882	12008.92
510.25	12054.34
510.618	12130.27
510.986	12200.55
511.354	12393.09
511.722	12520.55
512.09	12701.78
512.458	12656.14
512.826	12813.19
513.193	12879.86
513.561	12950.59
513.929	13147.2
514.297	13136.12
514.664	13321.2
515.032	13357.59
515.4	13438.26
515.767	13585.15
516.135	13661.08
516.502	13666.96
516.869	13806.16
517.237	13935.2
517.604	13878.25
517.972	14070.11
518.339	14202.54
518.706	14247.73
519.073	14331.8
519.44	14418.8
519.808	14625.8
520.175	14491.79
520.542	14730.88
520.909	14834.16
521.276	14853.37
521.643	15027.6
522.009	15125
522.376	15181.04
522.743	15275.05
523.11	15437.08
523.477	15673.91
523.843	15608.15
524.21	15798.65
524.577	15873.45
524.943	15917.29
525.31	15966.33
525.676	16107.8
526.043	16181.24
526.409	16296.72
526.776	16479.31
527.142	16436.6
527.508	16545.3
527.874	16617.16
528.241	16756.14
528.607	16800.66
528.973	16862.35
529.339	16895.35
529.705	17091.73
530.071	17157.26
530.437	17209.01
530.803	17374.2
531.169	17371.04
531.535	17257.6
531.901	17418.27
532.267	17489.23
532.632	17660.3
532.998	17604.48
533.364	17586.4
533.73	17666.17
534.095	17841.76
534.461	17847.19
534.826	17845.38
535.192	17980.52
535.557	17952.49
535.923	18015.32
536.288	18033.4
536.653	18140.06
537.019	18045.82
537.384	18234.52
537.749	18227.29
538.114	18224.8
538.479	18211.47
538.845	18286.5
539.21	18295.08
539.575	18321.98
539.94	18310.68
540.305	18377.12
540.67	18462.76
541.034	18470.9
541.399	18527.85
541.764	18616.88
542.129	18563.1
542.494	18521.52
542.858	18636.09
543.223	18582.53
543.587	18720.84
543.952	18682.87
544.316	18646.26
544.681	18701.4
545.045	18866.59
545.41	18841.96
545.774	18794.51
546.138	18746.15
546.503	18906.59
546.867	18754.28
547.231	18928.06
547.595	18839.48
547.959	18940.26
548.324	18872.02
548.688	18954.73
549.052	19040.15
549.416	18992.24
549.779	18996.08
550.143	18959.47
550.507	19146.13
550.871	19114.27
551.235	19099.58
551.599	19149.75
551.962	19142.29
552.326	19125.8
552.689	19241.5
553.053	19184.78
553.417	19290.76
553.78	19516.29
554.143	19310.88
554.507	19350.42
554.87	19407.37
555.234	19631.32
555.597	19436.07
555.96	19568.5
556.323	19667.25
556.686	19581.83
557.05	19696.18
557.413	19696.18
557.776	19718.55
558.139	19820.69
558.502	19763.29
558.865	19875.83
559.228	20071.76
559.59	20041.03
559.953	20011.2
560.316	20154.02
560.679	20126.9
561.041	20241.25
561.404	20311.75
561.767	20452.32
562.129	20313.11
562.492	20551.3
562.854	20529.15
563.217	20459.55
563.579	20539.77
563.941	20617.96
564.304	20613.44
564.666	20822.25
565.028	20883.26
565.39	20874.45
565.753	20953.77
566.115	20980.44
566.477	21086.65
566.839	21194.44
567.201	21252.97
567.563	21331.61
567.925	21318.51
568.287	21294.78
568.648	21354.89
569.01	21506.75
569.372	21641.89
569.734	21552.85
570.095	21661.32
570.457	21696.12
570.819	21814.54
571.18	21785.61
571.542	21815.22
571.903	21850.47
572.265	21860.87
572.626	21922.11
572.987	22044.59
573.349	22116.68
573.71	22101.99
574.071	22180.63
574.432	22190.8
574.794	22466.05
575.155	22243
575.516	22291.36
575.877	22329.55
576.238	22414.07
576.599	22447.52
576.96	22475.09
577.32	22519.15
577.681	22582.43
578.042	22609.09
578.403	22539.04
578.763	22628.98
579.124	22590.56
579.485	22682.09
579.845	22706.95
580.206	22686.61
580.566	22737.23
580.927	22682.99
581.287	22825.13
581.648	22675.99
582.008	22855.87
582.368	22679.15
582.728	22845.7
583.089	22827.39
583.449	22900.84
583.809	22842.31
584.169	22824
584.529	22764.8
584.889	22908.3
585.249	22807.73
585.609	22812.71
585.969	22891.35
586.329	22799.82
586.688	22886.6
587.048	22945.36
587.408	22833.5
587.768	22847.96
588.127	22784.68
588.487	22782.65
588.846	22970.22
589.206	22888.64
589.565	22775.19
589.925	22935.64
590.284	22905.58
590.643	22798.69
591.003	22967.96
591.362	22961.4
591.721	22905.36
592.08	22906.26
592.44	22900.16
592.799	22966.6
593.158	22888.86
593.517	22936.32
593.876	22917.56
594.235	22824.91
594.593	22921.18
594.952	22944.68
595.311	22980.84
595.67	22916.66
596.029	23057.67
596.387	23089.31
596.746	23027.39
597.104	22916.43
597.463	22920.73
597.822	23015.64
598.18	22951.91
598.538	22894.29
598.897	23059.03
599.255	22895.41
599.613	23161.85
599.972	23033.72
600.33	23188.74
600.688	23021.97
601.046	23101.06
601.404	23107.61
601.762	23065.81
602.12	23266.93
602.478	23120.95
602.836	23182.19
603.194	23108.97
603.552	23089.08
603.91	23188.06
604.268	23295.18
604.625	23259.02
604.983	23195.07
605.341	23116.2
605.698	23275.29
606.056	23360.94
606.413	23260.15
606.771	23376.53
607.128	23396.42
607.485	23390.09
607.843	23329.53
608.2	23449.75
608.557	23504.66
608.914	23507.15
609.272	23563.42
609.629	23571.33
609.986	23793.7
610.343	23585.11
610.7	23785.79
611.057	23666.92
611.414	23717.99
611.771	23796.86
612.127	23864.65
612.484	23767.93
612.841	23985.1
613.198	23690.2
613.554	23705.11
613.911	23997.08
614.267	23983.3
614.624	23874.15
614.98	23925.44
615.337	24044.76
615.693	24066.23
616.05	24011.54
616.406	24226.45
616.762	24197.3
617.118	24079.56
617.475	24058.77
617.831	24166.57
618.187	24306.23
618.543	24287.92
618.899	24321.37
619.255	24256.51
619.611	24320.46
619.967	24447.46
620.323	24447.92
620.678	24416.73
621.034	24316.62
621.39	24333.8
621.746	24367.01
622.101	24561.81
622.457	24350.07
622.812	24425.32
623.168	24520
623.523	24487.92
623.879	24616.05
624.234	24454.92
624.589	24586.44
624.945	24526.11
625.3	24504.19
625.655	24576.5
626.01	24597.07
626.365	24571.98
626.72	24474.13
627.075	24609.95
627.43	24468.48
627.785	24469.84
628.14	24625.54
628.495	24670.51
628.85	24452.44
629.205	24461.02
629.559	24659.66
629.914	24554.13
630.269	24542.6
630.623	24563.85
630.978	24412.66
631.332	24522.72
631.687	24523.17
632.041	24466.67
632.396	24425.09
632.75	24365.88
633.104	24402.95
633.459	24274.14
633.813	24274.59
634.167	24340.57
634.521	24331.76
634.875	24409.95
635.229	24399.78
635.583	24115.72
635.937	24279.79
636.291	24259.22
636.645	24239.11
636.999	24133.12
637.352	24282.27
637.706	24019.23
638.06	24195.72
638.413	24046.35
638.767	24073.92
639.121	24124.54
639.474	24003.41
639.828	24017.19
640.181	24079.34
640.534	24079.79
640.888	23962.73
641.241	23792.34
641.594	23989.85
641.947	24045.44
642.301	23945.78
642.654	23986.46
643.007	23826.24
643.36	23985.33
643.713	23812.68
644.066	23940.59
644.419	23774.26
644.771	23610.88
645.124	23481.84
645.477	23362.75
645.83	23258.34
646.182	23143.32
646.535	23137.44
646.888	23202.75
647.24	22916.43
647.593	23029.65
647.945	23070.1
648.298	23023.1
648.65	22932.02
649.002	22831.46
649.355	22979.71
649.707	22943.55
650.059	23042.76
650.411	23260.15
650.763	23307.38
651.115	23482.97
651.467	23476.64
651.819	23337.21
652.171	23422.63
652.523	23385.8
652.875	23341.73
653.227	23299.92
653.578	23482.74
653.93	23434.38
654.282	23318
654.633	23217.44
654.985	23430.32
655.337	23205.01
655.688	23345.57
656.039	23474.16
656.391	23248.63
656.742	23260.83
657.094	23353.48
657.445	23351
657.796	23333.82
658.147	23321.62
658.498	23299.7
658.849	23273.94
659.2	23230.1
659.551	23275.74
659.902	23416.08
660.253	23351.67
660.604	23379.24
660.955	23206.82
661.306	23319.81
661.656	23339.47
662.007	23334.95
662.358	23364.33
662.708	23351.22
663.059	23322.75
663.409	23143.54
663.76	23307.38
664.11	23280.04
664.461	23318.45
664.811	23242.75
665.161	23308.96
665.511	23249.76
665.862	23296.31
666.212	23326.59
666.562	23446.81
666.912	23237.1
667.262	23295.63
667.612	23316.19
667.962	23314.16
668.312	23352.13
668.662	23401.39
669.011	23454.5
669.361	23164.56
669.711	23257.89
670.06	23181.96
670.41	23115.3
670.76	23068.74
671.109	23208.18
671.459	23192.13
671.808	23129.08
672.157	23287.04
672.507	23057.44
672.856	23106.71
673.205	23190.77
673.554	23174.28
673.904	23049.76
674.253	23173.15
674.602	23058.35
674.951	22744.01
675.3	22633.05
675.649	22976.77
675.998	23060.16
676.346	22966.83
676.695	23000.27
677.044	22933.15
677.393	22977.67
677.741	22949.88
678.09	22942.65
678.438	22798.69
678.787	22843.21
679.135	22842.76
679.484	22706.95
679.832	22850.67
680.181	22737
680.529	22801.41
680.877	22779.03
681.225	22678.92
681.573	22806.6
681.922	22611.35
682.27	22615.2
682.618	22593.5
682.966	22512.37
683.314	22491.36
683.661	22472.38
684.009	22328.2
684.357	22319.84
684.705	22283.23
685.053	22279.16
685.4	22230.12
685.748	22116.9
686.095	22046.4
686.443	22078.04
686.79	22022.9
687.138	22050.01
687.485	21949.45
687.832	21878.27
688.18	21863.8
688.527	21765.05
688.874	21758.27
689.221	21734.77
689.568	21686.18
689.915	21558.73
690.262	21522.8
690.609	21633.3
690.956	21302.01
691.303	21301.56
691.65	21212.3
691.997	21250.71
692.344	21152.64
692.69	21160.32
693.037	21219.53
693.383	21071.96
693.73	21082.36
694.077	20928.91
694.423	20969.36
694.769	20908.8
695.116	20748.13
695.462	20776.83
695.808	20856.82
696.155	20717.62
696.501	20490.51
696.847	20521.24
697.193	20261.36
697.539	20420.9
697.885	20290.96
698.231	20196.5
698.577	20274.69
698.923	20062.5
699.269	20019.56
699.614	19894.36
699.96	19921.03
700.306	19863.86
700.651	19862.95
700.997	19700.47
701.342	19756.51
701.688	19705.67
702.033	19580.02
702.379	19523.07
702.724	19390.2
703.069	19526.69
703.415	19287.6
703.76	19252.12
704.105	19238.11
704.45	19299.58
704.795	19126.93
705.14	19093.26
705.485	19003.99
705.83	18953.37
706.175	18949.3
706.52	18859.81
706.865	18769.42
707.209	18785.69
707.554	18756.54
707.899	18728.29
708.243	18626.6
708.588	18565.81
708.932	18437.23
709.277	18519.71
709.621	18408.3
709.966	18362.65
710.31	18343.9
710.654	18210.57
710.998	18273.84
711.342	18203.56
711.687	18127.63
712.031	18102.32
712.375	18062.32
712.719	18146.16
713.063	17969.67
713.407	18064.13
713.75	17872.72
714.094	17905.49
714.438	17867.98
714.782	17952.49
715.125	17770.58
715.469	17833.18
715.812	17712.95
716.156	17579.17
716.499	17672.73
716.843	17717.7
717.186	17577.14
717.53	17623.46
717.873	17629.79
718.216	17516.12
718.559	17454.65
718.902	17369.68
719.246	17377.37
719.589	17375.11
719.932	17341.66
720.275	17273.19
720.617	17259.4
720.96	17313.41
721.303	17302.57
721.646	17179.63
721.989	17152.52
722.331	17230.48
722.674	17103.93
723.016	17091.95
723.359	17115
723.701	17075.91
724.044	16977.6
724.386	17002.24
724.729	17009.92
725.071	16963.59
725.413	17023.48
725.755	16875.01
726.097	16886.08
726.439	16810.6
726.782	16821.68
727.124	16850.6
727.465	16738.06
727.807	16825.97
728.149	16788.68
728.491	16722.02
728.833	16771.96
729.175	16719.76
729.516	16622.81
729.858	16682.24
730.199	16621.23
730.541	16625.98
730.882	16625.75
731.224	16652.19
731.565	16584.85
731.906	16520.89
732.248	16626.88
732.589	16506.66
732.93	16504.4
733.271	16472.08
733.612	16526.77
733.953	16554.56
734.294	16446.09
734.635	16451.29
734.976	16499.2
735.317	16382.14
735.658	16541.91
735.999	16439.54
736.339	16510.95
736.68	16516.37
737.021	16325.64
737.361	16348.69
737.702	16466.88
738.042	16397.28
738.383	16379.65
738.723	16387.56
739.063	16300.11
739.404	16397.73
739.744	16381.01
740.084	16230.96
740.424	16359.54
740.764	16289.49
741.104	16339.66
741.444	16267.57
741.784	16191.86
742.124	16388.69
742.464	16237.51
742.804	16322.03
743.143	16251.52
743.483	16333.1
743.823	16239.54
744.162	16322.93
744.502	16373.78
744.841	16307.79
745.181	16383.5
745.52	16224.86
745.86	16416.94
746.199	16399.31
746.538	16400.44
746.877	16487.67
747.216	16473.44
747.556	16537.39
747.895	16600.89
748.234	16515.47
748.573	16618.97
748.911	16572.87
749.25	16600.67
749.589	16546.2
749.928	16727.89
750.267	16720.44
750.605	16783.49
750.944	16806.54
751.283	16807.89
751.621	16831.62
751.96	16801.79
752.298	16978.06
752.636	17037.26
752.975	16986.87
753.313	17013.54
753.651	17123.59
753.989	17071.39
754.327	17186.19
754.666	17180.99
755.004	17319.29
755.342	17428.89
755.679	17479.74
756.017	17426.18
756.355	17566.52
756.693	17540.53
757.031	17706.62
757.368	17681.31
757.706	17724.25
758.044	17708.43
758.381	17910.91
758.719	17925.6
759.056	18064.81
759.394	18098.25
759.731	18011.48
760.068	18088.08
760.405	18129.89
760.743	18218.93
761.08	18393.61
761.417	18146.39
761.754	18366.04
762.091	18391.8
762.428	18428.19
762.765	18432.93
763.102	18518.81
763.438	18601.29
763.775	18426.38
764.112	18512.25
764.449	18614.85
764.785	18635.87
765.122	18609.43
765.458	18611.91
765.795	18610.1
766.131	18611.69
766.467	18723.32
766.804	18634.28
767.14	18701.85
767.476	18705.24
767.812	18663.44
768.148	18902.53
768.485	18768.29
768.821	18651.46
769.157	18715.64
769.492	18697.79
769.828	18685.36
770.164	18581.18
770.5	18665.7
770.836	18647.17
771.171	18576.88
771.507	18577.79
771.842	18515.19
772.178	18539.82
772.513	18526.49
772.849	18441.29
773.184	18580.27
773.519	18519.26
773.855	18418.24
774.19	18465.25
774.525	18357.23
774.86	18390
775.195	18510.45
775.53	18276.1
775.865	18260.96
776.2	18192.71
776.535	18028.65
776.87	18127.4
777.205	18085.37
777.539	17884.47
777.874	18093.96
778.209	17857.81
778.543	17852.84
778.878	17844.25
779.212	17912.72
779.547	17801.54
779.881	17798.15
780.215	17655.33
780.55	17685.16
780.884	17607.64
781.218	17554.76
781.552	17581.66
781.886	17415.33
782.22	17411.27
782.554	17354.09
782.888	17245.39
783.222	17206.98
783.556	17159.75
783.889	17066.87
784.223	17021.22
784.557	16927.66
784.89	17030.94
785.224	16912.07
785.557	16849.47
785.891	16722.7
786.224	16816.48
786.558	16759.08
786.891	16596.37
787.224	16614.22
787.557	16545.75
787.891	16475.24
788.224	16499.2
788.557	16515.47
788.89	16510.72
789.223	16425.53
789.556	16398.86
789.888	16195.03
790.221	16233.22
790.554	16138.76
790.887	16081.36
791.219	16018.99
791.552	16002.71
791.884	15950.51
792.217	15861.93
792.549	15856.5
792.882	15752.33
793.214	15725.66
793.546	15783.74
793.879	15660.12
794.211	15618.77
794.543	15627.36
794.875	15497.42
795.207	15506
795.539	15386.46
795.871	15435.95
796.203	15278.89
796.535	15254.71
796.867	15282.28
797.198	15191.21
797.53	15120.7
797.862	15096.75
798.193	15070.54
798.525	15002.52
798.856	15051.78
799.188	14832.8
799.519	14875.74
799.85	14696.31
800.182	14768.62
800.513	14781.73
800.844	14626.48
801.175	14663.54
801.506	14745.12
801.837	14555.97
802.168	14567.27
802.499	14563.88
802.83	14412.25
803.161	14426.71
803.491	14412.93
803.822	14335.64
804.153	14312.82
804.483	14225.59
804.814	14140.39
805.145	14127.28
805.475	14165.02
805.805	14138.13
806.136	14030.56
806.466	14097.23
806.796	13984.01
807.126	13874.18
807.457	13871.25
807.787	13810.23
808.117	13815.88
808.447	13721.42
808.777	13778.59
809.107	13719.84
809.436	13654.3
809.766	13699.05
810.096	13633.06
810.426	13566.62
810.755	13575.66
811.085	13611.14
811.414	13587.86
811.744	13356.68
812.073	13326.63
812.403	13424.93
812.732	13318.94
813.061	13247.98
813.39	13234.88
813.719	13147.2
814.049	13234.88
814.378	13250.24
814.707	13131.83
815.036	13082.79
815.365	12974.55
815.693	12972.96
816.022	12937.48
816.351	12914.21
816.68	12895.68
817.008	12936.58
817.337	12778.39
817.665	12712.41
817.994	12809.58
818.322	12750.6
818.651	12637.83
818.979	12686.87
819.307	12729.81
819.636	12669.24
819.964	12696.81
820.292	12631.05
820.62	12582.47
820.948	12564.61
821.276	12616.14
821.604	12542.01
821.932	12548.79
822.259	12565.29
822.587	12561
822.915	12509.25
823.243	12594.67
823.57	12540.43
823.898	12495.91
824.225	12603.48
824.553	12461.79
824.88	12516.48
825.207	12526.2
825.535	12491.17
825.862	12481.45
826.189	12545.86
826.516	12551.51
826.843	12626.76
827.17	12546.08
827.497	12496.59
827.824	12518.51
828.151	12549.92
828.478	12520.32
828.805	12570.26
829.131	12488.23
829.458	12524.16
829.785	12386.09
830.111	12520.55
830.438	12476.03
830.764	12509.7
831.09	12461.34
831.417	12411.62
831.743	12439.42
832.069	12495.69
832.395	12409.14
832.722	12433.54
833.048	12392.19
833.374	12402.58
833.7	12388.57
834.026	12390.38
834.351	12355.13
834.677	12322.13
835.003	12404.84
835.329	12315.35
835.654	12380.44
835.98	12281
836.306	12213.21
836.631	12233.1
836.956	12207.79
837.282	12244.4
837.607	12186.09
837.932	12177.5
838.258	12205.75
838.583	12201.01
838.908	12079.88
839.233	12142.03
839.558	12003.95
839.883	12004.18
840.208	11905.65
840.533	12010.73
840.858	12086.21
841.182	12060.22
841.507	11935.48
841.832	11963.5
842.156	11918.75
842.481	11895.7
842.805	11852.77
843.13	11836.04
843.454	11827.01
843.778	11780.45
844.103	11805.31
844.427	11736.16
844.751	11720.79
845.075	11708.14
845.399	11663.17
845.723	11582.49
846.047	11589.27
846.371	11569.39
846.695	11441.93
847.019	11353.57
847.343	11356.96
847.666	11366
847.99	11220.24
848.313	11269.28
848.637	11226.57
848.96	11173.69
849.284	11096.63
849.607	11008.04
849.931	11062.73
850.254	10942.06
850.577	10898.22
850.9	10904.09
851.223	10876.52
851.546	10726.02
851.869	10646.02
852.192	10712.01
852.515	10635.4
852.838	10517.21
853.161	10606.25
853.483	10641.73
853.806	10505.46
854.129	10532.8
854.451	10477.89
854.774	10425.01
855.096	10342.3
855.419	10293.49
855.741	10326.71
856.063	10274.5
856.385	10242.41
856.708	10213.26
857.03	10140.95
857.352	10232.92
857.674	10148.41
857.996	10177.33
858.318	10056.2
858.64	10032.25
858.961	10010.56
859.283	9986.6
859.605	9961.07
859.926	9983.44
860.248	9910.22
860.57	9878.58
860.891	9895.76
861.212	9869.77
861.534	9819.15
861.855	9749.32
862.176	9836.32
862.498	9772.82
862.819	9820.05
863.14	9667.06
863.461	9670.68
863.782	9637.68
864.103	9659.15
864.424	9633.16
864.745	9623.9
865.065	9588.65
865.386	9543.68
865.707	9507.52
866.027	9545.48
866.348	9543.22
866.668	9514.07
866.989	9476.33
867.309	9361.53
867.63	9342.78
867.95	9432.94
868.27	9414.19
868.59	9418.26
868.91	9372.83
869.23	9375.09
869.55	9325.15
869.87	9424.58
870.19	9307.07
870.51	9309.56
870.83	9312.04
871.15	9270.91
871.469	9287.41
871.789	9265.49
872.109	9270.69
872.428	9215.55
872.748	9165.15
873.067	9188.2
873.386	9171.71
873.706	9227.98
874.025	9142.78
874.344	9129.68
874.663	9146.4
874.982	9097.59
875.301	9116.79
875.62	9048.77
875.939	9064.59
876.258	9092.84
876.577	9064.59
876.896	9015.55
877.214	8956.8
877.533	8995.22
877.852	8983.69
878.17	8999.96
878.489	8966.06
878.807	8914.54
879.125	8933.75
879.444	8878.38
879.762	8928.55
880.08	8901.21
880.398	8876.12
880.716	8840.42
881.034	8802.68
881.352	8820.53
881.67	8753.41
881.988	8757.71
882.306	8688.33
882.624	8741.44
882.941	8670.93
883.259	8656.92
883.577	8624.38
883.894	8607.43
884.212	8569.24
884.529	8597.03
884.846	8514.78
885.164	8516.13
885.481	8550.03
885.798	8627.09
886.115	8420.77
886.432	8482.46
886.75	8437.26
887.067	8438.17
887.383	8411.5
887.7	8435.46
888.017	8368.57
888.334	8374.89
888.651	8305.52
888.967	8316.36
889.284	8246.31
889.6	8268.91
889.917	8196.82
890.233	8175.35
890.55	8213.09
890.866	8175.8
891.182	8096.03
891.498	8150.49
891.815	8087.44
892.131	8046.99
892.447	8039.99
892.763	8048.8
893.079	8011.96
893.395	7944.4
893.71	7989.37
894.026	7928.12
894.342	7917.05
894.657	7893.55
894.973	7787.34
895.289	7869.14
895.604	7877.96
895.92	7816.04
896.235	7744.63
896.55	7749.37
896.865	7709.37
897.181	7682.93
897.496	7646.1
897.811	7669.6
898.126	7583.28
898.441	7531.75
898.756	7555.71
899.071	7503.28
899.386	7499.21
899.7	7414.24
900.015	7446.33
900.33	7430.96
900.644	7372.66
900.959	7374.92
901.273	7381.25
901.588	7281.59
901.902	7273.23
902.216	7278.42
902.531	7280.01
902.845	7224.87
903.159	7159.78
903.473	7094.25
903.787	7084.98
904.101	7077.53
904.415	7096.96
904.729	7091.76
905.042	7018.32
905.356	6989.17
905.67	6958.43
905.984	6907.81
906.297	6901.03
906.611	6906
906.924	6897.42
907.237	6853.12
907.551	6833.24
907.864	6824.2
908.177	6756.4
908.491	6761.15
908.804	6676.41
909.117	6661.72
909.43	6701.04
909.743	6626.24
910.056	6624.2
910.368	6588.27
910.681	6548.73
910.994	6535.39
911.307	6506.02
911.619	6391.67
911.932	6454.49
912.244	6422.18
912.557	6392.12
912.869	6342.18
913.181	6342.86
913.494	6311.22
913.806	6285.91
914.118	6240.26
914.43	6221.73
914.742	6235.74
915.054	6204.55
915.366	6183.54
915.678	6184.22
915.99	6080.94
916.302	6072.13
916.613	6096.08
916.925	6032.81
917.236	6036.65
917.548	5980.15
917.859	5948.97
918.171	5955.97
918.482	5889.31
918.794	5833.94
919.105	5920.49
919.416	5798.24
919.727	5802.98
920.038	5790.78
920.349	5794.62
920.66	5755.98
920.971	5720.95
921.282	5712.36
921.593	5651.8
921.903	5587.62
922.214	5592.82
922.525	5593.95
922.835	5605.93
923.146	5543.55
923.456	5568.19
923.767	5464.01
924.077	5501.52
924.387	5501.97
924.697	5471.24
925.008	5453.61
925.318	5403.22
925.628	5385.82
925.938	5379.04
926.248	5326.61
926.558	5337.46
926.867	5294.75
927.177	5305.14
927.487	5298.36
927.796	5223.56
928.106	5217.46
928.416	5179.27
928.725	5177.24
929.034	5175.2
929.344	5173.62
929.653	5090.69
929.962	5069.22
930.271	5031.7
930.581	5023.12
930.89	5038.48
931.199	4998.48
931.508	4948.54
931.817	4987.41
932.125	4940.63
932.434	4965.72
932.743	4917.81
933.051	4900.41
933.36	4846.4
933.669	4819.51
933.977	4866.96
934.286	4753.07
934.594	4748.55
934.902	4739.28
935.21	4705.16
935.519	4689.34
935.827	4667.19
936.135	4692.05
936.443	4625.16
936.751	4596.69
937.059	4588.78
937.367	4580.87
937.674	4535.45
937.982	4529.34
938.29	4549
938.597	4497.93
938.905	4457.71
939.213	4476.69
939.52	4469.46
939.827	4459.06
940.135	4407.54
940.442	4385.17
940.749	4434.66
941.056	4393.75
941.363	4348.78
941.67	4292.06
941.977	4270.14
942.284	4275.11
942.591	4278.5
942.898	4229.92
943.205	4240.76
943.511	4237.6
943.818	4215.23
944.125	4185.62
944.431	4184.95
944.738	4131.61
945.044	4104.04
945.35	4120.99
945.657	4145.17
945.963	4070.37
946.269	4069.92
946.575	4034.22
946.881	4044.61
947.187	4026.31
947.493	3999.41
947.799	3994.67
948.105	3951.73
948.41	3939.98
948.716	3944.95
949.022	3927.1
949.327	3904.95
949.633	3853.43
949.938	3901.79
950.244	3867.21
950.549	3830.15
950.854	3799.19
951.16	3774.56
951.465	3817.72
951.77	3744.28
952.075	3768.69
952.38	3702.02
952.685	3659.76
952.99	3679.87
953.294	3665.19
953.599	3633.32
953.904	3659.31
954.209	3621.12
954.513	3615.92
954.818	3607.56
955.122	3596.49
955.426	3581.8
955.731	3584.28
956.035	3510.16
956.339	3531.4
956.643	3528.92
956.948	3485.76
957.252	3501.57
957.556	3500.9
957.86	3469.26
958.163	3421.58
958.467	3437.85
958.771	3409.6
959.075	3429.03
959.378	3363.5
959.682	3361.01
959.985	3322.6
960.289	3363.27
960.592	3339.77
960.896	3299.09
961.199	3252.09
961.502	3258.87
961.805	3252.09
962.108	3284.63
962.411	3217.74
962.714	3222.03
963.017	3231.75
963.32	3217.74
963.623	3196.27
963.926	3188.14
964.228	3151.08
964.531	3137.74
964.833	3131.64
965.136	3095.26
965.438	3082.38
965.741	3111.98
966.043	3074.47
966.345	3027.46
966.648	3088.48
966.95	3057.74
967.252	3000.12
967.554	3031.76
967.856	3002.83
968.158	2940.46
968.46	2979.33
968.761	2991.53
969.063	2931.42
969.365	2942.04
969.666	2910.63
969.968	2912.89
970.269	2883.96
970.571	2930.29
970.872	2901.36
971.174	2868.82
971.475	2842.38
971.776	2840.35
972.077	2828.6
972.378	2820.01
972.679	2787.7
972.98	2766.23
973.281	2770.97
973.582	2787.7
973.883	2778.88
974.183	2711.09
974.484	2733.69
974.785	2720.8
975.085	2721.26
975.386	2691.43
975.686	2685.1
975.986	2693.91
976.287	2667.47
976.587	2604.65
976.887	2645.55
977.187	2633.8
977.487	2627.93
977.787	2644.2
978.087	2600.81
978.387	2536.85
978.687	2562.16
978.987	2587.25
979.286	2528.49
979.586	2560.81
979.885	2538.44
980.185	2483.52
980.484	2511.09
980.784	2469.74
981.083	2487.36
981.382	2434.94
981.682	2419.12
981.981	2432.22
982.28	2437.42
982.579	2400.13
982.878	2422.96
983.177	2385.9
983.475	2389.51
983.774	2363.98
984.073	2376.18
984.372	2347.03
984.67	2377.76
984.969	2347.71
985.267	2353.58
985.566	2355.16
985.864	2305.22
986.162	2291.44
986.461	2328.5
986.759	2295.73
987.057	2267.48
987.355	2286.47
987.653	2265
987.951	2240.14
988.249	2265.22
988.547	2213.7
988.844	2230.2
989.142	2170.76
989.44	2226.58
989.737	2177.99
990.035	2179.12
990.332	2208.95
990.63	2155.17
990.927	2147.26
991.224	2124.89
991.521	2116.98
991.819	2088.73
992.116	2119.24
992.413	2115.17
992.71	2089.63
993.006	2114.27
993.303	2090.76
993.6	2060.03
993.897	2049.64
994.193	2056.41
994.49	2048.05
994.787	2024.33
995.083	2001.5
995.379	2016.64
995.676	2007.6
995.972	1986.59
996.268	1993.37
996.565	1980.71
996.861	1941.62
997.157	1956.3
997.453	1955.85
997.749	1933.03
998.044	1892.58
998.34	1924.21
998.636	1918.34
998.932	1886.02
999.227	1874.27
999.523	1914.95
999.818	1872.01
1000.114	1841.05
1000.409	1865.69
1000.704	1835.4
1001	1807.16
1001.295	1812.81
1001.59	1814.84
1001.885	1780.94
1002.18	1768.06
1002.475	1789.3
1002.77	1733.49
1003.065	1731.68
1003.359	1747.5
1003.654	1764.45
1003.949	1729.19
1004.243	1734.62
1004.538	1693.49
1004.832	1735.97
1005.127	1732.58
1005.421	1671.57
1005.715	1675.63
1006.009	1688.74
1006.304	1651
1006.598	1649.87
1006.892	1642.87
1007.186	1619.36
1007.48	1615.75
1007.773	1625.69
1008.067	1616.88
1008.361	1598.12
1008.655	1595.86
1008.948	1575.3
1009.242	1566.03
1009.535	1566.71
1009.829	1550.44
1010.122	1540.04
1010.415	1535.52
1010.708	1545.47
1011.001	1519.03
1011.295	1491.01
1011.588	1488.52
1011.881	1479.48
1012.173	1517.45
1012.466	1460.72
1012.759	1484.9
1013.052	1488.29
1013.344	1470.44
1013.637	1462.98
1013.93	1450.1
1014.222	1413.27
1014.514	1420.27
1014.807	1394.29
1015.099	1404.68
1015.391	1394.74
1015.683	1407.84
1015.976	1395.42
1016.268	1377.56
1016.56	1361.97
1016.851	1337.34
1017.143	1346.83
1017.435	1353.38
1017.727	1318.58
1018.018	1344.12
1018.31	1309.09
1018.602	1283.33
1018.893	1298.24
1019.185	1306.15
1019.476	1277.9
1019.767	1264.35
1020.058	1260.28
1020.35	1246.27
1020.641	1262.99
1020.932	1233.16
1021.223	1234.52
1021.514	1230.67
1021.804	1205.59
1022.095	1200.84
1022.386	1200.62
1022.677	1195.42
1022.967	1208.75
1023.258	1188.42
1023.548	1180.51
1023.839	1155.2
1024.129	1207.4
1024.419	1142.99
1024.709	1119.94
1025	1143.44
1025.29	1129.21
1025.58	1152.26
1025.87	1148.87
1026.16	1114.52
1026.449	1106.61
1026.739	1113.61
1027.029	1100.06
1027.319	1111.35
1027.608	1062.54
1027.898	1083.56
1028.187	1056.67
1028.477	1076.78
1028.766	1048.76
1029.055	1048.76
1029.344	1035.65
1029.634	1034.97
1029.923	1037.68
1030.212	1061.86
1030.501	1031.81
1030.79	983.9
1031.078	994.3
1031.367	1007.63
1031.656	999.95
1031.945	989.55
1032.233	976.22
1032.522	968.76
1032.81	958.14
1033.099	964.92
1033.387	970.79
1033.675	945.26
1033.963	952.26
1034.251	941.19
1034.54	917.01
1034.828	924.02
1035.116	930.57
1035.403	921.3
1035.691	915.2
1035.979	903.68
1036.267	926.28
1036.554	888.54
1036.842	892.15
1037.129	888.08
1037.417	878.37
1037.704	885.15
1037.992	883.79
1038.279	874.3
1038.566	862.55
1038.853	862.55
1039.14	862.55
