Data from hue_210_FLMS001491_00038.txt Node
Date: Tue Feb 07 16:41:07 GMT 2017
User: dcchb
Spectrometer: FLMS00149
Trigger mode: 0
Integration Time (sec): 2.000000E-2
Scans to average: 10
Electric dark correction enabled: true
Nonlinearity correction enabled: false
Boxcar width: 0
XAxis mode: Wavelengths
Number of Pixels in Spectrum: 2048
>>>>>Begin Spectral Data<<<<<
341.393	-2.88
341.776	-2.88
342.16	-2.88
342.543	-58.7
342.927	-68.87
343.31	-52.37
343.693	-83.33
344.077	-73.61
344.46	-37.68
344.843	-49.66
345.226	-54.41
345.61	-14.63
345.993	-9.66
346.376	-12.37
346.759	7.51
347.142	8.64
347.525	49.09
347.908	54.07
348.291	75.31
348.674	97.91
349.057	95.2
349.44	132.03
349.823	135.42
350.206	155.76
350.588	183.1
350.971	209.99
351.354	228.07
351.737	255.42
352.119	276.43
352.502	274.63
352.884	270.56
353.267	265.59
353.65	292.7
354.032	288.86
354.414	311.23
354.797	284.34
355.179	305.13
355.562	328.41
355.944	316.43
356.326	327.28
356.709	326.15
357.091	303.33
357.473	311.01
357.855	336.09
358.238	338.13
358.62	339.48
359.002	322.31
359.384	335.41
359.766	328.18
360.148	344.91
360.53	327.28
360.912	337.67
361.294	324.79
361.676	315.53
362.057	339.93
362.439	343.78
362.821	318.24
363.203	327.96
363.584	343.55
363.966	318.24
364.348	323.21
364.729	321.4
365.111	307.39
365.493	315.98
365.874	297
366.256	312.82
366.637	313.72
367.019	313.72
367.4	316.21
367.781	313.27
368.163	321.4
368.544	302.87
368.925	314.62
369.306	320.5
369.688	301.29
370.069	324.12
370.45	301.07
370.831	314.62
371.212	321.86
371.593	309.88
371.974	322.99
372.355	300.16
372.736	315.75
373.117	314.17
373.498	298.81
373.879	290.67
374.26	311.91
374.641	327.73
375.021	314.62
375.402	312.36
375.783	308.52
376.163	300.16
376.544	321.4
376.925	330.67
377.305	332.25
377.686	338.58
378.066	335.64
378.447	307.85
378.827	333.16
379.208	341.97
379.588	321.4
379.968	315.75
380.349	330.22
380.729	320.95
381.109	320.95
381.489	325.25
381.87	344
382.25	334.28
382.63	329.99
383.01	344
383.39	345.36
383.77	353.95
384.15	339.71
384.53	365.24
384.91	344
385.29	336.32
385.67	367.96
386.049	371.12
386.429	362.53
386.809	350.33
387.189	356.21
387.568	346.71
387.948	347.62
388.328	345.13
388.707	367.05
389.087	372.02
389.466	358.69
389.846	362.98
390.225	350.33
390.605	374.96
390.984	383.55
391.363	390.1
391.743	367.73
392.122	380.16
392.501	365.92
392.881	376.09
393.26	395.07
393.639	387.62
394.018	369.76
394.397	400.05
394.776	385.13
395.155	396.43
395.534	387.84
395.913	382.42
396.292	401.4
396.671	388.07
397.05	391.46
397.429	395.07
397.808	394.17
398.186	394.17
398.565	418.58
398.944	425.36
399.323	417.9
399.701	432.59
400.08	416.77
400.458	400.72
400.837	433.72
401.215	426.03
401.594	450.21
401.972	422.64
402.351	447.5
402.729	446.15
403.107	435.53
403.486	434.85
403.864	439.82
404.242	447.05
404.62	464.23
404.999	437.79
405.377	466.48
405.755	474.62
406.133	449.99
406.511	470.1
406.889	469.2
407.267	499.93
407.645	501.06
408.023	498.57
408.401	522.98
408.779	508.52
409.156	502.42
409.534	521.85
409.912	527.73
410.29	529.99
410.667	539.93
411.045	540.16
411.422	560.72
411.8	584
412.178	581.74
412.555	595.07
412.933	586.71
413.31	619.02
413.687	633.71
414.065	632.81
414.442	626.48
414.819	624.67
415.197	650.43
415.574	647.95
415.951	667.84
416.328	683.88
416.705	684.33
417.082	693.6
417.46	721.17
417.837	726.59
418.214	706.7
418.591	740.83
418.967	724.56
419.344	741.05
419.721	740.83
420.098	782.63
420.475	779.25
420.852	805.01
421.228	826.25
421.605	813.37
421.982	796.19
422.358	833.03
422.735	840.49
423.111	889.98
423.488	875.97
423.864	905.57
424.241	939.47
424.617	905.8
424.994	961.16
425.37	972.23
425.746	986.47
426.123	999.58
426.499	993.48
426.875	1024.89
427.251	1028.05
427.627	1049.97
428.003	1043.19
428.379	1081.38
428.756	1061.05
429.132	1119.12
429.507	1136.07
429.883	1148.27
430.259	1151.89
430.635	1170.2
431.011	1173.81
431.387	1169.97
431.763	1201.83
432.138	1212.68
432.514	1227.82
432.89	1258.78
433.265	1280.47
433.641	1311.89
434.016	1322.73
434.392	1336.97
434.767	1382.62
435.143	1379
435.518	1427.36
435.894	1432.79
436.269	1463.29
436.644	1502.39
437.02	1518.89
437.395	1497.87
437.77	1554.37
438.145	1600.01
438.52	1636.85
438.895	1653.57
439.271	1661.26
439.646	1716.17
440.021	1716.62
440.395	1715.72
440.77	1731.08
441.145	1778.99
441.52	1808.37
441.895	1822.38
442.27	1857.41
442.645	1821.93
443.019	1875.94
443.394	1880.46
443.769	1939.44
444.143	1946.22
444.518	1963.17
444.892	1956.62
445.267	1971.3
445.641	2007.91
446.016	2037.52
446.39	2042.26
446.764	2025.99
447.139	2047.69
447.513	2074.35
447.887	2090.62
448.262	2084.75
448.636	2147.57
449.01	2138.76
449.384	2170.85
449.758	2177.17
450.132	2210.62
450.506	2237.06
450.88	2254.01
451.254	2251.07
451.628	2260.79
452.002	2291.52
452.376	2298.98
452.75	2385.98
453.123	2356.15
453.497	2356.38
453.871	2425.3
454.244	2436.15
454.618	2444.74
454.992	2503.49
455.365	2506.43
455.739	2534.68
456.112	2565.86
456.486	2611.51
456.859	2647.67
457.232	2648.35
457.606	2637.05
457.979	2713.88
458.352	2766.09
458.725	2806.08
459.099	2758.4
459.472	2869.81
459.845	2892.41
460.218	2879.08
460.591	2903.03
460.964	2921.11
461.337	2963.14
461.71	3063.48
462.083	3079.3
462.456	3140.76
462.829	3127.43
463.201	3159.3
463.574	3156.81
463.947	3228.45
464.32	3289.01
464.692	3302.34
465.065	3298.5
465.438	3412.17
465.81	3446.07
466.183	3456.91
466.555	3511.6
466.928	3533.52
467.3	3561.77
467.672	3578.04
468.045	3682.22
468.417	3664.14
468.789	3729
469.161	3757.47
469.534	3795.21
469.906	3881.08
470.278	3924.93
470.65	3954.75
471.022	3999.27
471.394	4118.37
471.766	4161.53
472.138	4172.38
472.51	4221.41
472.882	4342.09
473.253	4321.3
473.625	4426.38
473.997	4458.24
474.369	4483.33
474.74	4584.34
475.112	4580.95
475.484	4666.6
475.855	4758.8
476.227	4782.76
476.598	4907.72
476.97	4944.56
477.341	5051.9
477.713	5118.57
478.084	5158.56
478.455	5243.99
478.827	5301.16
479.198	5460.93
479.569	5457.99
479.94	5568.95
480.311	5631.09
480.682	5729.62
481.053	5851.88
481.424	5910.18
481.795	5944.08
482.166	6073.57
482.537	6096.85
482.908	6299.33
483.279	6271.76
483.65	6365.76
484.021	6531.86
484.391	6533.44
484.762	6537.06
485.133	6667
485.503	6751.29
485.874	6862.02
486.244	6929.82
486.615	6994.22
486.985	7056.14
487.356	7176.82
487.726	7212.75
488.097	7413.87
488.467	7392.63
488.837	7507.66
489.207	7601.21
489.578	7719.85
489.948	7757.37
490.318	7892.05
490.688	7868.78
491.058	7988.55
491.428	8132.5
491.798	8144.48
492.168	8253.17
492.538	8291.82
492.908	8373.62
493.278	8439.61
493.648	8489.32
494.017	8582.88
494.387	8650
494.757	8621.07
495.126	8761.18
495.496	8747.62
495.866	8759.37
496.235	8849.32
496.605	8882.76
496.974	9005.24
497.344	9005.7
497.713	9102.64
498.082	9129.99
498.452	9210.44
498.821	9256.54
499.19	9214.05
499.559	9254.5
499.928	9301.05
500.298	9349.64
500.667	9470.32
501.036	9442.52
501.405	9458.11
501.774	9493.14
502.143	9589.41
502.512	9582.4
502.88	9681.84
503.249	9614.94
503.618	9696.07
503.987	9685.68
504.356	9754.83
504.724	9818.1
505.093	9768.39
505.462	9821.72
505.83	9824.2
506.199	9863.75
506.567	9998.44
506.936	9943.07
507.304	10051.32
507.672	10063.29
508.041	10081.83
508.409	10120.47
508.777	10142.39
509.145	10169.73
509.514	10195.49
509.882	10257.64
510.25	10221.26
510.618	10260.58
510.986	10280.69
511.354	10353.46
511.722	10460.12
512.09	10441.14
512.458	10285.21
512.826	10458.54
513.193	10484.75
513.561	10408.37
513.929	10428.03
514.297	10506.9
514.664	10604.07
515.032	10571.08
515.4	10605.43
515.767	10650.4
516.135	10594.58
516.502	10553.45
516.869	10695.37
517.237	10706.89
517.604	10656.5
517.972	10716.16
518.339	10788.02
518.706	10740.57
519.073	10722.03
519.44	10683.84
519.808	10767.01
520.175	10691.75
520.542	10844.07
520.909	10867.34
521.276	10782.82
521.643	10809.04
522.009	10884.52
522.376	10866.66
522.743	10896.95
523.11	10992.08
523.477	10931.29
523.843	10983.5
524.21	11024.85
524.577	11065.08
524.943	11044.06
525.31	11105.08
525.676	11113.89
526.043	11106.66
526.409	11161.12
526.776	11170.84
527.142	11167.67
527.508	11172.87
527.874	11170.61
528.241	11195.69
528.607	11237.95
528.973	11150.5
529.339	11182.81
529.705	11230.72
530.071	11272.53
530.437	11202.25
530.803	11236.6
531.169	11243.6
531.535	11165.86
531.901	11158.41
532.267	11138.52
532.632	11186.2
532.998	11112.98
533.364	11117.73
533.73	11075.92
534.095	11162.93
534.461	11108.01
534.826	11083.61
535.192	11091.74
535.557	11119.76
535.923	11072.08
536.288	11008.58
536.653	10965.19
537.019	10935.14
537.384	10970.84
537.749	10926.32
538.114	10973.33
538.479	10917.74
538.845	10878.87
539.21	10795.7
539.575	10825.31
539.94	10770.39
540.305	10826.21
540.67	10768.59
541.034	10759.32
541.399	10692.2
541.764	10650.62
542.129	10635.48
542.494	10668.93
542.858	10541.25
543.223	10523.85
543.587	10622.15
543.952	10512.55
544.316	10487.46
544.681	10407.47
545.045	10407.01
545.41	10429.84
545.774	10430.06
546.138	10388.26
546.503	10414.92
546.867	10311.65
547.231	10335.15
547.595	10258.54
547.959	10295.83
548.324	10190.3
548.688	10164.99
549.052	10196.17
549.416	10074.14
549.779	10081.6
550.143	10060.36
550.507	10091.32
550.871	10040.47
551.235	9960.92
551.599	9992.79
551.962	9998.66
552.326	9981.49
552.689	9966.35
553.053	9890.64
553.417	9844.54
553.78	9957.31
554.143	9850.42
554.507	9867.37
554.87	9803.19
555.234	9856.29
555.597	9746.24
555.96	9798.67
556.323	9815.62
556.686	9719.57
557.05	9719.35
557.413	9728.16
557.776	9692.23
558.139	9708.5
558.502	9724.55
558.865	9676.19
559.228	9766.13
559.59	9729.07
559.953	9628.5
560.316	9672.8
560.679	9737.88
561.041	9688.84
561.404	9715.51
561.767	9724.55
562.129	9637.77
562.492	9741.5
562.854	9675.73
563.217	9676.64
563.579	9706.92
563.941	9772.45
564.304	9691.55
564.666	9792.34
565.028	9689.52
565.39	9736.98
565.753	9806.58
566.115	9776.52
566.477	9765.22
566.839	9736.98
567.201	9848.16
567.563	9798.67
567.925	9806.13
568.287	9807.03
568.648	9829.18
569.01	9863.07
569.372	9868.5
569.734	9760.03
570.095	9869.63
570.457	9844.54
570.819	9908.95
571.18	9872.79
571.542	9851.32
571.903	9872.79
572.265	9983.07
572.626	9930.64
572.987	9972
573.349	9963.86
573.71	9969.29
574.071	10046.12
574.432	10009.51
574.794	10076.18
575.155	9990.98
575.516	10067.14
575.877	10076.18
576.238	10024.2
576.599	10062.84
576.96	10057.19
577.32	10102.84
577.681	10083.86
578.042	10086.34
578.403	10148.94
578.763	10113.01
579.124	10093.8
579.485	10161.6
579.845	10188.26
580.206	10216.74
580.566	10190.75
580.927	10244.53
581.287	10261.71
581.648	10199.34
582.008	10186.91
582.368	10225.32
582.728	10284.31
583.089	10253.8
583.449	10282.95
583.809	10320.24
584.169	10255.83
584.529	10269.39
584.889	10382.16
585.249	10256.51
585.609	10245.89
585.969	10296.06
586.329	10281.82
586.688	10349.84
587.048	10259.45
587.408	10254.7
587.768	10319.56
588.127	10326.11
588.487	10264.87
588.846	10301.03
589.206	10263.06
589.565	10316.17
589.925	10386.9
590.284	10385.55
590.643	10299.9
591.003	10352.33
591.362	10394.59
591.721	10287.47
592.08	10360.24
592.44	10407.92
592.799	10385.77
593.158	10310.97
593.517	10353.68
593.876	10424.42
594.235	10311.2
594.593	10338.77
594.952	10311.65
595.311	10375.38
595.67	10355.04
596.029	10416.28
596.387	10424.42
596.746	10461.25
597.104	10395.94
597.463	10349.84
597.822	10446.34
598.18	10378.99
598.538	10349.61
598.897	10394.59
599.255	10367.24
599.613	10454.7
599.972	10377.86
600.33	10402.72
600.688	10412.21
601.046	10373.57
601.404	10446.34
601.762	10428.48
602.12	10490.85
602.478	10424.64
602.836	10520.68
603.194	10426
603.552	10440.01
603.91	10466
604.268	10484.98
604.625	10350.97
604.983	10458.09
605.341	10417.86
605.698	10422.38
606.056	10490.4
606.413	10465.09
606.771	10461.93
607.128	10516.39
607.485	10476.84
607.843	10472.1
608.2	10584.86
608.557	10547.58
608.914	10522.49
609.272	10524.3
609.629	10465.77
609.986	10526.56
610.343	10552.1
610.7	10598.65
611.057	10475.94
611.414	10612.21
611.771	10567.01
612.127	10553.23
612.484	10543.96
612.841	10682.49
613.198	10568.59
613.554	10563.39
613.911	10610.62
614.267	10644.07
614.624	10663.96
614.98	10606.56
615.337	10677.29
615.693	10654.92
616.05	10613.79
616.406	10631.42
616.762	10616.05
617.118	10715.71
617.475	10690.85
617.831	10677.74
618.187	10712.32
618.543	10785.76
618.899	10731.53
619.255	10718.87
619.611	10661.02
619.967	10717.97
620.323	10757.29
620.678	10737.63
621.034	10712.09
621.39	10712.09
621.746	10755.03
622.101	10782.15
622.457	10724.07
622.812	10683.62
623.168	10748.93
623.523	10763.16
623.879	10824.63
624.234	10716.84
624.589	10727.91
624.945	10804.52
625.3	10754.35
625.655	10776.95
626.01	10753.9
626.365	10819.66
626.72	10779.89
627.075	10691.98
627.43	10776.27
627.785	10699.89
628.14	10709.83
628.495	10755.71
628.85	10711.19
629.205	10671.87
629.559	10763.39
629.914	10712.54
630.269	10761.58
630.623	10671.41
630.978	10668.93
631.332	10697.85
631.687	10617.63
632.041	10640.68
632.396	10636.16
632.75	10671.19
633.104	10590.96
633.459	10542.38
633.813	10547.58
634.167	10608.82
634.521	10517.97
634.875	10563.85
635.229	10557.52
635.583	10483.4
635.937	10440.69
636.291	10484.07
636.645	10435.94
636.999	10402.04
637.352	10466.67
637.706	10414.7
638.06	10480.01
638.413	10343.51
638.767	10345.32
639.121	10352.33
639.474	10294.02
639.828	10345.77
640.181	10306
640.534	10352.55
640.888	10245.21
641.241	10283.4
641.594	10314.59
641.947	10310.52
642.301	10300.8
642.654	10256.06
643.007	10314.59
643.36	10276.17
643.713	10247.24
644.066	10306.45
644.419	10226.23
644.771	10200.69
645.124	10038.89
645.477	10136.74
645.83	9993.69
646.182	9938.55
646.535	9881.15
646.888	9910.08
647.24	9918.21
647.593	9932
647.945	9934.48
648.298	9859.91
648.65	9847.26
649.002	9845.67
649.355	9907.14
649.707	9920.02
650.059	9939.91
650.411	10031.21
650.763	10019.68
651.115	10137.87
651.467	10135.61
651.819	10103.29
652.171	10085.89
652.523	10039.11
652.875	10097.87
653.227	10040.92
653.578	10103.29
653.93	10050.41
654.282	9971.09
654.633	10034.59
654.985	10081.15
655.337	10101.26
655.688	10106.46
656.039	10134.03
656.391	9988.27
656.742	10035.27
657.094	10072.33
657.445	10049.06
657.796	10103.97
658.147	10037.98
658.498	10092.22
658.849	10095.61
659.2	10126.8
659.551	10056.74
659.902	10135.84
660.253	10048.38
660.604	10148.94
660.955	10045.67
661.306	10115.5
661.656	10111.43
662.007	10127.93
662.358	10110.98
662.708	10087.47
663.059	10096.51
663.409	10056.74
663.76	10161.6
664.11	10111.88
664.461	10166.79
664.811	10171.77
665.161	10158.66
665.511	10146.68
665.862	10180.58
666.212	10186.68
666.562	10162.73
666.912	10118.43
667.262	10075.05
667.612	10119.11
667.962	10093.12
668.312	10167.47
668.662	10127.93
669.011	10144.2
669.361	10176.06
669.711	10130.86
670.06	10122.28
670.41	10070.3
670.76	10059.68
671.109	10082.5
671.459	10065.78
671.808	10106.46
672.157	10055.16
672.507	10013.13
672.856	10004.09
673.205	10122.95
673.554	10113.46
673.904	10089.73
674.253	10137.87
674.602	10025.78
674.951	9908.04
675.3	9869.85
675.649	10002.96
675.998	9967.03
676.346	9947.14
676.695	10036.85
677.044	9930.64
677.393	10000.47
677.741	9940.81
678.09	9899.91
678.438	9887.93
678.787	9936.07
679.135	9917.99
679.484	9875.73
679.832	9835.05
680.181	9816.07
680.529	9814.71
680.877	9796.86
681.225	9817.2
681.573	9820.14
681.922	9733.13
682.27	9735.85
682.618	9752.12
682.966	9582.18
683.314	9658.79
683.661	9633.02
684.009	9625.11
684.357	9598.9
684.705	9575.62
685.053	9598
685.4	9499.69
685.748	9502.63
686.095	9448.4
686.443	9486.59
686.79	9434.38
687.138	9491.33
687.485	9408.4
687.832	9399.81
688.18	9322.3
688.527	9401.17
688.874	9300.83
689.221	9373.82
689.568	9284.78
689.915	9328.17
690.262	9257.89
690.609	9193.49
690.956	9124.11
691.303	9148.06
691.65	9128.4
691.997	9095.64
692.344	9059.25
692.69	9066.03
693.037	8995.3
693.383	8968.63
693.73	9011.8
694.077	8941.74
694.423	8934.51
694.769	8882.08
695.116	8880.73
695.462	8842.99
695.808	8826.04
696.155	8736.1
696.501	8721.64
696.847	8681.41
697.193	8657.23
697.539	8672.6
697.885	8580.85
698.231	8535.43
698.577	8559.15
698.923	8546.27
699.269	8465.37
699.614	8469.89
699.96	8432.6
700.306	8422.89
700.651	8375.88
700.997	8351.7
701.342	8314.41
701.688	8339.05
702.033	8268.54
702.379	8292.27
702.724	8166.17
703.069	8221.08
703.415	8135.89
703.76	8010.24
704.105	8066.06
704.45	8103.8
704.795	8076
705.14	7982.45
705.485	7972.95
705.83	7891.6
706.175	7952.39
706.52	7914.2
706.865	7905.39
707.209	7820.64
707.554	7822.9
707.899	7803.69
708.243	7762.56
708.588	7831.71
708.932	7707.88
709.277	7754.2
709.621	7681.66
709.966	7668.1
710.31	7657.48
710.654	7605.73
710.998	7629.23
711.342	7586.75
711.687	7567.32
712.031	7457.94
712.375	7490.26
712.719	7556.02
713.063	7503.36
713.407	7552.85
713.75	7482.12
714.094	7518.05
714.438	7466.3
714.782	7445.51
715.125	7424.49
715.469	7410.94
715.812	7396.25
716.156	7342.46
716.499	7343.14
716.843	7332.97
717.186	7292.97
717.53	7333.65
717.873	7323.71
718.216	7310.15
718.559	7291.16
718.902	7275.57
719.246	7281.22
719.589	7301.56
719.932	7217.27
720.275	7238.74
720.617	7207.32
720.96	7194.22
721.303	7189.25
721.646	7190.6
721.989	7162.13
722.331	7236.48
722.674	7122.58
723.016	7174.33
723.359	7108.12
723.701	7203.71
724.044	7052.07
724.386	7085.97
724.729	7105.63
725.071	7115.35
725.413	7065.86
725.755	7128
726.097	7042.58
726.439	7042.36
726.782	7052.98
727.124	7039.42
727.465	7041.68
727.807	7026.31
728.149	7032.41
728.491	7027.22
728.833	7019.76
729.175	6992.87
729.516	6977.05
729.858	7034.67
730.199	7047.33
730.541	7043.49
730.882	7004.62
731.224	7039.19
731.565	6951.06
731.906	7046.65
732.248	7012.3
732.589	6992.42
732.93	6991.74
733.271	6942.47
733.612	6989.25
733.953	7010.49
734.294	6943.15
734.635	6999.65
734.976	7003.49
735.317	6985.18
735.658	7024.28
735.999	6978.4
736.339	7006.2
736.68	7008.01
737.021	7037.16
737.361	6986.09
737.702	7037.84
738.042	6971.17
738.383	7022.02
738.723	7018.18
739.063	6980.44
739.404	7004.17
739.744	7031.96
740.084	7005.75
740.424	7064.05
740.764	7020.21
741.104	7117.16
741.444	7102.02
741.784	7147.67
742.124	7111.73
742.464	7147.21
742.804	7157.83
743.143	7214.1
743.483	7197.83
743.823	7158.96
744.162	7208.91
744.502	7286.64
744.841	7267.44
745.181	7356.7
745.52	7353.54
745.86	7422.91
746.199	7384.95
746.538	7471.72
746.877	7445.51
747.216	7498.84
747.556	7517.15
747.895	7615.45
748.234	7661.32
748.573	7689.12
748.911	7781.09
749.25	7844.37
749.589	7877.82
749.928	7939.73
750.267	8036.68
750.605	8077.81
750.944	8094.31
751.283	8183.57
751.621	8291.14
751.96	8279.39
752.298	8399.38
752.636	8557.12
752.975	8518.25
753.313	8691.81
753.651	8715.53
753.989	8856.55
754.327	8984.23
754.666	9043.43
755.004	9184.22
755.342	9276.65
755.679	9451.79
756.017	9476.19
756.355	9752.79
756.693	9762.06
757.031	10017.65
757.368	10077.98
757.706	10240.92
758.044	10334.47
758.381	10431.42
758.719	10670.51
759.056	10825.53
759.394	11012.42
759.731	11140.33
760.068	11303.04
760.405	11456.25
760.743	11595.23
761.08	11755.45
761.417	11961.1
761.754	12080.64
762.091	12333.52
762.428	12415.1
762.765	12576.45
763.102	12791.36
763.438	12934.86
763.775	13119.94
764.112	13378.91
764.449	13531
764.785	13690.32
765.122	13719.7
765.458	13960.82
765.795	14106.8
766.131	14287.36
766.467	14425.67
766.804	14663.85
767.14	14697.75
767.476	14927.35
767.812	14912.21
768.148	15180.9
768.485	15277.85
768.821	15464.96
769.157	15599.65
769.492	15705.86
769.828	15818.62
770.164	15952.18
770.5	16127.54
770.836	16137.03
771.171	16255.22
771.507	16468.78
771.842	16458.83
772.178	16639.62
772.513	16693.85
772.849	16699.73
773.184	16843.68
773.519	16930.68
773.855	17015.88
774.19	17098.14
774.525	17100.62
774.86	17291.81
775.195	17422.2
775.53	17436.89
775.865	17460.61
776.2	17529.54
776.535	17529.77
776.87	17626.71
777.205	17579.48
777.539	17646.15
777.874	17826.03
778.209	17658.58
778.543	17779.7
778.878	17814.28
779.212	17865.8
779.547	17865.12
779.881	17975.63
780.215	17876.65
780.55	17922.07
780.884	17989.64
781.218	17941.51
781.552	18013.14
781.886	18066.93
782.22	18016.98
782.554	18040.26
782.888	17940.38
783.222	17991.22
783.556	17948.74
783.889	17979.92
784.223	17978.57
784.557	17932.01
784.89	17965.91
785.224	17967.95
785.557	17944.9
785.891	17907.16
786.224	18090.88
786.558	17911.68
786.891	17811.57
787.224	17845.91
787.557	17803.88
787.891	17882.98
788.224	17928.17
788.557	17845.24
788.89	17810.89
789.223	17883.43
789.556	17798.46
789.888	17812.47
790.221	17828.29
790.554	17644.34
790.887	17730.89
791.219	17611.57
791.552	17653.83
791.884	17592.36
792.217	17498.35
792.549	17552.82
792.882	17487.73
793.214	17452.7
793.546	17482.53
793.879	17413.16
794.211	17332.71
794.543	17379.94
794.875	17375.64
795.207	17406.6
795.539	17328.41
795.871	17370.67
796.203	17249.55
796.535	17070.79
796.867	17190.79
797.198	17104.47
797.53	17040.06
797.862	16986.28
798.193	17071.47
798.525	16973.4
798.856	16922.1
799.188	16796.23
799.519	16816.11
799.85	16681.88
800.182	16712.61
800.513	16781.99
800.844	16671.03
801.175	16756.68
801.506	16757.81
801.837	16470.58
802.168	16551.03
802.499	16482.56
802.83	16414.99
803.161	16431.71
803.491	16492.5
803.822	16485.95
804.153	16354.88
804.483	16284.37
804.814	16211.16
805.145	16234.88
805.475	16214.32
805.805	16128.22
806.136	16202.12
806.466	16186.75
806.796	16047.09
807.126	15932.07
807.457	15898.85
807.787	16028.34
808.117	15878.96
808.447	15904.95
808.777	15912.63
809.107	15833.99
809.436	15737.95
809.766	15756.48
810.096	15732.98
810.426	15731.62
810.755	15746.54
811.085	15635.35
811.414	15726.2
811.744	15464.28
812.073	15543.15
812.403	15608.46
812.732	15519.65
813.061	15406.88
813.39	15361.69
813.719	15321.69
814.049	15414.57
814.378	15297.06
814.707	15212.31
815.036	15296.6
815.365	15217.51
815.693	15135.25
816.022	15071.75
816.351	15096.38
816.68	15048.47
817.008	15020.45
817.337	14972.09
817.665	14942.04
817.994	14993.56
818.322	15003.5
818.651	14847.12
818.979	14824.75
819.307	14945.2
819.636	14869.95
819.964	14723.06
820.292	14861.36
820.62	14816.84
820.948	14805.09
821.276	14868.82
821.604	14758.99
821.932	14871.08
822.259	14847.58
822.587	14769.39
822.915	14698.65
823.243	14737.07
823.57	14749.95
823.898	14855.71
824.225	14761.02
824.553	14721.48
824.88	14803.51
825.207	14810.74
825.535	14765.09
825.862	14811.87
826.189	14851.87
826.516	14899.55
826.843	14873.56
827.17	14923.05
827.497	14851.42
827.824	14869.95
828.151	14894.81
828.478	14859.55
828.805	14980
829.131	14900
829.458	14805.09
829.785	14755.83
830.111	14779.1
830.438	14813.9
830.764	14806.9
831.09	14864.07
831.417	14732.32
831.743	14830.85
832.069	14851.87
832.395	14708.37
832.722	14814.36
833.048	14794.02
833.374	14804.64
833.7	14640.35
834.026	14711.31
834.351	14723.96
834.677	14775.49
835.003	14753.57
835.329	14755.6
835.654	14675.83
835.98	14622.27
836.306	14614.59
836.631	14559.45
836.956	14612.1
837.282	14673.79
837.607	14499.34
837.932	14518.54
838.258	14497.75
838.583	14428.83
838.908	14400.13
839.233	14436.29
839.558	14454.37
839.883	14312.22
840.208	14365.78
840.533	14344.99
840.858	14328.72
841.182	14308.38
841.507	14239
841.832	14217.54
842.156	14182.51
842.481	14222.06
842.805	14168.95
843.13	14094.83
843.454	14131.21
843.778	14107.48
844.103	14019.35
844.427	13956.3
844.751	14000.59
845.075	13927.37
845.399	13821.39
845.723	13816.19
846.047	13848.73
846.371	13731.22
846.695	13699.36
847.019	13648.74
847.343	13543.2
847.666	13465.01
847.99	13486.48
848.313	13394.96
848.637	13341.85
848.96	13434.28
849.284	13251.91
849.607	13207.17
849.931	13223.89
850.254	13098.92
850.577	12998.58
850.9	12986.38
851.223	13001.75
851.546	12950.68
851.869	12822.09
852.192	12848.76
852.515	12713.17
852.838	12703
853.161	12677.24
853.483	12641.31
853.806	12635.88
854.129	12577.58
854.451	12482.89
854.774	12343.01
855.096	12489.67
855.419	12382.56
855.741	12360.18
856.063	12303.69
856.385	12253.97
856.708	12175.56
857.03	12179.85
857.352	12226.85
857.674	12097.14
857.996	12027.54
858.318	11939.18
858.64	12020.08
858.961	11990.48
859.283	11851.72
859.605	11884.26
859.926	11867.99
860.248	11786.64
860.57	11777.83
860.891	11749.13
861.212	11705.29
861.534	11670.03
861.855	11700.99
862.176	11648.79
862.498	11738.05
862.819	11747.54
863.14	11602.69
863.461	11626.19
863.782	11565.63
864.103	11555.91
864.424	11534.67
864.745	11493.31
865.065	11468.68
865.386	11439.08
865.707	11446.31
866.027	11381.9
866.348	11389.81
866.668	11412.86
866.989	11352.53
867.309	11272.08
867.63	11336.93
867.95	11304.62
868.27	11256.71
868.59	11321.11
868.91	11273.21
869.23	11173.55
869.55	11203.15
869.87	11206.99
870.19	11120.22
870.51	11201.34
870.83	11131.29
871.15	11070.27
871.469	11090.61
871.789	11142.36
872.109	11103.04
872.428	11008.35
872.748	11047
873.067	11012.2
873.386	11078.18
873.706	10970.62
874.025	10929.03
874.344	10902.14
874.663	10910.05
874.982	10928.13
875.301	10975.59
875.62	10902.37
875.939	10894.01
876.258	10812.43
876.577	10804.74
876.896	10763.39
877.214	10737.4
877.533	10875.25
877.852	10746.21
878.17	10746.67
878.489	10756.84
878.807	10710.96
879.125	10724.07
879.444	10713
879.762	10620.79
880.08	10645.2
880.398	10602.04
880.716	10537.18
881.034	10517.29
881.352	10563.62
881.67	10463.51
881.988	10472.1
882.306	10460.57
882.624	10452.21
882.941	10458.31
883.259	10359.56
883.577	10337.41
883.894	10366.34
884.212	10352.33
884.529	10335.15
884.846	10310.75
885.164	10226
885.481	10228.94
885.798	10153.01
886.115	10156.63
886.432	10137.19
886.75	10182.16
887.067	10153.69
887.383	10015.84
887.7	10134.48
888.017	10013.35
888.334	10004.31
888.651	10007.93
888.967	10041.83
889.284	9927.48
889.6	9962.28
889.917	9867.14
890.233	9896.07
890.55	9821.27
890.866	9776.3
891.182	9760.25
891.498	9762.96
891.815	9750.31
892.131	9676.41
892.447	9701.5
892.763	9602.06
893.079	9644.32
893.395	9617.43
893.71	9571.56
894.026	9514.16
894.342	9513.25
894.657	9382.18
894.973	9405.23
895.289	9360.04
895.604	9425.35
895.92	9341.28
896.235	9241.85
896.55	9198.46
896.865	9222.64
897.181	9189.19
897.496	9203.43
897.811	9165.47
898.126	9150.78
898.441	9095.86
898.756	9036.43
899.071	8975.87
899.386	9006.83
899.7	8944.45
900.015	8861.29
900.33	8851.8
900.644	8787.4
900.959	8828.75
901.273	8828.98
901.588	8788.07
901.902	8717.57
902.216	8711.69
902.531	8640.51
902.845	8645.48
903.159	8593.5
903.473	8549.89
903.787	8537.46
904.101	8505.37
904.415	8463.11
904.729	8438.03
905.042	8397.12
905.356	8333.4
905.67	8361.64
905.984	8323.91
906.297	8261.53
906.611	8220.63
906.924	8221.54
907.237	8193.74
907.551	8172.72
907.864	8084.36
908.177	8096.34
908.491	8095.89
908.804	8017.92
909.117	7928.66
909.43	7948.1
909.743	7853.18
910.056	7859.96
910.368	7839.17
910.681	7833.52
910.994	7725.05
911.307	7777.48
911.619	7653.19
911.932	7678.72
912.244	7639.63
912.557	7625.62
912.869	7514.44
913.181	7511.27
913.494	7510.82
913.806	7458.17
914.118	7431.27
914.43	7392.4
914.742	7354.21
915.054	7336.13
915.366	7393.76
915.678	7299.75
915.99	7273.54
916.302	7201.22
916.613	7206.42
916.925	7173.2
917.236	7158.74
917.548	7087.1
917.859	7094.33
918.171	7101.56
918.482	6986.54
918.794	7009.82
919.105	7000.1
919.416	6920.1
919.727	6909.48
920.038	6921.91
920.349	6883.94
920.66	6830.84
920.971	6856.83
921.282	6818.86
921.593	6858.18
921.903	6700.22
922.214	6657.51
922.525	6655.02
922.835	6683.5
923.146	6614.57
923.456	6613.44
923.767	6575.7
924.077	6552.2
924.387	6492.09
924.697	6431.3
925.008	6430.4
925.318	6430.4
925.628	6423.84
925.938	6355.82
926.248	6358.76
926.558	6300.91
926.867	6252.55
927.177	6315.82
927.487	6241.25
927.796	6203.74
928.106	6220.46
928.416	6169.16
928.725	6155.6
929.034	6108.37
929.344	6103.17
929.653	6088.03
929.962	6064.98
930.271	6017.07
930.581	6046.68
930.89	5961.48
931.199	5892.56
931.508	5881.71
931.817	5911.09
932.125	5869.51
932.434	5904.76
932.743	5796.51
933.051	5851.88
933.36	5769.4
933.669	5728.04
933.977	5729.17
934.286	5656.4
934.594	5682.62
934.902	5632.45
935.21	5660.25
935.519	5591.55
935.827	5583.64
936.135	5555.16
936.443	5523.3
936.751	5542.06
937.059	5516.97
937.367	5475.84
937.674	5490.53
937.982	5462.29
938.29	5393.36
938.597	5447.82
938.905	5327.37
939.213	5302.97
939.52	5305.45
939.827	5319.24
940.135	5269.3
940.442	5215.06
940.749	5201.5
941.056	5252.8
941.363	5136.87
941.67	5214.38
941.977	5077.21
942.284	5074.5
942.591	5084.67
942.898	5023.43
943.205	5046.25
943.511	5046.25
943.818	5048.29
944.125	4999.25
944.431	4952.24
944.738	5003.77
945.044	4953.82
945.35	4900.04
945.657	4880.15
945.963	4848.74
946.269	4789.99
946.575	4790.89
946.881	4828.63
947.187	4763.32
947.493	4774.39
947.799	4780.27
948.105	4702.31
948.41	4706.6
948.716	4691.23
949.022	4672.93
949.327	4700.5
949.633	4660.72
949.938	4611.23
950.244	4621.4
950.549	4516.55
950.854	4484.46
951.16	4545.93
951.465	4480.62
951.77	4449.43
952.075	4494.63
952.38	4424.12
952.685	4444.01
952.99	4380.73
953.294	4360.39
953.599	4386.61
953.904	4329.89
954.209	4317.91
954.513	4320.85
954.818	4309.1
955.122	4276.1
955.426	4265.71
955.731	4207.4
956.035	4225.71
956.339	4218.02
956.643	4216.22
956.948	4180.29
957.252	4115.65
957.556	4137.12
957.86	4100.74
958.163	4106.84
958.467	4087.41
958.771	4045.37
959.075	4051.48
959.378	4025.71
959.682	4037.92
959.985	3960.18
960.289	4006.28
960.592	3983.45
960.896	3961.99
961.199	3937.81
961.502	3893.29
961.805	3921.54
962.108	3910.91
962.411	3857.13
962.714	3832.05
963.017	3870.01
963.32	3837.47
963.623	3779.17
963.926	3792.73
964.228	3816.91
964.531	3733.74
964.833	3756.57
965.136	3679.96
965.438	3677.93
965.741	3695.55
966.043	3658.94
966.345	3613.29
966.648	3614.42
966.95	3646.06
967.252	3569.91
967.554	3611.71
967.856	3535.56
968.158	3531.04
968.46	3540.08
968.761	3524.71
969.063	3524.94
969.365	3498.27
969.666	3469.57
969.968	3454.65
970.269	3494.2
970.571	3459.85
970.872	3442.45
971.174	3391.83
971.475	3392.96
971.776	3338.73
972.077	3372.85
972.378	3364.94
972.679	3295.56
972.98	3276.81
973.281	3328.1
973.582	3308.22
973.883	3246.52
974.183	3284.04
974.484	3243.59
974.785	3217.6
975.085	3211.5
975.386	3210.82
975.686	3173.08
975.986	3178.96
976.287	3147.09
976.587	3145.06
976.887	3154.78
977.187	3122.01
977.487	3118.17
977.787	3127.88
978.087	3080.65
978.387	3056.47
978.687	3071.61
978.987	3053.08
979.286	3014.89
979.586	3003.59
979.885	2979.64
980.185	2964.95
980.484	2978.06
980.784	2932.18
981.083	2950.49
981.382	2915.23
981.682	2892.86
981.981	2890.15
982.28	2891.96
982.579	2870.04
982.878	2823.94
983.177	2840.21
983.475	2802.02
983.774	2818.29
984.073	2806.08
984.372	2786.2
984.67	2817.38
984.969	2767.22
985.267	2779.87
985.566	2746.2
985.864	2731.28
986.162	2754.11
986.461	2698.97
986.759	2695.8
987.057	2671.4
987.355	2699.19
987.653	2647.67
987.951	2675.24
988.249	2651.74
988.547	2633.43
988.844	2615.81
989.142	2629.37
989.44	2542.59
989.737	2576.94
990.035	2552.98
990.332	2575.13
990.63	2529.48
990.927	2543.27
991.224	2498.52
991.521	2512.53
991.819	2534.23
992.116	2513.21
992.413	2453.1
992.71	2440.22
993.006	2424.63
993.303	2443.61
993.6	2415.36
993.897	2393.89
994.193	2379.43
994.49	2402.48
994.787	2387.79
995.083	2387.56
995.379	2351.41
995.676	2372.65
995.972	2342.59
996.268	2320.45
996.565	2342.14
996.861	2301.01
997.157	2286.55
997.453	2268.7
997.749	2251.52
998.044	2255.14
998.34	2305.98
998.636	2249.71
998.932	2195.93
999.227	2207.91
999.523	2220.11
999.818	2212.88
1000.114	2176.72
1000.409	2174.91
1000.704	2149.6
1001	2126.33
1001.295	2125.42
1001.59	2119.32
1001.885	2107.12
1002.18	2079.78
1002.475	2102.37
1002.77	2063.51
1003.065	2049.95
1003.359	2047.91
1003.654	2058.76
1003.949	2030.96
1004.243	2005.65
1004.538	1999.33
1004.832	1985.32
1005.127	1976.95
1005.421	1941.7
1005.715	1976.95
1006.009	1979.44
1006.304	1917.97
1006.598	1901.48
1006.892	1896.5
1007.186	1903.28
1007.48	1890.85
1007.773	1876.39
1008.067	1896.5
1008.361	1837.52
1008.655	1840.01
1008.948	1822.61
1009.242	1842.04
1009.535	1827.81
1009.829	1826.22
1010.122	1830.29
1010.415	1797.52
1010.708	1762.5
1011.001	1765.21
1011.295	1728.37
1011.588	1733.57
1011.881	1730.86
1012.173	1724.53
1012.466	1716.4
1012.759	1682.5
1013.052	1694.93
1013.344	1646.79
1013.637	1681.14
1013.93	1665.78
1014.222	1667.13
1014.514	1668.71
1014.807	1667.81
1015.099	1626.91
1015.391	1618.77
1015.683	1646.57
1015.976	1598.66
1016.268	1589.17
1016.56	1572.44
1016.851	1579.68
1017.143	1539.45
1017.435	1565.67
1017.727	1535.84
1018.018	1539.9
1018.31	1519.56
1018.602	1522.5
1018.893	1508.72
1019.185	1492.9
1019.476	1491.32
1019.767	1500.13
1020.058	1465.33
1020.35	1486.8
1020.641	1449.06
1020.932	1432.11
1021.223	1447.93
1021.514	1428.72
1021.804	1403.64
1022.095	1412.9
1022.386	1379.68
1022.677	1417.19
1022.967	1371.32
1023.258	1358.66
1023.548	1379.46
1023.839	1364.99
1024.129	1355.05
1024.419	1315.28
1024.709	1322.96
1025	1293.81
1025.29	1270.08
1025.58	1275.05
1025.87	1290.42
1026.16	1281.83
1026.449	1249.74
1026.739	1237.54
1027.029	1263.75
1027.319	1251.32
1027.608	1212.68
1027.898	1223.08
1028.187	1209.52
1028.477	1221.04
1028.766	1230.53
1029.055	1195.51
1029.344	1196.86
1029.634	1175.39
1029.923	1192.12
1030.212	1188.27
1030.501	1178.78
1030.79	1180.14
1031.078	1145.34
1031.367	1126.58
1031.656	1145.34
1031.945	1125
1032.233	1096.3
1032.522	1106.92
1032.81	1108.28
1033.099	1088.39
1033.387	1056.3
1033.675	1080.48
1033.963	1082.97
1034.251	1101.95
1034.54	1077.32
1034.828	1060.59
1035.116	1047.03
1035.403	1049.52
1035.691	1010.88
1035.979	1021.95
1036.267	1004.55
1036.554	1012.01
1036.842	1002.29
1037.129	1011.78
1037.417	996.64
1037.704	976.53
1037.992	981.27
1038.279	991.67
1038.566	966.36
1038.853	966.36
1039.14	966.36
