Data from hue_100_FLMS001491_00080.txt Node
Date: Tue Feb 07 17:03:39 GMT 2017
User: dcchb
Spectrometer: FLMS00149
Trigger mode: 0
Integration Time (sec): 2.000000E-2
Scans to average: 10
Electric dark correction enabled: true
Nonlinearity correction enabled: false
Boxcar width: 0
XAxis mode: Wavelengths
Number of Pixels in Spectrum: 2048
>>>>>Begin Spectral Data<<<<<
341.393	-18.73
341.776	-18.73
342.16	-18.73
342.543	-50.37
342.927	-65.05
343.31	-58.5
343.693	-59.86
344.077	-84.72
344.46	-73.19
344.843	-37.71
345.226	-37.48
345.61	-35.23
345.993	-16.92
346.376	-20.54
346.759	12.68
347.142	17.88
347.525	53.36
347.908	40.71
348.291	83.42
348.674	111.21
349.057	104.88
349.44	111.21
349.823	154.37
350.206	183.07
350.588	208.16
350.971	218.78
351.354	224.2
351.737	256.97
352.119	263.98
352.502	263.3
352.884	280.92
353.267	291.09
353.65	287.25
354.032	295.16
354.414	315.05
354.797	299
355.179	323.64
355.562	329.06
355.944	327.93
356.326	344.43
356.709	343.07
357.091	337.65
357.473	351.66
357.855	324.77
358.238	347.36
358.62	330.87
359.002	345.56
359.384	355.5
359.766	337.19
360.148	339.91
360.53	341.71
360.912	341.04
361.294	363.41
361.676	338.1
362.057	347.59
362.439	306.23
362.821	359.79
363.203	347.59
363.584	325.9
363.966	330.87
364.348	343.07
364.729	350.75
365.111	337.19
365.493	303.98
365.874	313.24
366.256	321.6
366.637	330.19
367.019	307.36
367.4	324.54
367.781	329.06
368.163	339
368.544	334.26
368.925	331.54
369.306	319.79
369.688	320.92
370.069	312.79
370.45	317.08
370.831	325.67
371.212	327.25
371.593	323.18
371.974	329.29
372.355	345.78
372.736	312.79
373.117	325.9
373.498	334.48
373.879	338.32
374.26	326.8
374.641	322.96
375.021	310.08
375.402	326.8
375.783	330.64
376.163	349.17
376.544	341.71
376.925	350.08
377.305	345.56
377.686	341.94
378.066	332.45
378.447	347.82
378.827	351.21
379.208	345.56
379.588	343.52
379.968	349.17
380.349	343.07
380.729	351.66
381.109	343.97
381.489	345.56
381.87	336.29
382.25	333.8
382.63	356.18
383.01	363.18
383.39	352.34
383.77	348.95
384.15	371.54
384.53	336.52
384.91	358.89
385.29	364.31
385.67	358.89
386.049	367.7
386.429	370.64
386.809	395.05
387.189	365.89
387.568	368.38
387.948	363.18
388.328	360.02
388.707	365.44
389.087	368.38
389.466	374.03
389.846	386.23
390.225	381.94
390.605	409.28
390.984	391.66
391.363	403.86
391.743	399.11
392.122	372
392.501	383.52
392.881	384.2
393.26	401.37
393.639	413.12
394.018	418.77
394.397	408.38
394.776	409.06
395.155	416.74
395.534	406.8
395.913	384.65
396.292	427.81
396.671	431.2
397.05	413.35
397.429	424.65
397.808	419
398.186	437.98
398.565	434.82
398.944	408.15
399.323	428.49
399.701	429.17
400.08	419.68
400.458	409.73
400.837	447.02
401.215	423.07
401.594	433.46
401.972	452.67
402.351	434.59
402.729	426.46
403.107	442.95
403.486	475.72
403.864	454.93
404.242	438.43
404.62	457.64
404.999	456.51
405.377	456.29
405.755	435.72
406.133	460.13
406.511	448.15
406.889	473.91
407.267	487.7
407.645	476.85
408.023	477.98
408.401	480.69
408.779	489.73
409.156	480.69
409.534	492.9
409.912	502.39
410.29	508.26
410.667	503.29
411.045	504.65
411.422	504.2
411.8	499.9
412.178	527.02
412.555	534.25
412.933	515.27
413.31	541.71
413.687	536.74
414.065	538.55
414.442	541.48
414.819	523.86
415.197	528.6
415.574	556.4
415.951	550.3
416.328	539.22
416.705	559.34
417.082	576.51
417.46	550.97
417.837	565.89
418.214	577.19
418.591	599.79
418.967	579
419.344	596.62
419.721	570.41
420.098	574.25
420.475	587.81
420.852	605.89
421.228	604.31
421.605	590.07
421.982	597.75
422.358	609.5
422.735	624.42
423.111	650.63
423.488	635.04
423.864	621.03
424.241	656.06
424.617	637.07
424.994	648.82
425.37	653.12
425.746	645.89
426.123	680.46
426.499	659.67
426.875	679.33
427.251	664.87
427.627	690.18
428.003	686.56
428.379	674.59
428.756	686.34
429.132	696.73
429.507	702.16
429.883	723.17
430.259	720.46
430.635	722.04
431.011	713.23
431.387	744.42
431.763	773.12
432.138	753.23
432.514	763.85
432.89	771.31
433.265	788.48
433.641	785.77
434.016	811.08
434.392	816.28
434.767	806.11
435.143	806.33
435.518	802.94
435.894	839.1
436.269	843.85
436.644	842.27
437.02	843.62
437.395	835.03
437.77	883.62
438.145	876.16
438.52	869.38
438.895	870.51
439.271	895.37
439.646	904.86
440.021	928.82
440.395	917.74
440.77	927.46
441.145	911.19
441.52	925.65
441.895	931.76
442.27	936.05
442.645	937.63
443.019	939.21
443.394	978.31
443.769	974.69
444.143	945.09
444.518	978.99
444.892	985.31
445.267	976.73
445.641	978.31
446.016	1013.56
446.39	1021.92
446.764	983.05
447.139	1023.73
447.513	1014.92
447.887	1050.17
448.262	1025.54
448.636	1052.43
449.01	1060.34
449.384	1058.08
449.758	1066.44
450.132	1082.26
450.506	1070.73
450.88	1062.37
451.254	1108.93
451.628	1112.09
452.002	1114.12
452.376	1154.35
452.75	1158.64
453.123	1165.87
453.497	1168.36
453.871	1182.14
454.244	1200.22
454.618	1201.8
454.992	1197.96
455.365	1213.33
455.739	1270.73
456.112	1268.02
456.486	1289.49
456.859	1290.84
457.232	1325.42
457.606	1331.07
457.979	1327.9
458.352	1372.42
458.725	1374.91
459.099	1393.44
459.472	1373.1
459.845	1406.77
460.218	1412.65
460.591	1451.97
460.964	1462.59
461.337	1465.53
461.71	1483.38
462.083	1514.56
462.456	1540.33
462.829	1509.14
463.201	1565.18
463.574	1592.75
463.947	1616.48
464.32	1624.84
464.692	1648.12
465.065	1653.09
465.438	1700.32
465.81	1694.9
466.183	1753.65
466.555	1766.76
466.928	1771.28
467.3	1838.17
467.672	1855.57
468.045	1880.43
468.417	1903.93
468.789	1908.9
469.161	1939.64
469.534	1997.72
469.906	2008.79
470.278	2071.39
470.65	2098.73
471.022	2124.27
471.394	2150.48
471.766	2223.7
472.138	2251.95
472.51	2290.59
472.882	2345.96
473.253	2378.27
473.625	2427.08
473.997	2521.32
474.369	2532.62
474.74	2561.32
475.112	2609.68
475.484	2707.75
475.855	2768.99
476.227	2815.55
476.598	2889.67
476.97	2930.57
477.341	3007.41
477.713	3069.55
478.084	3123.56
478.455	3242.65
478.827	3314.07
479.198	3425.7
479.569	3452.14
479.94	3572.59
480.311	3629.09
480.682	3760.38
481.053	3902.07
481.424	3957.21
481.795	4091.67
482.166	4188.84
482.537	4277.2
482.908	4430.19
483.279	4474.26
483.65	4597.2
484.021	4766.23
484.391	4895.49
484.762	4941.14
485.133	5045.09
485.503	5254.35
485.874	5404.63
486.244	5415.93
486.615	5554.91
486.985	5734.11
487.356	5911.06
487.726	5990.15
488.097	6160.32
488.467	6257.49
488.837	6452.74
489.207	6604.6
489.578	6743.81
489.948	6900.19
490.318	7059.96
490.688	7125.26
491.058	7326.39
491.428	7492.03
491.798	7602.09
492.168	7869.88
492.538	7994.39
492.908	8128.63
493.278	8310.77
493.648	8356.42
494.017	8542.4
494.387	8708.73
494.757	8824.2
495.126	9017.64
495.496	9076.63
495.866	9227.81
496.235	9340.8
496.605	9558.42
496.974	9682.71
497.344	9813.56
497.713	9915.7
498.082	10053.1
498.452	10199.76
498.821	10306.65
499.19	10386.65
499.559	10557.49
499.928	10664.61
500.298	10764.72
500.667	10976.24
501.036	10963.36
501.405	11151.6
501.774	11149.11
502.143	11285.83
502.512	11386.17
502.88	11583.9
503.249	11526.28
503.618	11661.64
503.987	11779.61
504.356	11922.88
504.724	11968.08
505.093	12008.98
505.462	12245.13
505.83	12237.22
506.199	12371
506.567	12630.88
506.936	12533.48
507.304	12696.19
507.672	12805.79
508.041	12787.94
508.409	12945.9
508.777	13030.42
509.145	13185.67
509.514	13150.42
509.882	13336.85
510.25	13246.91
510.618	13396.29
510.986	13539.11
511.354	13611.87
511.722	13681.7
512.09	13732.55
512.458	13724.19
512.826	13776.39
513.193	13979.55
513.561	13952.66
513.929	14068.58
514.297	14118.08
514.664	14216.38
515.032	14271.52
515.4	14376.37
515.767	14437.16
516.135	14532.98
516.502	14417.95
516.869	14629.7
517.237	14657.72
517.604	14546.76
517.972	14857.49
518.339	14777.72
518.706	14753.99
519.073	14953.08
519.44	14858.17
519.808	14972.52
520.175	14970.03
520.542	15123.02
520.909	15165.51
521.276	15155.11
521.643	15266.29
522.009	15327.31
522.376	15366.18
522.743	15374.31
523.11	15523.69
523.477	15597.13
523.843	15594.42
524.21	15752.16
524.577	15783.57
524.943	15774.08
525.31	15870.35
525.676	15859.5
526.043	15970.23
526.409	16043.67
526.776	16112.82
527.142	16051.81
527.508	16130.23
527.874	16232.14
528.241	16231.69
528.607	16230.56
528.973	16255.87
529.339	16291.35
529.705	16339.94
530.071	16399.6
530.437	16439.37
530.803	16493.61
531.169	16432.82
531.535	16417.22
531.901	16417.68
532.267	16473.04
532.632	16500.61
532.998	16470.78
533.364	16542.64
533.73	16528.41
534.095	16504
534.461	16546.26
534.826	16556.2
535.192	16557.56
535.557	16558.91
535.923	16522.53
536.288	16574.06
536.653	16551.91
537.019	16443.21
537.384	16434.85
537.749	16500.39
538.114	16386.49
538.479	16539.48
538.845	16427.17
539.21	16383.55
539.575	16462.87
539.94	16419.94
540.305	16456.54
540.67	16312.14
541.034	16342.88
541.399	16325.93
541.764	16278.24
542.129	16273.27
542.494	16378.81
542.858	16384.91
543.223	16233.95
543.587	16265.36
543.952	16204.57
544.316	16123.22
544.681	16066.27
545.045	16081.19
545.41	16179.94
545.774	16091.36
546.138	16044.13
546.503	15984.01
546.867	15931.81
547.231	16092.03
547.595	15998.48
547.959	16000.06
548.324	15918.03
548.688	15918.48
549.052	15948.31
549.416	15832.38
549.779	15768.2
550.143	15846.39
550.507	15877.58
550.871	15922.32
551.235	15700.41
551.599	15797.58
551.962	15749.22
552.326	15708.99
552.689	15691.14
553.053	15640.75
553.417	15734.53
553.78	15838.48
554.143	15658.37
554.507	15607.98
554.87	15580.18
555.234	15761.87
555.597	15579.28
555.96	15638.04
556.323	15694.08
556.686	15534.54
557.05	15707.86
557.413	15576.34
557.776	15631.48
558.139	15700.18
558.502	15615.89
558.865	15689.11
559.228	15752.83
559.59	15635.78
559.953	15643.91
560.316	15891.14
560.679	15705.15
561.041	15727.52
561.404	15740.41
561.767	15756
562.129	15738.37
562.492	15832.83
562.854	15810.91
563.217	15768.65
563.579	15737.24
563.941	15919.61
564.304	15833.28
564.666	15880.74
565.028	15880.06
565.39	15843.91
565.753	15936.56
566.115	16004.13
566.477	16014.75
566.839	16085.26
567.201	16093.84
567.563	16092.71
567.925	16238.25
568.287	16042.54
568.648	16146.72
569.01	16191.69
569.372	16306.27
569.734	16196.44
570.095	16294.74
570.457	16296.32
570.819	16305.81
571.18	16284.8
571.542	16367.73
571.903	16343.78
572.265	16375.19
572.626	16468.52
572.987	16458.58
573.349	16502.87
573.71	16490.22
574.071	16383.55
574.432	16515.75
574.794	16635.98
575.155	16606.82
575.516	16468.07
575.877	16541.29
576.238	16455.41
576.599	16578.35
576.96	16567.73
577.32	16520.5
577.681	16577.67
578.042	16635.07
578.403	16606.6
578.763	16632.81
579.124	16625.58
579.485	16639.14
579.845	16629.65
580.206	16589.42
580.566	16594.85
580.927	16635.98
581.287	16694.5
581.648	16567.73
582.008	16682.98
582.368	16576.09
582.728	16671.45
583.089	16589.87
583.449	16577.45
583.809	16650.66
584.169	16619.25
584.529	16489.99
584.889	16619.03
585.249	16586.26
585.609	16449.99
585.969	16580.84
586.329	16536.32
586.688	16525.24
587.048	16530.67
587.408	16514.85
587.768	16475.98
588.127	16514.4
588.487	16501.74
588.846	16585.35
589.206	16368.19
589.565	16393.27
589.925	16465.13
590.284	16374.74
590.643	16456.32
591.003	16535.64
591.362	16459.26
591.721	16420.84
592.08	16442.99
592.44	16468.52
592.799	16468.3
593.158	16349.88
593.517	16384.91
593.876	16445.47
594.235	16391.24
594.593	16396.21
594.952	16403.21
595.311	16398.47
595.67	16439.82
596.029	16450.67
596.387	16432.14
596.746	16395.98
597.104	16391.69
597.463	16420.84
597.822	16419.03
598.18	16348.3
598.538	16309.43
598.897	16408.18
599.255	16329.09
599.613	16595.52
599.972	16316.44
600.33	16339.26
600.688	16398.24
601.046	16400.5
601.404	16412.25
601.762	16374.06
602.12	16438.24
602.478	16462.87
602.836	16377.22
603.194	16400.95
603.552	16384.91
603.91	16386.04
604.268	16394.4
604.625	16336.32
604.983	16386.72
605.341	16333.61
605.698	16344.46
606.056	16452.03
606.413	16465.81
606.771	16506.71
607.128	16406.15
607.485	16412.7
607.843	16361.63
608.2	16480.27
608.557	16470.33
608.914	16393.72
609.272	16483.89
609.629	16575.19
609.986	16509.2
610.343	16482.31
610.7	16625.13
611.057	16590.55
611.414	16566.6
611.771	16538.58
612.127	16630.33
612.484	16605.02
612.841	16584.68
613.198	16569.31
613.554	16643.21
613.911	16695.41
614.267	16745.58
614.624	16761.17
614.98	16744.22
615.337	16783.09
615.693	16771.11
616.05	16679.82
616.406	16895.18
616.762	16785.58
617.118	16792.81
617.475	16799.13
617.831	16855.4
618.187	16830.09
618.543	16775.41
618.899	16813.6
619.255	16842.3
619.611	16858.57
619.967	16946.48
620.323	16962.29
620.678	16900.37
621.034	16882.3
621.39	16824.67
621.746	16840.72
622.101	17025.12
622.457	16892.69
622.812	16982.63
623.168	16893.14
623.523	16917.1
623.879	17091.78
624.234	16921.17
624.589	16948.28
624.945	17027.38
625.3	17017.21
625.655	16973.82
626.01	16989.64
626.365	16958.45
626.72	16859.47
627.075	16956.87
627.43	16899.47
627.785	16859.7
628.14	16896.08
628.495	16884.33
628.85	16842.98
629.205	16818.8
629.559	16922.52
629.914	16848.4
630.269	16810.21
630.623	16746.25
630.978	16866.48
631.332	16825.35
631.687	16906.02
632.041	16747.16
632.396	16827.61
632.75	16727.5
633.104	16712.58
633.459	16729.31
633.813	16687.27
634.167	16680.72
634.521	16666.71
634.875	16633.04
635.229	16622.64
635.583	16511.46
635.937	16549.88
636.291	16544
636.645	16491.8
636.999	16418.58
637.352	16489.76
637.706	16415.42
638.06	16430.33
638.413	16422.2
638.767	16350.33
639.121	16379.48
639.474	16337
639.828	16352.59
640.181	16344.46
640.534	16361.18
640.888	16306.27
641.241	16200.51
641.594	16269.88
641.947	16240.73
642.301	16288.19
642.654	16245.93
643.007	16217.68
643.36	16177.91
643.713	16137.46
644.066	16176.33
644.419	16071.7
644.771	16037.8
645.124	15877.12
645.477	15871.25
645.83	15820.63
646.182	15739.95
646.535	15700.41
646.888	15710.58
647.24	15596.23
647.593	15631.71
647.945	15641.42
648.298	15615.21
648.65	15603.91
649.002	15556.46
649.355	15696.34
649.707	15625.38
650.059	15762.78
650.411	16033.5
650.763	15876.67
651.115	16078.25
651.467	15913.73
651.819	16000.74
652.171	15938.59
652.523	15889.55
652.875	15949.89
653.227	15843.45
653.578	15992.15
653.93	15874.19
654.282	15829.22
654.633	15847.97
654.985	15883.45
655.337	15850.91
655.688	15949.89
656.039	15958.93
656.391	15838.93
656.742	15956.67
657.094	15900.4
657.445	16007.52
657.796	15959.61
658.147	15926.84
658.498	15879.84
658.849	15972.94
659.2	15927.75
659.551	15963.22
659.902	16024.01
660.253	15897.69
660.604	15946.5
660.955	15966.84
661.306	15981.98
661.656	15894.53
662.007	15957.8
662.358	16031.7
662.708	15961.42
663.059	15952.15
663.409	15896.79
663.76	16013.62
664.11	15998.93
664.461	16029.44
664.811	16020.17
665.161	16038.93
665.511	15925.71
665.862	15972.72
666.212	15994.86
666.562	15972.72
666.912	15933.17
667.262	15944.69
667.612	16004.58
667.962	15979.04
668.312	15958.03
668.662	16131.81
669.011	15976.78
669.361	15901.53
669.711	16053.39
670.06	15880.74
670.41	16005.48
670.76	15971.36
671.109	16024.69
671.459	15937.46
671.808	15917.12
672.157	15956.44
672.507	15816.79
672.856	15839.84
673.205	15909.89
673.554	15870.8
673.904	15804.13
674.253	15939.5
674.602	15861.53
674.951	15560.3
675.3	15555.1
675.649	15752.61
675.998	15749.44
676.346	15702.89
676.695	15759.16
677.044	15655.21
677.393	15678.03
677.741	15674.42
678.09	15717.58
678.438	15586.74
678.787	15713.29
679.135	15688.88
679.484	15526.4
679.832	15666.06
680.181	15441.88
680.529	15536.34
680.877	15462.67
681.225	15384.71
681.573	15566.62
681.922	15437.59
682.27	15314.2
682.618	15391.04
682.966	15280.3
683.314	15318.04
683.661	15200.76
684.009	15192.85
684.357	15120.31
684.705	15104.94
685.053	15210.02
685.4	15068.78
685.748	15044.6
686.095	14982.69
686.443	14977.26
686.79	14991.05
687.138	14997.83
687.485	15027.2
687.832	14922.8
688.18	14934.78
688.527	14907.66
688.874	14823.37
689.221	14836.7
689.568	14729.81
689.915	14672.18
690.262	14746.99
690.609	14601.23
690.956	14616.37
691.303	14531.62
691.65	14524.17
691.997	14422.47
692.344	14308.35
692.69	14368.92
693.037	14291.18
693.383	14209.15
693.73	14168.24
694.077	14152.65
694.423	14121.01
694.769	14150.84
695.116	14100.22
695.462	14017.29
695.808	13980.45
696.155	13945.65
696.501	13828.37
696.847	13848.25
697.193	13733.23
697.539	13820.46
697.885	13660.46
698.231	13561.03
698.577	13532.1
698.923	13449.84
699.269	13417.75
699.614	13419.79
699.96	13370.98
700.306	13327.81
700.651	13233.8
700.997	13208.95
701.342	13249.85
701.688	13139.34
702.033	13098.44
702.379	13161.49
702.724	13031.55
703.069	13069.29
703.415	12894.6
703.76	12902.29
704.105	12831.78
704.45	12827.94
704.795	12718.79
705.14	12693.25
705.485	12652.58
705.83	12653.71
706.175	12722.41
706.52	12663.2
706.865	12528.51
707.209	12444.22
707.554	12497.1
707.899	12538
708.243	12389.98
708.588	12435.63
708.932	12264.79
709.277	12218.01
709.621	12250.78
709.966	12199.26
710.31	12229.09
710.654	12119.26
710.998	12145.92
711.342	12103.66
711.687	12072.25
712.031	12015.76
712.375	11972.14
712.719	12018.92
713.063	12024.12
713.407	12047.17
713.75	11917.23
714.094	11873.39
714.438	11867.29
714.782	11856.67
715.125	11745.48
715.469	11784.58
715.812	11739.38
716.156	11719.49
716.499	11746.39
716.843	11799.72
717.186	11606.5
717.53	11707.74
717.873	11666.39
718.216	11694.18
718.559	11551.81
718.902	11575.54
719.246	11589.33
719.589	11467.3
719.932	11506.17
720.275	11542.78
720.617	11496
720.96	11472.72
721.303	11466.39
721.646	11425.04
721.989	11427.98
722.331	11451.48
722.674	11300.97
723.016	11506.17
723.359	11350.46
723.701	11351.37
724.044	11230.69
724.386	11211.71
724.729	11390.46
725.071	11326.96
725.413	11294.65
725.755	11272.5
726.097	11217.36
726.439	11183.01
726.782	11077.7
727.124	11254.87
727.465	11174.65
727.807	11192.95
728.149	11207.19
728.491	11164.03
728.833	11146.4
729.175	11114.31
729.516	11112.5
729.858	11132.84
730.199	11109.57
730.541	11139.17
730.882	11110.47
731.224	11110.47
731.565	11097.36
731.906	11069.57
732.248	11086.06
732.589	11006.29
732.93	11050.36
733.271	11058.72
733.612	11077.03
733.953	11092.17
734.294	11098.49
734.635	11022.11
734.976	11058.95
735.317	11022.56
735.658	11033.18
735.999	11040.42
736.339	11072.28
736.68	11119.51
737.021	11135.55
737.361	11060.53
737.702	11130.36
738.042	11067.76
738.383	11133.07
738.723	11068.21
739.063	11101.43
739.404	11145.72
739.744	11134.2
740.084	11107.76
740.424	11158.38
740.764	11093.3
741.104	11198.15
741.444	11194.08
741.784	11193.41
742.124	11125.84
742.464	11172.39
742.804	11239.96
743.143	11152.5
743.483	11267.53
743.823	11256.23
744.162	11288.77
744.502	11356.34
744.841	11315.44
745.181	11411.25
745.52	11331.71
745.86	11426.85
746.199	11476.11
746.538	11477.92
746.877	11540.97
747.216	11668.42
747.556	11632.26
747.895	11720.85
748.234	11684.92
748.573	11754.3
748.911	11769.21
749.25	11882.43
749.589	11868.19
749.928	11961.75
750.267	12043.55
750.605	12095.08
750.944	12190.22
751.283	12157.45
751.621	12450.1
751.96	12439.25
752.298	12539.81
752.636	12634.27
752.975	12721.28
753.313	12724.44
753.651	12957.2
753.989	12944.09
754.327	13136.18
754.666	13152.9
755.004	13343.18
755.342	13474.93
755.679	13583.17
756.017	13750.63
756.355	13869.04
756.693	13966.21
757.031	14119.88
757.368	14200.78
757.706	14385.86
758.044	14517.61
758.381	14774.56
758.719	14857.04
759.056	15027.66
759.394	15164.83
759.731	15201.89
760.068	15400.53
760.405	15481.66
760.743	15664.93
761.08	15887.29
761.417	15946.28
761.754	16138.81
762.091	16360.73
762.428	16402.76
762.765	16570.67
763.102	16905.8
763.438	16886.59
763.775	17001.16
764.112	17233.7
764.449	17466.24
764.785	17485.67
765.122	17532.45
765.458	17727.92
765.795	17908.03
766.131	18081.13
766.467	18171.08
766.804	18249.72
767.14	18403.61
767.476	18448.81
767.812	18645.87
768.148	18811.96
768.485	18728.12
768.821	18897.16
769.157	19084.05
769.492	19135.12
769.828	19188.22
770.164	19326.3
770.5	19351.38
770.836	19585.28
771.171	19473.19
771.507	19696.01
771.842	19664.82
772.178	19743.24
772.513	19941.65
772.849	19874.76
773.184	19971.25
773.519	20065.49
773.855	20055.77
774.19	20081.31
774.525	20148.88
774.86	20318.82
775.195	20387.51
775.53	20306.16
775.865	20392.71
776.2	20234.98
776.535	20242.66
776.87	20345.03
777.205	20355.2
777.539	20353.84
777.874	20384.8
778.209	20386.61
778.543	20380.06
778.878	20281.75
779.212	20422.99
779.547	20417.8
779.881	20476.55
780.215	20356.78
780.55	20580.96
780.884	20375.54
781.218	20402.43
781.552	20474.74
781.886	20421.41
782.22	20380.96
782.554	20378.02
782.888	20337.57
783.222	20251.93
783.556	20326.05
783.889	20276.33
784.223	20114.98
784.557	20164.47
784.89	20271.59
785.224	20129.22
785.557	20123.57
785.891	20081.31
786.224	20081.76
786.558	20067.52
786.891	20026.39
787.224	19952.5
787.557	19869.56
787.891	19961.54
788.224	19888.09
788.557	19933.97
788.89	19831.37
789.223	19920.63
789.556	19741.66
789.888	19737.36
790.221	19667.08
790.554	19671.15
790.887	19614.88
791.219	19557.71
791.552	19513.19
791.884	19418.05
792.217	19412.17
792.549	19346.19
792.882	19347.09
793.214	19260.99
793.546	19382.12
793.879	19208.56
794.211	19014.44
794.543	19226.64
794.875	19037.72
795.207	19158.17
795.539	19094.89
795.871	19129.69
796.203	18865.97
796.535	18777.39
796.867	18824.62
797.198	18685.64
797.53	18741.23
797.862	18588.01
798.193	18685.19
798.525	18620.56
798.856	18608.58
799.188	18404.74
799.519	18378.3
799.85	18283.62
800.182	18352.99
800.513	18412.88
800.844	18179.21
801.175	18356.38
801.506	18295.82
801.837	18118.42
802.168	18221.47
802.499	18091.76
802.83	17990.74
803.161	17973.11
803.491	17917.52
803.822	17988.93
804.153	17962.49
804.483	17716.17
804.814	17762.73
805.145	17746.23
805.475	17675.5
805.805	17587.36
806.136	17619.23
806.466	17560.92
806.796	17533.58
807.126	17355.96
807.457	17381.94
807.787	17386.01
808.117	17337.43
808.447	17353.47
808.777	17246.13
809.107	17177.2
809.436	17222.4
809.766	17154.15
810.096	17034.38
810.426	16972.46
810.755	17037.09
811.085	17068.05
811.414	17004.1
811.744	16830.55
812.073	16826.48
812.403	16813.82
812.732	16758.01
813.061	16809.08
813.39	16699.7
813.719	16709.42
814.049	16745.8
814.378	16514.62
814.707	16575.86
815.036	16551.23
815.365	16432.14
815.693	16341.75
816.022	16451.35
816.351	16329.32
816.68	16223.33
817.008	16319.37
817.337	16179.49
817.665	16141.52
817.994	16210.68
818.322	16099.27
818.651	16047.97
818.979	16043.9
819.307	16137.23
819.636	16137.01
819.964	15963.22
820.292	16059.49
820.62	15975.43
820.948	15959.16
821.276	16006.39
821.604	15955.99
821.932	15945.6
822.259	16023.79
822.587	15913.06
822.915	15992.83
823.243	15945.82
823.57	15877.8
823.898	15878.48
824.225	15900.18
824.553	15894.07
824.88	15895.66
825.207	15919.84
825.535	15902.66
825.862	15983.34
826.189	15848.2
826.516	15951.7
826.843	15957.57
827.17	15908.08
827.497	15967.97
827.824	15936.56
828.151	15914.19
828.478	15978.14
828.805	16053.39
829.131	15901.53
829.458	15893.62
829.785	15796.68
830.111	15891.81
830.438	15929.33
830.764	15937.69
831.09	15962.09
831.417	15822.44
831.743	15866.73
832.069	15965.71
832.395	15833.51
832.722	15835.09
833.048	15785.38
833.374	15822.66
833.7	15726.85
834.026	15828.76
834.351	15777.01
834.677	15739.28
835.003	15822.21
835.329	15746.73
835.654	15712.84
835.98	15762.1
836.306	15767.3
836.631	15614.08
836.956	15784.02
837.282	15701.54
837.607	15621.31
837.932	15619.05
838.258	15617.47
838.583	15571.82
838.908	15496.57
839.233	15465.38
839.558	15457.93
839.883	15387.65
840.208	15336.12
840.533	15366.86
840.858	15293.86
841.182	15291.83
841.507	15306.74
841.832	15220.64
842.156	15150.14
842.481	15246.18
842.805	15131.61
843.13	15172.06
843.454	15098.61
843.778	15023.14
844.103	15010.48
844.427	15057.94
844.751	15039.63
845.075	14856.59
845.399	14920.31
845.723	14747.44
846.047	14839.86
846.371	14746.99
846.695	14717.38
847.019	14661.34
847.343	14530.27
847.666	14569.81
847.99	14457.73
848.313	14357.62
848.637	14389.25
848.96	14286.21
849.284	14304.06
849.607	14137.06
849.931	14095.93
850.254	14037.4
850.577	13897.74
850.9	13981.13
851.223	13890.06
851.546	13841.47
851.869	13697.52
852.192	13803.28
852.515	13573.23
852.838	13609.84
853.161	13668.82
853.483	13514.93
853.806	13461.6
854.129	13438.32
854.451	13359.45
854.774	13363.07
855.096	13319.68
855.419	13177.99
855.741	13230.64
856.063	13193.13
856.385	13163.3
856.708	13022.96
857.03	13121.94
857.352	13050.98
857.674	12983.87
857.996	12917.65
858.318	12910.42
858.64	12878.11
858.961	12862.29
859.283	12826.81
859.605	12728.06
859.926	12775.29
860.248	12726.25
860.57	12640.15
860.891	12636.53
861.212	12610.32
861.534	12550.21
861.855	12519.93
862.176	12501.17
862.498	12594.73
862.819	12503.65
863.14	12450.77
863.461	12528.29
863.782	12446.03
864.103	12372.81
864.424	12329.42
864.745	12320.83
865.065	12313.83
865.386	12283.55
865.707	12205.81
866.027	12225.92
866.348	12281.29
866.668	12198.13
866.989	12105.25
867.309	12048.75
867.63	12124.68
867.95	12141.18
868.27	11994.52
868.59	11977.11
868.91	12000.16
869.23	12011.69
869.55	12043.78
869.87	12041.75
870.19	11948.41
870.51	11972.59
870.83	11933.05
871.15	11863.9
871.469	11900.73
871.789	11855.54
872.109	11844.46
872.428	11734.18
872.748	11830.45
873.067	11744.13
873.386	11817.57
873.706	11794.52
874.025	11641.76
874.344	11754.52
874.663	11662.32
874.982	11656.44
875.301	11632.26
875.62	11708.87
875.939	11582.1
876.258	11669.78
876.577	11542.1
876.896	11533.28
877.214	11560.85
877.533	11547.97
877.852	11484.25
878.17	11525.15
878.489	11469.56
878.807	11471.14
879.125	11357.47
879.444	11429.56
879.762	11350.01
880.08	11343.91
880.398	11387.07
880.716	11292.61
881.034	11274.53
881.352	11185.5
881.67	11314.31
881.988	11240.18
882.306	11209.45
882.624	11196.57
882.941	11075.22
883.259	11049.23
883.577	11071.83
883.894	11035.22
884.212	11017.14
884.529	11060.98
884.846	11034.54
885.164	11015.33
885.481	10964.03
885.798	10894.21
886.115	10925.84
886.432	10898.5
886.75	10778.5
887.067	10773.08
887.383	10815.56
887.7	10764.94
888.017	10691.05
888.334	10762.23
888.651	10695.79
888.967	10656.92
889.284	10575.12
889.6	10538.28
889.917	10544.84
890.233	10591.16
890.55	10523.59
890.866	10478.17
891.182	10449.92
891.498	10369.93
891.815	10340.32
892.131	10323.37
892.447	10306.88
892.763	10239.53
893.079	10274.11
893.395	10220.78
893.71	10137.61
894.026	10147.56
894.342	10075.02
894.657	10058.97
894.973	10007.22
895.289	10012.42
895.604	10000.22
895.92	9973.78
896.235	9828.47
896.55	9825.98
896.865	9865.98
897.181	9802.48
897.496	9840.45
897.811	9705.31
898.126	9745.53
898.441	9703.73
898.756	9661.7
899.071	9550.96
899.386	9604.97
899.7	9557.29
900.015	9539.21
900.33	9475.71
900.644	9476.16
900.959	9387.35
901.273	9399.33
901.588	9295.15
901.902	9296.73
902.216	9274.59
902.531	9283.85
902.845	9194.36
903.159	9167.7
903.473	9111.43
903.787	9077.53
904.101	9089.73
904.415	9042.95
904.729	9062.61
905.042	8914.6
905.356	8919.34
905.67	8907.59
905.984	8921.15
906.297	8899.91
906.611	8736.52
906.924	8748.27
907.237	8699.01
907.551	8717.77
907.864	8679.12
908.177	8682.74
908.491	8630.54
908.804	8607.03
909.117	8526.36
909.43	8501.95
909.743	8447.94
910.056	8436.64
910.368	8416.3
910.681	8339.02
910.994	8328.17
911.307	8320.04
911.619	8248.4
911.932	8213.82
912.244	8182.19
912.557	8201.85
912.869	8104.45
913.181	8111
913.494	8068.74
913.806	7978.35
914.118	7941.29
914.43	7928.63
914.742	7968.63
915.054	7901.29
915.366	7834.4
915.678	7882.53
915.99	7826.26
916.302	7744.68
916.613	7752.59
916.925	7742.42
917.236	7681.86
917.548	7624.23
917.859	7602.99
918.171	7600.28
918.482	7484.35
918.794	7488.19
919.105	7532.03
919.416	7386.05
919.727	7419.95
920.038	7399.83
920.349	7339.72
920.66	7323.23
920.971	7329.78
921.282	7273.06
921.593	7175.21
921.903	7215.88
922.214	7146.28
922.525	7147.64
922.835	7127.98
923.146	7056.79
923.456	7067.64
923.767	6964.59
924.077	7038.49
924.387	6974.31
924.697	6880.53
925.008	6884.14
925.318	6890.02
925.628	6861.77
925.938	6836.01
926.248	6721.89
926.558	6797.14
926.867	6763.01
927.177	6724.15
927.487	6694.09
927.796	6613.64
928.106	6640.53
928.416	6572.74
928.725	6617.26
929.034	6522.12
929.344	6553.53
929.653	6513.08
929.962	6457.71
930.271	6434.21
930.581	6441.21
930.89	6365.74
931.199	6280.32
931.508	6318.96
931.817	6311.5
932.125	6244.61
932.434	6281.67
932.743	6186.76
933.051	6148.57
933.36	6139.08
933.669	6139.3
933.977	6134.1
934.286	6109.7
934.594	6101.34
934.902	6060.43
935.21	6044.39
935.519	5990.83
935.827	6001.68
936.135	5954
936.443	5869.48
936.751	5837.39
937.059	5883.72
937.367	5858.86
937.674	5828.35
937.982	5780.89
938.29	5787.22
938.597	5808.24
938.905	5688.47
939.213	5667.9
939.52	5678.07
939.827	5624.51
940.135	5608.69
940.442	5576.38
940.749	5577.28
941.056	5571.86
941.363	5500.45
941.67	5479.66
941.977	5478.98
942.284	5437.4
942.591	5435.82
942.898	5360.79
943.205	5432.43
943.511	5357.4
943.818	5361.47
944.125	5294.13
944.431	5344.52
944.738	5296.84
945.044	5253
945.35	5236.27
945.657	5115.6
945.963	5161.47
946.269	5133.45
946.575	5156.28
946.881	5123.06
947.187	5111.76
947.493	5053.68
947.799	4989.05
948.105	4999.67
948.41	4986.56
948.716	5036.51
949.022	4928.03
949.327	5005.09
949.633	4879.22
949.938	4854.14
950.244	4902.72
950.549	4837.64
950.854	4864.99
951.16	4813.69
951.465	4772.78
951.77	4709.06
952.075	4731.43
952.38	4696.4
952.685	4735.04
952.99	4661.37
953.294	4700.47
953.599	4646.23
953.904	4657.08
954.209	4577.08
954.513	4619.34
954.818	4564.43
955.122	4580.02
955.426	4548.61
955.731	4516.29
956.035	4486.24
956.339	4481.72
956.643	4463.41
956.948	4400.59
957.252	4370.08
957.556	4387.71
957.86	4370.53
958.163	4353.59
958.467	4355.17
958.771	4359.69
959.075	4314.94
959.378	4274.49
959.682	4282.85
959.985	4220.03
960.289	4207.6
960.592	4203.99
960.896	4219.13
961.199	4196.75
961.502	4156.3
961.805	4183.2
962.108	4092.8
962.411	4073.37
962.714	4035.85
963.017	4079.47
963.32	4064.1
963.623	4024.56
963.926	4014.39
964.228	4022.75
964.531	4017.32
964.833	4003.76
965.136	3957.89
965.438	3915.41
965.741	3904.33
966.043	3882.19
966.345	3858.01
966.648	3870.21
966.95	3869.31
967.252	3843.77
967.554	3785.24
967.856	3763.55
968.158	3796.76
968.46	3784.11
968.761	3744.56
969.063	3752.92
969.365	3696.2
969.666	3702.76
969.968	3653.04
970.269	3658.69
970.571	3653.72
970.872	3657.11
971.174	3585.02
971.475	3614.17
971.776	3573.95
972.077	3542.31
972.378	3538.47
972.679	3554.96
972.98	3552.93
973.281	3478.58
973.582	3502.54
973.883	3490.78
974.183	3422.76
974.484	3426.38
974.785	3418.7
975.085	3420.73
975.386	3452.14
975.686	3372.59
975.986	3386.38
976.287	3351.58
976.587	3343.22
976.887	3329.66
977.187	3299.6
977.487	3294.4
977.787	3273.61
978.087	3248.53
978.387	3240.17
978.687	3248.98
978.987	3235.88
979.286	3213.5
979.586	3161.75
979.885	3164.46
980.185	3172.37
980.484	3160.4
980.784	3116.1
981.083	3141.41
981.382	3105.71
981.682	3080.4
981.981	3092.38
982.28	3078.37
982.579	2997.92
982.878	3058.25
983.177	3006.95
983.475	3014.86
983.774	2989.33
984.073	2940.06
984.372	2992.94
984.67	2973.51
984.969	2955.43
985.267	2912.72
985.566	2934.64
985.864	2907.52
986.162	2906.62
986.461	2868.65
986.759	2896.22
987.057	2828.88
987.355	2858.26
987.653	2829.11
987.951	2780.52
988.249	2806.28
988.547	2789.33
988.844	2784.36
989.142	2764.48
989.44	2721.54
989.737	2729
990.035	2735.1
990.332	2720.63
990.63	2678.38
990.927	2690.35
991.224	2681.99
991.521	2652.16
991.819	2626.17
992.116	2645.83
992.413	2643.57
992.71	2589.56
993.006	2584.82
993.303	2588.89
993.6	2557.7
993.897	2540.53
994.193	2516.35
994.49	2559.51
994.787	2523.35
995.083	2501.66
995.379	2517.25
995.676	2463.92
995.972	2491.71
996.268	2459.4
996.565	2455.1
996.861	2441.09
997.157	2465.5
997.453	2422.56
997.749	2420.08
998.044	2386.41
998.34	2362.45
998.636	2358.38
998.932	2351.6
999.227	2351.6
999.523	2362.45
999.818	2337.59
1000.114	2270.48
1000.409	2290.14
1000.704	2282.23
1001	2276.58
1001.295	2268.9
1001.59	2243.81
1001.885	2199.97
1002.18	2221.66
1002.475	2200.65
1002.77	2203.36
1003.065	2176.47
1003.359	2170.82
1003.654	2158.39
1003.949	2130.59
1004.243	2145.73
1004.538	2119.75
1004.832	2134.21
1005.127	2129.46
1005.421	2089.46
1005.715	2075.45
1006.009	2054.21
1006.304	2031.16
1006.598	2087.43
1006.892	2043.36
1007.186	2025.51
1007.48	1971.28
1007.773	2004.95
1008.067	2000.88
1008.361	1971.28
1008.655	1975.34
1008.948	1956.81
1009.242	1945.51
1009.535	1938.96
1009.829	1928.11
1010.122	1905.29
1010.415	1879.53
1010.708	1899.87
1011.001	1896.7
1011.295	1851.73
1011.588	1844.95
1011.881	1822.35
1012.173	1816.48
1012.466	1811.73
1012.759	1825.97
1013.052	1805.4
1013.344	1792.98
1013.637	1782.81
1013.93	1808.34
1014.222	1759.08
1014.514	1776.93
1014.807	1731.51
1015.099	1724.5
1015.391	1719.98
1015.683	1702.13
1015.976	1706.42
1016.268	1665.75
1016.56	1683.6
1016.851	1683.37
1017.143	1670.27
1017.435	1663.26
1017.727	1643.15
1018.018	1594.79
1018.31	1623.26
1018.602	1597.27
1018.893	1620.55
1019.185	1591.85
1019.476	1570.83
1019.767	1560.89
1020.058	1539.2
1020.35	1535.58
1020.641	1500.1
1020.932	1508.69
1021.223	1511.85
1021.514	1520.67
1021.804	1492.42
1022.095	1468.92
1022.386	1463.94
1022.677	1469.82
1022.967	1480.22
1023.258	1458.07
1023.548	1443.61
1023.839	1432.76
1024.129	1421.01
1024.419	1395.7
1024.709	1401.8
1025	1372.87
1025.29	1363.16
1025.58	1356.6
1025.87	1327.68
1026.16	1350.05
1026.449	1333.55
1026.739	1336.94
1027.029	1336.72
1027.319	1338.52
1027.608	1287
1027.898	1282.03
1028.187	1289.94
1028.477	1265.98
1028.766	1295.14
1029.055	1247.45
1029.344	1252.88
1029.634	1255.14
1029.923	1240.22
1030.212	1235.25
1030.501	1228.47
1030.79	1209.49
1031.078	1198.87
1031.367	1220.56
1031.656	1208.58
1031.945	1193.67
1032.233	1169.26
1032.522	1165.65
1032.81	1145.31
1033.099	1145.08
1033.387	1136.04
1033.675	1131.3
1033.963	1143.73
1034.251	1134.91
1034.54	1110.28
1034.828	1108.93
1035.116	1105.08
1035.403	1093.78
1035.691	1077.97
1035.979	1079.1
1036.267	1058.53
1036.554	1084.29
1036.842	1052.2
1037.129	1074.8
1037.417	1036.16
1037.704	1029.83
1037.992	1037.74
1038.279	1035.71
1038.566	1018.53
1038.853	1018.53
1039.14	1018.53
