Data from hue_80_FLMS001491_55.txt Node
Date: Mon Feb 06 15:23:14 GMT 2017
User: dcchb
Spectrometer: FLMS00149
Trigger mode: 0
Integration Time (sec): 2.000000E-2
Scans to average: 10
Electric dark correction enabled: true
Nonlinearity correction enabled: false
Boxcar width: 0
XAxis mode: Wavelengths
Number of Pixels in Spectrum: 2048
>>>>>Begin Spectral Data<<<<<
341.393	0.1
341.776	0.1
342.16	0.1
342.543	-56.62
342.927	-65.89
343.31	-65.21
343.693	-65.44
344.077	-64.53
344.46	-69.28
344.843	-51.43
345.226	-33.57
345.61	-29.73
345.993	-18.88
346.376	-9.39
346.759	11.4
347.142	38.06
347.525	44.62
347.908	52.75
348.291	68.35
348.674	84.62
349.057	107.67
349.44	111.28
349.823	155.58
350.206	156.25
350.588	205.07
350.971	197.38
351.354	235.35
351.737	245.52
352.119	253.88
352.502	246.87
352.884	262.24
353.267	280.32
353.65	288.68
354.032	286.42
354.414	311.5
354.797	321.22
355.179	322.35
355.562	315.12
355.944	322.58
356.326	325.74
356.709	333.65
357.091	323.03
357.473	345.63
357.855	323.25
358.238	329.13
358.62	341.56
359.002	319.41
359.384	323.48
359.766	340.43
360.148	341.56
360.53	342.24
360.912	319.86
361.294	306.53
361.676	333.88
362.057	335.68
362.439	331.62
362.821	332.29
363.203	326.42
363.584	321.67
363.966	325.97
364.348	332.29
364.729	337.94
365.111	321.9
365.493	306.98
365.874	299.75
366.256	273.99
366.637	309.92
367.019	323.25
367.4	302.24
367.781	308.57
368.163	325.74
368.544	303.82
368.925	301.79
369.306	324.38
369.688	304.95
370.069	303.14
370.45	318.28
370.831	318.51
371.212	306.76
371.593	313.99
371.974	302.92
372.355	304.27
372.736	306.98
373.117	318.28
373.498	316.47
373.879	323.71
374.26	323.48
374.641	320.09
375.021	319.86
375.402	331.84
375.783	304.05
376.163	308.79
376.544	303.14
376.925	324.38
377.305	335.91
377.686	308.34
378.066	310.83
378.447	324.61
378.827	318.96
379.208	333.2
379.588	338.62
379.968	320.77
380.349	319.41
380.729	312.18
381.109	328.45
381.489	353.99
381.87	320.54
382.25	339.07
382.63	314.89
383.01	343.14
383.39	350.15
383.77	350.15
384.15	343.37
384.53	300.43
384.91	346.98
385.29	352.18
385.67	350.82
386.049	341.56
386.429	325.51
386.809	331.39
387.189	344.27
387.568	372.74
387.948	340.88
388.328	360.32
388.707	342.01
389.087	350.15
389.466	371.61
389.846	371.84
390.225	359.19
390.605	356.93
390.984	357.38
391.363	379.3
391.743	363.71
392.122	365.74
392.501	356.02
392.881	380.2
393.26	375.68
393.639	356.47
394.018	375
394.397	365.29
394.776	377.94
395.155	372.52
395.534	375.68
395.913	365.06
396.292	359.41
396.671	379.07
397.05	370.71
397.429	373.2
397.808	381.56
398.186	375.68
398.565	386.08
398.944	386.76
399.323	384.72
399.701	373.2
400.08	387.89
400.458	399.41
400.837	379.98
401.215	380.43
401.594	402.35
401.972	404.16
402.351	415.68
402.729	407.77
403.107	425.17
403.486	401.67
403.864	432.63
404.242	379.98
404.62	425.4
404.999	396.25
405.377	420.65
405.755	422.46
406.133	401.67
406.511	410.94
406.889	399.86
407.267	423.36
407.645	428.11
408.023	445.96
408.401	447.32
408.779	440.09
409.156	439.41
409.534	412.52
409.912	429.24
410.29	445.06
410.667	440.31
411.045	460.65
411.422	442.8
411.8	429.01
412.178	442.12
412.555	457.94
412.933	443.25
413.31	470.82
413.687	472.4
414.065	472.18
414.442	465.62
414.819	448.22
415.197	485.51
415.574	475.57
415.951	476.02
416.328	475.11
416.705	479.18
417.082	480.76
417.46	488.45
417.837	491.39
418.214	515.79
418.591	497.03
418.967	514.66
419.344	507.88
419.721	510.37
420.098	490.93
420.475	502.68
420.852	507.88
421.228	496.13
421.605	531.38
421.982	530.71
422.358	535.68
422.735	542.68
423.111	543.14
423.488	514.21
423.864	523.93
424.241	540.42
424.617	545.62
424.994	552.4
425.37	556.69
425.746	561.21
426.123	551.95
426.499	570.25
426.875	565.51
427.251	588.78
427.627	593.76
428.003	562.57
428.379	585.17
428.756	584.26
429.132	596.47
429.507	562.57
429.883	602.79
430.259	616.35
430.635	611.38
431.011	643.7
431.387	626.3
431.763	634.43
432.138	644.38
432.514	654.09
432.89	656.58
433.265	644.6
433.641	640.99
434.016	690.93
434.392	660.42
434.767	666.3
435.143	689.57
435.518	677.37
435.894	670.36
436.269	679.18
436.644	705.62
437.02	712.4
437.395	708.78
437.77	715.11
438.145	721.89
438.52	728.67
438.895	716.46
439.271	722.11
439.646	721.89
440.021	753.07
440.395	724.37
440.77	742
441.145	760.3
441.52	777.71
441.895	765.73
442.27	758.5
442.645	772.96
443.019	776.12
443.394	788.78
443.769	780.42
444.143	789.23
444.518	803.69
444.892	794.88
445.267	812.73
445.641	792.17
446.016	802.79
446.39	831.72
446.764	828.55
447.139	830.81
447.513	833.3
447.887	802.34
448.262	844.37
448.636	849.79
449.01	825.61
449.384	861.09
449.758	870.13
450.132	859.96
450.506	878.27
450.88	894.31
451.254	861.55
451.628	897.25
452.002	905.61
452.376	924.82
452.75	937.48
453.123	919.4
453.497	924.82
453.871	944.03
454.244	949.9
454.618	946.06
454.992	972.05
455.365	972.73
455.739	991.03
456.112	979.51
456.486	1013.86
456.859	997.36
457.232	1054.76
457.606	1020.19
457.979	1026.51
458.352	1028.77
458.725	1078.04
459.099	1081.43
459.472	1104.93
459.845	1103.35
460.218	1103.8
460.591	1130.92
460.964	1104.7
461.337	1166.85
461.71	1176.11
462.083	1196.68
462.456	1175.89
462.829	1223.57
463.201	1225.83
463.574	1263.57
463.947	1275.77
464.32	1283.45
464.692	1290.91
465.065	1282.33
465.438	1316.45
465.81	1339.72
466.183	1363
466.555	1401.87
466.928	1413.85
467.3	1419.95
467.672	1415.43
468.045	1477.57
468.417	1484.58
468.789	1499.49
469.161	1505.14
469.534	1574.52
469.906	1566.61
470.278	1598.02
470.65	1627.17
471.022	1677.34
471.394	1687.06
471.766	1726.16
472.138	1758.02
472.51	1810.45
472.882	1821.75
473.253	1866.94
473.625	1884.34
473.997	1934.96
474.369	2007.05
474.74	2010.44
475.112	2047.5
475.484	2092.25
475.855	2175.41
476.227	2232.81
476.598	2274.84
476.97	2303.32
477.341	2373.82
477.713	2459.24
478.084	2518.68
478.455	2583.76
478.827	2641.61
479.198	2723.19
479.569	2757.54
479.94	2858.78
480.311	2923.19
480.682	3025.1
481.053	3138.77
481.424	3186.91
481.795	3296.06
482.166	3381.93
482.537	3436.39
482.908	3542.6
483.279	3633
483.65	3762.49
484.021	3862.6
484.391	3938.07
484.762	4045.19
485.133	4100.33
485.503	4233.21
485.874	4423.94
486.244	4413.32
486.615	4585.52
486.985	4719.3
487.356	4846.3
487.726	4927.65
488.097	5121.55
488.467	5205.16
488.837	5398.83
489.207	5452.84
489.578	5686.05
489.948	5761.08
490.318	5886.95
490.688	6036.1
491.058	6154.29
491.428	6331.91
491.798	6481.51
492.168	6635.86
492.538	6742.97
492.908	6870.65
493.278	7048.05
493.648	7137.99
494.017	7299.34
494.387	7462.73
494.757	7569.84
495.126	7709.5
495.496	7831.76
495.866	7898.2
496.235	8150.85
496.605	8224.97
496.974	8344.51
497.344	8466.77
497.713	8683.26
498.082	8693.88
498.452	8940.2
498.821	8959.64
499.19	9071.5
499.559	9246.64
499.928	9383.13
500.298	9500.19
500.667	9696.79
501.036	9746.74
501.405	9835.32
501.774	9937.01
502.143	10084.13
502.512	10211.58
502.88	10329.09
503.249	10378.36
503.618	10515.75
503.987	10621.97
504.356	10753.94
504.724	10915.07
505.093	10969.53
505.462	11017.21
505.83	11169.97
506.199	11206.13
506.567	11450.42
506.936	11493.36
507.304	11554.37
507.672	11638.66
508.041	11757.53
508.409	11858.09
508.777	11968.15
509.145	12103.51
509.514	12136.95
509.882	12221.47
510.25	12274.35
510.618	12429.38
510.986	12501.69
511.354	12573.33
511.722	12680.44
512.09	12799.31
512.458	12805.64
512.826	13017.84
513.193	13026.65
513.561	13117.27
513.929	13224.61
514.297	13310.71
514.664	13384.38
515.032	13359.52
515.4	13592.28
515.767	13575.56
516.135	13740.08
516.502	13646.29
516.869	13811.71
517.237	13895.1
517.604	13945.49
517.972	14024.36
518.339	14088.77
518.706	14105.49
519.073	14177.35
519.44	14279.72
519.808	14306.84
520.175	14358.82
520.542	14594.07
520.909	14634.97
521.276	14574.63
521.643	14758.35
522.009	14810.33
522.376	14921.06
522.743	14961.06
523.11	15101.4
523.477	15158.57
523.843	15197.44
524.21	15320.37
524.577	15427.72
524.943	15487.38
525.31	15479.92
525.676	15691.44
526.043	15650.08
526.409	15754.49
526.776	15817.54
527.142	15785.67
527.508	15840.36
527.874	15978.66
528.241	16025.21
528.607	16037.87
528.973	16032.22
529.339	16070.86
529.705	16226.34
530.071	16350.4
530.437	16407.13
530.803	16348.82
531.169	16399.22
531.535	16451.42
531.901	16439.89
532.267	16529.61
532.632	16475.37
532.998	16586.1
533.364	16633.33
533.73	16617.74
534.095	16778.87
534.461	16767.34
534.826	16751.75
535.192	16833.55
535.557	16811.86
535.923	16720.79
536.288	16899.54
536.653	16845.76
537.019	16715.82
537.384	16773.9
537.749	16842.59
538.114	16894.12
538.479	16859.32
538.845	16824.06
539.21	16829.94
539.575	16818.19
539.94	16819.32
540.305	16899.32
540.67	16872.88
541.034	16867.23
541.399	16963.04
541.764	16876.04
542.129	16916.94
542.494	16918.3
542.858	16925.98
543.223	16871.52
543.587	16907.45
543.952	16927.34
544.316	16777.51
544.681	16819.54
545.045	16930.28
545.41	16898.64
545.774	16880.56
546.138	16883.5
546.503	16836.27
546.867	16920.33
547.231	16900.45
547.595	16937.96
547.959	16949.03
548.324	16850.5
548.688	16907.68
549.052	16830.39
549.416	16822.26
549.779	16935.7
550.143	16933.89
550.507	16952.87
550.871	17007.79
551.235	16838.75
551.599	17044.62
551.962	16900.45
552.326	16852.99
552.689	16919.2
553.053	16841.92
553.417	16876.49
553.78	17009.82
554.143	16836.04
554.507	16841.24
554.87	16917.62
555.234	17003.72
555.597	16786.1
555.96	16912.42
556.323	17000.56
556.686	16946.55
557.05	16979.31
557.413	17035.36
557.776	16976.83
558.139	17152.19
558.502	17027
558.865	17072.87
559.228	17134.34
559.59	17181.57
559.953	17282.13
560.316	17332.3
560.679	17208.46
561.041	17213.43
561.404	17343.82
561.767	17461.56
562.129	17298.18
562.492	17442.8
562.854	17470.83
563.217	17403.48
563.579	17498.85
563.941	17475.57
564.304	17579.3
564.666	17579.75
565.028	17680.09
565.39	17523.71
565.753	17743.36
566.115	17705.17
566.477	17758.5
566.839	17673.08
567.201	17864.26
567.563	17863.13
567.925	17930.93
568.287	17967.99
568.648	17908.55
569.01	18047.53
569.372	18136.35
569.734	17913.3
570.095	18083.01
570.457	18106.29
570.819	18153.52
571.18	18160.07
571.542	18142.45
571.903	18096.12
572.265	18207.08
572.626	18264.93
572.987	18252.05
573.349	18257.25
573.71	18377.47
574.071	18387.19
574.432	18340.18
574.794	18487.07
575.155	18424.93
575.516	18450.46
575.877	18472.16
576.238	18438.26
576.599	18486.17
576.96	18529.33
577.32	18493.4
577.681	18597.35
578.042	18609.55
578.403	18537.69
578.763	18614.98
579.124	18647.07
579.485	18698.36
579.845	18718.25
580.206	18597.58
580.566	18616.56
580.927	18649.1
581.287	18739.49
581.648	18607.52
582.008	18699.72
582.368	18653.85
582.728	18704.01
583.089	18632.6
583.449	18674.41
583.809	18678.48
584.169	18685.48
584.529	18680.74
584.889	18792.6
585.249	18661.76
585.609	18617.91
585.969	18722.09
586.329	18632.38
586.688	18598.93
587.048	18565.49
587.408	18570.23
587.768	18658.37
588.127	18565.71
588.487	18522.1
588.846	18592.6
589.206	18592.6
589.565	18470.12
589.925	18523
590.284	18501.99
590.643	18587.41
591.003	18581.98
591.362	18525.49
591.721	18590.12
592.08	18568.65
592.44	18588.08
592.799	18645.71
593.158	18528.65
593.517	18513.96
593.876	18597.58
594.235	18512.61
594.593	18476.9
594.952	18503.34
595.311	18447.75
595.67	18414.3
596.029	18572.04
596.387	18534.53
596.746	18639.83
597.104	18454.08
597.463	18510.8
597.822	18541.08
598.18	18482.55
598.538	18524.13
598.897	18719.38
599.255	18336.34
599.613	18682.55
599.972	18557.13
600.33	18571.59
600.688	18511.7
601.046	18511.48
601.404	18679.38
601.762	18526.84
602.12	18642.55
602.478	18687.07
602.836	18612.72
603.194	18523.68
603.552	18598.25
603.91	18483.23
604.268	18571.81
604.625	18566.84
604.983	18611.59
605.341	18506.96
605.698	18621.3
606.056	18657.69
606.413	18568.88
606.771	18554.87
607.128	18582.44
607.485	18522.78
607.843	18650.46
608.2	18777.68
608.557	18703.34
608.914	18611.13
609.272	18699.04
609.629	18796.67
609.986	18840.73
610.343	18759.83
610.7	18813.62
611.057	18911.24
611.414	18823.33
611.771	18849.55
612.127	18877.12
612.484	18899.26
612.841	18859.72
613.198	18857.23
613.554	18933.16
613.911	18976.32
614.267	18989.88
614.624	19017.9
614.98	18985.14
615.337	19184.68
615.693	19075.53
616.05	19044.57
616.406	19155.08
616.762	19180.16
617.118	19079.82
617.475	19100.84
617.831	19161.18
618.187	19036.21
618.543	19140.61
618.899	19247.5
619.255	19210.22
619.611	19197.11
619.967	19163.66
620.323	19287.73
620.678	19261.29
621.034	19139.03
621.39	19227.16
621.746	19091.12
622.101	19388.74
622.457	19191.23
622.812	19280.72
623.168	19252.02
623.523	19325.47
623.879	19351.68
624.234	19287.95
624.589	19323.66
624.945	19443.66
625.3	19222.19
625.655	19345.58
626.01	19357.56
626.365	19360.04
626.72	19410.66
627.075	19280.95
627.43	19333.83
627.785	19241.85
628.14	19358.01
628.495	19282.76
628.85	19300.61
629.205	19274.62
629.559	19339.93
629.914	19223.77
630.269	19280.72
630.623	19159.14
630.978	19114.4
631.332	19257.45
631.687	19256.99
632.041	19198.92
632.396	19224
632.75	19203.44
633.104	19088.18
633.459	19028.53
633.813	19108.07
634.167	19004.34
634.521	19045.93
634.875	19060.61
635.229	19118.69
635.583	18948.98
635.937	19027.17
636.291	18900.84
636.645	18881.86
636.999	18865.82
637.352	18949.43
637.706	18781.98
638.06	18816.55
638.413	18889.55
638.767	18831.24
639.121	18797.12
639.474	18607.29
639.828	18631.93
640.181	18738.59
640.534	18744.24
640.888	18575.88
641.241	18640.29
641.594	18680.74
641.947	18665.6
642.301	18645.71
642.654	18685.71
643.007	18591.25
643.36	18673.28
643.713	18569.55
644.066	18714.18
644.419	18538.14
644.771	18391.48
645.124	18232.61
645.477	18228.32
645.83	18155.1
646.182	18034.2
646.535	18012.28
646.888	18086.85
647.24	17975.45
647.593	18045.27
647.945	17927.09
648.298	17925.05
648.65	17878.5
649.002	17864.26
649.355	17971.38
649.707	17909.91
650.059	18096.8
650.411	18178.6
650.763	18217.25
651.115	18436.68
651.467	18368.88
651.819	18351.25
652.171	18367.53
652.523	18359.39
652.875	18374.08
653.227	18355.1
653.578	18346.74
653.93	18382.44
654.282	18335.44
654.633	18363.46
654.985	18305.15
655.337	18254.99
655.688	18350.58
656.039	18431.48
656.391	18178.15
656.742	18265.38
657.094	18297.7
657.445	18408.88
657.796	18312.16
658.147	18288.21
658.498	18265.83
658.849	18276.23
659.2	18269.9
659.551	18307.19
659.902	18237.81
660.253	18307.87
660.604	18350.12
660.955	18281.43
661.306	18346.28
661.656	18329.79
662.007	18328.43
662.358	18389.67
662.708	18368.88
663.059	18281.2
663.409	18215.44
663.76	18355.1
664.11	18421.31
664.461	18377.69
664.811	18329.56
665.161	18374.08
665.511	18378.6
665.862	18347.64
666.212	18396.23
666.562	18450.46
666.912	18458.14
667.262	18377.69
667.612	18329.56
667.962	18410.46
668.312	18325.04
668.662	18399.39
669.011	18385.6
669.361	18294.76
669.711	18235.55
670.06	18286.62
670.41	18261.54
670.76	18229
671.109	18314.42
671.459	18257.47
671.808	18301.99
672.157	18247.75
672.507	18173.41
672.856	18165.72
673.205	18193.07
673.554	18232.84
673.904	18231.94
674.253	18203.91
674.602	18194.65
674.951	17875.79
675.3	17824.04
675.649	18044.14
675.998	18111.04
676.346	18079.85
676.695	18123.46
677.044	17983.35
677.393	18025.61
677.741	18112.17
678.09	17953.3
678.438	17810.93
678.787	18100.19
679.135	17955.78
679.484	17823.59
679.832	17900.87
680.181	17850.48
680.529	17848.9
680.877	17751.04
681.225	17861.55
681.573	17882.34
681.922	17784.94
682.27	17634.66
682.618	17720.76
682.966	17706.07
683.314	17716.24
683.661	17650.48
684.009	17509.69
684.357	17463.37
684.705	17455.23
685.053	17436.02
685.4	17382.69
685.748	17343.6
686.095	17276.93
686.443	17224.28
686.79	17111.74
687.138	17198.29
687.485	17246.2
687.832	17159.42
688.18	17138.18
688.527	17031.29
688.874	16958.97
689.221	16989.48
689.568	16918.07
689.915	16888.24
690.262	16957.62
690.609	16814.8
690.956	16828.36
691.303	16742.48
691.65	16594.24
691.997	16652.99
692.344	16515.82
692.69	16467.46
693.037	16564.86
693.383	16356.73
693.73	16444.41
694.077	16331.65
694.423	16301.59
694.769	16227.92
695.116	16251.65
695.462	16151.31
695.808	16060.69
696.155	16188.37
696.501	15935.27
696.847	15891.21
697.193	15867.03
697.539	15861.15
697.885	15796.97
698.231	15690.31
698.577	15583.19
698.923	15658.44
699.269	15577.09
699.614	15440.14
699.96	15396.53
700.306	15487.38
700.651	15296.87
700.997	15212.35
701.342	15177.55
701.688	15195.63
702.033	15051.91
702.379	15039.7
702.724	15055.97
703.069	15061.17
703.415	14918.58
703.76	14895.53
704.105	14894.62
704.45	14822.31
704.795	14792.93
705.14	14688.07
705.485	14699.6
705.83	14490.57
706.175	14625.25
706.52	14568.53
706.865	14506.61
707.209	14504.35
707.554	14400.85
707.899	14397.69
708.243	14324.69
708.588	14368.31
708.932	14207.41
709.277	14208.54
709.621	14124.47
709.966	14132.16
710.31	14149.33
710.654	13962.9
710.998	13983.01
711.342	13968.55
711.687	13884.25
712.031	13788.21
712.375	13794.54
712.719	13889
713.063	13843.58
713.407	13820.3
713.75	13783.69
714.094	13709.12
714.438	13614.43
714.782	13691.72
715.125	13620.98
715.469	13578.05
715.812	13562
716.156	13490.82
716.499	13458.73
716.843	13494.89
717.186	13549.35
717.53	13511.83
717.873	13527.43
718.216	13469.8
718.559	13442.46
718.902	13327.21
719.246	13397.26
719.589	13258.51
719.932	13300.99
720.275	13279.98
720.617	13190.94
720.96	13220.09
721.303	13259.86
721.646	13196.81
721.989	13213.99
722.331	13152.97
722.674	13105.74
723.016	13168.34
723.359	13120.21
723.701	13072.75
724.044	13080.43
724.386	12984.84
724.729	13088.79
725.071	13070.72
725.413	13027.55
725.755	13098.51
726.097	12987.1
726.439	12938.06
726.782	12939.65
727.124	12971.06
727.465	12925.41
727.807	12953.66
728.149	12895.35
728.491	12998.18
728.833	12932.87
729.175	12895.58
729.516	12897.16
729.858	12790.5
730.199	12885.41
730.541	12865.3
730.882	12846.09
731.224	12872.53
731.565	12772.42
731.906	12801.8
732.248	12798.18
732.589	12729.93
732.93	12755.24
733.271	12695.13
733.612	12732.87
733.953	12678.18
734.294	12731.29
734.635	12737.62
734.976	12730.16
735.317	12729.26
735.658	12738.07
735.999	12787.56
736.339	12771.29
736.68	12760.67
737.021	12715.47
737.361	12665.53
737.702	12792.76
738.042	12740.78
738.383	12687.22
738.723	12761.12
739.063	12689.71
739.404	12696.26
739.744	12782.36
740.084	12736.94
740.424	12857.61
740.764	12772.64
741.104	12889.48
741.444	12792.76
741.784	12752.76
742.124	12790.5
742.464	12834.56
742.804	12844.73
743.143	12886.09
743.483	12939.87
743.823	12882.02
744.162	12903.71
744.502	12923.37
744.841	12916.82
745.181	13069.59
745.52	13039.3
745.86	13128.79
746.199	13095.8
746.538	13089.02
746.877	13245.85
747.216	13245.4
747.556	13179.64
747.895	13354.78
748.234	13340.09
748.573	13402.91
748.911	13354.1
749.25	13439.75
749.589	13437.03
749.928	13583.7
750.267	13661.89
750.605	13698.04
750.944	13801.32
751.283	13807.42
751.621	13897.13
751.96	13911.37
752.298	14002.89
752.636	14190.46
752.975	14126.96
753.313	14247.41
753.651	14407.4
753.989	14419.15
754.327	14475.2
754.666	14557.91
755.004	14793.16
755.342	14772.59
755.679	14851.46
756.017	14984.11
756.355	15123.99
756.693	15201.28
757.031	15280.83
757.368	15396.3
757.706	15533.93
758.044	15562.4
758.381	15692.57
758.719	15808.95
759.056	16004.88
759.394	15985.44
759.731	16023.86
760.068	16256.85
760.405	16349.05
760.743	16388.82
761.08	16586.78
761.417	16593.33
761.754	16711.98
762.091	16815.02
762.428	16882.59
762.765	16984.06
763.102	17163.72
763.438	17172.3
763.775	17279.42
764.112	17322.58
764.449	17485.51
764.785	17492.75
765.122	17531.39
765.458	17669.24
765.795	17698.84
766.131	17796.92
766.467	17831.95
766.804	17921.89
767.14	17923.47
767.476	17986.74
767.812	18092.5
768.148	18181.54
768.485	18143.35
768.821	18118.72
769.157	18229.22
769.492	18271.26
769.828	18383.8
770.164	18345.38
770.5	18327.53
770.836	18510.35
771.171	18379.5
771.507	18538.14
771.842	18392.38
772.178	18521.65
772.513	18584.47
772.849	18531.36
773.184	18537.46
773.519	18489.78
773.855	18525.71
774.19	18532.72
774.525	18560.06
774.86	18633.96
775.195	18476.68
775.53	18480.06
775.865	18505.6
776.2	18391.93
776.535	18321.65
776.87	18415.43
777.205	18389.9
777.539	18308.77
777.874	18417.02
778.209	18352.16
778.543	18351.48
778.878	18243.69
779.212	18279.39
779.547	18229
779.881	18235.78
780.215	18243.91
780.55	18203.46
780.884	18172.95
781.218	18163.92
781.552	18110.58
781.886	18145.38
782.22	18029.23
782.554	17910.14
782.888	17801.66
783.222	17806.18
783.556	17898.61
783.889	17852.96
784.223	17678.96
784.557	17581.33
784.89	17706.07
785.224	17603.93
785.557	17515.8
785.891	17581.33
786.224	17424.95
786.558	17484.38
786.891	17309.02
787.224	17310.15
787.557	17369.81
787.891	17278.06
788.224	17258.4
788.557	17386.76
788.89	17120.33
789.223	17160.33
789.556	17155.81
789.888	17043.94
790.221	16990.61
790.554	16939.09
790.887	16947.68
791.219	16778.19
791.552	16832.42
791.884	16731.41
792.217	16713.78
792.549	16617.52
792.882	16529.38
793.214	16516.73
793.546	16559.66
793.879	16389.95
794.211	16327.58
794.543	16355.83
794.875	16328.03
795.207	16318.99
795.539	16328.94
795.871	16305.43
796.203	16181.82
796.535	16082.39
796.867	16063.86
797.198	15955.84
797.53	16055.5
797.862	15885.56
798.193	15973.46
798.525	15932.79
798.856	15835.16
799.188	15704.32
799.519	15639.24
799.85	15550.2
800.182	15639.01
800.513	15652.12
800.844	15486.25
801.175	15472.46
801.506	15447.6
801.837	15371.45
802.168	15429.75
802.499	15387.26
802.83	15225.24
803.161	15239.02
803.491	15225.69
803.822	15218
804.153	15129.87
804.483	14975.98
804.814	15034.96
805.145	14874.96
805.475	14999.03
805.805	14913.83
806.136	14892.14
806.466	14936.88
806.796	14832.03
807.126	14714.97
807.457	14728.53
807.787	14705.47
808.117	14637.23
808.447	14668.41
808.777	14613.73
809.107	14590.45
809.436	14522.43
809.766	14538.7
810.096	14460.51
810.426	14411.02
810.755	14393.62
811.085	14377.57
811.414	14360.17
811.744	14209.22
812.073	14233.85
812.403	14172.83
812.732	14101.42
813.061	14098.71
813.39	13992.05
813.719	14005.38
814.049	14084.7
814.378	14009.67
814.707	14005.61
815.036	13924.25
815.365	13859.62
815.693	13764.26
816.022	13826.63
816.351	13806.52
816.68	13778.72
817.008	13776.91
817.337	13604.49
817.665	13612.17
817.994	13651.72
818.322	13608.1
818.651	13544.38
818.979	13518.39
819.307	13613.3
819.636	13480.65
819.964	13394.77
820.292	13447.88
820.62	13416.24
820.948	13454.43
821.276	13475.9
821.604	13396.36
821.932	13361.78
822.259	13460.54
822.587	13334.44
822.915	13319.52
823.243	13426.19
823.57	13356.36
823.898	13257.6
824.225	13274.78
824.553	13348.45
824.88	13378.05
825.207	13318.62
825.535	13285.63
825.862	13432.97
826.189	13320.43
826.516	13398.84
826.843	13375.11
827.17	13397.49
827.497	13397.71
827.824	13375.34
828.151	13317.71
828.478	13265.74
828.805	13352.06
829.131	13261.67
829.458	13318.62
829.785	13223.25
830.111	13280.43
830.438	13376.02
830.764	13317.94
831.09	13418.96
831.417	13202.01
831.743	13341.44
832.069	13299.41
832.395	13285.17
832.722	13273.87
833.048	13195.01
833.374	13224.61
833.7	13235.68
834.026	13204.72
834.351	13269.58
834.677	13246.08
835.003	13199.07
835.329	13127.21
835.654	13141.9
835.98	13151.17
836.306	13090.38
836.631	13067.78
836.956	13121.11
837.282	13058.96
837.607	12994.56
837.932	12983.49
838.258	12952.75
838.583	13044.73
838.908	12909.14
839.233	12963.6
839.558	12905.07
839.883	12920.66
840.208	12883.38
840.533	12778.52
840.858	12828.91
841.182	12820.33
841.507	12910.72
841.832	12707.56
842.156	12725.87
842.481	12672.76
842.805	12691.06
843.13	12590.5
843.454	12600.22
843.778	12584.17
844.103	12575.81
844.427	12569.94
844.751	12637.96
845.075	12444.29
845.399	12431.41
845.723	12426.44
846.047	12415.37
846.371	12328.81
846.695	12294.01
847.019	12165.43
847.343	12184.86
847.666	12120.91
847.99	12037.3
848.313	12084.07
848.637	11851.76
848.96	11939.45
849.284	11860.13
849.607	11818.77
849.931	11793.01
850.254	11767.7
850.577	11594.6
850.9	11574.26
851.223	11633.01
851.546	11520.7
851.869	11468.27
852.192	11517.54
852.515	11402.06
852.838	11327.26
853.161	11323.19
853.483	11208.84
853.806	11249.07
854.129	11183.08
854.451	11219.01
854.774	11078.68
855.096	11088.85
855.419	11053.82
855.741	10993.03
856.063	10975.86
856.385	10960.94
856.708	10908.74
857.03	10875.75
857.352	10930.66
857.674	10813.83
857.996	10795.75
858.318	10803.43
858.64	10784.22
858.961	10758.01
859.283	10678.46
859.605	10608.86
859.926	10679.59
860.248	10565.7
860.57	10507.62
860.891	10580.16
861.212	10521.86
861.534	10465.59
861.855	10516.88
862.176	10471.91
862.498	10436.21
862.819	10491.8
863.14	10377.68
863.461	10337.23
863.782	10299.26
864.103	10296.55
864.424	10253.84
864.745	10270.11
865.065	10203.22
865.386	10251.81
865.707	10212.94
866.027	10227.4
866.348	10123
866.668	10167.06
866.989	10159.15
867.309	10067.4
867.63	10142.66
867.95	10091.13
868.27	9994.86
868.59	10105.14
868.91	10021.98
869.23	10017.69
869.55	9945.15
869.87	10016.33
870.19	9984.24
870.51	9952.83
870.83	9951.02
871.15	9893.85
871.469	9864.47
871.789	9924.58
872.109	9902.44
872.428	9818.82
872.748	9870.8
873.067	9822.89
873.386	9847.52
873.706	9769.11
874.025	9745.83
874.344	9733.18
874.663	9746.28
874.982	9760.97
875.301	9657.92
875.62	9637.81
875.939	9677.13
876.258	9737.47
876.577	9660.86
876.896	9683.23
877.214	9588.55
877.533	9631.94
877.852	9628.55
878.17	9619.28
878.489	9561.66
878.807	9581.54
879.125	9522.11
879.444	9523.92
879.762	9535.67
880.08	9437.14
880.398	9437.82
880.716	9514.88
881.034	9393.07
881.352	9408.21
881.67	9393.52
881.988	9362.34
882.306	9333.86
882.624	9313.3
882.941	9219.52
883.259	9240.99
883.577	9258.16
883.894	9200.08
884.212	9194.21
884.529	9174.55
884.846	9183.59
885.164	9138.84
885.481	9108.79
885.798	9106.3
886.115	9064.27
886.432	9095.68
886.75	9065.4
887.067	9008.22
887.383	8983.14
887.7	9002.35
888.017	8987.21
888.334	8995.79
888.651	8897.27
888.967	8890.26
889.284	8824.95
889.6	8835.35
889.917	8770.94
890.233	8772.52
890.55	8731.17
890.866	8756.03
891.182	8719.19
891.498	8676.48
891.815	8588.57
892.131	8626.09
892.447	8599.42
892.763	8581.12
893.079	8566.65
893.395	8517.39
893.71	8496.82
894.026	8478.52
894.342	8393.1
894.657	8435.36
894.973	8424.96
895.289	8341.12
895.604	8372.53
895.92	8341.35
896.235	8286.43
896.55	8269.26
896.865	8261.12
897.181	8176.16
897.496	8246.44
897.811	8195.59
898.126	8138.64
898.441	8101.13
898.756	8064.75
899.071	8069.04
899.386	8087.34
899.7	7972.54
900.015	7940.91
900.33	7896.61
900.644	7888.48
900.959	7857.97
901.273	7840.34
901.588	7821.36
901.902	7742.95
902.216	7763.51
902.531	7722.83
902.845	7723.29
903.159	7615.72
903.473	7593.8
903.787	7592.89
904.101	7537.53
904.415	7550.41
904.729	7503.18
905.042	7456.17
905.356	7431.99
905.67	7433.8
905.984	7437.64
906.297	7367.81
906.611	7308.83
906.924	7276.97
907.237	7327.36
907.551	7229.29
907.864	7247.59
908.177	7186.12
908.491	7220.47
908.804	7176.63
909.117	7156.97
909.43	7102.29
909.743	7074.94
910.056	7033.13
910.368	7060.48
910.681	7036.07
910.994	6992.91
911.307	6910.2
911.619	6864.78
911.932	6881.73
912.244	6824.33
912.557	6837.21
912.869	6787.72
913.181	6804.89
913.494	6777.55
913.806	6688.96
914.118	6740.49
914.43	6621.39
914.742	6630.88
915.054	6618.91
915.366	6542.98
915.678	6565.8
915.99	6529.42
916.302	6460.27
916.613	6410.33
916.925	6432.47
917.236	6380.27
917.548	6386.82
917.859	6377.33
918.171	6270.44
918.482	6302.76
918.794	6332.14
919.105	6285.58
919.416	6239.48
919.727	6212.82
920.038	6182.08
920.349	6151.35
920.66	6114.51
920.971	6114.51
921.282	6069.77
921.593	6075.19
921.903	5998.13
922.214	6061.63
922.525	6035.65
922.835	5962.88
923.146	5877.01
923.456	5945.25
923.767	5913.39
924.077	5863.45
924.387	5896.89
924.697	5833.62
925.008	5806.05
925.318	5735.54
925.628	5769.44
925.938	5715.43
926.248	5697.58
926.558	5734.19
926.867	5749.1
927.177	5675.88
927.487	5652.15
927.796	5519.28
928.106	5597.92
928.416	5491.93
928.725	5527.41
929.034	5458.94
929.344	5455.1
929.653	5444.93
929.962	5412.61
930.271	5370.35
930.581	5402.22
930.89	5338.26
931.199	5307.08
931.508	5314.08
931.817	5259.17
932.125	5247.42
932.434	5218.49
932.743	5197.02
933.051	5157.03
933.36	5171.04
933.669	5083.58
933.977	5124.48
934.286	5161.77
934.594	5102.56
934.902	5051.49
935.21	5050.14
935.519	5011.04
935.827	5002.23
936.135	4983.24
936.443	4943.02
936.751	4949.8
937.059	4920.87
937.367	4855.79
937.674	4871.16
937.982	4867.77
938.29	4812.63
938.597	4824.38
938.905	4815.34
939.213	4719.75
939.52	4760.88
939.827	4742.57
940.135	4714.55
940.442	4660.32
940.749	4672.52
941.056	4708
941.363	4639.52
941.67	4623.03
941.977	4566.31
942.284	4575.57
942.591	4581.22
942.898	4550.49
943.205	4533.09
943.511	4474.56
943.818	4476.37
944.125	4466.42
944.431	4456.93
944.738	4433.65
945.044	4396.14
945.35	4371.28
945.657	4356.14
945.963	4350.49
946.269	4349.14
946.575	4283.38
946.881	4275.47
947.187	4245.18
947.493	4266.65
947.799	4267.33
948.105	4222.36
948.41	4205.41
948.716	4224.39
949.022	4162.48
949.327	4153.44
949.633	4126.09
949.938	4127.9
950.244	4081.35
950.549	4053.78
950.854	4040.9
951.16	4028.47
951.465	4043.61
951.77	3984.4
952.075	3943.72
952.38	3985.76
952.685	3964.29
952.99	3958.86
953.294	3892.88
953.599	3884.29
953.904	3903.27
954.209	3861.24
954.513	3822.37
954.818	3845.2
955.122	3804.52
955.426	3827.79
955.731	3767.46
956.035	3748.25
956.339	3779.66
956.643	3717.74
956.948	3706.44
957.252	3715.26
957.556	3678.87
957.86	3680
958.163	3656.73
958.467	3655.14
958.771	3652.66
959.075	3616.27
959.378	3561.36
959.682	3561.36
959.985	3572.21
960.289	3562.04
960.592	3544.41
960.896	3536.73
961.199	3530.85
961.502	3516.16
961.805	3463.74
962.108	3467.58
962.411	3440.91
962.714	3447.01
963.017	3404.53
963.32	3369.5
963.623	3412.21
963.926	3394.13
964.228	3378.09
964.531	3356.17
964.833	3334.47
965.136	3341.25
965.438	3281.14
965.741	3246.34
966.043	3270.3
966.345	3219.45
966.648	3273.46
966.95	3288.37
967.252	3239.11
967.554	3205.21
967.856	3168.38
968.158	3174.03
968.46	3178.09
968.761	3136.29
969.063	3123.41
969.365	3131.77
969.666	3150.52
969.968	3101.03
970.269	3071.66
970.571	3066.23
970.872	3032.79
971.174	3022.84
971.475	3017.87
971.776	3034.82
972.077	2962.28
972.378	2997.99
972.679	2957.76
972.98	2984.65
973.281	2950.53
973.582	2930.64
973.883	2915.95
974.183	2906.69
974.484	2881.61
974.785	2871.44
975.085	2888.61
975.386	2865.56
975.686	2863.75
975.986	2853.13
976.287	2826.47
976.587	2788.95
976.887	2841.61
977.187	2780.82
977.487	2770.65
977.787	2773.36
978.087	2764.32
978.387	2738.33
978.687	2770.65
978.987	2728.16
979.286	2722.51
979.586	2698.56
979.885	2686.13
980.185	2673.93
980.484	2640.48
980.784	2662.63
981.083	2656.07
981.382	2623.98
981.682	2626.02
981.981	2590.99
982.28	2593.48
982.579	2557.09
982.878	2618.11
983.177	2564.78
983.475	2525.46
983.774	2533.37
984.073	2508.28
984.372	2496.76
984.67	2506.93
984.969	2486.59
985.267	2507.6
985.566	2491.33
985.864	2448.4
986.162	2429.64
986.461	2434.39
986.759	2411.11
987.057	2400.71
987.355	2397.32
987.653	2419.24
987.951	2385.35
988.249	2391
988.547	2348.96
988.844	2354.16
989.142	2293.6
989.44	2343.99
989.737	2338.34
990.035	2290.21
990.332	2303.09
990.63	2309.64
990.927	2277.78
991.224	2247.05
991.521	2245.46
991.819	2238.68
992.116	2243.43
992.413	2230.77
992.71	2191.91
993.006	2201.62
993.303	2219.02
993.6	2197.1
993.897	2173.15
994.193	2177.22
994.49	2151.91
994.787	2118.91
995.083	2133.6
995.379	2128.4
995.676	2114.62
995.972	2105.81
996.268	2118.91
996.565	2055.86
996.861	2085.69
997.157	2084.79
997.453	2063.55
997.749	2021.29
998.044	2002.31
998.34	2039.59
998.636	2013.61
998.932	1998.46
999.227	1974.96
999.523	1979.03
999.818	1973.83
1000.114	1917.56
1000.409	1954.85
1000.704	1932.93
1001	1925.92
1001.295	1925.92
1001.59	1909.43
1001.885	1898.35
1002.18	1892.7
1002.475	1891.8
1002.77	1861.74
1003.065	1844.57
1003.359	1842.54
1003.654	1867.85
1003.949	1838.24
1004.243	1793.72
1004.538	1809.54
1004.832	1812.03
1005.127	1821.07
1005.421	1776.1
1005.715	1784.91
1006.009	1758.92
1006.304	1770.22
1006.598	1772.71
1006.892	1713.27
1007.186	1697
1007.48	1705.14
1007.773	1730.22
1008.067	1704.46
1008.361	1708.08
1008.655	1664.91
1008.948	1656.1
1009.242	1644.8
1009.535	1654.52
1009.829	1628.53
1010.122	1598.02
1010.415	1621.75
1010.708	1600.96
1011.001	1593.28
1011.295	1599.6
1011.588	1592.15
1011.881	1589.21
1012.173	1548.98
1012.466	1581.3
1012.759	1548.08
1013.052	1560.74
1013.344	1548.08
1013.637	1525.48
1013.93	1534.75
1014.222	1513.51
1014.514	1489.1
1014.807	1502.21
1015.099	1459.72
1015.391	1485.26
1015.683	1459.5
1015.976	1443.22
1016.268	1437.8
1016.56	1447.52
1016.851	1458.82
1017.143	1459.95
1017.435	1422.21
1017.727	1395.77
1018.018	1395.09
1018.31	1373.17
1018.602	1380.85
1018.893	1376.33
1019.185	1359.16
1019.476	1373.62
1019.767	1374.3
1020.058	1341.98
1020.35	1322.32
1020.641	1334.08
1020.932	1323.68
1021.223	1293.62
1021.514	1293.17
1021.804	1276.22
1022.095	1276.22
1022.386	1296.56
1022.677	1248.88
1022.967	1258.6
1023.258	1250.46
1023.548	1241.2
1023.839	1245.72
1024.129	1225.15
1024.419	1212.5
1024.709	1190.8
1025	1208.65
1025.29	1185.38
1025.58	1162.1
1025.87	1167.98
1026.16	1169.11
1026.449	1158.94
1026.739	1152.84
1027.029	1159.39
1027.319	1146.96
1027.608	1149.67
1027.898	1158.71
1028.187	1139.96
1028.477	1135.21
1028.766	1108.54
1029.055	1110.8
1029.344	1092.05
1029.634	1090.24
1029.923	1088.88
1030.212	1082.33
1030.501	1086.62
1030.79	1064.7
1031.078	1043.01
1031.367	1060.64
1031.656	1078.94
1031.945	1033.97
1032.233	1030.58
1032.522	1039.62
1032.81	1016.12
1033.099	1029.45
1033.387	1003.24
1033.675	991.03
1033.963	988.55
1034.251	984.25
1034.54	994.2
1034.828	974.54
1035.116	933.41
1035.403	945.84
1035.691	934.99
1035.979	959.4
1036.267	941.77
1036.554	930.47
1036.842	932.96
1037.129	933.63
1037.417	921.2
1037.704	939.96
1037.992	897.48
1038.279	914.43
1038.566	891.6
1038.853	891.6
1039.14	891.6
