Data from hue_30_FLMS001491_65.txt Node
Date: Mon Feb 06 15:05:46 GMT 2017
User: dcchb
Spectrometer: FLMS00149
Trigger mode: 0
Integration Time (sec): 2.000000E-2
Scans to average: 10
Electric dark correction enabled: true
Nonlinearity correction enabled: false
Boxcar width: 0
XAxis mode: Wavelengths
Number of Pixels in Spectrum: 2048
>>>>>Begin Spectral Data<<<<<
341.393	-1.92
341.776	-1.92
342.16	-1.92
342.543	-61.81
342.927	-51.41
343.31	-72.2
343.693	-65.65
344.077	-66.55
344.46	-59.77
344.843	-46.89
345.226	-46.21
345.61	-26.55
345.993	-19.32
346.376	3.05
346.759	20.23
347.142	15.71
347.525	47.34
347.908	47.12
348.291	93.67
348.674	74.24
349.057	101.81
349.44	118.53
349.823	146.1
350.206	166.44
350.588	192.2
350.971	194.91
351.354	233.33
351.737	256.15
352.119	233.33
352.502	268.13
352.884	277.17
353.267	283.5
353.65	309.03
354.032	290.27
354.414	308.58
354.797	313.55
355.179	308.35
355.562	311.07
355.944	324.85
356.326	351.74
356.709	330.5
357.091	338.18
357.473	320.33
357.855	330.73
358.238	346.54
358.62	351.06
359.002	336.6
359.384	325.75
359.766	345.19
360.148	309.26
360.53	345.64
360.912	330.27
361.294	332.76
361.676	319.43
362.057	339.09
362.439	342.48
362.821	325.08
363.203	332.99
363.584	329.37
363.966	313.33
364.348	338.41
364.729	318.97
365.111	313.1
365.493	336.38
365.874	313.78
366.256	307.9
366.637	310.16
367.019	309.48
367.4	317.17
367.781	305.87
368.163	315.36
368.544	316.94
368.925	336.6
369.306	328.92
369.688	306.32
370.069	317.17
370.45	326.43
370.831	309.26
371.212	331.86
371.593	332.31
371.974	331.18
372.355	307.22
372.736	305.42
373.117	319.43
373.498	342.25
373.879	324.62
374.26	306.55
374.641	312.42
375.021	314.91
375.402	320.56
375.783	324.62
376.163	339.54
376.544	336.15
376.925	333.66
377.305	298.18
377.686	316.26
378.066	341.35
378.447	330.27
378.827	328.24
379.208	342.25
379.588	336.38
379.968	323.49
380.349	336.83
380.729	326.43
381.109	340.89
381.489	342.02
381.87	325.98
382.25	334.57
382.63	358.07
383.01	337.05
383.39	343.15
383.77	329.82
384.15	345.64
384.53	367.11
384.91	354.45
385.29	340.22
385.67	358.97
386.049	368.69
386.429	345.64
386.809	366.88
387.189	375.24
387.568	348.35
387.948	363.49
388.328	377.96
388.707	370.95
389.087	370.95
389.466	360.33
389.846	375.24
390.225	364.17
390.605	358.75
390.984	358.07
391.363	385.64
391.743	392.65
392.122	368.01
392.501	382.25
392.881	374.11
393.26	365.3
393.639	384.06
394.018	372.31
394.397	374.34
394.776	379.99
395.155	389.71
395.534	391.97
395.913	386.32
396.292	395.58
396.671	389.48
397.05	373.21
397.429	394.23
397.808	394
398.186	397.39
398.565	401.68
398.944	400.55
399.323	417.05
399.701	405.53
400.08	384.51
400.458	390.39
400.837	401.91
401.215	390.39
401.594	402.59
401.972	398.97
402.351	414.34
402.729	437.84
403.107	428.8
403.486	401.91
403.864	418.41
404.242	409.82
404.62	423.83
404.999	419.09
405.377	448.24
405.755	422.47
406.133	416.15
406.511	438.97
406.889	441.68
407.267	443.94
407.645	469.25
408.023	429.93
408.401	435.36
408.779	459.08
409.156	452.3
409.534	440.1
409.912	465.41
410.29	465.64
410.667	451.85
411.045	474.9
411.422	461.8
411.8	465.19
412.178	472.19
412.555	476.71
412.933	470.16
413.31	481
413.687	471.29
414.065	486.65
414.442	481
414.819	491.4
415.197	489.59
415.574	485.98
415.951	499.76
416.328	521
416.705	501.57
417.082	501.34
417.46	505.86
417.837	531.17
418.214	518.29
418.591	523.94
418.967	527.33
419.344	544.05
419.721	519.42
420.098	547.44
420.475	513.77
420.852	544.05
421.228	544.96
421.605	556.93
421.982	544.05
422.358	546.54
422.735	538.18
423.111	559.19
423.488	546.54
423.864	587.89
424.241	558.29
424.617	553.32
424.994	570.04
425.37	568.23
425.746	576.37
426.123	585.86
426.499	573.21
426.875	559.42
427.251	584.96
427.627	608.23
428.003	594.67
428.379	626.54
428.756	594.67
429.132	623.37
429.507	607.55
429.883	638.29
430.259	613.66
430.635	660.89
431.011	628.35
431.387	652.75
431.763	663.82
432.138	681.45
432.514	695.46
432.89	659.76
433.265	668.57
433.641	692.3
434.016	688.23
434.392	696.37
434.767	685.97
435.143	721
435.518	699.08
435.894	735.46
436.269	724.84
436.644	733.88
437.02	729.81
437.395	740.88
437.77	741.11
438.145	730.49
438.52	747.21
438.895	761.45
439.271	760.09
439.646	786.53
440.021	763.93
440.395	785.63
440.77	789.7
441.145	774.56
441.52	787.89
441.895	775.91
442.27	798.06
442.645	817.27
443.019	798.96
443.394	812.3
443.769	818.4
444.143	837.61
444.518	842.12
444.892	843.71
445.267	843.48
445.641	837.61
446.016	829.24
446.39	832.18
446.764	863.59
447.139	832.86
447.513	848.9
447.887	862.69
448.262	881.45
448.636	871.5
449.01	900.65
449.384	891.84
449.758	880.77
450.132	903.59
450.506	910.6
450.88	912.41
451.254	930.94
451.628	900.88
452.002	948.79
452.376	933.42
452.75	928.68
453.123	930.94
453.497	970.26
453.871	969.35
454.244	978.39
454.618	975.68
454.992	1013.42
455.365	1004.15
455.739	1037.15
456.112	1024.04
456.486	1009.8
456.859	1030.37
457.232	1071.95
457.606	1054.77
457.979	1074.89
458.352	1068.11
458.725	1081.21
459.099	1104.49
459.472	1131.83
459.845	1155.79
460.218	1127.31
460.591	1138.16
460.964	1148.56
461.337	1157.14
461.71	1190.14
462.083	1198.95
462.456	1217.48
462.829	1209.35
463.201	1249.35
463.574	1255
463.947	1273.07
464.32	1286.86
464.692	1311.26
465.065	1295.67
465.438	1315.11
465.81	1358.27
466.183	1325.73
466.555	1390.81
466.928	1368.21
467.3	1380.42
467.672	1412.73
468.045	1401.88
468.417	1423.8
468.789	1478.72
469.161	1469.23
469.534	1523.46
469.906	1559.62
470.278	1549.45
470.65	1559.39
471.022	1592.84
471.394	1641.2
471.766	1626.96
472.138	1636.91
472.51	1635.55
472.882	1708.09
473.253	1742.67
473.625	1753.29
473.997	1807.3
474.369	1826.96
474.74	1838.71
475.112	1890.91
475.484	1936.56
475.855	1972.49
476.227	1993.28
476.598	2018.82
476.97	2046.39
477.341	2115.99
477.713	2132.94
478.084	2168.87
478.455	2231.92
478.827	2247.29
479.198	2336.32
479.569	2335.64
479.94	2369.32
480.311	2427.17
480.682	2494.06
481.053	2586.71
481.424	2596.88
481.795	2651.79
482.166	2688.4
482.537	2741.74
482.908	2819.7
483.279	2842.75
483.65	2920.71
484.021	2967.49
484.391	3029.19
484.762	3102.63
485.133	3157.09
485.503	3183.31
485.874	3253.36
486.244	3325.9
486.615	3363.64
486.985	3451.1
487.356	3532.22
487.726	3582.84
488.097	3655.38
488.467	3694.71
488.837	3811.09
489.207	3856.06
489.578	3913.68
489.948	3987.58
490.318	4041.36
490.688	4074.13
491.058	4127.91
491.428	4213.79
491.798	4238.87
492.168	4414.69
492.538	4355.7
492.908	4498.07
493.278	4545.98
493.648	4584.17
494.017	4641.8
494.387	4756.6
494.757	4811.51
495.126	4829.82
495.496	4853.32
495.866	4919.53
496.235	4990.49
496.605	5028.68
496.974	5125.63
497.344	5143.71
497.713	5259.18
498.082	5246.08
498.452	5298.28
498.821	5352.97
499.19	5392.06
499.559	5485.62
499.928	5486.97
500.298	5591.83
500.667	5572.17
501.036	5618.95
501.405	5701.66
501.774	5715.67
502.143	5755.67
502.512	5787.76
502.88	5885.83
503.249	5904.36
503.618	5951.37
503.987	5983.46
504.356	6056
504.724	6068.43
505.093	6104.13
505.462	6184.13
505.83	6147.52
506.199	6213.73
506.567	6347.29
506.936	6310
507.304	6335.09
507.672	6462.32
508.041	6432.49
508.409	6493.73
508.777	6568.08
509.145	6579.6
509.514	6622.54
509.882	6686.49
510.25	6719.94
510.618	6776.43
510.986	6808.52
511.354	6787.96
511.722	6846.26
512.09	6907.73
512.458	6939.59
512.826	6996.31
513.193	6983.21
513.561	6953.6
513.929	7041.06
514.297	7091.45
514.664	7117.89
515.032	7189.53
515.4	7251.45
515.767	7231.56
516.135	7275.18
516.502	7208.29
516.869	7336.19
517.237	7355.85
517.604	7323.54
517.972	7465.91
518.339	7492.8
518.706	7550.65
519.073	7544.1
519.44	7591.33
519.808	7603.53
520.175	7646.01
520.542	7726.01
520.909	7728.05
521.276	7718.55
521.643	7839.68
522.009	7841.04
522.376	7845.78
522.743	7942.5
523.11	8008.94
523.477	8032.67
523.843	8130.97
524.21	8130.97
524.577	8238.09
524.943	8256.62
525.31	8339.78
525.676	8373.45
526.043	8377.52
526.409	8446.22
526.776	8547.68
527.142	8528.48
527.508	8669.49
527.874	8618.42
528.241	8665.2
528.607	8760.33
528.973	8776.38
529.339	8831.07
529.705	8903.38
530.071	8908.58
530.437	8936.38
530.803	9023.6
531.169	9038.97
531.535	9106.31
531.901	9057.28
532.267	9119.2
532.632	9223.37
532.998	9241.23
533.364	9238.06
533.73	9302.92
534.095	9393.31
534.461	9450.71
534.826	9467.43
535.192	9581.56
535.557	9585.17
535.923	9598.05
536.288	9639.18
536.653	9682.8
537.019	9701.1
537.384	9633.98
537.749	9834.43
538.114	9732.74
538.479	9836.92
538.845	9855.45
539.21	9886.86
539.575	9927.31
539.94	9940.64
540.305	10073.07
540.67	9979.74
541.034	10056.57
541.399	10069.23
541.764	10142.45
542.129	10230.35
542.494	10215.44
542.858	10262.67
543.223	10294.98
543.587	10387.18
543.952	10399.16
544.316	10387.64
544.681	10396
545.045	10532.94
545.41	10549.89
545.774	10563.9
546.138	10606.16
546.503	10631.02
546.867	10700.4
547.231	10825.37
547.595	10785.59
547.959	10789.43
548.324	10830.34
548.688	10869.21
549.052	10936.77
549.416	10953.05
549.779	10990.78
550.143	10994.63
550.507	11143.77
550.871	11118.69
551.235	11126.37
551.599	11204.11
551.962	11266.94
552.326	11223.55
552.689	11410.89
553.053	11352.36
553.417	11350.1
553.78	11480.49
554.143	11495.63
554.507	11464.22
554.87	11506.48
555.234	11620.37
555.597	11609.53
555.96	11621.73
556.323	11720.26
556.686	11703.53
557.05	11799.8
557.413	11788.73
557.776	11873.47
558.139	11922.29
558.502	11878.44
558.865	11957.54
559.228	11991.66
559.59	12063.52
559.953	12074.15
560.316	12138.78
560.679	12225.33
561.041	12236.4
561.404	12294.7
561.767	12334.03
562.129	12320.47
562.492	12426.45
562.854	12450.86
563.217	12456.06
563.579	12539.44
563.941	12582.16
564.304	12589.39
564.666	12650.85
565.028	12714.58
565.39	12811.08
565.753	12774.24
566.115	12817.63
566.477	12959.77
566.839	12990.28
567.201	12996.38
567.563	13009.49
567.925	13120.9
568.287	13122.93
568.648	13109.15
569.01	13202.25
569.372	13359.54
569.734	13273.89
570.095	13407.44
570.457	13424.84
570.819	13405.86
571.18	13451.28
571.542	13598.63
571.903	13711.84
572.265	13756.36
572.626	13795
572.987	13804.27
573.349	13922.01
573.71	14003.59
574.071	14041.1
574.432	14163.13
574.794	14263.92
575.155	14265.05
575.516	14246.29
575.877	14381.43
576.238	14481.31
576.599	14579.62
576.96	14643.57
577.32	14710.23
577.681	14889.21
578.042	15002.88
578.403	14999.49
578.763	15161.52
579.124	15320.16
579.485	15455.07
579.845	15592.25
580.206	15670.89
580.566	15748.85
580.927	15962.63
581.287	16053.48
581.648	16236.97
582.008	16450.98
582.368	16567.36
582.728	16803.06
583.089	16869.27
583.449	17043.96
583.809	17203.95
584.169	17501.12
584.529	17598.29
584.889	17963.26
585.249	18071.05
585.609	18190.6
585.969	18509.23
586.329	18717.13
586.688	18941.08
587.048	19175.43
587.408	19379.26
587.768	19624.68
588.127	19861.51
588.487	20103.31
588.846	20387.83
589.206	20534.71
589.565	20739.68
589.925	21068.03
590.284	21259.89
590.643	21544.86
591.003	21952.98
591.362	22206.08
591.721	22396.13
592.08	22607.65
592.44	22843.81
592.799	23168.54
593.158	23432.04
593.517	23712.03
593.876	24087.84
594.235	24269.31
594.593	24527.38
594.952	24839.91
595.311	25101.15
595.67	25450.29
596.029	25744.75
596.387	26068.35
596.746	26414.79
597.104	26691.39
597.463	26938.39
597.822	27183.35
598.18	27367.08
598.538	27631.02
598.897	28057.91
599.255	28174.74
599.613	28698.57
599.972	28813.82
600.33	29082.06
600.688	29251.55
601.046	29716.62
601.404	30007.23
601.762	30054.69
602.12	30468.92
602.478	30718.18
602.836	31132.18
603.194	31035.23
603.552	31499.62
603.91	31435.9
604.268	31875.66
604.625	32065.48
604.983	32350
605.341	32393.61
605.698	32847.61
606.056	33002.86
606.413	33241.27
606.771	33542.96
607.128	33653.24
607.485	33757.64
607.843	34028.14
608.2	34316.05
608.557	34653.67
608.914	34598.98
609.272	34993.32
609.629	35292.97
609.986	35600.08
610.343	35531.16
610.7	35910.36
611.057	35967.3
611.414	36112.84
611.771	36298.14
612.127	36584.46
612.484	36693.61
612.841	36902.19
613.198	36885.24
613.554	36972.25
613.911	37380.37
614.267	37447.72
614.624	37536.3
614.98	37781.04
615.337	38052.9
615.693	38116.17
616.05	38153.23
616.406	38476.39
616.762	38437.29
617.118	38671.19
617.475	38705.54
617.831	38927.68
618.187	39188.91
618.543	39206.54
618.899	39524.5
619.255	39583.48
619.611	39611.5
619.967	39767.2
620.323	39964.94
620.678	39932.17
621.034	39952.06
621.39	39944.37
621.746	40177.81
622.101	40651.25
622.457	40310.24
622.812	40451.93
623.168	40601.31
623.523	40575.54
623.879	40789.1
624.234	40516.79
624.589	40769.21
624.945	40839.04
625.3	40984.12
625.655	40935.76
626.01	41079.26
626.365	41185.47
626.72	41323.32
627.075	41374.62
627.43	41289.65
627.785	41319.93
628.14	41400.38
628.495	41502.75
628.85	41609.19
629.205	41409.65
629.559	41676.31
629.914	41583.43
630.269	41537.55
630.623	41646.93
630.978	41405.58
631.332	41720.37
631.687	41606.48
632.041	41634.95
632.396	41712.01
632.75	41588.62
633.104	41727.6
633.459	41627.49
633.813	41616.19
634.167	41517.67
634.521	41698
634.875	41644.67
635.229	41681.28
635.583	41465.24
635.937	41544.56
636.291	41667.72
636.645	41655.74
636.999	41476.08
637.352	41692.35
637.706	41488.06
638.06	41700.94
638.413	41711.33
638.767	41514.95
639.121	41618.91
639.474	41359.48
639.828	41448.06
640.181	41436.76
640.534	41500.04
640.888	41399.48
641.241	41199.26
641.594	41423.88
641.947	41520.83
642.301	41332.13
642.654	41406.26
643.007	41343.43
643.36	41373.71
643.713	41294.85
644.066	41449.19
644.419	41176.88
644.771	40971.69
645.124	40597.92
645.477	40650.12
645.83	40363.35
646.182	40160.64
646.535	40153.63
646.888	40277.02
647.24	39999.97
647.593	40269.11
647.945	40163.8
648.298	39959.06
648.65	39938.5
649.002	39734.21
649.355	39937.14
649.707	40087.65
650.059	40162.9
650.411	40554.75
650.763	40634.98
651.115	41110.67
651.467	40950.9
651.819	40916.78
652.171	40924.69
652.523	40880.62
652.875	40826.16
653.227	40570.8
653.578	40866.61
653.93	40722.66
654.282	40637.24
654.633	40528.09
654.985	40576.67
655.337	40691.92
655.688	40726.73
656.039	40866.84
656.391	40350.69
656.742	40432.95
657.094	40519.27
657.445	40655.54
657.796	40474.53
658.147	40389.11
658.498	40476.11
658.849	40628.42
659.2	40393.63
659.551	40342.1
659.902	40520.63
660.253	40360.63
660.604	40501.19
660.955	40286.74
661.306	40523.57
661.656	40326.06
662.007	40490.12
662.358	40374.87
662.708	40381.2
663.059	40298.94
663.409	40115.67
663.76	40412.38
664.11	40394.76
664.461	40468.88
664.811	40386.62
665.161	40259.85
665.511	40319.28
665.862	40293.52
666.212	40411.93
666.562	40325.38
666.912	40481.08
667.262	40281.09
667.612	40215.55
667.962	40317.47
668.312	40225.72
668.662	40399.95
669.011	40227.76
669.361	40278.83
669.711	40209
670.06	40077.48
670.41	40106.4
670.76	40114.54
671.109	40290.58
671.459	40101.43
671.808	40104.6
672.157	40178.94
672.507	39951.83
672.856	39978.27
673.205	39904.37
673.554	39989.8
673.904	39945.28
674.253	40137.81
674.602	40033.18
674.951	39327.44
675.3	39210.16
675.649	39809.01
675.998	39787.99
676.346	39862.79
676.695	39902.79
677.044	39806.98
677.393	39743.25
677.741	39779.86
678.09	39758.62
678.438	39702.8
678.787	39713.42
679.135	39802.68
679.484	39500.77
679.832	39604.72
680.181	39468.23
680.529	39538.51
680.877	39379.42
681.225	39411.73
681.573	39556.36
681.922	39267.33
682.27	39195.24
682.618	39085.41
682.966	39073.89
683.314	39193.43
683.661	39203.83
684.009	38830.05
684.357	38815.36
684.705	38690.85
685.053	38684.29
685.4	38667.34
685.748	38557.07
686.095	38457.41
686.443	38360.91
686.79	38348.03
687.138	38423.28
687.485	38426.22
687.832	38249.73
688.18	38225.55
688.527	38028.94
688.874	38182.84
689.221	38080.92
689.568	37908.49
689.915	37812.23
690.262	37916.63
690.609	37637.32
690.956	37653.13
691.303	37577.66
691.65	37453.14
691.997	37386.7
692.344	37292.47
692.69	37294.05
693.037	37269.19
693.383	36908.75
693.73	37122.53
694.077	36932.7
694.423	36798.24
694.769	36710.56
695.116	36579.04
695.462	36530.23
695.808	36396.44
696.155	36484.8
696.501	36253.4
696.847	36193.29
697.193	35997.36
697.539	36183.79
697.885	35781.32
698.231	35723.69
698.577	35784.71
698.923	35549.23
699.269	35462.23
699.614	35393.98
699.96	35386.53
700.306	35289.35
700.651	35227.89
700.997	35090.49
701.342	35102.47
701.688	34997.61
702.033	34880.1
702.379	34767.56
702.724	34693.44
703.069	34782.7
703.415	34406.67
703.76	34384.29
704.105	34430.39
704.45	34357.18
704.795	34077.41
705.14	34140.91
705.485	34042.61
705.83	33985.21
706.175	33991.76
706.52	33890.3
706.865	33756.06
707.209	33723.97
707.554	33561.94
707.899	33625.44
708.243	33410.31
708.588	33306.13
708.932	33173.48
709.277	33135.51
709.621	33256.19
709.966	32832.47
710.31	33114.95
710.654	32737.33
710.998	32771.23
711.342	32775.97
711.687	32535.3
712.031	32558.35
712.375	32371.47
712.719	32523.1
713.063	32427.96
713.407	32651.23
713.75	32427.06
714.094	32194.75
714.438	32169.44
714.782	32291.24
715.125	32024.13
715.469	32196.55
715.812	31853.51
716.156	31708.88
716.499	31808.32
716.843	31739.17
717.186	31663.91
717.53	31719.05
717.873	31819.84
718.216	31631.15
718.559	31570.36
718.902	31288.1
719.246	31501.43
719.589	31308.89
719.932	31185.06
720.275	31230.7
720.617	31097.6
720.96	31058.05
721.303	31116.58
721.646	31067.09
721.989	30924.27
722.331	30866.19
722.674	30785.29
723.016	30829.81
723.359	30671.4
723.701	30845.86
724.044	30649.93
724.386	30529.25
724.729	30661.91
725.071	30478.86
725.413	30418.75
725.755	30429.14
726.097	30282.93
726.439	30219.88
726.782	30244.52
727.124	30374.91
727.465	30076.38
727.807	30168.13
728.149	30100.56
728.491	30021.24
728.833	30084.75
729.175	29764.75
729.516	29826.45
729.858	29806.11
730.199	29794.13
730.541	29766.79
730.882	29703.96
731.224	29782.61
731.565	29584.65
731.906	29565.44
732.248	29590.97
732.589	29386.91
732.93	29391.88
733.271	29415.16
733.612	29320.47
733.953	29343.75
734.294	29193.47
734.635	29187.59
734.976	29300.13
735.317	29035.96
735.658	29080.25
735.999	29073.92
736.339	29060.14
736.68	28999.35
737.021	28909.86
737.361	28920.93
737.702	29018.33
738.042	28957.32
738.383	28732.69
738.723	28753.71
739.063	28723.2
739.404	28665.57
739.744	28628.29
740.084	28558.46
740.424	28702.86
740.764	28537.89
741.104	28525.69
741.444	28431
741.784	28429.65
742.124	28452.92
742.464	28268.3
742.804	28275.98
743.143	28258.8
743.483	28329.31
743.823	28119.6
744.162	28171.8
744.502	28064.69
744.841	27994.63
745.181	28141.52
745.52	27987.4
745.86	28090.22
746.199	27987.17
746.538	27947.63
746.877	27905.82
747.216	27833.96
747.556	27712.83
747.895	27903.56
748.234	27797.57
748.573	27703.34
748.911	27529.33
749.25	27582.21
749.589	27594.64
749.928	27540.41
750.267	27453.63
750.605	27438.04
750.944	27436.45
751.283	27421.09
751.621	27431.71
751.96	27221.09
752.298	27257.7
752.636	27247.53
752.975	27148.55
753.313	27010.48
753.651	27108.55
753.989	26911.72
754.327	27021.1
754.666	26727.32
755.004	26730.71
755.342	26880.54
755.679	26780.88
756.017	26550.15
756.355	26714.66
756.693	26583.82
757.031	26572.97
757.368	26499.76
757.706	26473.99
758.044	26336.6
758.381	26314.68
758.719	26277.16
759.056	26235.58
759.394	26181.57
759.731	25957.4
760.068	26078.52
760.405	25892.77
760.743	25903.84
761.08	25909.49
761.417	25638.99
761.754	25696.61
762.091	25489.16
762.428	25522.61
762.765	25478.99
763.102	25516.28
763.438	25393.34
763.775	25178.89
764.112	25173.91
764.449	25291.2
764.785	25148.38
765.122	24897.76
765.458	24820.93
765.795	24817.99
766.131	24768.73
766.467	24712.23
766.804	24517.43
767.14	24535.97
767.476	24436.53
767.812	24396.53
768.148	24391.79
768.485	24177.78
768.821	24140.95
769.157	24088.07
769.492	24066.15
769.828	23956.09
770.164	23767.17
770.5	23705.48
770.836	23772.37
771.171	23592.04
771.507	23496.9
771.842	23380.97
772.178	23369.44
772.513	23350.23
772.849	23157.92
773.184	23196.57
773.519	23034.54
773.855	22985.27
774.19	22826.41
774.525	22815.11
774.86	22685.39
775.195	22750.7
775.53	22663.7
775.865	22537.37
776.2	22365.63
776.535	22282.24
776.87	22249.25
777.205	22132.19
777.539	22146.2
777.874	22058.52
778.209	21933.55
778.543	21894.68
778.878	21769.03
779.212	21755.7
779.547	21570.17
779.881	21656.49
780.215	21477.51
780.55	21469.83
780.884	21234.81
781.218	21271.19
781.552	21327.69
781.886	21021.93
782.22	20964.53
782.554	21042.27
782.888	20812
783.222	20701.04
783.556	20696.74
783.889	20595.5
784.223	20433.47
784.557	20417.66
784.89	20436.86
785.224	20233.03
785.557	20197.55
785.891	20168.62
786.224	20070.55
786.558	20036.2
786.891	19916.2
787.224	19870.55
787.557	19829.2
787.891	19706.94
788.224	19804.56
788.557	19684.12
788.89	19572.03
789.223	19551.46
789.556	19425.59
789.888	19382.2
790.221	19271.47
790.554	19228.76
790.887	19076.22
791.219	19070.12
791.552	19027.64
791.884	18965.49
792.217	18892.05
792.549	18899.96
792.882	18710.36
793.214	18616.12
793.546	18680.75
793.879	18544.48
794.211	18450.7
794.543	18468.78
794.875	18317.15
795.207	18390.82
795.539	18381.78
795.871	18224.94
796.203	18130.26
796.535	17912.18
796.867	17896.37
797.198	17938.85
797.53	17996.48
797.862	17724.84
798.193	17903.6
798.525	17736.6
798.856	17829.02
799.188	17548.35
799.519	17448.47
799.85	17438.3
800.182	17471.29
800.513	17381.8
800.844	17167.35
801.175	17317.85
801.506	17299.32
801.837	17226.55
802.168	17116.27
802.499	17077.63
802.83	17059.1
803.161	16916.5
803.491	16948.37
803.822	17008.25
804.153	16860.01
804.483	16779.78
804.814	16647.81
805.145	16674.48
805.475	16649.39
805.805	16554.93
806.136	16561.94
806.466	16508.83
806.796	16559.68
807.126	16414.14
807.457	16304.32
807.787	16317.88
808.117	16150.65
808.447	16080.14
808.777	16255.05
809.107	16197.43
809.436	16102.97
809.766	16038.56
810.096	16043.53
810.426	15892.35
810.755	15920.37
811.085	15810.32
811.414	15815.06
811.744	15699.81
812.073	15711.34
812.403	15711.79
812.732	15681.96
813.061	15503.89
813.39	15542.08
813.719	15470.67
814.049	15545.47
814.378	15495.07
814.707	15411.69
815.036	15419.14
815.365	15262.31
815.693	15134.4
816.022	15195.42
816.351	15079.94
816.68	15097.57
817.008	15147.96
817.337	14966.05
817.665	14956.78
817.994	14995.88
818.322	14911.13
818.651	14817.58
818.979	14880.85
819.307	14875.43
819.636	14844.02
819.964	14715.66
820.292	14720.86
820.62	14743.68
820.948	14682.21
821.276	14760.18
821.604	14700.52
821.932	14722.89
822.259	14703
822.587	14699.16
822.915	14626.62
823.243	14728.09
823.57	14634.76
823.898	14580.07
824.225	14583.91
824.553	14560.86
824.88	14670.91
825.207	14558.83
825.535	14617.13
825.862	14583.91
826.189	14573.29
826.516	14723.57
826.843	14627.52
827.17	14729.22
827.497	14644.47
827.824	14646.73
828.151	14680.18
828.478	14545.49
828.805	14660.97
829.131	14529.67
829.458	14486.06
829.785	14415.78
830.111	14571.26
830.438	14547.53
830.764	14552.5
831.09	14536.91
831.417	14456
831.743	14500.97
832.069	14523.35
832.395	14402.9
832.722	14510.01
833.048	14419.17
833.374	14489.45
833.7	14411.94
834.026	14463.91
834.351	14444.7
834.677	14353.86
835.003	14398.83
835.329	14449
835.654	14364.71
835.98	14284.48
836.306	14239.96
836.631	14246.97
836.956	14274.54
837.282	14306.4
837.607	14257.59
837.932	14176.01
838.258	14220.53
838.583	14134.43
838.908	14058.73
839.233	14111.61
839.558	14199.51
839.883	14082.23
840.208	14034.55
840.533	14041.78
840.858	14063.7
841.182	13920.88
841.507	13945.74
841.832	13906.64
842.156	13898.73
842.481	13828.45
842.805	13794.33
843.13	13777.15
843.454	13733.54
843.778	13685.63
844.103	13670.04
844.427	13657.83
844.751	13641.34
845.075	13630.26
845.399	13529.93
845.723	13519.76
846.047	13492.19
846.371	13350.5
846.695	13378.97
847.019	13257.39
847.343	13281.57
847.666	13124.06
847.99	13093.78
848.313	13115.25
848.637	12957.06
848.96	13016.27
849.284	12963.61
849.607	12804.3
849.931	12813.79
850.254	12738.99
850.577	12693.34
850.9	12621.7
851.223	12586.67
851.546	12539.9
851.869	12488.15
852.192	12490.86
852.515	12387.81
852.838	12347.58
853.161	12360.01
853.483	12295.16
853.806	12197.31
854.129	12243.41
854.451	12072.56
854.774	12144.2
855.096	12004.09
855.419	12057.42
855.741	11976.75
856.063	11927.48
856.385	11903.53
856.708	11783.08
857.03	11782.18
857.352	11834.6
857.674	11830.76
857.996	11748.73
858.318	11659.24
858.64	11717.32
858.961	11664.89
859.283	11547.15
859.605	11541.5
859.926	11517.32
860.248	11482.75
860.57	11495.63
860.891	11424.45
861.212	11422.86
861.534	11392.81
861.855	11395.07
862.176	11422.64
862.498	11379.7
862.819	11330.89
863.14	11258.57
863.461	11291.12
863.782	11191.23
864.103	11208.86
864.424	11184
864.745	11221.51
865.065	11111.01
865.386	11121.85
865.707	11080.27
866.027	11053.38
866.348	11073.04
866.668	11091.12
866.989	11033.04
867.309	10954.85
867.63	10901.97
867.95	10988.3
868.27	10878.92
868.59	10888.41
868.91	10894.52
869.23	10919.15
869.55	10715.99
869.87	10792.82
870.19	10780.17
870.51	10841.18
870.83	10795.99
871.15	10715.99
871.469	10710.11
871.789	10734.07
872.109	10793.95
872.428	10693.17
872.748	10614.52
873.067	10683.22
873.386	10696.1
873.706	10613.85
874.025	10549.21
874.344	10582.89
874.663	10649.32
874.982	10585.82
875.301	10564.13
875.62	10438.03
875.939	10478.93
876.258	10566.39
876.577	10488.42
876.896	10447.52
877.214	10391.25
877.533	10425.38
877.852	10344.93
878.17	10372.5
878.489	10400.07
878.807	10381.53
879.125	10341.99
879.444	10321.2
879.762	10260.18
880.08	10295.21
880.398	10267.87
880.716	10213.18
881.034	10164.82
881.352	10228.54
881.67	10176.12
881.988	10138.83
882.306	10150.35
882.624	10104.71
882.941	10091.6
883.259	10018.15
883.577	10060.41
883.894	9992.17
884.212	10022
884.529	9977.25
884.846	9932.28
885.164	10010.25
885.481	9916.91
885.798	9936.35
886.115	9808.67
886.432	9814.54
886.75	9832.17
887.067	9830.36
887.383	9719.86
887.7	9794.88
888.017	9712.85
888.334	9739.29
888.651	9673.76
888.967	9680.76
889.284	9611.39
889.6	9595.11
889.917	9435.35
890.233	9543.36
890.55	9484.38
890.866	9482.58
891.182	9421.33
891.498	9356.03
891.815	9439.86
892.131	9400.77
892.447	9353.99
892.763	9302.24
893.079	9303.6
893.395	9203.94
893.71	9190.38
894.026	9229.93
894.342	9204.39
894.657	9159.19
894.973	9151.74
895.289	9127.78
895.604	9120.55
895.92	9036.03
896.235	9004.4
896.55	9017.5
896.865	9024.73
897.181	8926.88
897.496	8957.84
897.811	8874
898.126	8844.85
898.441	8757.17
898.756	8780
899.071	8730.73
899.386	8743.84
899.7	8539.55
900.015	8633.78
900.33	8573.22
900.644	8619.55
900.959	8548.81
901.273	8513.56
901.588	8409.61
901.902	8467.01
902.216	8395.37
902.531	8347.01
902.845	8284.41
903.159	8320.12
903.473	8244.64
903.787	8205.77
904.101	8238.99
904.415	8229.28
904.729	8220.91
905.042	8161.71
905.356	8096.85
905.67	8074.7
905.984	8102.5
906.297	8058.21
906.611	7959.45
906.924	7934.37
907.237	7906.35
907.551	7892.11
907.864	7825.22
908.177	7850.53
908.491	7831.77
908.804	7821.15
909.117	7750.42
909.43	7688.95
909.743	7620.48
910.056	7637.88
910.368	7577.77
910.681	7585.22
910.994	7549.74
911.307	7507.49
911.619	7509.52
911.932	7458.22
912.244	7374.16
912.557	7423.19
912.869	7391.33
913.181	7344.1
913.494	7315.85
913.806	7215.52
914.118	7262.52
914.43	7173.94
914.742	7167.83
915.054	7088.74
915.366	7124.9
915.678	7131.45
915.99	7077.44
916.302	7034.73
916.613	6994.96
916.925	7013.04
917.236	6969.2
917.548	6928.07
917.859	6937.11
918.171	6923.32
918.482	6794.51
918.794	6819.82
919.105	6791.12
919.416	6782.99
919.727	6809.2
920.038	6709.09
920.349	6658.47
920.66	6637.45
920.971	6620.96
921.282	6608.07
921.593	6535.53
921.903	6531.92
922.214	6520.17
922.525	6553.61
922.835	6466.61
923.146	6359.72
923.456	6441.75
923.767	6420.28
924.077	6360.4
924.387	6274.07
924.697	6272.72
925.008	6304.13
925.318	6236.33
925.628	6231.81
925.938	6219.16
926.248	6136.9
926.558	6109.33
926.867	6134.19
927.177	6065.94
927.487	6054.87
927.796	6023.23
928.106	5991.37
928.416	5953.4
928.725	6013.74
929.034	5912.27
929.344	5928.77
929.653	5878.83
929.962	5844.71
930.271	5824.59
930.581	5758.61
930.89	5747.31
931.199	5751.6
931.508	5714.31
931.817	5732.84
932.125	5682.22
932.434	5693.07
932.743	5630.47
933.051	5606.07
933.36	5586.63
933.669	5527.43
933.977	5588.44
934.286	5498.73
934.594	5514.09
934.902	5442.91
935.21	5426.86
935.519	5460.53
935.827	5438.39
936.135	5411.5
936.443	5372.18
936.751	5334.21
937.059	5327.43
937.367	5305.06
937.674	5293.53
937.982	5267.77
938.29	5216.47
938.597	5237.72
938.905	5177.38
939.213	5136.48
939.52	5080.66
939.827	5109.13
940.135	5065.74
940.442	5078.17
940.749	5035.69
941.056	5039.53
941.363	4975.8
941.67	4954.78
941.977	4965.63
942.284	4911.17
942.591	4888.8
942.898	4838.18
943.205	4909.81
943.511	4818.52
943.818	4863.04
944.125	4793.21
944.431	4801.12
944.738	4777.16
945.044	4735.58
945.35	4709.59
945.657	4659.65
945.963	4705.3
946.269	4671.18
946.575	4599.09
946.881	4603.83
947.187	4609.71
947.493	4576.72
947.799	4562.48
948.105	4512.99
948.41	4519.54
948.716	4518.86
949.022	4514.12
949.327	4509.6
949.633	4461.69
949.938	4383.05
950.244	4441.13
950.549	4359.09
950.854	4344.18
951.16	4347.57
951.465	4337.4
951.77	4320.45
952.075	4273.9
952.38	4244.75
952.685	4288.59
952.99	4200.91
953.294	4184.64
953.599	4200.68
953.904	4156.61
954.209	4146.44
954.513	4148.7
954.818	4140.34
955.122	4078.2
955.426	4111.19
955.731	4084.53
956.035	4070.74
956.339	4053.34
956.643	4016.05
956.948	3982.38
957.252	3953.23
957.556	3987.58
957.86	3957.3
958.163	3958.65
958.467	3948.03
958.771	3929.73
959.075	3904.87
959.378	3863.51
959.682	3863.51
959.985	3873.23
960.289	3842.72
960.592	3821.26
960.896	3781.26
961.199	3822.16
961.502	3770.18
961.805	3733.57
962.108	3713.69
962.411	3720.24
962.714	3677.3
963.017	3677.53
963.32	3683.18
963.623	3652.45
963.926	3653.8
964.228	3596.63
964.531	3587.82
964.833	3612.9
965.136	3573.8
965.438	3546.46
965.741	3535.61
966.043	3488.61
966.345	3491.09
966.648	3519.79
966.95	3476.41
967.252	3442.73
967.554	3421.04
967.856	3397.09
968.158	3372.91
968.46	3386.24
968.761	3380.14
969.063	3376.3
969.365	3372.23
969.666	3367.48
969.968	3326.81
970.269	3293.81
970.571	3297.2
970.872	3263.76
971.174	3270.76
971.475	3261.5
971.776	3235.28
972.077	3223.53
972.378	3218.79
972.679	3234.83
972.98	3201.38
973.281	3181.72
973.582	3192.12
973.883	3158.67
974.183	3106.92
974.484	3110.99
974.785	3073.03
975.085	3088.17
975.386	3110.09
975.686	3067.6
975.986	3055.17
976.287	3021.73
976.587	3065.8
976.887	3007.49
977.187	2959.13
977.487	2986.7
977.787	2936.31
978.087	2959.81
978.387	2942.63
978.687	2958.68
978.987	2911.67
979.286	2901.05
979.586	2880.72
979.885	2866.7
980.185	2866.03
980.484	2852.92
980.784	2821.28
981.083	2808.17
981.382	2799.59
981.682	2788.74
981.981	2781.73
982.28	2793.03
982.579	2759.59
982.878	2798.23
983.177	2738.8
983.475	2729.53
983.774	2686.14
984.073	2723.43
984.372	2681.17
984.67	2682.08
984.969	2676.65
985.267	2659.93
985.566	2622.42
985.864	2596.88
986.162	2616.99
986.461	2632.81
986.759	2605.24
987.057	2564.57
987.355	2553.72
987.653	2553.49
987.951	2537.67
988.249	2558.01
988.547	2497.22
988.844	2518.01
989.142	2492.25
989.44	2499.48
989.737	2467.17
990.035	2465.58
990.332	2467.17
990.63	2473.04
990.927	2445.92
991.224	2421.97
991.521	2405.93
991.819	2409.77
992.116	2417.9
992.413	2398.24
992.71	2355.98
993.006	2349.2
993.303	2339.49
993.6	2332.03
993.897	2326.15
994.193	2339.49
994.49	2320.05
994.787	2270.79
995.083	2278.47
995.379	2278.02
995.676	2254.07
995.972	2247.51
996.268	2234.18
996.565	2221.3
996.861	2176.78
997.157	2233.95
997.453	2155.08
997.749	2164.8
998.044	2161.86
998.34	2154.41
998.636	2144.92
998.932	2140.4
999.227	2117.8
999.523	2145.82
999.818	2095.2
1000.114	2090.68
1000.409	2047.74
1000.704	2085.71
1001	2071.47
1001.295	2097.23
1001.59	2045.93
1001.885	2017.01
1002.18	2006.61
1002.475	2000.06
1002.77	2010.23
1003.065	1965.26
1003.359	2001.42
1003.654	1961.64
1003.949	1961.64
1004.243	1957.12
1004.538	1955.77
1004.832	1903.79
1005.127	1935.66
1005.421	1879.39
1005.715	1872.83
1006.009	1884.58
1006.304	1854.75
1006.598	1850.69
1006.892	1814.98
1007.186	1871.48
1007.48	1828.31
1007.773	1805.72
1008.067	1803.68
1008.361	1763.68
1008.655	1802.55
1008.948	1761.42
1009.242	1779.73
1009.535	1739.73
1009.829	1744.47
1010.122	1753.29
1010.415	1738.15
1010.708	1759.84
1011.001	1689.79
1011.295	1696.57
1011.588	1675.55
1011.881	1690.24
1012.173	1687.75
1012.466	1679.39
1012.759	1657.02
1013.052	1630.13
1013.344	1674.42
1013.637	1628.32
1013.93	1648.88
1014.222	1623.12
1014.514	1606.17
1014.807	1622.9
1015.099	1574.08
1015.391	1579.73
1015.683	1549.9
1015.976	1555.55
1016.268	1541.77
1016.56	1536.34
1016.851	1530.02
1017.143	1509.9
1017.435	1529.11
1017.727	1507.19
1018.018	1501.99
1018.31	1473.75
1018.602	1455.44
1018.893	1458.15
1019.185	1469.9
1019.476	1447.76
1019.767	1459.74
1020.058	1417.02
1020.35	1411.15
1020.641	1402.56
1020.932	1403.69
1021.223	1399.4
1021.514	1351.04
1021.804	1404.82
1022.095	1369.12
1022.386	1353.52
1022.677	1352.17
1022.967	1325.95
1023.258	1323.47
1023.548	1303.13
1023.839	1330.47
1024.129	1304.03
1024.419	1275.11
1024.709	1303.13
1025	1284.6
1025.29	1247.76
1025.58	1277.37
1025.87	1263.58
1026.16	1254.77
1026.449	1247.76
1026.739	1232.85
1027.029	1246.63
1027.319	1253.87
1027.608	1212.06
1027.898	1216.13
1028.187	1199.63
1028.477	1187.65
1028.766	1182
1029.055	1179.74
1029.344	1160.31
1029.634	1137.26
1029.923	1137.26
1030.212	1138.39
1030.501	1143.36
1030.79	1100.88
1031.078	1103.81
1031.367	1109.91
1031.656	1103.81
1031.945	1108.11
1032.233	1080.76
1032.522	1098.39
1032.81	1078.05
1033.099	1062.01
1033.387	1078.73
1033.675	1048.67
1033.963	1027.2
1034.251	1021.1
1034.54	990.6
1034.828	986.98
1035.116	1020.65
1035.403	1027.2
1035.691	984.49
1035.979	993.76
1036.267	991.95
1036.554	981.33
1036.842	971.84
1037.129	936.13
1037.417	950.6
1037.704	976.13
1037.992	981.78
1038.279	938.39
1038.566	958.28
1038.853	958.28
1039.14	958.28
