Data from hue_10_FLMS001491_97.txt Node
Date: Mon Feb 06 15:32:50 GMT 2017
User: dcchb
Spectrometer: FLMS00149
Trigger mode: 0
Integration Time (sec): 2.000000E-2
Scans to average: 10
Electric dark correction enabled: true
Nonlinearity correction enabled: false
Boxcar width: 0
XAxis mode: Wavelengths
Number of Pixels in Spectrum: 2048
>>>>>Begin Spectral Data<<<<<
341.393	-23.23
341.776	-23.23
342.16	-23.23
342.543	-57.36
342.927	-55.78
343.31	-65.04
343.693	-73.4
344.077	-51.71
344.46	-54.19
344.843	-45.61
345.226	-49
345.61	-33.4
345.993	-20.97
346.376	-3.35
346.759	3.21
347.142	24.22
347.525	35.97
347.908	52.7
348.291	87.27
348.674	78.46
349.057	114.84
349.44	148.97
349.823	146.71
350.206	167.72
350.588	181.51
350.971	218.79
351.354	233.26
351.737	226.93
352.119	234.61
352.502	261.96
352.884	270.54
353.267	285.23
353.65	291.79
354.032	287.27
354.414	309.19
354.797	297.21
355.179	303.99
355.562	334.72
355.944	313.48
356.326	326.81
356.709	350.77
357.091	325.68
357.473	331.79
357.855	343.08
358.238	356.42
358.62	355.51
359.002	337.89
359.384	348.06
359.766	349.64
360.148	329.07
360.53	347.83
360.912	316.87
361.294	335.85
361.676	340.6
362.057	326.59
362.439	332.46
362.821	336.98
363.203	316.19
363.584	332.91
363.966	319.58
364.348	308.51
364.729	326.81
365.111	301.05
365.493	317.55
365.874	315.29
366.256	309.41
366.637	307.15
367.019	309.19
367.4	300.6
367.781	294.72
368.163	328.85
368.544	308.73
368.925	316.42
369.306	329.07
369.688	317.1
370.069	313.93
370.45	313.25
370.831	310.54
371.212	315.29
371.593	304.44
371.974	331.56
372.355	326.81
372.736	308.96
373.117	334.5
373.498	292.24
373.879	322.52
374.26	318.68
374.641	304.67
375.021	293.59
375.402	310.99
375.783	328.17
376.163	309.19
376.544	307.38
376.925	327.04
377.305	332.46
377.686	307.38
378.066	334.95
378.447	325.01
378.827	325.68
379.208	313.25
379.588	314.84
379.968	332.24
380.349	319.58
380.729	347.6
381.109	331.11
381.489	332.24
381.87	330.88
382.25	302.63
382.63	332.91
383.01	326.36
383.39	336.98
383.77	352.8
384.15	348.28
384.53	342.63
384.91	341.05
385.29	375.17
385.67	354.38
386.049	335.17
386.429	356.64
386.809	353.93
387.189	352.58
387.568	374.04
387.948	348.51
388.328	330.43
388.707	348.73
389.087	334.04
389.466	352.58
389.846	347.38
390.225	365.91
390.605	358.23
390.984	342.63
391.363	360.48
391.743	349.64
392.122	369.52
392.501	374.72
392.881	365.68
393.26	375.85
393.639	362.97
394.018	366.81
394.397	374.5
394.776	371.33
395.155	367.26
395.534	392.8
395.913	381.05
396.292	402.52
396.671	381.73
397.05	386.25
397.429	374.95
397.808	374.95
398.186	353.71
398.565	395.96
398.944	385.12
399.323	384.21
399.701	402.97
400.08	387.15
400.458	384.67
400.837	383.76
401.215	395.96
401.594	369.07
401.972	396.64
402.351	389.18
402.729	385.34
403.107	397.32
403.486	400.26
403.864	394.61
404.242	402.74
404.62	406.13
404.999	406.81
405.377	405
405.755	394.38
406.133	423.76
406.511	427.83
406.889	412.23
407.267	414.95
407.645	425.34
408.023	429.41
408.401	419.47
408.779	418.34
409.156	420.82
409.534	439.35
409.912	414.04
410.29	409.07
410.667	449.52
411.045	434.16
411.422	453.36
411.8	436.19
412.178	436.19
412.555	433.7
412.933	452.69
413.31	442.74
413.687	445.91
414.065	457.21
414.442	467.37
414.819	460.6
415.197	471.89
415.574	468.73
415.951	473.7
416.328	473.48
416.705	462.18
417.082	480.03
417.46	489.3
417.837	483.42
418.214	492.23
418.591	478.45
418.967	480.93
419.344	494.49
419.721	496.53
420.098	506.7
420.475	494.49
420.852	507.15
421.228	513.93
421.605	515.28
421.982	510.54
422.358	506.02
422.735	494.94
423.111	519.8
423.488	508.5
423.864	530.42
424.241	546.69
424.617	522.51
424.994	535.17
425.37	541.27
425.746	524.55
426.123	549.41
426.499	546.69
426.875	563.87
427.251	564.55
427.627	546.69
428.003	548.5
428.379	562.06
428.756	553.93
429.132	565.9
429.507	593.7
429.883	574.26
430.259	569.97
430.635	589.86
431.011	578.33
431.387	601.61
431.763	593.93
432.138	602.06
432.514	600.25
432.89	610.42
433.265	607.48
433.641	640.7
434.016	621.95
434.392	627.82
434.767	636.18
435.143	628.5
435.518	619.69
435.894	655.62
436.269	652.45
436.644	662.62
437.02	675.05
437.395	635.51
437.77	698.1
438.145	689.52
438.52	688.61
438.895	668.95
439.271	691.78
439.646	689.06
440.021	687.71
440.395	707.37
440.77	694.04
441.145	724.09
441.52	713.92
441.895	718.67
442.27	728.16
442.645	736.97
443.019	741.04
443.394	728.16
443.769	746.01
444.143	735.62
444.518	728.84
444.892	744.66
445.267	759.57
445.641	735.84
446.016	742.62
446.39	737.42
446.764	776.97
447.139	750.31
447.513	776.75
447.887	786.69
448.262	776.52
448.636	769.74
449.01	772.23
449.384	795.5
449.758	787.82
450.132	784.2
450.506	797.54
450.88	821.49
451.254	833.47
451.628	802.06
452.002	821.49
452.376	834.14
452.75	821.72
453.123	837.76
453.497	859.91
453.871	857.42
454.244	867.36
454.618	886.57
454.992	883.41
455.365	887.48
455.739	877.08
456.112	896.29
456.486	909.62
456.859	916.63
457.232	935.84
457.606	941.26
457.979	945.33
458.352	963.63
458.725	925.67
459.099	964.54
459.472	953.92
459.845	984.65
460.218	971.99
460.591	1004.76
460.964	997.08
461.337	1028.94
461.71	1011.77
462.083	1040.69
462.456	1063.52
462.829	1050.18
463.201	1066.23
463.574	1065.33
463.947	1066.91
464.32	1108.26
464.692	1106.68
465.065	1103.29
465.438	1122.27
465.81	1133.35
466.183	1161.14
466.555	1138.09
466.928	1146.23
467.3	1182.84
467.672	1197.3
468.045	1189.62
468.417	1200.01
468.789	1200.91
469.161	1211.31
469.534	1256.73
469.906	1273.23
470.278	1292.21
470.65	1289.5
471.022	1303.28
471.394	1376.28
471.766	1364.3
472.138	1368.82
472.51	1392.77
472.882	1431.42
473.253	1407.91
473.625	1446.56
473.997	1467.8
474.369	1500.79
474.74	1517.52
475.112	1529.49
475.484	1588.48
475.855	1578.08
476.227	1613.79
476.598	1647.68
476.97	1661.69
477.341	1687
477.713	1712.09
478.084	1703.73
478.455	1796.38
478.827	1807
479.198	1838.64
479.569	1884.06
479.94	1905.53
480.311	1897.62
480.682	1982.82
481.053	2010.84
481.424	2039.76
481.795	2035.92
482.166	2080.44
482.537	2112.08
482.908	2202.24
483.279	2188.01
483.65	2217.16
484.021	2293.09
484.391	2327.66
484.762	2306.65
485.133	2373.09
485.503	2416.02
485.874	2437.94
486.244	2462.58
486.615	2529.47
486.985	2592.29
487.356	2618.73
487.726	2627.54
488.097	2700.76
488.467	2714.1
488.837	2766.07
489.207	2793.42
489.578	2859.18
489.948	2879.97
490.318	2951.6
490.688	2928.1
491.058	2985.5
491.428	3006.29
491.798	3082.45
492.168	3146.4
492.538	3140.07
492.908	3145.95
493.278	3199.73
493.648	3263.23
494.017	3300.29
494.387	3282.44
494.757	3376.45
495.126	3408.31
495.496	3416.45
495.866	3454.19
496.235	3471.36
496.605	3516.56
496.974	3514.98
497.344	3575.77
497.713	3592.04
498.082	3624.58
498.452	3627.74
498.821	3684.47
499.19	3707.52
499.559	3703.67
499.928	3735.54
500.298	3793.61
500.667	3833.84
501.036	3795.65
501.405	3860.05
501.774	3875.19
502.143	3884.23
502.512	3915.65
502.88	3972.37
503.249	3934.18
503.618	3928.98
503.987	4006.04
504.356	4027.51
504.724	3973.72
505.093	4062.76
505.462	4075.64
505.83	4105.02
506.199	4142.31
506.567	4120.84
506.936	4150.44
507.304	4245.81
507.672	4245.58
508.041	4215.75
508.409	4267.95
508.777	4295.3
509.145	4324.22
509.514	4317.89
509.882	4335.75
510.25	4339.59
510.618	4361.28
510.986	4397.44
511.354	4444.67
511.722	4471.79
512.09	4469.08
512.458	4453.71
512.826	4519.92
513.193	4518.79
513.561	4556.76
513.929	4555.85
514.297	4583.65
514.664	4609.41
515.032	4604.22
515.4	4648.73
515.767	4659.13
516.135	4669.3
516.502	4646.93
516.869	4760.82
517.237	4751.78
517.604	4736.64
517.972	4802.63
518.339	4752.69
518.706	4783.42
519.073	4813.48
519.44	4830.65
519.808	4867.26
520.175	4921.49
520.542	4934.38
520.909	4948.61
521.276	4910.42
521.643	4963.75
522.009	4989.29
522.376	5055.73
522.743	5018.22
523.11	5066.35
523.477	5108.38
523.843	5120.13
524.21	5163.52
524.577	5146.35
524.943	5241.26
525.31	5231.09
525.676	5283.07
526.043	5337.76
526.409	5287.36
526.776	5378.43
527.142	5333.01
527.508	5403.74
527.874	5413.23
528.241	5495.27
528.607	5478.77
528.973	5540.01
529.339	5529.39
529.705	5591.99
530.071	5621.36
530.437	5662.27
530.803	5698.88
531.169	5678.09
531.535	5694.81
531.901	5691.64
532.267	5702.72
532.632	5754.24
532.998	5798.08
533.364	5831.3
533.73	5800.12
534.095	5907.68
534.461	5871.53
534.826	5912.88
535.192	5924.41
535.557	6016.61
535.923	5926.44
536.288	5986.55
536.653	6074.23
537.019	6046.89
537.384	6099.77
537.749	6146.77
538.114	6125.76
538.479	6143.38
538.845	6161.24
539.21	6157.17
539.575	6255.92
539.94	6208.01
540.305	6241.23
540.67	6241.23
541.034	6330.72
541.399	6346.09
541.764	6346.99
542.129	6349.71
542.494	6354
542.858	6476.71
543.223	6418.18
543.587	6459.31
543.952	6510.38
544.316	6561.68
544.681	6558.97
545.045	6562.13
545.41	6565.75
545.774	6612.75
546.138	6613.65
546.503	6672.86
546.867	6700.66
547.231	6715.35
547.595	6718.28
547.959	6766.87
548.324	6746.76
548.688	6776.81
549.052	6865.4
549.416	6800.99
549.779	6840.77
550.143	6885.51
550.507	6931.39
550.871	6953.76
551.235	6977.94
551.599	6998.5
551.962	7032.63
552.326	7012.74
552.689	7084.6
553.053	7054.77
553.417	7113.3
553.78	7196.01
554.143	7163.47
554.507	7200.53
554.87	7263.58
555.234	7228.55
555.597	7250.02
555.96	7258.61
556.323	7259.51
556.686	7257.25
557.05	7387.64
557.413	7368.21
557.776	7362.11
558.139	7396.91
558.502	7452.95
558.865	7456.34
559.228	7503.57
559.59	7502.22
559.953	7525.27
560.316	7641.65
560.679	7609.79
561.041	7632.16
561.404	7672.61
561.767	7702.89
562.129	7723.68
562.492	7802.1
562.854	7789.67
563.217	7779.95
563.579	7847.52
563.941	7873.51
564.304	7857.46
564.666	7876.22
565.028	7960.06
565.39	7879.61
565.753	7971.13
566.115	8051.36
566.477	8057.23
566.839	8127.74
567.201	8150.56
567.563	8124.35
567.925	8197.34
568.287	8173.39
568.648	8163.22
569.01	8202.31
569.372	8310.78
569.734	8277.56
570.095	8341.07
570.457	8400.27
570.819	8440.27
571.18	8404.34
571.542	8492.93
571.903	8473.94
572.265	8566.14
572.626	8620.38
572.987	8660.61
573.349	8696.54
573.71	8741.28
574.071	8766.59
574.432	8819.92
574.794	8948.96
575.155	8946.25
575.516	8935.85
575.877	9004.78
576.238	9076.41
576.599	9235.73
576.96	9248.84
577.32	9256.07
577.681	9337.42
578.042	9453.13
578.403	9504.65
578.763	9603.18
579.124	9659.68
579.485	9765.44
579.845	9856.05
580.206	9900.57
580.566	9991.87
580.927	10176.27
581.287	10247
581.648	10345.08
582.008	10450.84
582.368	10548.69
582.728	10790.27
583.089	10825.07
583.449	10941.68
583.809	11107.09
584.169	11306.19
584.529	11413.98
584.889	11603.58
585.249	11743.01
585.609	11853.97
585.969	12084.47
586.329	12212.83
586.688	12460.96
587.048	12681.97
587.408	12719.93
587.768	13027.95
588.127	13152.92
588.487	13385.68
588.846	13715.39
589.206	13780.92
589.565	14039.45
589.925	14313.34
590.284	14530.73
590.643	14817.96
591.003	15069.7
591.362	15341.11
591.721	15521.22
592.08	15747.88
592.44	16063.57
592.799	16354.87
593.158	16500.4
593.517	16830.33
593.876	17174.05
594.235	17308.51
594.593	17627.83
594.952	17950.53
595.311	18134.93
595.67	18500.35
596.029	18858.98
596.387	19118.86
596.746	19362.02
597.104	19613.99
597.463	19832.74
597.822	20313.41
598.18	20500.52
598.538	20752.49
598.897	21085.14
599.255	21236.32
599.613	21744.33
599.972	21842.18
600.33	22328.95
600.688	22427.48
601.046	22867.46
601.404	23049.83
601.762	23355.81
602.12	23615.01
602.478	23866.53
602.836	24146.98
603.194	24337.48
603.552	24693.18
603.91	24753.52
604.268	25188.76
604.625	25454.74
604.983	25697.45
605.341	25748.07
605.698	26189.86
606.056	26472.11
606.413	26697.42
606.771	26933.12
607.128	27244.3
607.485	27347.12
607.843	27584.63
608.2	28092.86
608.557	28125.4
608.914	28192.3
609.272	28670.7
609.629	28812.62
609.986	29174.64
610.343	29227.07
610.7	29603.33
611.057	29693.27
611.414	30050.1
611.771	30220.04
612.127	30391.11
612.484	30652.57
612.841	30872.45
613.198	30889.17
613.554	31045.1
613.911	31332.78
614.267	31469.05
614.624	31661.58
614.98	31878.07
615.337	31986.09
615.693	32253.66
616.05	32196.71
616.406	32669.69
616.762	32749.01
617.118	32818.16
617.475	32942.45
617.831	33177.93
618.187	33198.49
618.543	33448.2
618.899	33754.18
619.255	33846.16
619.611	33821.98
619.967	34087.96
620.323	34294.51
620.678	34329.54
621.034	34274.17
621.39	34393.71
621.746	34518.46
622.101	34911.44
622.457	34710.32
622.812	34896.3
623.168	35118.44
623.523	35069.18
623.879	35368.83
624.234	35214.03
624.589	35374.25
624.945	35532.44
625.3	35707.58
625.655	35770.18
626.01	35717.52
626.365	35912.09
626.72	35861.02
627.075	35922.49
627.43	35974.01
627.785	35906.44
628.14	36149.83
628.495	36242.03
628.85	36258.3
629.205	36107.57
629.559	36468.91
629.914	36160.67
630.269	36343.49
630.623	36383.49
630.978	36330.16
631.332	36646.54
631.687	36571.74
632.041	36473.21
632.396	36711.17
632.75	36442.25
633.104	36623.94
633.459	36461.68
633.813	36545.07
634.167	36635.92
634.521	36551.17
634.875	36601.11
635.229	36598.63
635.583	36581.68
635.937	36491.96
636.291	36530.38
636.645	36702.35
636.999	36555.01
637.352	36729.25
637.706	36535.8
638.06	36719.75
638.413	36693.54
638.767	36638.85
639.121	36693.31
639.474	36437.95
639.828	36414.9
640.181	36586.43
640.534	36482.7
640.888	36562.24
641.241	36428.69
641.594	36560.89
641.947	36689.7
642.301	36540.32
642.654	36570.15
643.007	36588.91
643.36	36560.89
643.713	36470.5
644.066	36555.69
644.419	36454.45
644.771	36277.05
645.124	35867.35
645.477	35899.21
645.83	35642.95
646.182	35450.18
646.535	35463.74
646.888	35459
647.24	35305.78
647.593	35451.77
647.945	35374.93
648.298	35307.81
648.65	35226.91
649.002	35147.37
649.355	35410.86
649.707	35321.83
650.059	35412.22
650.411	35817.41
650.763	35875.03
651.115	36261.69
651.467	36181.69
651.819	36157.74
652.171	36040.68
652.523	35952.77
652.875	36027.8
653.227	35903.28
653.578	36264.17
653.93	36073.44
654.282	35837.74
654.633	35792.32
654.985	35868.03
655.337	35762.27
655.688	35893.56
656.039	36086.33
656.391	35661.03
656.742	35830.51
657.094	35647.69
657.445	36038.64
657.796	35825.77
658.147	35806.11
658.498	35720.46
658.849	35840.91
659.2	35798.2
659.551	35754.13
659.902	35866.44
660.253	35779.89
660.604	35817.86
660.955	35792.32
661.306	35785.54
661.656	35674.81
662.007	35651.31
662.358	35717.3
662.708	35647.47
663.059	35755.26
663.409	35502.61
663.76	35804.98
664.11	35782.83
664.461	35728.37
664.811	35791.19
665.161	35711.65
665.511	35711.65
665.862	35708.03
666.212	35698.76
666.562	35819.67
666.912	35574.7
667.262	35617.18
667.612	35651.99
667.962	35667.81
668.312	35624.64
668.662	35815.82
669.011	35675.49
669.361	35673.23
669.711	35521.59
670.06	35652.66
670.41	35563.85
670.76	35477.75
671.109	35681.59
671.459	35540.8
671.808	35542.38
672.157	35557.07
672.507	35266.46
672.856	35370.41
673.205	35338.55
673.554	35467.81
673.904	35186.01
674.253	35615.15
674.602	35407.7
674.951	34910.76
675.3	34671.45
675.649	35251.77
675.998	35275.5
676.346	35218.1
676.695	35447.47
677.044	35084.32
677.393	35220.59
677.741	35257.42
678.09	35181.26
678.438	35020.36
678.787	35161.83
679.135	35211.09
679.484	34829.18
679.832	35032.79
680.181	34811.1
680.529	35054.94
680.877	34875.96
681.225	34910.76
681.573	35034.83
681.922	34687.27
682.27	34638.45
682.618	34744.67
682.966	34591
683.314	34681.39
683.661	34554.84
684.009	34386.48
684.357	34296.32
684.705	34408.4
685.053	34248.63
685.4	34365.24
685.748	34267.62
686.095	34184.23
686.443	34032.59
686.79	33940.62
687.138	33883.67
687.485	33956.21
687.832	33890.45
688.18	33875.76
688.527	33693.39
688.874	33733.84
689.221	33571.14
689.568	33612.27
689.915	33473.96
690.262	33465.6
690.609	33306.96
690.956	33232.84
691.303	33320.97
691.65	33063.13
691.997	33029.46
692.344	32904.26
692.69	32894.32
693.037	32888.22
693.383	32614.78
693.73	32824.04
694.077	32675.57
694.423	32729.13
694.769	32556.25
695.116	32422.92
695.462	32303.6
695.808	32260.89
696.155	32258.18
696.501	32092.31
696.847	32122.36
697.193	31768.25
697.539	32064.06
697.885	31630.4
698.231	31697.29
698.577	31599.66
698.923	31506.33
699.269	31441.48
699.614	31352.66
699.96	31245.55
700.306	31321.7
700.651	31017.08
700.997	31061.82
701.342	31074.03
701.688	31000.36
702.033	30845.56
702.379	30800.59
702.724	30725.34
703.069	30835.39
703.415	30374.84
703.76	30458
704.105	30472.01
704.45	30405.57
704.795	30136.88
705.14	30115.86
705.485	29978.46
705.83	29953.38
706.175	30017.33
706.52	29810.33
706.865	29801.52
707.209	29778.69
707.554	29703.89
707.899	29690.79
708.243	29534.18
708.588	29514.29
708.932	29177.81
709.277	29316.11
709.621	29371.93
709.966	29081.99
710.31	29301.42
710.654	28901.88
710.998	28939.62
711.342	28994.08
711.687	28999.28
712.031	28846.06
712.375	28719.74
712.719	28744.37
713.063	28532.4
713.407	28812.62
713.75	28630.93
714.094	28690.59
714.438	28385.51
714.782	28438.84
715.125	28389.8
715.469	28339.86
715.812	28253.99
716.156	28087.44
716.499	28070.94
716.843	28069.36
717.186	27948.91
717.53	28028.91
717.873	27986.2
718.216	27932.64
718.559	27947.56
718.902	27642.03
719.246	27714.57
719.589	27675.47
719.932	27429.15
720.275	27538.53
720.617	27514.12
720.96	27381.02
721.303	27441.81
721.646	27373.11
721.989	27202.26
722.331	27278.65
722.674	27191.64
723.016	27279.1
723.359	27242.94
723.701	27160.23
724.044	27128.14
724.386	26912.33
724.729	27085.88
725.071	27030.07
725.413	26949.16
725.755	26867.36
726.097	26800.92
726.439	26783.97
726.782	26674.6
727.124	26799.11
727.465	26700.58
727.807	26702.62
728.149	26579
728.491	26486.58
728.833	26506.24
729.175	26546.01
729.516	26472.11
729.858	26464.66
730.199	26385.34
730.541	26283.87
730.882	26307.83
731.224	26328.84
731.565	26174.95
731.906	26230.77
732.248	26123.65
732.589	26070.09
732.93	26007.95
733.271	25993.94
733.612	25961.62
733.953	25963.2
734.294	25728.63
734.635	25732.93
734.976	25907.16
735.317	25640.27
735.658	25729.76
735.999	25753.04
736.339	25575.87
736.68	25733.83
737.021	25624.91
737.361	25443.67
737.702	25541.52
738.042	25521.63
738.383	25455.42
738.723	25459.49
739.063	25403.44
739.404	25384.69
739.744	25376.32
740.084	25257.91
740.424	25405.7
740.764	25253.39
741.104	25344.23
741.444	25148.08
741.784	25192.83
742.124	25133.17
742.464	25112.83
742.804	24988.76
743.143	25032.38
743.483	25011.59
743.823	24895.66
744.162	24828.99
744.502	24975.2
744.841	24831.48
745.181	24878.03
745.52	24859.05
745.86	24790.58
746.199	24685.49
746.538	24744.25
746.877	24786.28
747.216	24720.52
747.556	24659.96
747.895	24690.47
748.234	24571.83
748.573	24576.8
748.911	24452.96
749.25	24448.89
749.589	24344.04
749.928	24339.97
750.267	24342
750.605	24273.08
750.944	24268.1
751.283	24181.33
751.621	24131.61
751.96	23999.41
752.298	24061.56
752.636	24058.17
752.975	23941.79
753.313	23921.67
753.651	24113.98
753.989	23869.02
754.327	23871.05
754.666	23789.25
755.004	23914.89
755.342	23889.81
755.679	23799.42
756.017	23568.01
756.355	23560.1
756.693	23534.11
757.031	23562.13
757.368	23483.04
757.706	23452.99
758.044	23374.57
758.381	23408.92
758.719	23247.79
759.056	23268.81
759.394	23210.28
759.731	23173.9
760.068	23095.03
760.405	22959.44
760.743	22846
761.08	22933.68
761.417	22835.83
761.754	22827.24
762.091	22658.43
762.428	22657.07
762.765	22515.16
763.102	22497.53
763.438	22415.72
763.775	22417.98
764.112	22412.33
764.449	22444.42
764.785	22240.81
765.122	22158.56
765.458	21996.98
765.795	21983.42
766.131	21991.1
766.467	21926.92
766.804	21781.62
767.14	21832.69
767.476	21670.88
767.812	21544.11
768.148	21622.52
768.485	21501.62
768.821	21371.23
769.157	21288.97
769.492	21356.09
769.828	21243.33
770.164	20982.54
770.5	21017.57
770.836	21141.86
771.171	20957.01
771.507	20949.55
771.842	20659.39
772.178	20696.67
772.513	20573.51
772.849	20614.42
773.184	20631.36
773.519	20433.4
773.855	20376.68
774.19	20261.66
774.525	20242.67
774.86	20273.86
775.195	20223.24
775.53	20071.15
775.865	20076.8
776.2	19869.8
776.535	19796.81
776.87	19756.59
777.205	19584.84
777.539	19518.4
777.874	19603.82
778.209	19534.44
778.543	19342.81
778.878	19297.61
779.212	19282.7
779.547	19191.18
779.881	19224.62
780.215	19063.5
780.55	19061.24
780.884	18942.14
781.218	18902.82
781.552	18882.48
781.886	18765.42
782.22	18688.36
782.554	18600.01
782.888	18560.46
783.222	18388.49
783.556	18332.89
783.889	18347.81
784.223	18268.49
784.557	18150.07
784.89	18218.09
785.224	17997.54
785.557	17986.91
785.891	17951.66
786.224	17868.95
786.558	17910.31
786.891	17662.85
787.224	17609.07
787.557	17601.16
787.891	17543.54
788.224	17549.64
788.557	17407.04
788.89	17420.15
789.223	17385.12
789.556	17364.11
789.888	17271.68
790.221	17104.68
790.554	17049.54
790.887	17055.64
791.219	16912.59
791.552	16946.49
791.884	16821.75
792.217	16732.94
792.549	16741.75
792.882	16597.8
793.214	16560.06
793.546	16600.28
793.879	16448.88
794.211	16377.69
794.543	16465.37
794.875	16320.74
795.207	16364.13
795.539	16233.29
795.871	16171.37
796.203	16060.86
796.535	16006.63
796.867	16009.34
797.198	15906.52
797.53	15963.92
797.862	15779.29
798.193	15851.15
798.525	15707.43
798.856	15814.54
799.188	15604.15
799.519	15645.28
799.85	15536.13
800.182	15591.5
800.513	15528.67
800.844	15392.41
801.175	15516.02
801.506	15366.87
801.837	15304.5
802.168	15266.08
802.499	15264.95
802.83	15122.81
803.161	15093.88
803.491	15117.61
803.822	15047.78
804.153	15025.18
804.483	14774.8
804.814	14883.27
805.145	14851.86
805.475	14855.7
805.805	14749.03
806.136	14671.97
806.466	14708.81
806.796	14632.88
807.126	14573.44
807.457	14510.17
807.787	14510.17
808.117	14352.43
808.447	14315.37
808.777	14398.08
809.107	14233.34
809.436	14282.38
809.766	14251.42
810.096	14228.14
810.426	14123.29
810.755	14154.02
811.085	14105.66
811.414	14144.08
811.744	14005.55
812.073	13985.44
812.403	13827.48
812.732	13896.85
813.061	13824.09
813.39	13800.13
813.719	13782.5
814.049	13819.11
814.378	13710.19
814.707	13636.29
815.036	13729.4
815.365	13633.81
815.693	13507.26
816.022	13451.67
816.351	13465
816.68	13352.23
817.008	13480.37
817.337	13266.59
817.665	13341.84
817.994	13441.04
818.322	13362.18
818.651	13286.25
818.979	13197.44
819.307	13279.02
819.636	13150.88
819.964	13099.36
820.292	13143.43
820.62	13064.11
820.948	13079.7
821.276	13151.56
821.604	13061.62
821.932	13040.6
822.259	13069.53
822.587	13075.18
822.915	13081.73
823.243	13124.67
823.57	12986.37
823.898	13074.73
824.225	12963.77
824.553	12945.01
824.88	12972.58
825.207	13048.96
825.535	12980.49
825.862	13011.9
826.189	12960.38
826.516	13027.72
826.843	13038.34
827.17	13029.98
827.497	13104.56
827.824	12976.65
828.151	13030.66
828.478	12954.5
828.805	13049.19
829.131	13008.97
829.458	12931.23
829.785	12945.01
830.111	12974.84
830.438	13039.93
830.764	12958.8
831.09	12934.84
831.417	12940.04
831.743	12950.21
832.069	12957.22
832.395	12888.29
832.722	12909.08
833.048	12885.81
833.374	12897.56
833.7	12788.41
834.026	12882.87
834.351	12826.15
834.677	12831.12
835.003	12833.15
835.329	12771.68
835.654	12839.25
835.98	12713.38
836.306	12795.86
836.631	12632.48
836.956	12698.92
837.282	12656.88
837.607	12628.41
837.932	12588.19
838.258	12589.09
838.583	12546.38
838.908	12522.88
839.233	12538.92
839.558	12585.93
839.883	12436.55
840.208	12460.96
840.533	12446.72
840.858	12482.65
841.182	12500.96
841.507	12386.84
841.832	12364.01
842.156	12342.09
842.481	12343.22
842.805	12317.68
843.13	12331.24
843.454	12249.66
843.778	12183.68
844.103	12131.47
844.427	12081.08
844.751	12173.51
845.075	12121.53
845.399	12070.01
845.723	12014.19
846.047	12020.52
846.371	11869.79
846.695	11895.77
847.019	11861.65
847.343	11720.86
847.666	11707.08
847.99	11697.59
848.313	11686.51
848.637	11627.31
848.96	11575.78
849.284	11505.73
849.607	11433.87
849.931	11437.03
850.254	11406.52
850.577	11308.9
850.9	11249.46
851.223	11254.66
851.546	11165.62
851.869	11158.62
852.192	11102.35
852.515	11119.75
852.838	10995.46
853.161	10968.34
853.483	10946.42
853.806	10860.1
854.129	10885.63
854.451	10802.02
854.774	10745.07
855.096	10760.21
855.419	10679.76
855.741	10670.95
856.063	10588.69
856.385	10538.3
856.708	10532.87
857.03	10578.52
857.352	10536.71
857.674	10490.61
857.996	10428.92
858.318	10360.22
858.64	10403.16
858.961	10300.11
859.283	10348.92
859.605	10280
859.926	10307.79
860.248	10214.92
860.57	10182.83
860.891	10207.68
861.212	10176.72
861.534	10113.22
861.855	10126.33
862.176	10194.58
862.498	10081.59
862.819	10103.51
863.14	10082.49
863.461	9985.99
863.782	10009.27
864.103	9999.33
864.424	10003.4
864.745	9955.94
865.065	9918.2
865.386	9879.56
865.707	9892.21
866.027	9888.82
866.348	9923.62
866.668	9827.58
866.989	9836.85
867.309	9757.98
867.63	9760.46
867.95	9799.56
868.27	9682.5
868.59	9769.05
868.91	9716.62
869.23	9756.62
869.55	9684.99
869.87	9710.07
870.19	9665.55
870.51	9650.86
870.83	9656.29
871.15	9605.44
871.469	9635.5
871.789	9655.61
872.109	9611.99
872.428	9492.9
872.748	9513.69
873.067	9527.7
873.386	9536.51
873.706	9529.51
874.025	9488.38
874.344	9499
874.663	9452
874.982	9384.65
875.301	9384.43
875.62	9444.09
875.939	9414.94
876.258	9340.14
876.577	9254.26
876.896	9334.03
877.214	9283.87
877.533	9282.06
877.852	9240.25
878.17	9266.92
878.489	9286.35
878.807	9284.32
879.125	9224.21
879.444	9231.89
879.762	9237.99
880.08	9155.96
880.398	9117.09
880.716	9154.83
881.034	9134.04
881.352	9106.47
881.67	9117.54
881.988	9113.48
882.306	9045.23
882.624	9003.2
882.941	9003.42
883.259	8978.11
883.577	8958.68
883.894	8916.64
884.212	8892.01
884.529	8896.08
884.846	8848.62
885.164	8812.92
885.481	8789.87
885.798	8860.83
886.115	8779.92
886.432	8760.04
886.75	8737.89
887.067	8744.45
887.383	8696.08
887.7	8693.37
888.017	8659.25
888.334	8688.18
888.651	8602.75
888.967	8598.23
889.284	8591
889.6	8575.41
889.917	8470.33
890.233	8523.21
890.55	8470.33
890.866	8454.74
891.182	8448.63
891.498	8435.98
891.815	8404.34
892.131	8345.81
892.447	8327.73
892.763	8367.96
893.079	8261.29
893.395	8282.08
893.71	8250.9
894.026	8259.71
894.342	8228.53
894.657	8112.82
894.973	8122.31
895.289	8102.43
895.604	8112.82
895.92	8059.27
896.235	8032.15
896.55	8047.74
896.865	8026.27
897.181	7957.12
897.496	7939.27
897.811	7887.29
898.126	7958.48
898.441	7835.54
898.756	7847.07
899.071	7755.32
899.386	7796
899.7	7759.39
900.015	7671.03
900.33	7623.12
900.644	7618.6
900.959	7641.42
901.273	7628.32
901.588	7532.5
901.902	7505.16
902.216	7503.8
902.531	7460.41
902.845	7457.93
903.159	7437.13
903.473	7342
903.787	7383.13
904.101	7388.1
904.415	7332.5
904.729	7315.56
905.042	7271.04
905.356	7221.1
905.67	7285.05
905.984	7236.46
906.297	7162.34
906.611	7153.53
906.924	7085.96
907.237	7090.48
907.551	7057.94
907.864	6995.11
908.177	7006.86
908.491	7004.15
908.804	6979.75
909.117	6886.64
909.43	6887.54
909.743	6954.44
910.056	6834.21
910.368	6771.62
910.681	6809.35
910.994	6729.36
911.307	6750.83
911.619	6677.38
911.932	6707.89
912.244	6680.54
912.557	6620.89
912.869	6577.04
913.181	6634.67
913.494	6546.54
913.806	6487.78
914.118	6541.11
914.43	6461.34
914.742	6487.78
915.054	6457.95
915.366	6347.22
915.678	6379.76
915.99	6353.1
916.302	6241.01
916.613	6284.85
916.925	6224.74
917.236	6257.96
917.548	6241.01
917.859	6139.32
918.171	6094.12
918.482	6137.96
918.794	6124.63
919.105	6121.92
919.416	6021.35
919.727	6002.6
920.038	6034.69
920.349	5984.97
920.66	5951.07
920.971	5933.22
921.282	5877.85
921.593	5899.32
921.903	5872.66
922.214	5812.77
922.525	5833.34
922.835	5788.14
923.146	5730.74
923.456	5701.81
923.767	5738.42
924.077	5735.03
924.387	5680.57
924.697	5630.4
925.008	5617.52
925.318	5610.06
925.628	5585.88
925.938	5550.63
926.248	5568.48
926.558	5506.11
926.867	5471.76
927.177	5477.41
927.487	5406.68
927.796	5387.47
928.106	5400.8
928.416	5356.29
928.725	5360.58
929.034	5324.87
929.344	5328.94
929.653	5290.07
929.962	5280.36
930.271	5234.93
930.581	5224.99
930.89	5197.19
931.199	5176.18
931.508	5125.56
931.817	5112.45
932.125	5154.94
932.434	5072.45
932.743	5033.81
933.051	5003.53
933.36	4996.07
933.669	5020.02
933.977	4954.49
934.286	4925.79
934.594	4963.08
934.902	4877.65
935.21	4893.47
935.519	4869.07
935.827	4890.99
936.135	4785
936.443	4765.34
936.751	4799.92
937.059	4811.44
937.367	4736.42
937.674	4714.27
937.982	4726.47
938.29	4679.92
938.597	4702.29
938.905	4644.67
939.213	4624.1
939.52	4633.82
939.827	4573.26
940.135	4579.13
940.442	4535.06
940.749	4535.06
941.056	4483.99
941.363	4487.38
941.67	4471.56
941.977	4460.94
942.284	4438.57
942.591	4429.3
942.898	4387.95
943.205	4367.39
943.511	4389.53
943.818	4322.64
944.125	4320.61
944.431	4308.63
944.738	4303.88
945.044	4302.08
945.35	4239.93
945.657	4222.98
945.963	4229.08
946.269	4184.79
946.575	4203.1
946.881	4162.64
947.187	4175.75
947.493	4151.35
947.799	4136.43
948.105	4091.69
948.41	4086.71
948.716	4077.9
949.022	4056.21
949.327	4074.06
949.633	4018.92
949.938	4000.39
950.244	3970.33
950.549	3924.01
950.854	3910.9
951.16	3949.09
951.465	3888.75
951.77	3876.32
952.075	3875.87
952.38	3874.52
952.685	3871.13
952.99	3814.41
953.294	3796.78
953.599	3806.27
953.904	3740.28
954.209	3755.42
954.513	3750.68
954.818	3699.15
955.122	3728.53
955.426	3700.74
955.731	3647.4
956.035	3639.49
956.339	3646.95
956.643	3662.32
956.948	3625.26
957.252	3603.79
957.556	3590.23
957.86	3532.83
958.163	3514.3
958.467	3536.67
958.771	3502.55
959.075	3537.12
959.378	3495.54
959.682	3472.27
959.985	3433.4
960.289	3373.96
960.592	3437.92
960.896	3427.75
961.199	3392.72
961.502	3386.39
961.805	3384.81
962.108	3377.13
962.411	3328.77
962.714	3339.84
963.017	3333.97
963.32	3310.46
963.623	3269.56
963.926	3262.78
964.228	3250.13
964.531	3238.83
964.833	3211.94
965.136	3205.38
965.438	3198.38
965.741	3209.9
966.043	3187.53
966.345	3174.87
966.648	3152.05
966.95	3141.88
967.252	3092.16
967.554	3106.4
967.856	3078.83
968.158	3088.55
968.46	3068.21
968.761	3091.49
969.063	3047.65
969.365	3056.23
969.666	3049.91
969.968	3014.2
970.269	3024.6
970.571	3008.78
970.872	2986.63
971.174	2929.91
971.475	2938.27
971.776	2920.42
972.077	2934.2
972.378	2888.1
972.679	2906.18
972.98	2909.57
973.281	2869.35
973.582	2863.02
973.883	2833.19
974.183	2798.39
974.484	2796.35
974.785	2795.22
975.085	2762
975.386	2782.12
975.686	2798.16
975.986	2749.8
976.287	2722.91
976.587	2754.09
976.887	2715.68
977.187	2682.23
977.487	2684.04
977.787	2672.06
978.087	2654.21
978.387	2667.99
978.687	2644.94
978.987	2637.49
979.286	2618.28
979.586	2608.79
979.885	2633.65
980.185	2569.01
980.484	2568.34
980.784	2574.21
981.083	2540.99
981.382	2558.85
981.682	2551.84
981.981	2526.08
982.28	2506.19
982.579	2489.24
982.878	2512.29
983.177	2519.3
983.475	2484.5
983.774	2460.77
984.073	2471.62
984.372	2451.05
984.67	2459.86
984.969	2450.15
985.267	2425.06
985.566	2369.92
985.864	2411.05
986.162	2383.48
986.461	2371.96
986.759	2353.2
987.057	2338.96
987.355	2364.73
987.653	2298.51
987.951	2298.96
988.249	2316.37
988.547	2288.57
988.844	2301.45
989.142	2267.1
989.44	2299.19
989.737	2246.99
990.035	2268.46
990.332	2238.85
990.63	2225.97
990.927	2222.13
991.224	2181
991.521	2202.92
991.819	2177.61
992.116	2173.77
992.413	2181.68
992.71	2200.44
993.006	2131.96
993.303	2138.52
993.6	2154.11
993.897	2124.96
994.193	2106.88
994.49	2075.02
994.787	2086.09
995.083	2065.3
995.379	2030.27
995.676	2058.07
995.972	2058.29
996.268	2009.48
996.565	2027.79
996.861	2014.45
997.157	2008.13
997.453	1995.02
997.749	1954.12
998.044	1980.33
998.34	1976.94
998.636	1959.09
998.932	1935.13
999.227	1915.92
999.523	1926.32
999.818	1916.38
1000.114	1885.64
1000.409	1886.55
1000.704	1895.36
1001	1873.67
1001.295	1888.13
1001.59	1872.31
1001.885	1852.42
1002.18	1836.6
1002.475	1840.9
1002.77	1835.25
1003.065	1792.31
1003.359	1796.38
1003.654	1786.44
1003.949	1816.04
1004.243	1795.7
1004.538	1781.69
1004.832	1751.63
1005.127	1761.58
1005.421	1695.14
1005.715	1715.93
1006.009	1717.96
1006.304	1735.14
1006.598	1705.99
1006.892	1695.14
1007.186	1660.11
1007.48	1681.81
1007.773	1673.22
1008.067	1660.79
1008.361	1646.78
1008.655	1609.27
1008.948	1624.86
1009.242	1634.58
1009.535	1600.68
1009.829	1601.81
1010.122	1605.2
1010.415	1606.33
1010.708	1564.3
1011.001	1562.94
1011.295	1561.13
1011.588	1583.73
1011.881	1538.53
1012.173	1517.06
1012.466	1526.78
1012.759	1519.55
1013.052	1540.11
1013.344	1508.7
1013.637	1496.27
1013.93	1460.34
1014.222	1463.05
1014.514	1465.31
1014.807	1452.21
1015.099	1416.5
1015.391	1458.54
1015.683	1433.45
1015.976	1438.87
1016.268	1423.51
1016.56	1398.2
1016.851	1382.6
1017.143	1427.58
1017.435	1391.64
1017.727	1378.76
1018.018	1362.49
1018.31	1357.52
1018.602	1341.93
1018.893	1345.32
1019.185	1353.45
1019.476	1330.85
1019.767	1315.94
1020.058	1320.23
1020.35	1299.44
1020.641	1300.57
1020.932	1313.91
1021.223	1262.61
1021.514	1301.03
1021.804	1263.06
1022.095	1270.97
1022.386	1261.93
1022.677	1225.32
1022.967	1209.28
1023.258	1219.9
1023.548	1215.15
1023.839	1217.19
1024.129	1201.37
1024.419	1190.75
1024.709	1190.97
1025	1155.27
1025.29	1188.03
1025.58	1170.86
1025.87	1143.06
1026.16	1146
1026.449	1144.42
1026.739	1135.38
1027.029	1133.8
1027.319	1116.62
1027.608	1114.14
1027.898	1094.48
1028.187	1074.82
1028.477	1075.72
1028.766	1063.97
1029.055	1080.69
1029.344	1064.87
1029.634	1056.96
1029.923	1051.77
1030.212	1050.41
1030.501	1037.98
1030.79	1034.37
1031.078	1041.6
1031.367	1023.97
1031.656	1024.42
1031.945	1009.28
1032.233	1017.19
1032.522	999.56
1032.81	990.75
1033.099	1013.12
1033.387	993.24
1033.675	970.41
1033.963	943.52
1034.251	967.93
1034.54	966.8
1034.828	945.33
1035.116	928.38
1035.403	914.14
1035.691	924.54
1035.979	941.49
1036.267	932.22
1036.554	939
1036.842	932.22
1037.129	911.66
1037.417	892.22
1037.704	898.32
1037.992	883.41
1038.279	898.1
1038.566	862.17
1038.853	862.17
1039.14	862.17
