Data from hue_190_FLMS001491_00082.txt Node
Date: Tue Feb 07 16:45:53 GMT 2017
User: dcchb
Spectrometer: FLMS00149
Trigger mode: 0
Integration Time (sec): 2.000000E-2
Scans to average: 10
Electric dark correction enabled: true
Nonlinearity correction enabled: false
Boxcar width: 0
XAxis mode: Wavelengths
Number of Pixels in Spectrum: 2048
>>>>>Begin Spectral Data<<<<<
341.393	-21.54
341.776	-21.54
342.16	-21.54
342.543	-62.67
342.927	-56.11
343.31	-67.64
343.693	-53.85
344.077	-70.8
344.46	-51.82
344.843	-69.9
345.226	-33.74
345.61	-21.54
345.993	-21.31
346.376	-12.5
346.759	-2.56
347.142	23.88
347.525	35.18
347.908	47.39
348.291	85.35
348.674	94.62
349.057	119.25
349.44	112.69
349.823	129.42
350.206	157.67
350.588	160.6
350.971	212.13
351.354	225.23
351.737	200.6
352.119	238.57
352.502	249.41
352.884	271.33
353.267	285.12
353.65	285.8
354.032	291.22
354.414	312.69
354.797	314.72
355.179	308.4
355.562	302.97
355.944	324.89
356.326	321.73
356.709	332.35
357.091	327.6
357.473	330.09
357.855	338
358.238	328.28
358.62	348.62
359.002	330.99
359.384	337.77
359.766	331.22
360.148	327.15
360.53	331.67
360.912	323.08
361.294	323.99
361.676	337.77
362.057	321.73
362.439	319.24
362.821	316.98
363.203	329.19
363.584	328.28
363.966	312.24
364.348	314.05
364.729	322.63
365.111	307.49
365.493	308.85
365.874	330.32
366.256	315.4
366.637	316.76
367.019	313.37
367.4	314.5
367.781	321.95
368.163	321.28
368.544	288.28
368.925	300.94
369.306	305.23
369.688	294.38
370.069	312.69
370.45	331.45
370.831	305.01
371.212	308.4
371.593	295.06
371.974	307.49
372.355	290.54
372.736	314.05
373.117	322.63
373.498	309.07
373.879	324.44
374.26	319.69
374.641	316.31
375.021	318.57
375.402	298.23
375.783	316.98
376.163	305.01
376.544	328.96
376.925	303.42
377.305	337.55
377.686	315.85
378.066	309.53
378.447	343.2
378.827	323.76
379.208	334.38
379.588	327.15
379.968	333.48
380.349	323.99
380.729	351.56
381.109	321.95
381.489	335.29
381.87	342.75
382.25	303.42
382.63	317.21
383.01	346.36
383.39	344.55
383.77	347.04
384.15	338
384.53	337.32
384.91	345.91
385.29	330.99
385.67	317.89
386.049	339.13
386.429	347.04
386.809	353.82
387.189	343.88
387.568	345.01
387.948	366.02
388.328	343.42
388.707	347.26
389.087	353.14
389.466	353.82
389.846	360.82
390.225	351.56
390.605	355.85
390.984	352.69
391.363	391.11
391.743	368.51
392.122	368.96
392.501	365.12
392.881	371.67
393.26	351.56
393.639	395.85
394.018	374.38
394.397	379.35
394.776	387.26
395.155	381.39
395.534	386.81
395.913	388.17
396.292	396.53
396.671	396.53
397.05	378.9
397.429	402.18
397.808	368.06
398.186	407.83
398.565	398.56
398.944	386.36
399.323	406.47
399.701	391.78
400.08	399.24
400.458	399.24
400.837	426.58
401.215	407.38
401.594	411.67
401.972	413.25
402.351	415.06
402.729	418
403.107	412.8
403.486	416.19
403.864	416.64
404.242	419.13
404.62	439.69
404.999	424.33
405.377	441.5
405.755	436.53
406.133	451.22
406.511	437.66
406.889	455.74
407.267	481.27
407.645	468.39
408.023	473.82
408.401	483.08
408.779	495.06
409.156	482.85
409.534	490.54
409.912	492.57
410.29	509.29
410.667	523.53
411.045	530.76
411.422	533.02
411.8	540.93
412.178	545.68
412.555	560.14
412.933	551.1
413.31	564.21
413.687	576.64
414.065	550.2
414.442	589.29
414.819	629.07
415.197	592
415.574	615.51
415.951	624.77
416.328	616.64
416.705	614.83
417.082	632.91
417.46	656.86
417.837	672
418.214	651.21
418.591	668.84
418.967	676.3
419.344	690.98
419.721	705
420.098	712.23
420.475	722.4
420.852	713.36
421.228	712.23
421.605	731.89
421.982	771.89
422.358	774.82
422.735	790.42
423.111	782.06
423.488	779.57
423.864	821.38
424.241	828.83
424.617	864.09
424.994	848.72
425.37	862.96
425.746	881.49
426.123	875.84
426.499	901.6
426.875	918.78
427.251	918.78
427.627	936.18
428.003	962.84
428.379	948.61
428.756	1000.58
429.132	1006.91
429.507	1004.42
429.883	1004.87
430.259	1051.2
430.635	1038.09
431.011	1065.21
431.387	1096.4
431.763	1082.84
432.138	1084.65
432.514	1137.53
432.89	1146.79
433.265	1140.69
433.641	1201.25
434.016	1161.93
434.392	1215.49
434.767	1237.86
435.143	1237.41
435.518	1259.78
435.894	1289.84
436.269	1308.37
436.644	1325.77
437.02	1341.82
437.395	1377.52
437.77	1413.23
438.145	1419.55
438.52	1455.48
438.895	1485.54
439.271	1491.42
439.646	1526.89
440.021	1529.15
440.395	1516.5
440.77	1513.79
441.145	1579.55
441.52	1593.79
441.895	1626.78
442.27	1648.7
442.645	1641.47
443.019	1667.46
443.394	1693.22
443.769	1714.01
444.143	1754.23
444.518	1743.39
444.892	1765.98
445.267	1763.27
445.641	1806.21
446.016	1815.02
446.39	1823.38
446.764	1831.75
447.139	1826.55
447.513	1883.04
447.887	1869.94
448.262	1872.87
448.636	1882.82
449.01	1920.56
449.384	1932.08
449.758	1943.16
450.132	1969.37
450.506	2002.81
450.88	2018.41
451.254	2024.51
451.628	2052.76
452.002	2046.43
452.376	2057.95
452.75	2124.39
453.123	2123.04
453.497	2178.63
453.871	2198.97
454.244	2207.33
454.618	2227.44
454.992	2276.48
455.365	2297.72
455.739	2347.66
456.112	2363.26
456.486	2364.16
456.859	2397.15
457.232	2429.92
457.606	2452.07
457.979	2502.01
458.352	2562.8
458.725	2575.23
459.099	2618.17
459.472	2636.02
459.845	2667.43
460.218	2676.24
460.591	2734.55
460.964	2737.94
461.337	2789.91
461.71	2836.69
462.083	2900.42
462.456	2862.23
462.829	2911.72
463.201	2949.91
463.574	2976.35
463.947	3017.48
464.32	3040.53
464.692	3133.63
465.065	3119.4
465.438	3170.02
465.81	3235.55
466.183	3264.7
466.555	3311.25
466.928	3351.25
467.3	3366.39
467.672	3451.82
468.045	3507.86
468.417	3533.85
468.789	3504.7
469.161	3627.18
469.534	3679.38
469.906	3732.03
470.278	3743.56
470.65	3837.79
471.022	3915.98
471.394	3925.7
471.766	3989.88
472.138	4042.99
472.51	4135.41
472.882	4235.52
473.253	4280.95
473.625	4358.68
473.997	4408.4
474.369	4417.89
474.74	4495.18
475.112	4576.31
475.484	4633.71
475.855	4771.56
476.227	4815.17
476.598	4919.57
476.97	4980.82
477.341	5055.84
477.713	5179.68
478.084	5180.58
478.455	5330.41
478.827	5423.97
479.198	5532.67
479.569	5610.4
479.94	5673.9
480.311	5787.12
480.682	5818.76
481.053	6121.35
481.424	6143.04
481.795	6210.16
482.166	6284.51
482.537	6347.56
482.908	6531.96
483.279	6577.38
483.65	6687.66
484.021	6823.7
484.391	6938.05
484.762	6985.96
485.133	7061.66
485.503	7123.81
485.874	7300.53
486.244	7391.6
486.615	7527.87
486.985	7627.75
487.356	7744.58
487.726	7830.23
488.097	7975.99
488.467	7978.25
488.837	8173.05
489.207	8223.22
489.578	8334.17
489.948	8451.91
490.318	8618.69
490.688	8584.11
491.058	8780.04
491.428	8867.27
491.798	8898.23
492.168	9098.9
492.538	9114.04
492.908	9200.37
493.278	9333.02
493.648	9294.37
494.017	9446.69
494.387	9478.32
494.757	9571.43
495.126	9667.25
495.496	9685.78
495.866	9719.67
496.235	9789.95
496.605	9935.26
496.974	9984.3
497.344	10067.69
497.713	10145.65
498.082	10191.07
498.452	10288.25
498.821	10267.91
499.19	10308.58
499.559	10397.62
499.928	10437.85
500.298	10435.81
500.667	10475.36
501.036	10528.47
501.405	10577.5
501.774	10592.42
502.143	10680.1
502.512	10674
502.88	10846.88
503.249	10715.81
503.618	10865.86
503.987	10898.4
504.356	10969.58
504.724	10948.12
505.093	11037.38
505.462	10898.17
505.83	11034.22
506.199	11141.33
506.567	11174.1
506.936	11184.72
507.304	11233.76
507.672	11262.68
508.041	11333.64
508.409	11401.21
508.777	11360.76
509.145	11391.72
509.514	11402.57
509.882	11504.03
510.25	11472.17
510.618	11401.21
510.986	11519.85
511.354	11587.2
511.722	11529.12
512.09	11668.1
512.458	11658.38
512.826	11681.66
513.193	11671.49
513.561	11698.38
513.929	11728.89
514.297	11833.97
514.664	11816.12
515.032	11785.16
515.4	11869
515.767	11883.68
516.135	11918.26
516.502	11760.07
516.869	11952.38
517.237	11883.91
517.604	11891.37
517.972	11967.75
518.339	11928.88
518.706	11912.61
519.073	11966.39
519.44	11979.28
519.808	12053.17
520.175	12031.03
520.542	12099.05
520.909	12148.31
521.276	12076.45
521.643	12137.01
522.009	12135.2
522.376	12103.11
522.743	12117.58
523.11	12201.19
523.477	12221.98
523.843	12269.89
524.21	12242.32
524.577	12276.44
524.943	12279.15
525.31	12303.56
525.676	12315.54
526.043	12407.96
526.409	12310.11
526.776	12431.92
527.142	12291.36
527.508	12278.48
527.874	12342.88
528.241	12357.34
528.607	12398.93
528.973	12395.08
529.339	12226.5
529.705	12341.98
530.071	12381.3
530.437	12288.65
530.803	12353.73
531.169	12229.89
531.535	12280.06
531.901	12215.43
532.267	12278.7
532.632	12163.68
532.998	12128.88
533.364	12229.66
533.73	12161.87
534.095	12102.89
534.461	12020.4
534.826	12057.01
535.192	11933.4
535.557	11984.47
535.923	11934.76
536.288	11974.53
536.653	11957.58
537.019	11776.79
537.384	11870.35
537.749	11753.52
538.114	11725.27
538.479	11677.81
538.845	11673.97
539.21	11594.43
539.575	11603.92
539.94	11527.54
540.305	11576.35
540.67	11433.75
541.034	11378.61
541.399	11357.82
541.764	11284.38
542.129	11327.09
542.494	11204.83
542.858	11192.63
543.223	11183.14
543.587	11107.89
543.952	11070.37
544.316	11072.41
544.681	10942.01
545.045	10901.79
545.41	10898.63
545.774	10860.21
546.138	10768.69
546.503	10780.89
546.867	10667.45
547.231	10649.59
547.595	10698.86
547.959	10593.78
548.324	10570.27
548.688	10545.19
549.052	10452.99
549.416	10432.2
549.779	10413.21
550.143	10385.42
550.507	10363.5
550.871	10314.91
551.235	10168.7
551.599	10189.04
551.962	10144.3
552.326	10137.74
552.689	10111.98
553.053	10006.67
553.417	10036.73
553.78	9998.08
554.143	9990.18
554.507	9907.47
554.87	9911.99
555.234	9896.62
555.597	9821.59
555.96	9822.27
556.323	9737.07
556.686	9811.87
557.05	9765.1
557.413	9709.5
557.776	9765.77
558.139	9656.17
558.502	9676.74
558.865	9630.41
559.228	9630.41
559.59	9640.58
559.953	9588.83
560.316	9662.05
560.679	9598.77
561.041	9661.6
561.404	9605.1
561.767	9599.45
562.129	9536.4
562.492	9591.32
562.854	9596.97
563.217	9486.46
563.579	9533.92
563.941	9539.11
564.304	9560.13
564.666	9575.27
565.028	9527.81
565.39	9451.66
565.753	9535.27
566.115	9509.96
566.477	9562.62
566.839	9521.49
567.201	9548.83
567.563	9593.58
567.925	9565.1
568.287	9525.78
568.648	9563.97
569.01	9582.28
569.372	9577.3
569.734	9469.51
570.095	9589.06
570.457	9584.76
570.819	9549.96
571.18	9530.98
571.542	9593.12
571.903	9509.51
572.265	9516.29
572.626	9607.36
572.987	9522.62
573.349	9606.23
573.71	9541.37
574.071	9595.16
574.432	9598.32
574.794	9659.79
575.155	9618.43
575.516	9570.75
575.877	9639
576.238	9586.8
576.599	9614.59
576.96	9631.09
577.32	9572.79
577.681	9589.06
578.042	9596.74
578.403	9645.78
578.763	9555.61
579.124	9510.19
579.485	9634.03
579.845	9604.65
580.206	9568.04
580.566	9564.88
580.927	9591.32
581.287	9579.56
581.648	9559.68
582.008	9644.42
582.368	9582.95
582.728	9590.41
583.089	9498.44
583.449	9576.4
583.809	9478.78
584.169	9516.29
584.529	9537.53
584.889	9513.8
585.249	9474.26
585.609	9493.01
585.969	9487.82
586.329	9392.22
586.688	9504.99
587.048	9452.79
587.408	9372.56
587.768	9408.04
588.127	9391.09
588.487	9363.07
588.846	9428.83
589.206	9395.39
589.565	9402.62
589.925	9407.14
590.284	9315.39
590.643	9352.23
591.003	9424.09
591.362	9462.73
591.721	9336.86
592.08	9409.85
592.44	9441.26
592.799	9303.64
593.158	9311.1
593.517	9340.7
593.876	9397.2
594.235	9256.18
594.593	9301.83
594.952	9302.28
595.311	9284.21
595.67	9320.81
596.029	9285.56
596.387	9312.45
596.746	9335.05
597.104	9317.2
597.463	9265.22
597.822	9247.82
598.18	9231.55
598.538	9209.63
598.897	9339.8
599.255	9178.22
599.613	9347.71
599.972	9234.49
600.33	9283.75
600.688	9274.26
601.046	9191.55
601.404	9220.93
601.762	9249.18
602.12	9275.62
602.478	9307.03
602.836	9236.97
603.194	9197.2
603.552	9154.72
603.91	9180.48
604.268	9178.9
604.625	9181.61
604.983	9230.2
605.341	9243.08
605.698	9222.06
606.056	9282.4
606.413	9274.94
606.771	9330.31
607.128	9294.83
607.485	9239.01
607.843	9207.6
608.2	9238.56
608.557	9305
608.914	9256.41
609.272	9236.07
609.629	9248.05
609.986	9277.2
610.343	9296.86
610.7	9346.8
611.057	9300.02
611.414	9307.03
611.771	9244.21
612.127	9314.03
612.484	9345.67
612.841	9326.92
613.198	9307.93
613.554	9395.84
613.911	9377.31
614.267	9311.77
614.624	9370.98
614.98	9373.24
615.337	9375.95
615.693	9375.95
616.05	9369.17
616.406	9386.58
616.762	9396.97
617.118	9405.33
617.475	9376.18
617.831	9412.79
618.187	9418.89
618.543	9438.78
618.899	9471.77
619.255	9456.86
619.611	9389.74
619.967	9458.44
620.323	9480.36
620.678	9481.04
621.034	9399.91
621.39	9475.16
621.746	9403.98
622.101	9487.59
622.457	9461.6
622.812	9433.13
623.168	9459.79
623.523	9474.26
623.879	9518.1
624.234	9386.35
624.589	9449.17
624.945	9442.17
625.3	9479.68
625.655	9479.68
626.01	9557.42
626.365	9418.44
626.72	9438.33
627.075	9445.33
627.43	9375.05
627.785	9398.1
628.14	9402.39
628.495	9393.81
628.85	9394.48
629.205	9331.21
629.559	9407.59
629.914	9405.11
630.269	9361.72
630.623	9349.29
630.978	9379.12
631.332	9367.59
631.687	9399.23
632.041	9381.83
632.396	9365.56
632.75	9303.41
633.104	9312.23
633.459	9234.04
633.813	9285.33
634.167	9256.18
634.521	9218.22
634.875	9280.82
635.229	9243.3
635.583	9101.38
635.937	9158.78
636.291	9185.68
636.645	9166.47
636.999	9104.77
637.352	9184.77
637.706	9096.64
638.06	9105.68
638.413	9174.6
638.767	9145.45
639.121	9132.57
639.474	9088.05
639.828	9118.56
640.181	9096.64
640.534	9099.58
640.888	9093.25
641.241	8996.98
641.594	9026.36
641.947	9122.63
642.301	9060.26
642.654	9066.13
643.007	9095.28
643.36	9017.09
643.713	8995.63
644.066	9041.05
644.419	8943.2
644.771	8934.38
645.124	8822.07
645.477	8822.3
645.83	8804.9
646.182	8727.84
646.535	8670.66
646.888	8734.61
647.24	8661.4
647.593	8698.46
647.945	8645.58
648.298	8687.16
648.65	8615.07
649.002	8617.1
649.355	8701.85
649.707	8723.09
650.059	8783.65
650.411	8816.19
650.763	8829.08
651.115	8897.77
651.467	8901.62
651.819	8812.13
652.171	8838.57
652.523	8772.58
652.875	8768.51
653.227	8810.55
653.578	8778
653.93	8842.18
654.282	8763.09
654.633	8772.13
654.985	8816.65
655.337	8835.4
655.688	8773.71
656.039	8891.67
656.391	8794.73
656.742	8824.33
657.094	8852.13
657.445	8864.56
657.796	8843.09
658.147	8839.7
658.498	8839.02
658.849	8828.17
659.2	8787.27
659.551	8824.56
659.902	8881.28
660.253	8900.49
660.604	8886.48
660.955	8803.09
661.306	8873.59
661.656	8849.64
662.007	8859.58
662.358	8897.55
662.708	8873.82
663.059	8846.48
663.409	8902.29
663.76	8956.3
664.11	8943.2
664.461	8888.51
664.811	8926.25
665.161	8929.86
665.511	8890.54
665.862	8880.6
666.212	8861.62
666.562	8945.46
666.912	8938.23
667.262	8890.32
667.612	8888.28
667.962	8902.75
668.312	8942.29
668.662	8935.06
669.011	8908.17
669.361	8865.68
669.711	8887.15
670.06	8901.62
670.41	8853.93
670.76	8872.24
671.109	8848.96
671.459	8868.85
671.808	8810.77
672.157	8835.4
672.507	8792.47
672.856	8813.26
673.205	8889.19
673.554	8811.22
673.904	8796.76
674.253	8832.69
674.602	8776.65
674.951	8698.91
675.3	8599.48
675.649	8753.15
675.998	8683.32
676.346	8754.95
676.695	8728.51
677.044	8775.74
677.393	8813.48
677.741	8726.48
678.09	8623.66
678.438	8701.85
678.787	8661.85
679.135	8670.66
679.484	8662.07
679.832	8724.9
680.181	8633.15
680.529	8589.08
680.877	8623.66
681.225	8577.78
681.573	8579.14
681.922	8539.59
682.27	8485.13
682.618	8560.16
682.966	8490.78
683.314	8516.54
683.661	8497.33
684.009	8451.01
684.357	8432.25
684.705	8344.57
685.053	8444
685.4	8421.4
685.748	8372.59
686.095	8384.57
686.443	8325.36
686.79	8263.89
687.138	8338.47
687.485	8317.45
687.832	8254.4
688.18	8277.23
688.527	8204.23
688.874	8224.8
689.221	8169.43
689.568	8206.04
689.915	8150.45
690.262	8064.12
690.609	8051.47
690.956	8042.66
691.303	8075.42
691.65	8063.67
691.997	8009.21
692.344	8015.76
692.69	7885.82
693.037	7949.32
693.383	7856.22
693.73	7856.9
694.077	7780.06
694.423	7799.5
694.769	7768.99
695.116	7768.76
695.462	7776.67
695.808	7750.23
696.155	7706.85
696.501	7671.59
696.847	7630.01
697.193	7570.13
697.539	7679.73
697.885	7511.37
698.231	7495.55
698.577	7480.41
698.923	7486.06
699.269	7422.79
699.614	7382.11
699.96	7333.75
700.306	7361.54
700.651	7366.52
700.997	7261.89
701.342	7300.75
701.688	7275.22
702.033	7235.9
702.379	7212.85
702.724	7186.41
703.069	7191.6
703.415	7130.59
703.76	7168.33
704.105	7117.48
704.45	7105.96
704.795	7055.11
705.14	7063.02
705.485	7009.01
705.83	6939.63
706.175	6961.78
706.52	6939.63
706.865	6896.7
707.209	6937.6
707.554	6896.7
707.899	6934.89
708.243	6827.32
708.588	6851.5
708.932	6801.11
709.277	6755.68
709.621	6810.6
709.966	6738.28
710.31	6741.9
710.654	6684.27
710.998	6678.85
711.342	6711.84
711.687	6667.1
712.031	6617.16
712.375	6651.96
712.719	6599.53
713.063	6608.12
713.407	6599.53
713.75	6589.36
714.094	6602.69
714.438	6508.91
714.782	6532.64
715.125	6560.43
715.469	6546.65
715.812	6498.06
716.156	6482.7
716.499	6520.66
716.843	6494.67
717.186	6441.34
717.53	6455.13
717.873	6525.86
718.216	6435.47
718.559	6430.49
718.902	6370.84
719.246	6425.75
719.589	6331.51
719.932	6407.9
720.275	6351.85
720.617	6366.09
720.96	6369.25
721.303	6368.58
721.646	6370.16
721.989	6260.56
722.331	6372.19
722.674	6305.75
723.016	6326.09
723.359	6279.54
723.701	6306.43
724.044	6279.99
724.386	6248.8
724.729	6351.4
725.071	6285.64
725.413	6304.17
725.755	6264.85
726.097	6240.22
726.439	6262.59
726.782	6202.25
727.124	6277.96
727.465	6235.47
727.807	6254.23
728.149	6216.26
728.491	6247.9
728.833	6221.91
729.175	6231.4
729.516	6167.45
729.858	6194.79
730.199	6204.96
730.541	6199.31
730.882	6214.68
731.224	6235.25
731.565	6193.44
731.906	6181.24
732.248	6236.15
732.589	6208.13
732.93	6205.87
733.271	6204.06
733.612	6204.96
733.953	6257.17
734.294	6180.56
734.635	6153.89
734.976	6159.54
735.317	6175.81
735.658	6216.26
735.999	6251.06
736.339	6217.62
736.68	6234.79
737.021	6253.55
737.361	6194.34
737.702	6245.19
738.042	6225.3
738.383	6243.61
738.723	6249.48
739.063	6245.41
739.404	6245.87
739.744	6213.78
740.084	6265.98
740.424	6309.37
740.764	6312.31
741.104	6280.22
741.444	6267.79
741.784	6313.21
742.124	6333.1
742.464	6386.88
742.804	6309.82
743.143	6334
743.483	6370.38
743.823	6406.09
744.162	6448.35
744.502	6457.16
744.841	6484.28
745.181	6541
745.52	6530.38
745.86	6542.81
746.199	6576.93
746.538	6608.57
746.877	6682.47
747.216	6744.84
747.556	6737.83
747.895	6781.22
748.234	6822.57
748.573	6877.49
748.911	6904.38
749.25	7002.01
749.589	7031.38
749.928	7054.66
750.267	7160.87
750.605	7241.55
750.944	7269.34
751.283	7272.28
751.621	7430.02
751.96	7485.16
752.298	7505.04
752.636	7636.11
752.975	7749.56
753.313	7813.06
753.651	7958.59
753.989	7981.41
754.327	8167.17
754.666	8180.05
755.004	8316.32
755.342	8534.85
755.679	8564.9
756.017	8762.41
756.355	8892.8
756.693	8970.77
757.031	9185.22
757.368	9211.44
757.706	9407.14
758.044	9518.1
758.381	9640.13
758.719	9849.16
759.056	10031.08
759.394	10118.53
759.731	10261.13
760.068	10422.03
760.405	10657.5
760.743	10739.08
761.08	10915.8
761.417	11002.8
761.754	11260.65
762.091	11504.94
762.428	11608.89
762.765	11711.71
763.102	11986.96
763.438	12115.09
763.775	12209.55
764.112	12509.2
764.449	12724.11
764.785	12865.81
765.122	12960.04
765.458	13034.16
765.795	13174.27
766.131	13423.53
766.467	13551.44
766.804	13744.2
767.14	13803.86
767.476	14038.2
767.812	14127.02
768.148	14376.95
768.485	14460.57
768.821	14533.56
769.157	14719.32
769.492	14818.07
769.828	15043.38
770.164	15056.93
770.5	15225.74
770.836	15325.4
771.171	15390.26
771.507	15552.97
771.842	15504.15
772.178	15780.53
772.513	15797.03
772.849	15927.87
773.184	15977.81
773.519	16128.77
773.855	16144.59
774.19	16274.98
774.525	16277.02
774.86	16417.8
775.195	16545.26
775.53	16594.97
775.865	16532.83
776.2	16657.12
776.535	16719.04
776.87	16757.23
777.205	16836.32
777.539	16878.36
777.874	16954.29
778.209	16982.76
778.543	16936.89
778.878	16965.13
779.212	17079.25
779.547	17005.58
779.881	17217.33
780.215	17069.76
780.55	17274.5
780.884	17197.9
781.218	17216.65
781.552	17318.34
781.886	17301.4
782.22	17397.44
782.554	17241.28
782.888	17226.6
783.222	17207.16
783.556	17247.84
783.889	17322.41
784.223	17137.56
784.557	17187.73
784.89	17312.02
785.224	17318.57
785.557	17251.68
785.891	17200.83
786.224	17250.32
786.558	17266.37
786.891	17175.3
787.224	17088.52
787.557	17093.94
787.891	17129.2
788.224	17180.27
788.557	17157.67
788.89	17196.54
789.223	17091.23
789.556	17154.96
789.888	17043.55
790.221	17076.99
790.554	17098.01
790.887	17103.21
791.219	16977.34
791.552	17051.01
791.884	16919.03
792.217	16844.46
792.549	16892.14
792.882	16856.89
793.214	16749.09
793.546	16853.05
793.879	16764.23
794.211	16621.41
794.543	16773.05
794.875	16605.14
795.207	16780.28
795.539	16764.91
795.871	16765.82
796.203	16571.47
796.535	16435.88
796.867	16538.03
797.198	16545.48
797.53	16518.37
797.862	16379.39
798.193	16414.64
798.525	16292.83
798.856	16298.48
799.188	16237.24
799.519	16335.55
799.85	16164.93
800.182	16242.21
800.513	16191.37
800.844	16068.66
801.175	16157.47
801.506	16116.57
801.837	16090.13
802.168	16049.45
802.499	15961.09
802.83	15802.23
803.161	15937.59
803.491	15910.7
803.822	15807.65
804.153	15820.3
804.483	15688.56
804.814	15729.69
805.145	15663.47
805.475	15665.96
805.805	15585.28
806.136	15618.28
806.466	15567.88
806.796	15642.46
807.126	15421.44
807.457	15456.47
807.787	15387.32
808.117	15456.92
808.447	15346.42
808.777	15407.89
809.107	15211.28
809.436	15291.05
809.766	15271.17
810.096	15160.43
810.426	15160.66
810.755	15176.03
811.085	15132.86
811.414	15071.17
811.744	15077.05
812.073	14991.17
812.403	15060.1
812.732	14878.86
813.061	14930.61
813.39	14872.98
813.719	14859.88
814.049	14819.88
814.378	14821.69
814.707	14789.15
815.036	14820.78
815.365	14782.82
815.693	14621.92
816.022	14654.91
816.351	14615.59
816.68	14518.87
817.008	14547.34
817.337	14455.14
817.665	14422.15
817.994	14553.67
818.322	14497.85
818.651	14392.09
818.979	14403.39
819.307	14443.39
819.636	14438.87
819.964	14366.56
820.292	14397.06
820.62	14378.08
820.948	14326.56
821.276	14362.26
821.604	14270.74
821.932	14281.59
822.259	14336.5
822.587	14299.89
822.915	14223.96
823.243	14416.95
823.57	14331.08
823.898	14319.33
824.225	14202.72
824.553	14251.98
824.88	14267.35
825.207	14337.41
825.535	14350.74
825.862	14279.78
826.189	14188.48
826.516	14321.36
826.843	14257.18
827.17	14360.23
827.497	14382.83
827.824	14370.17
828.151	14428.93
828.478	14397.52
828.805	14424.41
829.131	14338.99
829.458	14287.24
829.785	14324.52
830.111	14301.02
830.438	14398.42
830.764	14347.8
831.09	14350.51
831.417	14239.78
831.743	14446.78
832.069	14333.79
832.395	14369.04
832.722	14343.51
833.048	14294.24
833.374	14359.33
833.7	14241.14
834.026	14324.3
834.351	14292.66
834.677	14276.84
835.003	14272.77
835.329	14200.46
835.654	14248.59
835.98	14125.43
836.306	14176.96
836.631	14134.92
836.956	14171.99
837.282	14202.72
837.607	14058.54
837.932	14090.41
838.258	14076.4
838.583	14091.08
838.908	13950.52
839.233	13938.32
839.558	13974.93
839.883	13881.15
840.208	13888.38
840.533	13825.1
840.858	13904.65
841.182	13782.62
841.507	13844.99
841.832	13798.66
842.156	13802.28
842.481	13785.1
842.805	13667.82
843.13	13706.01
843.454	13640.02
843.778	13633.92
844.103	13599.35
844.427	13577.2
844.751	13503.98
845.075	13473.47
845.399	13458.11
845.723	13339.92
846.047	13458.11
846.371	13273.25
846.695	13320.94
847.019	13280.48
847.343	13119.58
847.666	13106.03
847.99	13009.98
848.313	13045.69
848.637	12907.39
848.96	12944.67
849.284	12833.94
849.607	12842.98
849.931	12798.69
850.254	12769.54
850.577	12628.52
850.9	12552.14
851.223	12536.32
851.546	12585.59
851.869	12334.52
852.192	12534.29
852.515	12423.56
852.838	12345.59
853.161	12357.8
853.483	12215.88
853.806	12218.14
854.129	12227.63
854.451	12111.02
854.774	12074.19
855.096	11957.13
855.419	12039.39
855.741	12044.81
856.063	11900.63
856.385	11930.92
856.708	11834.19
857.03	11819.05
857.352	11877.58
857.674	11803.46
857.996	11740.64
858.318	11558.72
858.64	11680.3
858.961	11624.93
859.283	11578.38
859.605	11569.34
859.926	11558.5
860.248	11483.02
860.57	11531.38
860.891	11456.58
861.212	11380.2
861.534	11358.95
861.855	11369.57
862.176	11317.15
862.498	11343.81
862.819	11316.47
863.14	11241.89
863.461	11241.89
863.782	11221.1
864.103	11191.95
864.424	11195.79
864.745	11165.06
865.065	11085.74
865.386	11046.42
865.707	11115.57
866.027	11029.47
866.348	11024.27
866.668	11033.31
866.989	11087.77
867.309	10921
867.63	11009.13
867.95	10962.35
868.27	10933.43
868.59	10930.72
868.91	10890.94
869.23	10880.55
869.55	10756.71
869.87	10929.81
870.19	10784.28
870.51	10782.02
870.83	10808.01
871.15	10764.84
871.469	10805.75
871.789	10775.01
872.109	10720.33
872.428	10696.6
872.748	10762.58
873.067	10709.25
873.386	10725.3
873.706	10638.52
874.025	10628.12
874.344	10566.43
874.663	10651.85
874.982	10672.64
875.301	10566.43
875.62	10520.33
875.939	10521.01
876.258	10590.61
876.577	10447.79
876.896	10417.51
877.214	10488.92
877.533	10492.53
877.852	10435.36
878.17	10485.3
878.489	10385.65
878.807	10367.79
879.125	10385.65
879.444	10368.92
879.762	10330.51
880.08	10301.13
880.398	10325.08
880.716	10267.68
881.034	10197.18
881.352	10228.81
881.67	10172.32
881.988	10155.14
882.306	10154.01
882.624	10107.01
882.941	10055.71
883.259	10059.33
883.577	10062.94
883.894	10031.08
884.212	9999.44
884.529	10078.53
884.846	10071.08
885.164	9973.23
885.481	9971.19
885.798	10002.83
886.115	9846
886.432	9856.62
886.75	9872.66
887.067	9914.47
887.383	9839.9
887.7	9814.59
888.017	9789.73
888.334	9810.07
888.651	9703.4
888.967	9722.39
889.284	9662.95
889.6	9639
889.917	9578.66
890.233	9654.82
890.55	9523.75
890.866	9496.63
891.182	9499.34
891.498	9460.02
891.815	9370.08
892.131	9421.38
892.447	9328.5
892.763	9366.69
893.079	9342.96
893.395	9297.31
893.71	9283.53
894.026	9241.27
894.342	9291.21
894.657	9163.53
894.973	9149.75
895.289	9153.81
895.604	9128.05
895.92	9009.18
896.235	8973.25
896.55	8987.26
896.865	8941.84
897.181	8876.76
897.496	8935.51
897.811	8823.65
898.126	8834.27
898.441	8749.76
898.756	8727.61
899.071	8728.29
899.386	8690.55
899.7	8688.06
900.015	8722.86
900.33	8593.38
900.644	8560.38
900.959	8590.66
901.273	8499.59
901.588	8490.1
901.902	8420.05
902.216	8413.49
902.531	8368.52
902.845	8402.19
903.159	8362.2
903.473	8325.13
903.787	8248.07
904.101	8171.47
904.415	8152.03
904.729	8174.63
905.042	8109.77
905.356	8150.45
905.67	8062.99
905.984	8091.92
906.297	8047.4
906.611	7982.54
906.924	7986.39
907.237	7925.82
907.551	7927.4
907.864	7863.23
908.177	7816.67
908.491	7849.21
908.804	7759.73
909.117	7676.56
909.43	7681.76
909.743	7637.24
910.056	7634.53
910.368	7602.22
910.681	7538.49
910.994	7533.06
911.307	7488.32
911.619	7482.67
911.932	7506.62
912.244	7408.1
912.557	7433.18
912.869	7310.47
913.181	7312.05
913.494	7317.03
913.806	7267.53
914.118	7263.69
914.43	7170.14
914.742	7193.41
915.054	7097.6
915.366	7092.85
915.678	7043.13
915.99	7125.39
916.302	6995
916.613	6964.94
916.925	6985.28
917.236	6912.97
917.548	6928.11
917.859	6921.78
918.171	6873.65
918.482	6842.69
918.794	6774.44
919.105	6798.85
919.416	6756.36
919.727	6741.22
920.038	6718.85
920.349	6650.38
920.66	6713.65
920.971	6621.45
921.282	6651.73
921.593	6539.64
921.903	6539.42
922.214	6514.79
922.525	6471.62
922.835	6516.37
923.146	6437.73
923.456	6434.34
923.767	6382.36
924.077	6392.98
924.387	6320.67
924.697	6310.27
925.008	6308.24
925.318	6263.95
925.628	6240.44
925.938	6277.28
926.248	6121.58
926.558	6190.5
926.867	6101.24
927.177	6143.5
927.487	6096.72
927.796	6007.91
928.106	6004.52
928.416	6033.44
928.725	6000.22
929.034	5988.25
929.344	6003.39
929.653	5945.31
929.962	5907.57
930.271	5874.13
930.581	5811.75
930.89	5879.32
931.199	5746.22
931.508	5771.98
931.817	5745.77
932.125	5742.6
932.434	5709.16
932.743	5634.58
933.051	5680.91
933.36	5611.08
933.669	5627.35
933.977	5568.6
934.286	5593.91
934.594	5547.81
934.902	5472.33
935.21	5493.34
935.519	5519.56
935.827	5505.55
936.135	5450.63
936.443	5401.37
936.751	5359.34
937.059	5389.39
937.367	5331.31
937.674	5288.83
937.982	5316.63
938.29	5274.59
938.597	5253.12
938.905	5209.96
939.213	5169.74
939.52	5140.81
939.827	5175.39
940.135	5143.52
940.442	5091.55
940.749	5103.98
941.056	5106.46
941.363	5059.01
941.67	5049.97
941.977	4980.14
942.284	4995.96
942.591	4990.08
942.898	4914.6
943.205	4911.44
943.511	4932.23
943.818	4889.29
944.125	4872.34
944.431	4858.33
944.738	4859.24
945.044	4838.22
945.35	4755.74
945.657	4732.23
945.963	4768.39
946.269	4688.62
946.575	4705.79
946.881	4626.02
947.187	4652.69
947.493	4686.59
947.799	4637.32
948.105	4589.41
948.41	4563.43
948.716	4557.55
949.022	4511.9
949.327	4532.69
949.633	4487.72
949.938	4451.11
950.244	4479.59
950.549	4446.14
950.854	4436.42
951.16	4403.88
951.465	4382.19
951.77	4369.08
952.075	4375.18
952.38	4306.03
952.685	4311.23
952.99	4254.28
953.294	4264.22
953.599	4297.44
953.904	4221.29
954.209	4200.04
954.513	4200.27
954.818	4200.72
955.122	4149.42
955.426	4149.88
955.731	4124.57
956.035	4113.95
956.339	4046.38
956.643	4112.36
956.948	4047.28
957.252	4022.2
957.556	4057.22
957.86	4015.19
958.163	3999.37
958.467	3977.9
958.771	3928.41
959.075	3974.06
959.378	3923.22
959.682	3938.81
959.985	3882.31
960.289	3848.42
960.592	3873.95
960.896	3831.47
961.199	3852.71
961.502	3822.2
961.805	3802.09
962.108	3783.33
962.411	3769.32
962.714	3703.33
963.017	3708.98
963.32	3761.86
963.623	3681.19
963.926	3692.04
964.228	3674.64
964.531	3704.92
964.833	3632.38
965.136	3645.94
965.438	3613.17
965.741	3589.21
966.043	3577.91
966.345	3557.12
966.648	3544.02
966.95	3520.29
967.252	3489.1
967.554	3480.52
967.856	3458.82
968.158	3449.33
968.46	3478.93
968.761	3450.23
969.063	3437.81
969.365	3420.4
969.666	3410.01
969.968	3377.02
970.269	3354.64
970.571	3378.37
970.872	3342.44
971.174	3301.54
971.475	3299.96
971.776	3269.9
972.077	3276.91
972.378	3284.36
972.679	3268.54
972.98	3246.62
973.281	3262.44
973.582	3186.29
973.883	3127.53
974.183	3212.95
974.484	3146.74
974.785	3161.2
975.085	3148.77
975.386	3123.69
975.686	3142.45
975.986	3125.72
976.287	3105.16
976.587	3082.79
976.887	3013.64
977.187	3057.25
977.487	3018.61
977.787	3010.47
978.087	2990.13
978.387	2992.85
978.687	2972.05
978.987	2979.74
979.286	2949.68
979.586	2910.36
979.885	2940.42
980.185	2910.36
980.484	2902
980.784	2884.37
981.083	2874.88
981.382	2836.46
981.682	2841.66
981.981	2836.24
982.28	2825.62
982.579	2821.78
982.878	2786.07
983.177	2796.92
983.475	2777.48
983.774	2791.04
984.073	2730.03
984.372	2711.5
984.67	2742.46
984.969	2692.51
985.267	2692.51
985.566	2666.75
985.864	2698.62
986.162	2659.29
986.461	2637.83
986.759	2666.3
987.057	2638.96
987.355	2588.56
987.653	2617.71
987.951	2597.15
988.249	2567.09
988.547	2581.1
988.844	2563.25
989.142	2566.42
989.44	2525.74
989.737	2508.79
990.035	2556.92
990.332	2490.49
990.63	2465.18
990.927	2445.74
991.224	2450.94
991.521	2484.16
991.819	2451.62
992.116	2404.84
992.413	2429.24
992.71	2424.72
993.006	2403.26
993.303	2401.22
993.6	2394.67
993.897	2377.95
994.193	2339.3
994.49	2330.72
994.787	2315.35
995.083	2314.22
995.379	2315.57
995.676	2275.12
995.972	2278.74
996.268	2248.46
996.565	2266.76
996.861	2233.32
997.157	2266.54
997.453	2220.66
997.749	2210.04
998.044	2169.59
998.34	2194.45
998.636	2197.61
998.932	2170.27
999.227	2158.52
999.523	2110.16
999.818	2127.56
1000.114	2114.68
1000.409	2096.82
1000.704	2104.96
1001	2093.89
1001.295	2084.39
1001.59	2042.81
1001.885	2078.97
1002.18	2045.3
1002.475	2023.83
1002.77	2055.02
1003.065	1992.19
1003.359	1977.73
1003.654	1993.32
1003.949	2014.11
1004.243	1970.05
1004.538	1976.37
1004.832	1981.57
1005.127	1965.08
1005.421	1941.12
1005.715	1898.64
1006.009	1922.14
1006.304	1889.15
1006.598	1877.62
1006.892	1901.8
1007.186	1864.06
1007.48	1854.12
1007.773	1835.36
1008.067	1880.56
1008.361	1832.88
1008.655	1806.44
1008.948	1783.61
1009.242	1810.73
1009.535	1777.51
1009.829	1774.12
1010.122	1770.73
1010.415	1739.09
1010.708	1723.5
1011.001	1716.49
1011.295	1747.91
1011.588	1705.87
1011.881	1688.25
1012.173	1685.31
1012.466	1685.53
1012.759	1635.82
1013.052	1674.91
1013.344	1665.2
1013.637	1623.84
1013.93	1648.02
1014.222	1626.33
1014.514	1641.47
1014.807	1598.76
1015.099	1573.45
1015.391	1610.73
1015.683	1581.58
1015.976	1558.98
1016.268	1540.91
1016.56	1543.39
1016.851	1552.2
1017.143	1527.35
1017.435	1529.15
1017.727	1478.31
1018.018	1512.43
1018.31	1474.69
1018.602	1481.02
1018.893	1466.33
1019.185	1456.39
1019.476	1464.07
1019.767	1437.86
1020.058	1458.87
1020.35	1415.49
1020.641	1431.53
1020.932	1431.98
1021.223	1413
1021.514	1387.69
1021.804	1358.76
1022.095	1334.81
1022.386	1347.01
1022.677	1380.68
1022.967	1336.39
1023.258	1360.12
1023.548	1336.62
1023.839	1326.9
1024.129	1313.34
1024.419	1323.96
1024.709	1305.21
1025	1269.27
1025.29	1276.05
1025.58	1269.95
1025.87	1255.04
1026.16	1240.8
1026.449	1229.28
1026.739	1229.73
1027.029	1230.41
1027.319	1217.98
1027.608	1206.23
1027.898	1197.86
1028.187	1203.29
1028.477	1160.35
1028.766	1158.54
1029.055	1188.15
1029.344	1188.15
1029.634	1168.49
1029.923	1140.24
1030.212	1140.01
1030.501	1142.95
1030.79	1110.18
1031.078	1105.21
1031.367	1088.71
1031.656	1110.63
1031.945	1084.42
1032.233	1119
1032.522	1107.02
1032.81	1079.9
1033.099	1070.86
1033.387	1039.68
1033.675	1062.27
1033.963	1059.56
1034.251	1055.04
1034.54	1017.76
1034.828	1044.87
1035.116	1017.53
1035.403	987.93
1035.691	1034.03
1035.979	991.77
1036.267	1003.07
1036.554	1000.13
1036.842	996.06
1037.129	982.95
1037.417	983.18
1037.704	961.94
1037.992	946.12
1038.279	947.93
1038.566	954.71
1038.853	954.71
1039.14	954.71
