Data from hue_36_FLMS001491_00077.txt Node
Date: Tue Feb 07 17:30:17 GMT 2017
User: dcchb
Spectrometer: FLMS00149
Trigger mode: 0
Integration Time (sec): 2.000000E-2
Scans to average: 10
Electric dark correction enabled: true
Nonlinearity correction enabled: false
Boxcar width: 0
XAxis mode: Wavelengths
Number of Pixels in Spectrum: 2048
>>>>>Begin Spectral Data<<<<<
341.393	-15.04
341.776	-15.04
342.16	-15.04
342.543	-71.76
342.927	-72.89
343.31	-72.22
343.693	-80.35
344.077	-69.05
344.46	-48.04
344.843	-50.75
345.226	-40.35
345.61	-44.19
345.993	-34.7
346.376	9.14
346.759	16.14
347.142	23.83
347.525	48.69
347.908	81.45
348.291	73.77
348.674	86.65
349.057	99.98
349.44	125.97
349.823	148.57
350.206	177.27
350.588	197.38
350.971	208.45
351.354	213.88
351.737	256.36
352.119	229.92
352.502	248.23
352.884	275.35
353.267	292.07
353.65	303.37
354.032	291.62
354.414	306.98
354.797	332.75
355.179	327.32
355.562	327.77
355.944	325.51
356.326	333.2
356.709	352.18
357.091	343.82
357.473	353.31
357.855	340.43
358.238	372.74
358.62	351.95
359.002	326.64
359.384	347.21
359.766	338.85
360.148	337.27
360.53	340.43
360.912	323.48
361.294	328
361.676	343.14
362.057	337.49
362.439	323.03
362.821	341.56
363.203	330.71
363.584	323.03
363.966	328.9
364.348	336.59
364.729	299.98
365.111	315.8
365.493	281.67
365.874	321.45
366.256	315.8
366.637	304.95
367.019	312.63
367.4	324.16
367.781	316.47
368.163	331.62
368.544	324.61
368.925	315.34
369.306	322.58
369.688	319.64
370.069	309.02
370.45	319.86
370.831	313.99
371.212	314.67
371.593	327.55
371.974	310.37
372.355	314.44
372.736	342.01
373.117	333.42
373.498	308.11
373.879	323.25
374.26	325.97
374.641	301.33
375.021	304.72
375.402	326.87
375.783	317.83
376.163	333.2
376.544	336.14
376.925	313.08
377.305	308.34
377.686	326.19
378.066	341.11
378.447	340.2
378.827	347.43
379.208	336.81
379.588	347.66
379.968	339.75
380.349	336.14
380.729	340.43
381.109	360.09
381.489	335.68
381.87	344.72
382.25	340.43
382.63	342.69
383.01	362.8
383.39	364.16
383.77	338.85
384.15	338.62
384.53	345.63
384.91	353.08
385.29	365.29
385.67	363.25
386.049	347.43
386.429	352.41
386.809	346.3
387.189	357.38
387.568	368.45
387.948	354.44
388.328	371.84
388.707	350.82
389.087	370.48
389.466	366.87
389.846	357.38
390.225	375.68
390.605	379.3
390.984	346.76
391.363	371.39
391.743	381.11
392.122	374.33
392.501	357.15
392.881	359.19
393.26	373.87
393.639	372.29
394.018	379.98
394.397	392.86
394.776	376.13
395.155	381.11
395.534	379.07
395.913	382.91
396.292	389.02
396.671	371.39
397.05	386.3
397.429	374.78
397.808	393.08
398.186	394.66
398.565	391.05
398.944	399.18
399.323	372.97
399.701	393.31
400.08	414.33
400.458	395.79
400.837	375.68
401.215	410.94
401.594	394.44
401.972	408.22
402.351	411.16
402.729	415.23
403.107	414.55
403.486	411.84
403.864	411.84
404.242	408.9
404.62	432.18
404.999	411.61
405.377	428.11
405.755	427.21
406.133	428.79
406.511	406.87
406.889	434.66
407.267	425.4
407.645	431.95
408.023	424.27
408.401	426.75
408.779	442.12
409.156	437.83
409.534	427.21
409.912	431.95
410.29	455.91
410.667	452.97
411.045	460.88
411.422	456.81
411.8	455.23
412.178	456.13
412.555	465.62
412.933	453.19
413.31	505.4
413.687	468.79
414.065	474.89
414.442	482.57
414.819	478.05
415.197	491.39
415.574	502.23
415.951	502.68
416.328	491.16
416.705	478.96
417.082	477.37
417.46	511.5
417.837	501.55
418.214	504.49
418.591	507.88
418.967	507.88
419.344	516.92
419.721	514.66
420.098	520.99
420.475	523.93
420.852	530.71
421.228	531.61
421.605	542.68
421.982	519.18
422.358	564.83
422.735	543.81
423.111	541.1
423.488	532.97
423.864	555.56
424.241	539.75
424.617	570.48
424.994	544.27
425.37	541.33
425.746	576.13
426.123	568.9
426.499	561.67
426.875	582
427.251	578.84
427.627	591.72
428.003	591.95
428.379	608.22
428.756	593.98
429.132	574.1
429.507	597.15
429.883	605.28
430.259	614.32
430.635	631.04
431.011	607.54
431.387	624.72
431.763	631.49
432.138	617.71
432.514	670.14
432.89	651.16
433.265	653.87
433.641	649.57
434.016	676.24
434.392	642.34
434.767	672.85
435.143	687.76
435.518	703.13
435.894	672.62
436.269	685.96
436.644	727.09
437.02	701.78
437.395	700.65
437.77	714.2
438.145	718.5
438.52	713.07
438.895	728.89
439.271	739.29
439.646	755.56
440.021	744.71
440.395	741.77
440.77	732.73
441.145	763.02
441.52	758.72
441.895	772.06
442.27	783.36
442.645	754.88
443.019	780.19
443.394	772.51
443.769	747.65
444.143	766.63
444.518	768.67
444.892	794.43
445.267	787.42
445.641	785.16
446.016	799.63
446.39	796.69
446.764	796.01
447.139	815.9
447.513	816.12
447.887	819.29
448.262	801.66
448.636	842.56
449.01	838.49
449.384	859.29
449.758	848.89
450.132	840.98
450.506	875.33
450.88	866.97
451.254	869
451.628	908.78
452.002	871.26
452.376	919.62
452.75	893.18
453.123	908.55
453.497	903.35
453.871	931.15
454.244	898.61
454.618	933.86
454.992	951.71
455.365	930.02
455.739	963.92
456.112	970.02
456.486	947.87
456.859	988.55
457.232	1013.41
457.606	986.74
457.979	1001.43
458.352	1011.6
458.725	1028.32
459.099	1039.39
459.472	1034.87
459.845	1062.44
460.218	1066.74
460.591	1066.06
460.964	1080.75
461.337	1100.18
461.71	1127.07
462.083	1127.98
462.456	1123.01
462.829	1144.02
463.201	1163.91
463.574	1193.29
463.947	1189.22
464.32	1211.37
464.692	1240.74
465.065	1206.85
465.438	1239.61
465.81	1254.08
466.183	1276.9
466.555	1288.88
466.928	1308.77
467.3	1328.65
467.672	1321.19
468.045	1358.26
468.417	1388.08
468.789	1374.75
469.161	1400.29
469.534	1458.82
469.906	1474.18
470.278	1467.18
470.65	1505.14
471.022	1525.48
471.394	1559.83
471.766	1558.02
472.138	1591.24
472.51	1600.28
472.882	1631.02
473.253	1649.1
473.625	1697.23
473.997	1742.43
474.369	1767.51
474.74	1774.29
475.112	1840.73
475.484	1882.08
475.855	1931.8
476.227	1933.16
476.598	2009.99
476.97	2021.29
477.341	2070.78
477.713	2108.07
478.084	2158.46
478.455	2217.67
478.827	2279.36
479.198	2355.29
479.569	2353.71
479.94	2468.06
480.311	2496.76
480.682	2586.25
481.053	2638.67
481.424	2696.75
481.795	2739.91
482.166	2801.83
482.537	2854.94
482.908	2957.31
483.279	3053.13
483.65	3082.96
484.021	3197.3
484.391	3244.76
484.762	3338.09
485.133	3382.83
485.503	3443.17
485.874	3556.84
486.244	3609.95
486.615	3751.64
486.985	3853.33
487.356	3931.29
487.726	3973.55
488.097	4101.69
488.467	4157.05
488.837	4264.39
489.207	4369.7
489.578	4508
489.948	4591.39
490.318	4667.77
490.688	4745.96
491.058	4852.63
491.428	5036.12
491.798	5055.79
492.168	5176.23
492.538	5246.29
492.908	5376.23
493.278	5490.12
493.648	5522.89
494.017	5598.82
494.387	5772.15
494.757	5807.86
495.126	5993.39
495.496	6028.19
495.866	6112.25
496.235	6180.28
496.605	6316.32
496.974	6381.4
497.344	6522.19
497.713	6516.09
498.082	6698.23
498.452	6722.18
498.821	6794.04
499.19	6881.05
499.559	6987.26
499.928	7037.65
500.298	7119.23
500.667	7287.82
501.036	7257.54
501.405	7434.03
501.774	7450.98
502.143	7538.88
502.512	7620.92
502.88	7806.9
503.249	7780.46
503.618	7849.84
503.987	7920.79
504.356	8013.45
504.724	8104.29
505.093	8116.04
505.462	8135.48
505.83	8291.63
506.199	8297.06
506.567	8394.91
506.936	8466.54
507.304	8600.1
507.672	8674.67
508.041	8705.18
508.409	8768.46
508.777	8884.61
509.145	8921.9
509.514	9034.44
509.882	9053.19
510.25	9101.78
510.618	9195.34
510.986	9265.39
511.354	9340.87
511.722	9425.84
512.09	9478.04
512.458	9449.79
512.826	9580.19
513.193	9663.8
513.561	9677.36
513.929	9791.93
514.297	9839.84
514.664	9931.36
515.032	10052.04
515.4	10106.05
515.767	10069.21
516.135	10178.59
516.502	10165.71
516.869	10355.98
517.237	10419.26
517.604	10327.51
517.972	10494.51
518.339	10560.5
518.706	10588.97
519.073	10691.34
519.44	10751.23
519.808	10759.82
520.175	10821.06
520.542	10970.88
520.909	11019.47
521.276	11016.98
521.643	11096.3
522.009	11152.8
522.376	11235.06
522.743	11294.04
523.11	11435.28
523.477	11503.3
523.843	11605.9
524.21	11599.12
524.577	11749.17
524.943	11816.74
525.31	11825.78
525.676	11990.52
526.043	11975.83
526.409	12099.67
526.776	12260.57
527.142	12287.23
527.508	12334.46
527.874	12395.48
528.241	12521.13
528.607	12498.08
528.973	12644.29
529.339	12675.02
529.705	12772.19
530.071	12872.75
530.437	12876.14
530.803	12948.01
531.169	13120.43
531.535	13037.5
531.901	13183.26
532.267	13141.9
532.632	13393.87
532.998	13343.48
533.364	13399.07
533.73	13429.12
534.095	13556.58
534.461	13552.51
534.826	13729.91
535.192	13809.68
535.557	13785.05
535.923	13782.34
536.288	13924.7
536.653	13972.84
537.019	14015.55
537.384	13994.76
537.749	14101.42
538.114	14118.15
538.479	14173.96
538.845	14211.93
539.21	14201.08
539.575	14325.82
539.94	14434.97
540.305	14480.62
540.67	14565.14
541.034	14641.52
541.399	14638.13
541.764	14702.31
542.129	14773.95
542.494	14769.88
542.858	14815.98
543.223	14860.05
543.587	14946.6
543.952	14928.29
544.316	15028.86
544.681	15093.94
545.045	15005.13
545.41	15145.24
545.774	15216.42
546.138	15298.45
546.503	15275.63
546.867	15349.3
547.231	15450.54
547.595	15569.63
547.959	15585.23
548.324	15637.2
548.688	15657.54
549.052	15740.48
549.416	15777.76
549.779	15770.53
550.143	15796.07
550.507	15878.1
550.871	15997.42
551.235	15952.67
551.599	16169.39
551.962	16090.98
552.326	16155.61
552.689	16292.78
553.053	16295.04
553.417	16276.28
553.78	16520.12
554.143	16497.97
554.507	16499.1
554.87	16585.2
555.234	16789.71
555.597	16648.7
555.96	16754.69
556.323	16773.22
556.686	16810.96
557.05	16875.59
557.413	16983.83
557.776	17082.81
558.139	17094.11
558.502	17182.25
558.865	17338.17
559.228	17333.88
559.59	17337.04
559.953	17346.76
560.316	17562.8
560.679	17569.13
561.041	17735.23
561.404	17809.12
561.767	17978.61
562.129	17736.36
562.492	18018.38
562.854	17914.43
563.217	18027.2
563.579	17970.93
563.941	18196.91
564.304	18268.55
564.666	18363.23
565.028	18317.36
565.39	18455.88
565.753	18560.51
566.115	18650
566.477	18760.06
566.839	18763.67
567.201	18846.61
567.563	18993.05
567.925	19005.47
568.287	19000.28
568.648	18915.76
569.01	19194.62
569.372	19349.42
569.734	19308.74
570.095	19439.14
570.457	19499.02
570.819	19530.66
571.18	19640.71
571.542	19722.29
571.903	19780.14
572.265	19790.99
572.626	19899.91
572.987	20030.31
573.349	20190.3
573.71	20127.93
574.071	20334.71
574.432	20404.76
574.794	20616.05
575.155	20562.95
575.516	20600.24
575.877	20701.7
576.238	20868.93
576.599	20895.59
576.96	21023.73
577.32	21112.76
577.681	21349.14
578.042	21498.97
578.403	21491.29
578.763	21682.01
579.124	21729.47
579.485	21992.51
579.845	22110.48
580.206	22137.37
580.566	22326.52
580.927	22413.97
581.287	22594.76
581.648	22651.25
582.008	23113.16
582.368	23195.87
582.728	23332.59
583.089	23394.06
583.449	23586.37
583.809	23771.68
584.169	24029.98
584.529	23987.26
584.889	24351.1
585.249	24510.64
585.609	24634.03
585.969	24808.03
586.329	24952.66
586.688	25338.64
587.048	25492.08
587.408	25593.78
587.768	25864.5
588.127	26051.84
588.487	26257.26
588.846	26654.31
589.206	26649.12
589.565	26877.58
589.925	27199.16
590.284	27279.16
590.643	27642.31
591.003	27890.89
591.362	28156.42
591.721	28285
592.08	28603.41
592.44	28739
592.799	29108.26
593.158	29290.63
593.517	29542.15
593.876	29721.58
594.235	29969.71
594.593	30077.73
594.952	30394.78
595.311	30443.14
595.67	30881.55
596.029	31244.48
596.387	31363.57
596.746	31564.01
597.104	31742.09
597.463	31804.91
597.822	32187.73
598.18	32376.42
598.538	32411.68
598.897	32864.77
599.255	32734.83
599.613	33280.81
599.972	33255.27
600.33	33676.28
600.688	33700.91
601.046	34103.16
601.404	34324.39
601.762	34308.12
602.12	34713.76
602.478	34910.59
602.836	35016.13
603.194	35049.12
603.552	35316.23
603.91	35351.26
604.268	35534.53
604.625	35655.43
604.983	35902.66
605.341	35912.83
605.698	36209.09
606.056	36474.62
606.413	36503.09
606.771	36908.73
607.128	36908.73
607.485	37022.63
607.843	37129.29
608.2	37486.34
608.557	37589.17
608.914	37660.35
609.272	37926.11
609.629	38052.88
609.986	38306.66
610.343	38159.32
610.7	38600.67
611.057	38588.69
611.414	38775.12
611.771	38774.67
612.127	39100.77
612.484	39094.66
612.841	39321.32
613.198	39377.37
613.554	39534.65
613.911	39762.67
614.267	39836.11
614.624	39801.76
614.98	39935.32
615.337	40172.6
615.693	40273.16
616.05	40181.87
616.406	40577.11
616.762	40473.84
617.118	40696.66
617.475	40792.02
617.831	40907.72
618.187	40988.63
618.543	41074.95
618.899	41300.03
619.255	41273.59
619.611	41250.77
619.967	41584.77
620.323	41708.61
620.678	41547.48
621.034	41639
621.39	41684.43
621.746	41655.5
622.101	42143.85
622.457	41846
622.812	42028.6
623.168	42253.9
623.523	42062.5
623.879	42347.46
624.234	42109.05
624.589	42360.34
624.945	42337.74
625.3	42427.91
625.655	42598.07
626.01	42434.01
626.365	42402.83
626.72	42511.3
627.075	42563.5
627.43	42577.28
627.785	42671.75
628.14	42620.45
628.495	42824.74
628.85	42691.18
629.205	42642.59
629.559	42726.89
629.914	42744.51
630.269	42782.25
630.623	42612.76
630.978	42714
631.332	42777.51
631.687	42883.04
632.041	42827.45
632.396	42819.99
632.75	42730.73
633.104	42888.46
633.459	42791.06
633.813	42732.31
634.167	42771.4
634.521	42797.84
634.875	42893.43
635.229	42884.17
635.583	42755.81
635.937	42607.57
636.291	42597.85
636.645	42605.76
636.999	42581.35
637.352	42727.11
637.706	42447.12
638.06	42711.97
638.413	42539.09
638.767	42560.79
639.121	42705.87
639.474	42362.6
639.828	42486.44
640.181	42518.53
640.534	42491.86
640.888	42410.51
641.241	42292.09
641.594	42429.72
641.947	42485.54
642.301	42427.68
642.654	42521.47
643.007	42422.49
643.36	42425.42
643.713	42374.58
644.066	42454.12
644.419	42296.61
644.771	42006.9
645.124	41474.49
645.477	41539.57
645.83	41370.08
646.182	41281.5
646.535	40978.46
646.888	41201.73
647.24	40919.25
647.593	41169.64
647.945	41145.68
648.298	41091.22
648.65	40875.18
649.002	40871.57
649.355	40878.12
649.707	40942.07
650.059	41023.43
650.411	41609.17
650.763	41657.76
651.115	41996.51
651.467	41840.58
651.819	41844.65
652.171	41777.31
652.523	41715.61
652.875	41679.45
653.227	41450.53
653.578	41767.81
653.93	41652.11
654.282	41505.9
654.633	41467.03
654.985	41496.86
655.337	41539.57
655.688	41585.22
656.039	41842.16
656.391	41425.9
656.742	41556.52
657.094	41522.17
657.445	41676.97
657.796	41521.04
658.147	41505.9
658.498	41539.8
658.849	41654.82
659.2	41419.8
659.551	41470.19
659.902	41540.93
660.253	41394.72
660.604	41471.55
660.955	41291.44
661.306	41377.09
661.656	41383.87
662.007	41502.28
662.358	41326.02
662.708	41389.29
663.059	41287.6
663.409	41105.01
663.76	41343.42
664.11	41371.21
664.461	41189.98
664.811	41286.92
665.161	41347.71
665.511	41206.7
665.862	41058.23
666.212	41168.73
666.562	41305.91
666.912	41118.57
667.262	41043.77
667.612	41133.71
667.962	41087.83
668.312	41109.75
668.662	41451.44
669.011	41216.42
669.361	41046.03
669.711	41052.13
670.06	41116.98
670.41	41023.43
670.76	40993.15
671.109	41119.7
671.459	41053.03
671.808	41117.44
672.157	41084.44
672.507	40792.02
672.856	40900.94
673.205	40883.32
673.554	41082.18
673.904	40950.66
674.253	41170.09
674.602	40965.8
674.951	40434.29
675.3	40382.09
675.649	40834.05
675.998	40731.91
676.346	40882.87
676.695	40970.77
677.044	40597.22
677.393	40738.01
677.741	40798.8
678.09	40606.26
678.438	40570.78
678.787	40762.19
679.135	40625.47
679.484	40438.58
679.832	40541.18
680.181	40242.2
680.529	40414.63
680.877	40375.76
681.225	40130.34
681.573	40439.94
681.922	40242.2
682.27	40102.55
682.618	40014.41
682.966	40014.41
683.314	40148.2
683.661	39921.76
684.009	39734.87
684.357	39807.41
684.705	39660.75
685.053	39834.53
685.4	39745.49
685.748	39615.1
686.095	39555.89
686.443	39268.9
686.79	39280.87
687.138	39384.83
687.485	39455.56
687.832	39267.54
688.18	39252.17
688.527	39102.57
688.874	39065.74
689.221	38840.43
689.568	38903.48
689.915	38860.09
690.262	38848.34
690.609	38697.16
690.956	38555.7
691.303	38630.72
691.65	38406.32
691.997	38420.11
692.344	38222.82
692.69	38218.3
693.037	38197.74
693.383	37857.86
693.73	38016.27
694.077	37824.64
694.423	37800.69
694.769	37907.35
695.116	37683.85
695.462	37577.87
695.808	37475.72
696.155	37463.75
696.501	37296.29
696.847	37312.34
697.193	36959.58
697.539	37120.7
697.885	36800.49
698.231	36778.79
698.577	36879.13
698.923	36843.88
699.269	36606.14
699.614	36386.26
699.96	36418.12
700.306	36325.7
700.651	36100.17
700.997	36134.74
701.342	35953.28
701.688	35989.66
702.033	35816.11
702.379	35769.78
702.724	35804.36
703.069	35758.48
703.415	35420.41
703.76	35509.9
704.105	35481.88
704.45	35309.45
704.795	35239.4
705.14	34980.87
705.485	34917.15
705.83	34777.26
706.175	34857.94
706.52	34827.88
706.865	34629.02
707.209	34652.3
707.554	34565.29
707.899	34529.36
708.243	34420.21
708.588	34480.32
708.932	34164.4
709.277	34130.73
709.621	34256.15
709.966	33932.54
710.31	34121.46
710.654	33691.87
710.998	33896.38
711.342	33859.1
711.687	33676.28
712.031	33626.79
712.375	33447.81
712.719	33674.24
713.063	33403.29
713.407	33562.15
713.75	33275.83
714.094	33228.15
714.438	33253.69
714.782	33192.67
715.125	33130.75
715.469	33080.36
715.812	32871.55
716.156	32781.38
716.499	32840.82
716.843	32827.26
717.186	32537.77
717.53	32673.82
717.873	32658.22
718.216	32620.71
718.559	32576.64
718.902	32224.34
719.246	32365.35
719.589	32332.81
719.932	32149.54
720.275	32216.65
720.617	32180.04
720.96	32053.72
721.303	32037.67
721.646	32017.79
721.989	31889.43
722.331	31909.99
722.674	31855.53
723.016	31899.37
723.359	31747.06
723.701	31883.78
724.044	31571.92
724.386	31446.28
724.729	31637.01
725.071	31554.52
725.413	31467.07
725.755	31470.01
726.097	31278.15
726.439	31208.09
726.782	31256.9
727.124	31278.82
727.465	31093.52
727.807	31181.43
728.149	30916.57
728.491	30919.29
728.833	30959.06
729.175	30752.96
729.516	30761.78
729.858	30739.63
730.199	30839.74
730.541	30757.03
730.882	30687.65
731.224	30791.61
731.565	30491.95
731.906	30505.96
732.248	30565.4
732.589	30359.98
732.93	30322.69
733.271	30427.32
733.612	30392.97
733.953	30398.17
734.294	30341
734.635	30277.27
734.976	30284.5
735.317	30033.43
735.658	30044.51
735.999	30022.81
736.339	30051.96
736.68	30084.05
737.021	29960.44
737.361	29793.67
737.702	29951.63
738.042	29875.92
738.383	29739.66
738.723	29823.5
739.063	29628.25
739.404	29765.42
739.744	29652.65
740.084	29507.35
740.424	29555.03
740.764	29432.09
741.104	29543.5
741.444	29362.72
741.784	29187.35
742.124	29298.54
742.464	29277.07
742.804	29217.41
743.143	29254.7
743.483	29031.88
743.823	28946
744.162	28951.65
744.502	28998.43
744.841	28948.49
745.181	29017.87
745.52	28831.21
745.86	28824.65
746.199	28818.78
746.538	28783.75
746.877	28794.6
747.216	28842.05
747.556	28691.77
747.895	28700.81
748.234	28528.84
748.573	28450.2
748.911	28444.1
749.25	28442.74
749.589	28367.04
749.928	28430.09
750.267	28224.44
750.605	28358.9
750.944	28245.68
751.283	28116.87
751.621	28172.01
751.96	28008.18
752.298	28034.62
752.636	28131.79
752.975	27925.47
753.313	27801.63
753.651	27871.91
753.989	27731.57
754.327	27666.72
754.666	27622.88
755.004	27713.72
755.342	27560.05
755.679	27571.13
756.017	27436.21
756.355	27414.75
756.693	27236.44
757.031	27221.76
757.368	27181.53
757.706	27068.09
758.044	27040.52
758.381	27022.44
758.719	26882.78
759.056	26963.46
759.394	26829.68
759.731	26672.17
760.068	26684.82
760.405	26581.77
760.743	26581.09
761.08	26413.64
761.417	26392.4
761.754	26203.7
762.091	26280.31
762.428	26224.04
762.765	26048.91
763.102	26067.21
763.438	26046.65
763.775	25881.45
764.112	25923.03
764.449	25827.67
764.785	25793.09
765.122	25495.02
765.458	25588.8
765.795	25361.01
766.131	25416.15
766.467	25199.44
766.804	25140.23
767.14	25073.11
767.476	25057.07
767.812	24925.09
768.148	25005.09
768.485	24657.76
768.821	24585.44
769.157	24683.52
769.492	24444.43
769.828	24514.26
770.164	24270.2
770.5	24285.56
770.836	24343.41
771.171	24088.51
771.507	24129.41
771.842	23980.94
772.178	23904.56
772.513	23727.16
772.849	23704.79
773.184	23791.34
773.519	23538.91
773.855	23467.05
774.19	23362.2
774.525	23266.15
774.86	23289.2
775.195	23154.07
775.53	23135.31
775.865	22964.47
776.2	22874.98
776.535	22708.2
776.87	22701.65
777.205	22616
777.539	22614.65
777.874	22551.82
778.209	22404.26
778.543	22291.26
778.878	22182.11
779.212	22181.89
779.547	22071.16
779.881	22086.07
780.215	21883.59
780.55	21917.26
780.884	21837.72
781.218	21809.92
781.552	21785.29
781.886	21673.65
782.22	21480.66
782.554	21448.57
782.888	21316.15
783.222	21172.88
783.556	21063.95
783.889	20967.91
784.223	20945.54
784.557	20918.19
784.89	20970.62
785.224	20691.53
785.557	20706.9
785.891	20690.63
786.224	20611.76
786.558	20543.06
786.891	20409.28
787.224	20285.67
787.557	20227.14
787.891	20239.11
788.224	20187.14
788.557	20132.68
788.89	20066.24
789.223	19987.14
789.556	19796.64
789.888	19786.02
790.221	19675.74
790.554	19551.45
790.887	19588.96
791.219	19506.03
791.552	19490.43
791.884	19350.55
792.217	19415.41
792.549	19290.67
792.882	19118.69
793.214	19035.08
793.546	19108.75
793.879	18941.07
794.211	18850.68
794.543	18856.55
794.875	18897.46
795.207	18805.03
795.539	18673.73
795.871	18681.87
796.203	18510.8
796.535	18463.79
796.867	18298.83
797.198	18329.33
797.53	18335.66
797.862	18170.47
798.193	18275.55
798.525	18065.16
798.856	18201.88
799.188	17945.84
799.519	17872.62
799.85	17775.22
800.182	17829.91
800.513	17805.28
800.844	17583.37
801.175	17668.11
801.506	17679.86
801.837	17566.87
802.168	17562.12
802.499	17521.67
802.83	17358.29
803.161	17325.07
803.491	17347.67
803.822	17276.03
804.153	17168.01
804.483	17035.58
804.814	17056.37
805.145	17056.15
805.475	17071.51
805.805	16882.37
806.136	16943.38
806.466	17053.21
806.796	16927.79
807.126	16703.16
807.457	16690.73
807.787	16700.9
808.117	16621.58
808.447	16665.65
808.777	16647.8
809.107	16519.44
809.436	16515.37
809.766	16476.73
810.096	16368.93
810.426	16236.06
810.755	16276.06
811.085	16247.13
811.414	16198.09
811.744	16086
812.073	16111.54
812.403	16090.52
812.732	15988.83
813.061	15998.1
813.39	15951.77
813.719	15849.17
814.049	15925.56
814.378	15745.22
814.707	15812.34
815.036	15697.09
815.365	15616.41
815.693	15488.05
816.022	15610.08
816.351	15420.48
816.68	15375.97
817.008	15517.88
817.337	15336.87
817.665	15336.87
817.994	15245.57
818.322	15242.64
818.651	15283.09
818.979	15110.66
819.307	15246.03
819.636	15144.33
819.964	15099.14
820.292	15091.45
820.62	15014.17
820.948	15048.06
821.276	15079.93
821.604	14989.31
821.932	15105.24
822.259	15081.28
822.587	14947.73
822.915	14979.59
823.243	15022.08
823.57	14984.11
823.898	14955.41
824.225	14974.39
824.553	14931.01
824.88	14912.7
825.207	15011.68
825.535	14949.31
825.862	14996.54
826.189	14906.83
826.516	14923.55
826.843	15072.02
827.17	15031.57
827.497	14990.21
827.824	15008.74
828.151	15005.13
828.478	14954.28
828.805	15049.87
829.131	14943.89
829.458	14890.78
829.785	14888.52
830.111	14834.29
830.438	15051.68
830.764	14940.72
831.09	14934.4
831.417	14740.05
831.743	14843.1
832.069	14839.03
832.395	14837.22
832.722	14937.56
833.048	14839.93
833.374	14788.18
833.7	14742.08
834.026	14810.33
834.351	14837
834.677	14710.67
835.003	14727.62
835.329	14776.21
835.654	14760.39
835.98	14651.24
836.306	14717
836.631	14646.49
836.956	14712.25
837.282	14705.7
837.607	14588.42
837.932	14508.64
838.258	14490.57
838.583	14505.93
838.908	14430.23
839.233	14530.11
839.558	14493.5
839.883	14348.42
840.208	14356.11
840.533	14320.17
840.858	14326.05
841.182	14317.91
841.507	14331.25
841.832	14216.22
842.156	14244.47
842.481	14186.39
842.805	14172.61
843.13	14149.11
843.454	14080.86
843.778	14023.91
844.103	14000.86
844.427	13994.99
844.751	13970.8
845.075	13960.86
845.399	13886.97
845.723	13706.41
846.047	13841.54
846.371	13730.81
846.695	13757.93
847.019	13591.38
847.343	13591.38
847.666	13558.61
847.99	13419.41
848.313	13428.45
848.637	13329.01
848.96	13259.64
849.284	13393.65
849.607	13210.6
849.931	13187.1
850.254	13016.03
850.577	12965.63
850.9	12927.89
851.223	12973.09
851.546	12853.77
851.869	12755.92
852.192	12826.43
852.515	12763.83
852.838	12633.21
853.161	12657.17
853.483	12539.43
853.806	12558.19
854.129	12494.69
854.451	12460.34
854.774	12395.48
855.096	12401.13
855.419	12301.7
855.741	12266.22
856.063	12218.99
856.385	12197.07
856.708	12100.8
857.03	12162.04
857.352	12125.43
857.674	12109.38
857.996	11998.88
858.318	11958.43
858.64	11919.33
858.961	11861.03
859.283	11851.54
859.605	11857.64
859.926	11826.23
860.248	11783.74
860.57	11707.36
860.891	11772.67
861.212	11701.03
861.534	11645.67
861.855	11575.16
862.176	11602.28
862.498	11595.05
862.819	11577.42
863.14	11601.83
863.461	11508.04
863.782	11541.72
864.103	11511.43
864.424	11422.62
864.745	11515.5
865.065	11402.51
865.386	11364.77
865.707	11353.47
866.027	11373.59
866.348	11394.6
866.668	11402.28
866.989	11297.65
867.309	11257.43
867.63	11315.06
867.95	11241.84
868.27	11158.45
868.59	11219.24
868.91	11221.27
869.23	11114.38
869.55	11081.62
869.87	11203.19
870.19	11165.23
870.51	11103.54
870.83	11126.81
871.15	11042.75
871.469	10961.39
871.789	11125
872.109	10977.66
872.428	10951.9
872.748	11001.39
873.067	10910.77
873.386	10979.02
873.706	10863.77
874.025	10774.28
874.344	10882.98
874.663	10840.72
874.982	10835.52
875.301	10754.84
875.62	10733.6
875.939	10752.36
876.258	10705.81
876.577	10701.74
876.896	10729.99
877.214	10706.71
877.533	10633.94
877.852	10636.88
878.17	10641.85
878.489	10580.16
878.807	10611.57
879.125	10578.13
879.444	10549.65
879.762	10507.85
880.08	10511.23
880.398	10474.17
880.716	10457.23
881.034	10473.72
881.352	10452.25
881.67	10365.25
881.988	10453.61
882.306	10388.53
882.624	10337.68
882.941	10342.2
883.259	10251.13
883.577	10243.9
883.894	10270.56
884.212	10202.54
884.529	10303.33
884.846	10181.3
885.164	10126.84
885.481	10132.49
885.798	10148.76
886.115	10093.62
886.432	10042.77
886.75	10013.85
887.067	10047.97
887.383	10022.21
887.7	10040.74
888.017	9967.07
888.334	9933.4
888.651	9909.89
888.967	9842.55
889.284	9879.39
889.6	9830.12
889.917	9790.12
890.233	9759.16
890.55	9720.97
890.866	9763.01
891.182	9683.46
891.498	9730.92
891.815	9622.44
892.131	9616.12
892.447	9559.4
892.763	9519.17
893.079	9489.11
893.395	9489.57
893.71	9453.41
894.026	9409.34
894.342	9365.28
894.657	9358.5
894.973	9312.62
895.289	9283.92
895.604	9401.43
895.92	9192.63
896.235	9222.46
896.55	9191.27
896.865	9182
897.181	9124.15
897.496	9073.31
897.811	9092.52
898.126	9052.52
898.441	9005.29
898.756	8923.93
899.071	8936.59
899.386	8973.42
899.7	8876.7
900.015	8836.25
900.33	8715.35
900.644	8774.56
900.959	8777.72
901.273	8711.06
901.588	8672.19
901.902	8658.18
902.216	8592.64
902.531	8588.57
902.845	8651.62
903.159	8490.05
903.473	8492.3
903.787	8447.33
904.101	8421.57
904.415	8419.54
904.729	8433.1
905.042	8345.19
905.356	8318.98
905.67	8363.04
905.984	8350.61
906.297	8262.48
906.611	8293.21
906.924	8163.73
907.237	8173.22
907.551	8144.74
907.864	8117.4
908.177	8088.47
908.491	8066.33
908.804	8040.11
909.117	7956.73
909.43	7902.49
909.743	7895.94
910.056	7884.86
910.368	7843.28
910.681	7758.31
910.994	7792.89
911.307	7721.25
911.619	7726.9
911.932	7725.77
912.244	7598.54
912.557	7623.63
912.869	7598.32
913.181	7563.52
913.494	7599
913.806	7479.68
914.118	7448.04
914.43	7405.1
914.742	7390.19
915.054	7358.1
915.366	7329.62
915.678	7263.86
915.99	7284.88
916.302	7221.15
916.613	7152.23
916.925	7168.5
917.236	7147.71
917.548	7071.1
917.859	7102.74
918.171	7036.07
918.482	7017.32
918.794	7027.26
919.105	6994.72
919.416	6930.09
919.727	6882.4
920.038	6847.83
920.349	6776.42
920.66	6839.24
920.971	6766.47
921.282	6799.24
921.593	6711.56
921.903	6732.35
922.214	6627.04
922.525	6656.65
922.835	6612.58
923.146	6571
923.456	6561.96
923.767	6474.96
924.077	6498.46
924.387	6491.23
924.697	6418.46
925.008	6464.79
925.318	6387.95
925.628	6390.67
925.938	6363.77
926.248	6327.84
926.558	6284.68
926.867	6277.22
927.177	6272.7
927.487	6211.46
927.796	6143.44
928.106	6164.46
928.416	6150.45
928.725	6133.27
929.034	6093.27
929.344	6076.78
929.653	6037.23
929.962	6003.33
930.271	5973.73
930.581	5981.86
930.89	5893.28
931.199	5880.17
931.508	5860.06
931.817	5852.15
932.125	5866.61
932.434	5811.92
932.743	5745.94
933.051	5691.47
933.36	5697.58
933.669	5670.46
933.977	5660.29
934.286	5630.46
934.594	5665.26
934.902	5544.36
935.21	5576.22
935.519	5567.41
935.827	5537.13
936.135	5475.44
936.443	5475.21
936.751	5480.41
937.059	5459.16
937.367	5398.38
937.674	5410.13
937.982	5390.92
938.29	5353.63
938.597	5342.11
938.905	5268.43
939.213	5280.86
939.52	5282.9
939.827	5269.11
940.135	5235.89
940.442	5192.05
940.749	5203.35
941.056	5183.69
941.363	5099.63
941.67	5110.47
941.977	5053.75
942.284	5075.67
942.591	5029.8
942.898	4970.59
943.205	4986.41
943.511	4974.43
943.818	4959.29
944.125	4951.61
944.431	4874.55
944.738	4915.45
945.044	4910.93
945.35	4848.78
945.657	4825.06
945.963	4847.66
946.269	4795.68
946.575	4772.85
946.881	4786.41
947.187	4759.52
947.493	4699.64
947.799	4668.45
948.105	4602.46
948.41	4674.78
948.716	4655.34
949.022	4628.9
949.327	4588
949.633	4519.53
949.938	4550.49
950.244	4547.32
950.549	4486.08
950.854	4475.69
951.16	4477.04
951.465	4457.61
951.77	4464.39
952.075	4396.59
952.38	4420.55
952.685	4397.95
952.99	4325.86
953.294	4334.9
953.599	4270.27
953.904	4295.81
954.209	4251.06
954.513	4233.43
954.818	4207.9
955.122	4205.86
955.426	4200.44
955.731	4144.17
956.035	4184.62
956.339	4167.67
956.643	4129.71
956.948	4138.52
957.252	4071.63
957.556	4127.45
957.86	4074.57
958.163	4058.07
958.467	4042.7
958.771	3983.04
959.075	3996.6
959.378	3965.42
959.682	3974.23
959.985	3940.79
960.289	3922.71
960.592	3938.53
960.896	3866.66
961.199	3857.17
961.502	3856.27
961.805	3831.18
962.108	3800
962.411	3818.98
962.714	3776.95
963.017	3777.17
963.32	3771.53
963.623	3734.46
963.926	3781.69
964.228	3692.43
964.531	3715.71
964.833	3696.05
965.136	3634.35
965.438	3653.34
965.741	3618.31
966.043	3588.03
966.345	3578.76
966.648	3557.07
966.95	3554.36
967.252	3510.74
967.554	3537.86
967.856	3521.59
968.158	3500.8
968.46	3463.06
968.761	3459.44
969.063	3418.31
969.365	3431.65
969.666	3430.07
969.968	3401.37
970.269	3381.48
970.571	3398.2
970.872	3386
971.174	3357.75
971.475	3352.78
971.776	3327.92
972.077	3282.5
972.378	3300.58
972.679	3251.99
972.98	3257.64
973.281	3243.86
973.582	3205.89
973.883	3257.41
974.183	3213.12
974.484	3209.05
974.785	3190.75
975.085	3165.21
975.386	3151.2
975.686	3124.08
975.986	3145.33
976.287	3120.24
976.587	3068.04
976.887	3035.27
977.187	3088.38
977.487	3051.09
977.787	3065.33
978.087	3040.02
978.387	3064.43
978.687	3016.52
978.987	2987.14
979.286	2983.75
979.586	2967.48
979.885	2954.15
980.185	2946.24
980.484	2929.29
980.784	2896.97
981.083	2868.95
981.382	2869.63
981.682	2885.67
981.981	2908.72
982.28	2856.97
982.579	2839.57
982.878	2827.6
983.177	2804.32
983.475	2806.35
983.774	2805.9
984.073	2781.04
984.372	2747.6
984.67	2761.83
984.969	2707.37
985.267	2740.14
985.566	2715.28
985.864	2668.96
986.162	2691.55
986.461	2664.66
986.759	2642.97
987.057	2582.18
987.355	2618.34
987.653	2626.24
987.951	2594.15
988.249	2600.03
988.547	2606.81
988.844	2581.05
989.142	2581.05
989.44	2552.8
989.737	2545.57
990.035	2553.7
990.332	2530.88
990.63	2474.16
990.927	2488.85
991.224	2509.41
991.521	2456.31
991.819	2478.23
992.116	2468.06
992.413	2457.66
992.71	2424.44
993.006	2403.88
993.303	2371.56
993.6	2384.89
993.897	2410.88
994.193	2387.61
994.49	2375.18
994.787	2336.31
995.083	2367.72
995.379	2318.46
995.676	2340.15
995.972	2315.97
996.268	2288.4
996.565	2267.16
996.861	2297.89
997.157	2283.65
997.453	2233.71
997.749	2288.85
998.044	2235.97
998.34	2204.33
998.636	2198.01
998.932	2180.15
999.227	2156.2
999.523	2145.81
999.818	2138.8
1000.114	2114.85
1000.409	2132.92
1000.704	2143.77
1001	2102.19
1001.295	2096.99
1001.59	2096.99
1001.885	2069.65
1002.18	2076.88
1002.475	2054.28
1002.77	2024.45
1003.065	2025.36
1003.359	2041.85
1003.654	1991.46
1003.949	2017.9
1004.243	1980.39
1004.538	1958.47
1004.832	1960.95
1005.127	1982.19
1005.421	1958.47
1005.715	1963.89
1006.009	1950.33
1006.304	1910.11
1006.598	1883.44
1006.892	1916.43
1007.186	1889.54
1007.48	1857
1007.773	1854.97
1008.067	1844.57
1008.361	1819.94
1008.655	1831.46
1008.948	1832.82
1009.242	1809.99
1009.535	1825.36
1009.829	1793.95
1010.122	1781.97
1010.415	1764.12
1010.708	1748.53
1011.001	1747.62
1011.295	1720.96
1011.588	1742.2
1011.881	1706.95
1012.173	1708.98
1012.466	1703.56
1012.759	1692.03
1013.052	1697
1013.344	1663.56
1013.637	1646.61
1013.93	1621.3
1014.222	1647.74
1014.514	1647.51
1014.807	1653.16
1015.099	1610.23
1015.391	1626.5
1015.683	1602.99
1015.976	1596.89
1016.268	1580.85
1016.56	1569.55
1016.851	1555.31
1017.143	1540.4
1017.435	1538.82
1017.727	1519.61
1018.018	1524.35
1018.31	1513.96
1018.602	1502.43
1018.893	1526.39
1019.185	1490
1019.476	1474.41
1019.767	1474.41
1020.058	1450
1020.35	1442.32
1020.641	1446.16
1020.932	1419.5
1021.223	1406.16
1021.514	1413.62
1021.804	1397.12
1022.095	1369.33
1022.386	1388.54
1022.677	1364.36
1022.967	1363
1023.258	1345.83
1023.548	1332.49
1023.839	1332.72
1024.129	1325.94
1024.419	1315.32
1024.709	1324.13
1025	1279.39
1025.29	1285.94
1025.58	1268.99
1025.87	1277.13
1026.16	1277.13
1026.449	1266.51
1026.739	1264.92
1027.029	1249.78
1027.319	1212.27
1027.608	1232.83
1027.898	1220.18
1028.187	1219.5
1028.477	1203.68
1028.766	1196.45
1029.055	1201.88
1029.344	1185.38
1029.634	1184.25
1029.923	1172.5
1030.212	1176.79
1030.501	1159.62
1030.79	1133.4
1031.078	1114.87
1031.367	1125.72
1031.656	1144.7
1031.945	1100.86
1032.233	1110.35
1032.522	1099.28
1032.81	1091.14
1033.099	1072.39
1033.387	1095.66
1033.675	1074.19
1033.963	1066.96
1034.251	1083.46
1034.54	1051.6
1034.828	1045.95
1035.116	1025.16
1035.403	1014.99
1035.691	1014.76
1035.979	1010.02
1036.267	992.84
1036.554	993.75
1036.842	989.9
1037.129	1003.01
1037.417	995.55
1037.704	994.65
1037.992	984.71
1038.279	975.21
1038.566	963.46
1038.853	963.46
1039.14	963.46
