Data from hue_230_FLMS001491_00076.txt Node
Date: Tue Feb 07 16:37:43 GMT 2017
User: dcchb
Spectrometer: FLMS00149
Trigger mode: 0
Integration Time (sec): 2.000000E-2
Scans to average: 10
Electric dark correction enabled: true
Nonlinearity correction enabled: false
Boxcar width: 0
XAxis mode: Wavelengths
Number of Pixels in Spectrum: 2048
>>>>>Begin Spectral Data<<<<<
341.393	-9.05
341.776	-9.05
342.16	-9.05
342.543	-56.28
342.927	-62.61
343.31	-68.71
343.693	-71.42
344.077	-62.84
344.46	-45.66
344.843	-44.53
345.226	-62.61
345.61	-23.06
345.993	-15.38
346.376	-9.51
346.759	8.35
347.142	31.17
347.525	29.14
347.908	51.96
348.291	63.94
348.674	99.87
349.057	119.3
349.44	123.15
349.823	166.54
350.206	159.3
350.588	194.33
350.971	192.98
351.354	208.34
351.737	237.27
352.119	244.5
352.502	245.86
352.884	265.97
353.267	299.64
353.65	288.79
354.032	302.58
354.414	308.23
354.797	305.97
355.179	295.57
355.562	304.38
355.944	318.17
356.326	320.88
356.709	318.62
357.091	323.14
357.473	340.09
357.855	325.18
358.238	325.4
358.62	334.89
359.002	330.37
359.384	326.76
359.766	332.63
360.148	325.63
360.53	340.09
360.912	318.85
361.294	338.96
361.676	332.86
362.057	324.27
362.439	345.51
362.821	337.83
363.203	334.21
363.584	307.77
363.966	339.41
364.348	333.31
364.729	336.47
365.111	314.1
365.493	321.56
365.874	315.91
366.256	324.95
366.637	312.97
367.019	318.17
367.4	318.62
367.781	288.11
368.163	319.75
368.544	284.72
368.925	315.46
369.306	313.2
369.688	310.94
370.069	306.64
370.45	303.93
370.831	309.58
371.212	322.92
371.593	331.05
371.974	305.51
372.355	324.05
372.736	301.22
373.117	312.75
373.498	313.88
373.879	294.89
374.26	296.93
374.641	328.79
375.021	321.11
375.402	321.56
375.783	303.03
376.163	337.83
376.544	302.35
376.925	304.38
377.305	313.2
377.686	305.51
378.066	317.49
378.447	310.94
378.827	321.79
379.208	311.62
379.588	319.3
379.968	326.08
380.349	333.76
380.729	311.84
381.109	318.85
381.489	343.25
381.87	328.11
382.25	317.04
382.63	359.07
383.01	331.95
383.39	326.98
383.77	325.4
384.15	322.92
384.53	334.67
384.91	347.1
385.29	363.14
385.67	342.12
386.049	363.14
386.429	338.73
386.809	346.87
387.189	351.84
387.568	343.71
387.948	362.46
388.328	346.19
388.707	362.69
389.087	348.9
389.466	357.72
389.846	346.87
390.225	350.03
390.605	367.66
390.984	359.98
391.363	349.36
391.743	376.7
392.122	371.95
392.501	390.71
392.881	377.6
393.26	371.73
393.639	359.52
394.018	354.33
394.397	370.15
394.776	372.18
395.155	383.25
395.534	383.03
395.913	389.81
396.292	389.58
396.671	387.32
397.05	386.64
397.429	397.94
397.808	376.47
398.186	392.52
398.565	403.14
398.944	404.72
399.323	399.3
399.701	399.52
400.08	405.17
400.458	405.4
400.837	394.1
401.215	403.37
401.594	406.3
401.972	410.14
402.351	407.66
402.729	404.95
403.107	422.35
403.486	423.7
403.864	425.29
404.242	425.96
404.62	430.93
404.999	458.28
405.377	444.04
405.755	456.47
406.133	455.79
406.511	453.08
406.889	451.5
407.267	471.84
407.645	462.12
408.023	454.89
408.401	482.46
408.779	471.84
409.156	470.71
409.534	474.78
409.912	482.91
410.29	471.39
410.667	490.82
411.045	490.59
411.422	503.25
411.8	510.71
412.178	502.35
412.555	546.19
412.933	553.87
413.31	552.51
413.687	543.02
414.065	581.67
414.442	549.58
414.819	572.4
415.197	595.9
415.574	553.19
415.951	594.55
416.328	603.81
416.705	592.06
417.082	591.61
417.46	614.88
417.837	605.39
418.214	628.67
418.591	638.16
418.967	633.19
419.344	646.97
419.721	653.08
420.098	679.52
420.475	659.18
420.852	678.16
421.228	673.41
421.605	676.35
421.982	697.59
422.358	720.42
422.735	686.07
423.111	731.04
423.488	736.69
423.864	750.47
424.241	753.64
424.617	744.37
424.994	777.14
425.37	777.37
425.746	787.76
426.123	826.18
426.499	830.47
426.875	804.94
427.251	825.27
427.627	835.67
428.003	880.19
428.379	834.77
428.756	878.83
429.132	908.89
429.507	880.87
429.883	899.17
430.259	897.82
430.635	895.56
431.011	916.57
431.387	934.42
431.763	984.14
432.138	955.44
432.514	976.01
432.89	975.1
433.265	990.02
433.641	1014.65
434.016	1042.9
434.392	1027.3
434.767	1060.3
435.143	1086.74
435.518	1086.28
435.894	1108.21
436.269	1121.31
436.644	1165.38
437.02	1168.77
437.395	1194.53
437.77	1174.42
438.145	1225.04
438.52	1233.85
438.895	1241.54
439.271	1226.17
439.646	1283.34
440.021	1305.49
440.395	1298.26
440.77	1318.14
441.145	1322.21
441.52	1339.16
441.895	1356.79
442.27	1377.35
442.645	1375.77
443.019	1375.99
443.394	1392.72
443.769	1416.45
444.143	1409.89
444.518	1438.14
444.892	1412.15
445.267	1428.87
445.641	1449.21
446.016	1467.74
446.39	1471.13
446.764	1478.59
447.139	1498.7
447.513	1501.42
447.887	1503.68
448.262	1533.05
448.636	1540.28
449.01	1565.37
449.384	1592.03
449.758	1582.77
450.132	1596.33
450.506	1615.54
450.88	1640.39
451.254	1619.38
451.628	1612.82
452.002	1669.77
452.376	1689.66
452.75	1688.53
453.123	1702.09
453.497	1712.26
453.871	1743.22
454.244	1760.17
454.618	1804.23
454.992	1796.77
455.365	1788.87
455.739	1849.65
456.112	1853.95
456.486	1859.15
456.859	1876.77
457.232	1893.72
457.606	1891.01
457.979	1913.83
458.352	1938.47
458.725	1984.34
459.099	1970.1
459.472	2018.24
459.845	2041.29
460.218	2050.78
460.591	2075.41
460.964	2086.26
461.337	2135.52
461.71	2164.67
462.083	2201.74
462.456	2184.34
462.829	2187.05
463.201	2210.55
463.574	2220.04
463.947	2289.19
464.32	2319.02
464.692	2352.47
465.065	2337.33
465.438	2403.31
465.81	2403.09
466.183	2397.89
466.555	2488.73
466.928	2467.72
467.3	2473.59
467.672	2530.54
468.045	2564.21
468.417	2591.1
468.789	2593.36
469.161	2638.11
469.534	2666.13
469.906	2696.41
470.278	2756.98
470.65	2778.9
471.022	2784.09
471.394	2877.2
471.766	2857.99
472.138	2876.97
472.51	2954.71
472.882	2994.94
473.253	3008.27
473.625	3049.4
473.997	3063.63
474.369	3123.29
474.74	3163.97
475.112	3196.96
475.484	3210.75
475.855	3292.55
476.227	3318.32
476.598	3408.48
476.97	3433.34
477.341	3512.21
477.713	3514.24
478.084	3546.33
478.455	3673.34
478.827	3680.34
479.198	3787.68
479.569	3753.79
479.94	3831.52
480.311	3897.28
480.682	3992.2
481.053	4020.9
481.424	4092.08
481.795	4088.01
482.166	4145.64
482.537	4177.96
482.908	4309.48
483.279	4334.11
483.65	4357.39
484.021	4452.3
484.391	4498.4
484.762	4548.57
485.133	4565.29
485.503	4636.47
485.874	4712.86
486.244	4800.54
486.615	4784.94
486.985	4864.49
487.356	4959.63
487.726	4907.2
488.097	5069.68
488.467	5101.32
488.837	5174.99
489.207	5214.09
489.578	5309.45
489.948	5346.96
490.318	5427.87
490.688	5416.11
491.058	5455.89
491.428	5526.39
491.798	5592.38
492.168	5679.61
492.538	5697.46
492.908	5702.21
493.278	5801.64
493.648	5779.72
494.017	5878.25
494.387	5908.98
494.757	5967.74
495.126	5971.35
495.496	5980.62
495.866	6031.47
496.235	6077.34
496.605	6110.56
496.974	6207.73
497.344	6223.1
497.713	6257.45
498.082	6287.73
498.452	6394.62
498.821	6348.07
499.19	6343.55
499.559	6363.43
499.928	6396.43
500.298	6384.68
500.667	6486.59
501.036	6484.56
501.405	6515.29
501.774	6498.12
502.143	6623.54
502.512	6633.48
502.88	6643.2
503.249	6621.96
503.618	6755.06
503.987	6750.32
504.356	6752.35
504.724	6801.61
505.093	6850.2
505.462	6759.58
505.83	6801.84
506.199	6860.14
506.567	6924.1
506.936	6879.35
507.304	7008.16
507.672	6980.82
508.041	7021.5
508.409	7019.24
508.777	7067.82
509.145	7083.42
509.514	7071.21
509.882	7121.15
510.25	7141.94
510.618	7163.19
510.986	7195.05
511.354	7242.73
511.722	7230.76
512.09	7289.06
512.458	7283.41
512.826	7348.27
513.193	7302.62
513.561	7318.44
513.929	7301.49
514.297	7359.57
514.664	7437.76
515.032	7403.63
515.4	7479.11
515.767	7478.21
516.135	7525.66
516.502	7434.37
516.869	7529.28
517.237	7507.81
517.604	7502.39
517.972	7552.56
518.339	7567.7
518.706	7553.23
519.073	7597.98
519.44	7546.23
519.808	7687.92
520.175	7576.06
520.542	7675.49
520.909	7714.36
521.276	7684.98
521.643	7691.99
522.009	7780.57
522.376	7727.47
522.743	7741.48
523.11	7795.26
523.477	7871.42
523.843	7914.35
524.21	7903.73
524.577	7966.56
524.943	7929.95
525.31	7928.36
525.676	7964.97
526.043	7991.19
526.409	7983.96
526.776	8092.88
527.142	8011.98
527.508	8024.18
527.874	8064.63
528.241	8136.72
528.607	8090.85
528.973	8157.51
529.339	8095.82
529.705	8155.25
530.071	8137.17
530.437	8211.52
530.803	8181.01
531.169	8200.45
531.535	8114.12
531.901	8151.64
532.267	8193.89
532.632	8202.26
532.998	8156.16
533.364	8205.87
533.73	8195.93
534.095	8224.4
534.461	8198.41
534.826	8176.72
535.192	8228.7
535.557	8259.88
535.923	8200
536.288	8209.26
536.653	8163.39
537.019	8119.09
537.384	8163.84
537.749	8171.97
538.114	8152.31
538.479	8156.38
538.845	8136.04
539.21	8136.04
539.575	8107.8
539.94	8070.06
540.305	8140.79
540.67	8068.25
541.034	8149.15
541.399	8139.43
541.764	8037.97
542.129	8063.28
542.494	8106.89
542.858	8113.67
543.223	8030.51
543.587	8083.16
543.952	8035.03
544.316	8037.51
544.681	8024.18
545.045	7982.37
545.41	8079.32
545.774	7992.32
546.138	8014.69
546.503	8049.04
546.867	7907.12
547.231	7990.51
547.595	7920.68
547.959	7976.95
548.324	7911.19
548.688	7903.96
549.052	7993.67
549.416	7803.4
549.779	7877.52
550.143	7869.38
550.507	7871.19
550.871	7892.21
551.235	7842.04
551.599	7906.22
551.962	7934.92
552.326	7825.32
552.689	7884.52
553.053	7785.54
553.417	7842.94
553.78	7889.5
554.143	7871.87
554.507	7773.11
554.87	7836.16
555.234	7912.55
555.597	7829.61
555.96	7833.9
556.323	7825.77
556.686	7828.71
557.05	7864.86
557.413	7825.77
557.776	7815.83
558.139	7865.32
558.502	7852.21
558.865	7804.98
559.228	7947.35
559.59	7873.23
559.953	7802.72
560.316	7932.66
560.679	7947.12
561.041	7935.14
561.404	7894.69
561.767	7972.43
562.129	7920.91
562.492	8002.04
562.854	7937.63
563.217	7951.19
563.579	7915.94
563.941	8062.37
564.304	8016.27
564.666	8037.97
565.028	8067.57
565.39	8054.69
565.753	8087.46
566.115	8079.55
566.477	8083.39
566.839	8070.06
567.201	8119.09
567.563	8114.12
567.925	8141.47
568.287	8216.27
568.648	8171.52
569.01	8206.1
569.372	8276.15
569.734	8217.85
570.095	8272.31
570.457	8307.11
570.819	8293.78
571.18	8309.15
571.542	8330.61
571.903	8336.26
572.265	8342.59
572.626	8363.38
572.987	8378.07
573.349	8477.28
573.71	8427.79
574.071	8505.52
574.432	8501.01
574.794	8510.5
575.155	8494.23
575.516	8477.28
575.877	8567.22
576.238	8550.95
576.599	8599.31
576.96	8625.52
577.32	8572.87
577.681	8600.44
578.042	8590.04
578.403	8587.78
578.763	8644.05
579.124	8654.67
579.485	8664.39
579.845	8698.74
580.206	8725.86
580.566	8768.57
580.927	8747.78
581.287	8804.95
581.648	8742.81
582.008	8844.73
582.368	8805.18
582.728	8801.79
583.089	8834.33
583.449	8804.73
583.809	8835.46
584.169	8801.11
584.529	8849.7
584.889	8923.37
585.249	8884.72
585.609	8898.73
585.969	8951.16
586.329	8900.77
586.688	8939.41
587.048	8945.97
587.408	8940.32
587.768	8931.95
588.127	8922.69
588.487	8932.18
588.846	9025.74
589.206	9018.73
589.565	8980.31
589.925	9016.7
590.284	9010.82
590.643	9047.43
591.003	9085.62
591.362	9074.32
591.721	9094.44
592.08	9106.19
592.44	9124.27
592.799	9105.28
593.158	9044.04
593.517	9084.94
593.876	9158.62
594.235	9062.35
594.593	9098.28
594.952	9178.05
595.311	9109.8
595.67	9127.88
596.029	9197.94
596.387	9121.33
596.746	9276.13
597.104	9120.2
597.463	9197.03
597.822	9156.13
598.18	9169.46
598.538	9188.44
598.897	9263.02
599.255	9145.96
599.613	9276.8
599.972	9213.75
600.33	9230.93
600.688	9237.48
601.046	9268.89
601.404	9308.44
601.762	9239.29
602.12	9314.09
602.478	9332.17
602.836	9276.8
603.194	9258.73
603.552	9290.14
603.91	9288.56
604.268	9338.05
604.625	9280.42
604.983	9286.75
605.341	9255.79
605.698	9333.53
606.056	9380.76
606.413	9340.98
606.771	9378.27
607.128	9365.39
607.485	9296.46
607.843	9357.25
608.2	9406.97
608.557	9401.09
608.914	9321.55
609.272	9467.31
609.629	9408.78
609.986	9463.92
610.343	9427.08
610.7	9445.39
611.057	9476.35
611.414	9496.01
611.771	9490.58
612.127	9545.95
612.484	9479.96
612.841	9505.95
613.198	9468.89
613.554	9565.38
613.911	9520.87
614.267	9544.59
614.624	9420.08
614.98	9517.7
615.337	9585.27
615.693	9531.94
616.05	9603.12
616.406	9601.09
616.762	9543.46
617.118	9593.86
617.475	9584.14
617.831	9610.35
618.187	9594.99
618.543	9650.13
618.899	9636.34
619.255	9635.89
619.611	9646.51
619.967	9713.4
620.323	9677.92
620.678	9657.81
621.034	9627.76
621.39	9585.95
621.746	9647.87
622.101	9672.95
622.457	9575.78
622.812	9733.29
623.168	9633.4
623.523	9680.64
623.879	9700.3
624.234	9666.85
624.589	9726.74
624.945	9660.75
625.3	9656.23
625.655	9686.28
626.01	9696.45
626.365	9654.65
626.72	9633.18
627.075	9678.83
627.43	9695.78
627.785	9671.6
628.14	9595.89
628.495	9703.01
628.85	9690.58
629.205	9595.67
629.559	9652.39
629.914	9627.98
630.269	9596.57
630.623	9608.55
630.978	9540.53
631.332	9590.92
631.687	9593.63
632.041	9571.03
632.396	9566.51
632.75	9519.28
633.104	9550.02
633.459	9511.6
633.813	9487.42
634.167	9528.77
634.521	9488.1
634.875	9488.78
635.229	9458.95
635.583	9432.28
635.937	9397.7
636.291	9467.53
636.645	9431.83
636.999	9387.76
637.352	9363.13
637.706	9351.6
638.06	9397.93
638.413	9368.1
638.767	9357.48
639.121	9323.13
639.474	9319.74
639.828	9376.01
640.181	9339.18
640.534	9311.38
640.888	9253.08
641.241	9263.47
641.594	9242.68
641.947	9253.3
642.301	9232.51
642.654	9297.14
643.007	9235
643.36	9218.73
643.713	9216.01
644.066	9268.22
644.419	9172.85
644.771	9177.37
645.124	9047.66
645.477	9063.7
645.83	8957.04
646.182	8908.9
646.535	8968.11
646.888	9045.17
647.24	8899.86
647.593	8921.11
647.945	8881.11
648.298	8834.1
648.65	8831.62
649.002	8823.71
649.355	8908.45
649.707	8891.96
650.059	8932.18
650.411	9033.42
650.763	9065.96
651.115	9090.82
651.467	9096.24
651.819	9110.25
652.171	9165.85
652.523	9118.39
652.875	9045.4
653.227	9046.53
653.578	9116.13
653.93	9023.7
654.282	9064.15
654.633	9033.19
654.985	9027.77
655.337	9091.5
655.688	9089.24
656.039	9085.85
656.391	8966.76
656.742	8999.75
657.094	9055.57
657.445	9060.54
657.796	9038.62
658.147	9075.45
658.498	9023.7
658.849	9047.21
659.2	9117.26
659.551	9060.76
659.902	9054.44
660.253	9042.69
660.604	9082.68
660.955	9000.2
661.306	9043.14
661.656	9012.86
662.007	9071.16
662.358	9025.74
662.708	9049.47
663.059	9073.19
663.409	9051.27
663.76	9093.53
664.11	9092.4
664.461	9034.1
664.811	9071.61
665.161	9055.57
665.511	9043.14
665.862	9133.53
666.212	9131.5
666.562	9132.63
666.912	9042.01
667.262	9084.72
667.612	9010.6
667.962	9067.54
668.312	9086.3
668.662	9105.96
669.011	9059.41
669.361	9054.21
669.711	9075.23
670.06	9046.08
670.41	9046.75
670.76	9060.99
671.109	9062.8
671.459	9081.33
671.808	9024.83
672.157	9056.7
672.507	8956.13
672.856	8983.7
673.205	8982.57
673.554	8982.12
673.904	8969.47
674.253	9037.71
674.602	8985.96
674.951	8863.93
675.3	8818.06
675.649	8918.62
675.998	9005.4
676.346	8911.62
676.695	8950.94
677.044	8887.66
677.393	8926.98
677.741	8952.97
678.09	8891.05
678.438	8949.81
678.787	8834.78
679.135	8865.74
679.484	8791.39
679.832	8882.92
680.181	8801.34
680.529	8774.67
680.877	8744.84
681.225	8763.15
681.573	8844.05
681.922	8758.4
682.27	8759.53
682.618	8754.56
682.966	8775.57
683.314	8785.97
683.661	8609.7
684.009	8620.55
684.357	8639.76
684.705	8603.6
685.053	8628.23
685.4	8689.47
685.748	8551.17
686.095	8627.56
686.443	8514.56
686.79	8499.42
687.138	8534
687.485	8521.34
687.832	8447.22
688.18	8467.33
688.527	8419.65
688.874	8439.09
689.221	8416.94
689.568	8308.69
689.915	8364.29
690.262	8363.83
690.609	8313.67
690.956	8277.28
691.303	8241.13
691.65	8214.23
691.997	8258.75
692.344	8102.82
692.69	8098.08
693.037	8100.79
693.383	8110.28
693.73	8105.08
694.077	8003.62
694.423	8041.36
694.769	7985.99
695.116	7971.53
695.462	7915.71
695.808	7937.86
696.155	7971.98
696.501	7880.68
696.847	7874.58
697.193	7823.96
697.539	7838.42
697.885	7776.05
698.231	7761.82
698.577	7752.55
698.923	7739.44
699.269	7728.82
699.614	7670.07
699.96	7624.42
700.306	7598.66
700.651	7550.97
700.997	7493.12
701.342	7506.23
701.688	7525.44
702.033	7451.09
702.379	7383.29
702.724	7430.52
703.069	7391.66
703.415	7370.64
703.76	7341.04
704.105	7327.7
704.45	7310.75
704.795	7303.3
705.14	7298.78
705.485	7202.73
705.83	7246.8
706.175	7159.8
706.52	7146.24
706.865	7140.36
707.209	7120.7
707.554	7165
707.899	7126.35
708.243	7074.6
708.588	7067.37
708.932	6994.6
709.277	6997.32
709.621	7014.72
709.966	7019.24
710.31	6950.09
710.654	6919.58
710.998	6905.34
711.342	6956.87
711.687	6933.59
712.031	6861.27
712.375	6783.99
712.719	6846.59
713.063	6834.83
713.407	6839.35
713.75	6834.16
714.094	6795.51
714.438	6758.68
714.782	6830.54
715.125	6752.8
715.469	6807.72
715.812	6717.78
716.156	6743.99
716.499	6698.57
716.843	6742.18
717.186	6680.04
717.53	6699.47
717.873	6706.7
718.216	6662.86
718.559	6724.1
718.902	6619.25
719.246	6641.39
719.589	6604.11
719.932	6591.9
720.275	6602.75
720.617	6590.1
720.96	6561.17
721.303	6588.74
721.646	6594.84
721.989	6495.63
722.331	6611.11
722.674	6555.29
723.016	6537.67
723.359	6518.68
723.701	6539.93
724.044	6504.67
724.386	6452.02
724.729	6513.26
725.071	6480.49
725.413	6517.78
725.755	6519.36
726.097	6501.51
726.439	6397.11
726.782	6448.18
727.124	6456.31
727.465	6391.68
727.807	6452.25
728.149	6404.11
728.491	6364.79
728.833	6447.95
729.175	6334.73
729.516	6378.35
729.858	6406.15
730.199	6423.32
730.541	6386.94
730.882	6421.06
731.224	6422.64
731.565	6347.62
731.906	6359.14
732.248	6369.76
732.589	6329.31
732.93	6347.84
733.271	6396.65
733.612	6350.55
733.953	6379.71
734.294	6384.9
734.635	6357.56
734.976	6419.03
735.317	6324.11
735.658	6408.86
735.999	6377.22
736.339	6313.04
736.68	6406.15
737.021	6369.31
737.361	6410.21
737.702	6383.77
738.042	6375.19
738.383	6418.12
738.723	6368.18
739.063	6368.86
739.404	6419.03
739.744	6480.95
740.084	6435.97
740.424	6401.4
740.764	6417.9
741.104	6483.66
741.444	6467.61
741.784	6419.93
742.124	6471.68
742.464	6458.8
742.804	6462.64
743.143	6493.83
743.483	6498.35
743.823	6540.38
744.162	6531.11
744.502	6512.36
744.841	6525.69
745.181	6564.79
745.52	6620.15
745.86	6576.08
746.199	6628.06
746.538	6662.64
746.877	6731.79
747.216	6702.18
747.556	6760.94
747.895	6828.96
748.234	6827.38
748.573	6871.22
748.911	6859.92
749.25	6917.77
749.589	6972.91
749.928	7022.17
750.267	7034.38
750.605	7082.06
750.944	7072.34
751.283	7147.59
751.621	7212.9
751.96	7264.2
752.298	7317.76
752.636	7480.02
752.975	7438.89
753.313	7454.25
753.651	7604.08
753.989	7659.22
754.327	7679.78
754.666	7774.02
755.004	7926.56
755.342	7960.23
755.679	8088.59
756.017	8154.12
756.355	8232.99
756.693	8248.58
757.031	8449.71
757.368	8499.88
757.706	8636.37
758.044	8647.44
758.381	8794.56
758.719	8936.7
759.056	9091.27
759.394	9181.67
759.731	9221.44
760.068	9315.22
760.405	9457.82
760.743	9526.29
761.08	9634.99
761.417	9751.14
761.754	9876.11
762.091	9996.79
762.428	10110.45
762.765	10215.76
763.102	10340.28
763.438	10429.09
763.775	10525.36
764.112	10544.12
764.449	10783.21
764.785	10832.7
765.122	10956.31
765.458	11055.51
765.795	11124.89
766.131	11225
766.467	11323.76
766.804	11381.83
767.14	11508.61
767.476	11568.95
767.812	11629.74
768.148	11714.03
768.485	11807.59
768.821	11878.32
769.157	11968.71
769.492	12026.34
769.828	12170.74
770.164	12094.58
770.5	12228.59
770.836	12363.28
771.171	12315.82
771.507	12333.9
771.842	12468.81
772.178	12532.76
772.513	12523.72
772.849	12591.75
773.184	12713.78
773.519	12712.42
773.855	12773.89
774.19	12756.71
774.525	12778.86
774.86	12937.05
775.195	12908.12
775.53	12950.15
775.865	12905.64
776.2	12925.52
776.535	12873.77
776.87	12953.54
777.205	13052.07
777.539	13046.42
777.874	13100.66
778.209	13055.69
778.543	13095.69
778.878	13058.4
779.212	13170.26
779.547	13040.77
779.881	13188.57
780.215	13099.53
780.55	13178.85
780.884	13075.35
781.218	13127.55
781.552	13057.04
781.886	13028.57
782.22	13076.03
782.554	13087.33
782.888	13001.45
783.222	13090.72
783.556	13003.03
783.889	12975.69
784.223	12956.71
784.557	12961.23
784.89	13003.71
785.224	12895.47
785.557	12946.31
785.891	12928.23
786.224	12957.84
786.558	12910.38
786.891	12798.29
787.224	12908.35
787.557	12811.4
787.891	12796.03
788.224	12834
788.557	12822.02
788.89	12761.68
789.223	12840.78
789.556	12812.53
789.888	12741.57
790.221	12685.08
790.554	12601.69
790.887	12629.71
791.219	12566.21
791.552	12536.15
791.884	12562.82
792.217	12539.09
792.549	12523.05
792.882	12414.8
793.214	12389.94
793.546	12381.36
793.879	12357.18
794.211	12333.67
794.543	12387.46
794.875	12316.27
795.207	12384.97
795.539	12287.57
795.871	12382.49
796.203	12212.77
796.535	12172.55
796.867	12172.55
797.198	12149.27
797.53	12062.49
797.862	12023.62
798.193	12067.01
798.525	11962.38
798.856	12025.66
799.188	11923.97
799.519	11883.74
799.85	11806.91
800.182	11836.96
800.513	11827.7
800.844	11736.63
801.175	11853.69
801.506	11822.5
801.837	11697.31
802.168	11708.6
802.499	11773.24
802.83	11711.09
803.161	11590.19
803.491	11591.32
803.822	11587.03
804.153	11556.74
804.483	11507.93
804.814	11490.76
805.145	11441.49
805.475	11450.76
805.805	11428.84
806.136	11346.58
806.466	11349.29
806.796	11363.53
807.126	11308.84
807.457	11286.47
807.787	11328.73
808.117	11263.87
808.447	11172.35
808.777	11206.92
809.107	11170.09
809.436	11156.98
809.766	11140.26
810.096	11092.58
810.426	11021.84
810.755	11065.91
811.085	11040.6
811.414	10969.87
811.744	10915.41
812.073	10931.9
812.403	10952.69
812.732	10860.27
813.061	10841.51
813.39	10790.44
813.719	10803.77
814.049	10857.55
814.378	10775.3
814.707	10726.71
815.036	10749.31
815.365	10729.2
815.693	10688.07
816.022	10643.32
816.351	10679.48
816.68	10631.8
817.008	10640.16
817.337	10489.2
817.665	10499.37
817.994	10533.49
818.322	10519.26
818.651	10499.82
818.979	10476.32
819.307	10522.65
819.636	10473.61
819.964	10459.15
820.292	10405.81
820.62	10389.54
820.948	10431.12
821.276	10441.75
821.604	10371.69
821.932	10456.66
822.259	10447.62
822.587	10398.58
822.915	10361.3
823.243	10407.4
823.57	10306.83
823.898	10337.34
824.225	10316.78
824.553	10403.1
824.88	10383.22
825.207	10416.21
825.535	10432.25
825.862	10408.53
826.189	10363.1
826.516	10443.1
826.843	10367.4
827.17	10446.49
827.497	10370.79
827.824	10468.19
828.151	10437
828.478	10390.67
828.805	10500.95
829.131	10383.44
829.458	10432.03
829.785	10339.6
830.111	10339.83
830.438	10411.24
830.764	10324.46
831.09	10412.59
831.417	10308.87
831.743	10385.93
832.069	10429.54
832.395	10346.15
832.722	10324.69
833.048	10319.94
833.374	10371.69
833.7	10328.98
834.026	10295.08
834.351	10349.54
834.677	10265.7
835.003	10301.41
835.329	10282.88
835.654	10308.64
835.98	10244.24
836.306	10302.54
836.631	10238.81
836.956	10262.54
837.282	10217.12
837.607	10248.08
837.932	10192.26
838.258	10178.02
838.583	10178.7
838.908	10136.44
839.233	10131.7
839.558	10060.74
839.883	10087.4
840.208	9990.23
840.533	10083.79
840.858	10082.88
841.182	10026.61
841.507	10037.46
841.832	9997.24
842.156	9979.16
842.481	9938.71
842.805	9940.29
843.13	9923.34
843.454	9921.98
843.778	9915.21
844.103	9857.81
844.427	9814.19
844.751	9807.19
845.075	9789.56
845.399	9819.39
845.723	9714.53
846.047	9655.78
846.371	9648.55
846.695	9676.79
847.019	9602.9
847.343	9559.28
847.666	9486.06
847.99	9478.83
848.313	9418.04
848.637	9347.08
848.96	9354.32
849.284	9372.17
849.607	9322.23
849.931	9236.58
850.254	9205.62
850.577	9248.33
850.9	9042.01
851.223	9114.1
851.546	9075
851.869	8982.57
852.192	9004.27
852.515	8916.81
852.838	8914.78
853.161	8907.1
853.483	8872.75
853.806	8836.36
854.129	8799.08
854.451	8829.13
854.774	8753.43
855.096	8757.27
855.419	8718.85
855.741	8672.3
856.063	8648.8
856.385	8652.87
856.708	8644.05
857.03	8586.43
857.352	8538.07
857.674	8537.61
857.996	8503.27
858.318	8415.13
858.64	8446.77
858.961	8434.11
859.283	8406.77
859.605	8406.32
859.926	8355.25
860.248	8407.22
860.57	8331.52
860.891	8379.88
861.212	8247.23
861.534	8239.32
861.855	8260.11
862.176	8246.1
862.498	8219.2
862.819	8235.7
863.14	8202.93
863.461	8214.69
863.782	8152.54
864.103	8182.6
864.424	8211.97
864.745	8111.41
865.065	8144.18
865.386	8137.85
865.707	8052.43
866.027	8072.77
866.348	8054.46
866.668	8021.92
866.989	8061.24
867.309	7983.73
867.63	7975.37
867.95	8023.28
868.27	7955.26
868.59	7948.48
868.91	7959.78
869.23	7947.35
869.55	7825.77
869.87	7949.38
870.19	7898.08
870.51	7853.56
870.83	7890.63
871.15	7847.69
871.469	7771.76
871.789	7855.37
872.109	7840.46
872.428	7759.1
872.748	7819.44
873.067	7794.81
873.386	7831.19
873.706	7782.83
874.025	7733.12
874.344	7748.93
874.663	7708.03
874.982	7732.89
875.301	7731.08
875.62	7668.03
875.939	7705.09
876.258	7659.45
876.577	7606.11
876.896	7647.47
877.214	7600.01
877.533	7595.27
877.852	7580.13
878.17	7566.79
878.489	7636.62
878.807	7591.88
879.125	7536.28
879.444	7524.99
879.762	7463.74
880.08	7536.74
880.398	7510.75
880.716	7471.65
881.034	7450.19
881.352	7458.09
881.67	7470.52
881.988	7407.25
882.306	7453.35
882.624	7355.72
882.941	7323.64
883.259	7267.14
883.577	7391.2
883.894	7333.13
884.212	7289.74
884.529	7397.53
884.846	7264.2
885.164	7273.92
885.481	7222.39
885.798	7258.78
886.115	7185.33
886.432	7132.68
886.75	7168.61
887.067	7203.64
887.383	7195.73
887.7	7153.24
888.017	7069.18
888.334	7197.99
888.651	7056.98
888.967	7073.92
889.284	7043.42
889.6	6995.28
889.917	6931.56
890.233	6943.31
890.55	7013.13
890.866	6907.15
891.182	6974.49
891.498	6924.78
891.815	6882.06
892.131	6845.68
892.447	6841.84
892.763	6800.94
893.079	6805.91
893.395	6780.37
893.71	6782.18
894.026	6792.12
894.342	6727.49
894.657	6713.71
894.973	6690.43
895.289	6711
895.604	6648.17
895.92	6586.03
896.235	6598.46
896.55	6580.15
896.865	6535.18
897.181	6545.8
897.496	6591.9
897.811	6506.71
898.126	6518.91
898.441	6453.6
898.756	6447.27
899.071	6411.79
899.386	6432.36
899.7	6320.27
900.015	6360.72
900.33	6303.77
900.644	6305.81
900.959	6327.05
901.273	6292.02
901.588	6212.7
901.902	6173.61
902.216	6192.82
902.531	6211.57
902.845	6114.85
903.159	6100.39
903.473	6094.29
903.787	6059.49
904.101	6021.52
904.415	6013.61
904.729	6004.57
905.042	5954.63
905.356	5966.16
905.67	5969.09
905.984	5966.61
906.297	5923.67
906.611	5839.15
906.924	5852.26
907.237	5864.69
907.551	5821.53
907.864	5814.97
908.177	5765.94
908.491	5817.01
908.804	5732.26
909.117	5702.43
909.43	5632.38
909.743	5638.48
910.056	5650.91
910.368	5618.82
910.681	5602.55
910.994	5575.43
911.307	5563.68
911.619	5504.47
911.932	5488.88
912.244	5513.74
912.557	5454.31
912.869	5423.12
913.181	5408.43
913.494	5405.49
913.806	5374.08
914.118	5405.95
914.43	5307.64
914.742	5316
915.054	5335.89
915.366	5280.98
915.678	5266.06
915.99	5236.91
916.302	5201.66
916.613	5142.45
916.925	5159.85
917.236	5156.69
917.548	5126.63
917.859	5099.74
918.171	5086.18
918.482	5056.35
918.794	5075.56
919.105	5032.62
919.416	4994.43
919.727	4970.7
920.038	4943.81
920.349	4931.61
920.66	4897.94
920.971	4896.13
921.282	4890.25
921.593	4877.6
921.903	4833.98
922.214	4800.54
922.525	4810.71
922.835	4784.27
923.146	4718.51
923.456	4728.9
923.767	4728.9
924.077	4731.61
924.387	4695.23
924.697	4666.76
925.008	4626.53
925.318	4642.12
925.628	4687.32
925.938	4623.59
926.248	4584.05
926.558	4542.92
926.867	4539.08
927.177	4507.66
927.487	4490.04
927.796	4501.11
928.106	4436.93
928.416	4446.2
928.725	4431.06
929.034	4439.19
929.344	4412.75
929.653	4361.68
929.962	4354.67
930.271	4378.85
930.581	4374.11
930.89	4271.29
931.199	4314
931.508	4285.52
931.817	4268.35
932.125	4275.13
932.434	4252.53
932.743	4254.79
933.051	4196.94
933.36	4235.35
933.669	4194.45
933.977	4159.2
934.286	4171.4
934.594	4127.11
934.902	4087.56
935.21	4069.26
935.519	4062.93
935.827	4038.98
936.135	4003.27
936.443	4046.89
936.751	4026.77
937.059	3996.04
937.367	3958.3
937.674	3967.79
937.982	3943.39
938.29	3967.11
938.597	3932.09
938.905	3853.22
939.213	3847.79
939.52	3817.06
939.827	3828.81
940.135	3813.9
940.442	3828.59
940.749	3774.35
941.056	3804.18
941.363	3793.56
941.67	3714.24
941.977	3721.7
942.284	3685.09
942.591	3690.28
942.898	3668.36
943.205	3697.97
943.511	3660.68
943.818	3611.87
944.125	3604.64
944.431	3596.28
944.738	3587.24
945.044	3589.5
945.35	3573
945.657	3544.3
945.963	3494.81
946.269	3514.02
946.575	3491.65
946.881	3493
947.187	3461.59
947.493	3481.02
947.799	3473.79
948.105	3406.9
948.41	3391.76
948.716	3376.62
949.022	3428.82
949.327	3365.1
949.633	3353.8
949.938	3361.25
950.244	3367.13
950.549	3295.94
950.854	3315.15
951.16	3293.01
951.465	3297.98
951.77	3284.87
952.075	3292.55
952.38	3254.82
952.685	3239.22
952.99	3229.28
953.294	3203.52
953.599	3196.51
953.904	3162.16
954.209	3120.36
954.513	3169.62
954.818	3130.53
955.122	3127.14
955.426	3110.64
955.731	3127.14
956.035	3107.47
956.339	3122.16
956.643	3046.69
956.948	3063.41
957.252	3018.89
957.556	3005.78
957.86	2959.68
958.163	3011.43
958.467	2987.7
958.771	2980.02
959.075	2947.7
959.378	2926.69
959.682	2962.85
959.985	2926.01
960.289	2898.44
960.592	2924.2
960.896	2894.15
961.199	2855.96
961.502	2890.08
961.805	2866.13
962.108	2866.8
962.411	2830.19
962.714	2816.18
963.017	2808.95
963.32	2826.35
963.623	2790.87
963.926	2778.67
964.228	2777.77
964.531	2771.44
964.833	2782.29
965.136	2754.04
965.438	2712
965.741	2717.43
966.043	2661.38
966.345	2681.72
966.648	2647.83
966.95	2665.68
967.252	2648.96
967.554	2626.36
967.856	2653.25
968.158	2634.49
968.46	2597.66
968.761	2601.27
969.063	2581.61
969.365	2567.15
969.666	2574.61
969.968	2548.17
970.269	2502.29
970.571	2524.89
970.872	2531.44
971.174	2533.03
971.475	2490.99
971.776	2509.75
972.077	2482.63
972.378	2482.63
972.679	2467.94
972.98	2467.49
973.281	2423.65
973.582	2432.01
973.883	2451.45
974.183	2429.75
974.484	2412.58
974.785	2395.18
975.085	2404.89
975.386	2400.6
975.686	2374.84
975.986	2385.46
976.287	2373.93
976.587	2365.8
976.887	2262.98
977.187	2310.21
977.487	2375.74
977.787	2258.68
978.087	2286.71
978.387	2298.91
978.687	2272.92
978.987	2256.65
979.286	2270.21
979.586	2243.99
979.885	2245.8
980.185	2241.73
980.484	2211.45
980.784	2198.8
981.083	2212.58
981.382	2152.7
981.682	2148.4
981.981	2155.41
982.28	2148.86
982.579	2142.53
982.878	2114.05
983.177	2135.75
983.475	2115.86
983.774	2097.33
984.073	2089.2
984.372	2075.41
984.67	2083.32
984.969	2078.8
985.267	2083.55
985.566	2057.33
985.864	2032.47
986.162	2058.46
986.461	2048.52
986.759	2045.81
987.057	2019.59
987.355	1987.96
987.653	2008.52
987.951	1979.37
988.249	1983.21
988.547	1951.57
988.844	1922.65
989.142	1937.34
989.44	1969.2
989.737	1949.09
990.035	1928.75
990.332	1926.49
990.63	1879.94
990.927	1890.56
991.224	1867.73
991.521	1923.33
991.819	1867.73
992.116	1868.41
992.413	1864.8
992.71	1825.47
993.006	1841.75
993.303	1842.2
993.6	1821.63
993.897	1821.63
994.193	1801.07
994.49	1823.89
994.787	1772.59
995.083	1799.94
995.379	1798.36
995.676	1755.87
995.972	1767.4
996.268	1758.58
996.565	1724.01
996.861	1736.44
997.157	1728.08
997.453	1701.18
997.749	1733.05
998.044	1682.88
998.34	1682.2
998.636	1682.65
998.932	1676.78
999.227	1642.88
999.523	1663.9
999.818	1665.7
1000.114	1659.15
1000.409	1628.42
1000.704	1647.17
1001	1610.11
1001.295	1622.09
1001.59	1588.64
1001.885	1597.68
1002.18	1593.39
1002.475	1603.79
1002.77	1567.18
1003.065	1533.05
1003.359	1552.04
1003.654	1562.88
1003.949	1549.78
1004.243	1542.54
1004.538	1521.53
1004.832	1534.63
1005.127	1483.34
1005.421	1503.68
1005.715	1488.53
1006.009	1495.99
1006.304	1499.61
1006.598	1515.2
1006.892	1447.18
1007.186	1447.41
1007.48	1475.2
1007.773	1445.15
1008.067	1441.3
1008.361	1413.73
1008.655	1415.99
1008.948	1430.91
1009.242	1411.93
1009.535	1430
1009.829	1368.54
1010.122	1387.97
1010.415	1386.39
1010.708	1362.89
1011.001	1362.66
1011.295	1356.79
1011.588	1353.85
1011.881	1336
1012.173	1324.47
1012.466	1314.53
1012.759	1294.19
1013.052	1307.3
1013.344	1307.75
1013.637	1281.76
1013.93	1310.23
1014.222	1268.2
1014.514	1258.26
1014.807	1270.69
1015.099	1286.73
1015.391	1260.29
1015.683	1238.15
1015.976	1245.38
1016.268	1234.53
1016.56	1240.41
1016.851	1258.71
1017.143	1220.29
1017.435	1223.68
1017.727	1210.35
1018.018	1177.58
1018.31	1180.29
1018.602	1172.84
1018.893	1165.38
1019.185	1180.07
1019.476	1154.53
1019.767	1157.24
1020.058	1154.31
1020.35	1149.33
1020.641	1122.67
1020.932	1146.4
1021.223	1111.82
1021.514	1105.27
1021.804	1101.88
1022.095	1112.05
1022.386	1091.93
1022.677	1106.62
1022.967	1089.45
1023.258	1056.68
1023.548	1066.62
1023.839	1043.35
1024.129	1058.72
1024.419	1033.63
1024.709	1037.02
1025	1024.37
1025.29	1031.15
1025.58	1021.43
1025.87	1012.39
1026.16	1006.29
1026.449	1016.68
1026.739	993.86
1027.029	995.67
1027.319	965.38
1027.608	962.45
1027.898	992.95
1028.187	964.48
1028.477	945.95
1028.766	940.98
1029.055	953.63
1029.344	933.97
1029.634	932.62
1029.923	917.93
1030.212	926.74
1030.501	923.8
1030.79	928.1
1031.078	935.33
1031.367	912.28
1031.656	917.02
1031.945	914.31
1032.233	894.88
1032.522	869.79
1032.81	919.74
1033.099	893.75
1033.387	870.92
1033.675	890.36
1033.963	893.07
1034.251	866.18
1034.54	872.96
1034.828	846.52
1035.116	851.71
1035.403	830.92
1035.691	820.3
1035.979	823.92
1036.267	823.69
1036.554	812.85
1036.842	818.04
1037.129	812.17
1037.417	795.22
1037.704	808.1
1037.992	788.21
1038.279	790.93
1038.566	809.46
1038.853	809.46
1039.14	809.46
