Data from hue_24_FLMS001491_00096.txt Node
Date: Tue Feb 07 17:13:01 GMT 2017
User: dcchb
Spectrometer: FLMS00149
Trigger mode: 0
Integration Time (sec): 2.000000E-2
Scans to average: 10
Electric dark correction enabled: true
Nonlinearity correction enabled: false
Boxcar width: 0
XAxis mode: Wavelengths
Number of Pixels in Spectrum: 2048
>>>>>Begin Spectral Data<<<<<
341.393	4.97
341.776	4.97
342.16	4.97
342.543	-61.02
342.927	-88.36
343.31	-82.48
343.693	-82.26
344.077	-65.31
344.46	-78.64
344.843	-59.89
345.226	-41.13
345.61	-10.17
345.993	-10.4
346.376	-2.26
346.759	4.52
347.142	23.5
347.525	57.63
347.908	51.98
348.291	63.28
348.674	104.18
349.057	127.45
349.44	119.09
349.823	129.94
350.206	168.81
350.588	200.22
350.971	231.41
351.354	235.7
351.737	258.52
352.119	267.56
352.502	265.3
352.884	270.5
353.267	314.34
353.65	309.82
354.032	315.7
354.414	330.61
354.797	331.29
355.179	324.74
355.562	334.91
355.944	325.64
356.326	331.74
356.709	351.18
357.091	359.76
357.473	355.7
357.855	344.62
358.238	338.97
358.62	349.6
359.002	362.25
359.384	345.53
359.766	338.97
360.148	348.92
360.53	363.83
360.912	350.05
361.294	350.05
361.676	332.42
362.057	340.1
362.439	332.65
362.821	332.19
363.203	322.93
363.584	344.4
363.966	339.2
364.348	328.35
364.729	362.25
365.111	327.67
365.493	358.18
365.874	330.84
366.256	343.27
366.637	358.86
367.019	331.52
367.4	329.03
367.781	352.76
368.163	327
368.544	334.68
368.925	324.29
369.306	332.87
369.688	332.42
370.069	315.7
370.45	338.97
370.831	353.21
371.212	343.27
371.593	324.96
371.974	335.36
372.355	345.98
372.736	319.54
373.117	350.5
373.498	339.65
373.879	356.6
374.26	338.3
374.641	338.3
375.021	347.79
375.402	326.09
375.783	354.11
376.163	343.72
376.544	337.62
376.925	361.35
377.305	352.08
377.686	350.73
378.066	356.6
378.447	371.06
378.827	344.62
379.208	354.34
379.588	335.81
379.968	352.08
380.349	372.65
380.729	345.3
381.109	350.73
381.489	372.19
381.87	357.05
382.25	349.82
382.63	364.28
383.01	358.86
383.39	363.15
383.77	373.32
384.15	348.92
384.53	360.67
384.91	381.68
385.29	379.65
385.67	375.81
386.049	394.57
386.429	352.31
386.809	357.5
387.189	385.3
387.568	372.42
387.948	365.64
388.328	385.3
388.707	402.48
389.087	404.96
389.466	392.31
389.846	385.53
390.225	408.12
390.605	395.92
390.984	393.44
391.363	402.7
391.743	408.8
392.122	403.15
392.501	401.8
392.881	422.81
393.26	424.62
393.639	426.66
394.018	418.75
394.397	393.44
394.776	410.61
395.155	414.23
395.534	434.56
395.913	414.68
396.292	421.23
396.671	422.59
397.05	425.07
397.429	433.43
397.808	417.39
398.186	430.05
398.565	431.18
398.944	432.53
399.323	429.59
399.701	430.72
400.08	452.19
400.458	413.77
400.837	441.12
401.215	446.54
401.594	455.81
401.972	472.3
402.351	459.65
402.729	463.72
403.107	466.65
403.486	481.34
403.864	471.4
404.242	466.43
404.62	483.83
404.999	479.31
405.377	484.96
405.755	469.59
406.133	474.79
406.511	493.09
406.889	496.26
407.267	484.28
407.645	505.75
408.023	488.12
408.401	486.99
408.779	501.68
409.156	500.33
409.534	500.1
409.912	500.78
410.29	522.02
410.667	533.32
411.045	535.35
411.422	551.62
411.8	523.38
412.178	540.1
412.555	525.86
412.933	559.31
413.31	553.43
413.687	543.71
414.065	551.17
414.442	543.26
414.819	552.75
415.197	557.73
415.574	573.09
415.951	573.09
416.328	577.16
416.705	604.73
417.082	590.27
417.46	592.98
417.837	626.42
418.214	581.68
418.591	617.38
418.967	589.14
419.344	615.8
419.721	622.13
420.098	604.28
420.475	619.42
420.852	642.69
421.228	645.63
421.605	630.72
421.982	632.07
422.358	660.32
422.735	653.77
423.111	642.24
423.488	667.33
423.864	657.61
424.241	696.48
424.617	656.25
424.994	676.59
425.37	662.58
425.746	693.77
426.123	698.29
426.499	699.19
426.875	719.53
427.251	699.87
427.627	708.46
428.003	720.66
428.379	733.77
428.756	721.79
429.132	739.64
429.507	747.32
429.883	721.34
430.259	767.66
430.635	764.05
431.011	793.2
431.387	780.77
431.763	779.87
432.138	788
432.514	817.61
432.89	817.83
433.265	807.21
433.641	813.54
434.016	842.01
434.392	831.62
434.767	859.19
435.143	842.46
435.518	883.37
435.894	885.63
436.269	855.8
436.644	884.95
437.02	896.02
437.395	896.7
437.77	910.71
438.145	918.85
438.52	889.92
438.895	937.83
439.271	919.3
439.646	936.92
440.021	940.99
440.395	956.59
440.77	975.57
441.145	968.11
441.52	985.96
441.895	984.38
442.27	974.21
442.645	992.06
443.019	972.63
443.394	1011.5
443.769	1008.11
444.143	1004.49
444.518	1026.64
444.892	1016.7
445.267	1014.66
445.641	1032.97
446.016	1053.53
446.39	1046.98
446.764	1059.86
447.139	1073.42
447.513	1069.8
447.887	1091.5
448.262	1081.55
448.636	1054.66
449.01	1093.08
449.384	1091.5
449.758	1101.89
450.132	1096.69
450.506	1102.57
450.88	1137.37
451.254	1132.63
451.628	1153.64
452.002	1159.52
452.376	1179.86
452.75	1159.52
453.123	1176.01
453.497	1221.44
453.871	1204.04
454.244	1205.17
454.618	1224.6
454.992	1252.17
455.365	1222.11
455.739	1270.7
456.112	1281.77
456.486	1317.03
456.859	1298.72
457.232	1323.58
457.606	1359.06
457.979	1341.21
458.352	1364.03
458.725	1390.47
459.099	1404.03
459.472	1413.07
459.845	1416.91
460.218	1420.53
460.591	1453.75
460.964	1448.1
461.337	1473.63
461.71	1535.78
462.083	1529.68
462.456	1546.85
462.829	1541.65
463.201	1583.91
463.574	1583.01
463.947	1586.85
464.32	1630.01
464.692	1603.57
465.065	1651.48
465.438	1675.66
465.81	1696.68
466.183	1699.84
466.555	1750.24
466.928	1719.95
467.3	1788.43
467.672	1778.26
468.045	1804.02
468.417	1853.28
468.789	1857.58
469.161	1865.71
469.534	1900.29
469.906	1961.3
470.278	1926.05
470.65	1972.83
471.022	2019.83
471.394	2026.16
471.766	2062.77
472.138	2091.24
472.51	2135.54
472.882	2167.4
473.253	2196.1
473.625	2236.33
473.997	2286.95
474.369	2320.39
474.74	2357.45
475.112	2388.41
475.484	2413.5
475.855	2468.18
476.227	2490.78
476.598	2549.76
476.97	2562.42
477.341	2630.67
477.713	2651.68
478.084	2707.95
478.455	2781.62
478.827	2829.53
479.198	2880.15
479.569	2870.21
479.94	3012.8
480.311	3022.29
480.682	3052.12
481.053	3175.28
481.424	3195.85
481.795	3265.9
482.166	3292.34
482.537	3333.7
482.908	3428.16
483.279	3492.56
483.65	3565.1
484.021	3624.76
484.391	3678.32
484.762	3697.76
485.133	3741.14
485.503	3799.9
485.874	3932.78
486.244	3932.55
486.615	4031.53
486.985	4076.05
487.356	4172.55
487.726	4197.4
488.097	4299.77
488.467	4297.06
488.837	4388.36
489.207	4478.3
489.578	4564.4
489.948	4607.34
490.318	4707.22
490.688	4696.37
491.058	4799.87
491.428	4869.02
491.798	4928.23
492.168	5024.95
492.538	5043.94
492.908	5127.32
493.278	5213.2
493.648	5230.14
494.017	5258.17
494.387	5339.75
494.757	5332.52
495.126	5466.97
495.496	5471.04
495.866	5483.25
496.235	5598.04
496.605	5634.88
496.974	5723.92
497.344	5743.13
497.713	5779.06
498.082	5851.37
498.452	5936.34
498.821	5951.48
499.19	5990.35
499.559	6016.11
499.928	6097.92
500.298	6090.24
500.667	6148.09
501.036	6211.14
501.405	6226.05
501.774	6243.9
502.143	6320.06
502.512	6373.17
502.88	6403.67
503.249	6409.32
503.618	6422.66
503.987	6474.63
504.356	6553.05
504.724	6559.6
505.093	6610.67
505.462	6610.9
505.83	6728.86
506.199	6721.18
506.567	6818.58
506.936	6792.82
507.304	6897.67
507.672	6974.96
508.041	6920.5
508.409	6988.74
508.777	7003.21
509.145	7111
509.514	7052.7
509.882	7083.66
510.25	7136.08
510.618	7173.82
510.986	7214.5
511.354	7226.25
511.722	7358.22
512.09	7393.7
512.458	7383.76
512.826	7425.34
513.193	7478.22
513.561	7520.71
513.929	7535.4
514.297	7584.21
514.664	7625.79
515.032	7666.92
515.4	7773.58
515.767	7759.34
516.135	7831.43
516.502	7743.75
516.869	7875.73
517.237	7922.73
517.604	7908.27
517.972	7957.3
518.339	7998.21
518.706	8021.94
519.073	8104.42
519.44	8071.43
519.808	8171.99
520.175	8168.15
520.542	8303.28
520.909	8329.05
521.276	8303.96
521.643	8362.27
522.009	8454.24
522.376	8515.71
522.743	8519.78
523.11	8627.57
523.477	8681.35
523.843	8714.12
524.21	8762.26
524.577	8878.41
524.943	8858.3
525.31	8865.3
525.676	8998.63
526.043	8995.24
526.409	9056.94
526.776	9143.94
527.142	9190.94
527.508	9206.09
527.874	9307.33
528.241	9330.83
528.607	9328.57
528.973	9411.5
529.339	9443.59
529.705	9544.38
530.071	9569.01
530.437	9675.45
530.803	9690.82
531.169	9808.33
531.535	9733.76
531.901	9822.11
532.267	9783.25
532.632	9918.84
532.998	9919.74
533.364	10016.46
533.73	10055.78
534.095	10041.77
534.461	10172.39
534.826	10202.9
535.192	10233.86
535.557	10291.25
535.923	10321.31
536.288	10358.37
536.653	10417.81
537.019	10380.52
537.384	10510.23
537.749	10482.21
538.114	10542.32
538.479	10593.62
538.845	10645.6
539.21	10689.21
539.575	10671.36
539.94	10721.3
540.305	10832.48
540.67	10804.91
541.034	10860.28
541.399	10899.6
541.764	10868.41
542.129	10955.19
542.494	10977.79
542.858	11097.79
543.223	11069.09
543.587	11220.5
543.952	11135.98
544.316	11227.5
544.681	11261.17
545.045	11380.49
545.41	11392.69
545.774	11490.09
546.138	11425.24
546.503	11451.22
546.867	11553.37
547.231	11626.36
547.595	11583.42
547.959	11702.52
548.324	11667.94
548.688	11662.29
549.052	11715.62
549.416	11825.45
549.779	11862.51
550.143	11873.59
550.507	11988.84
550.871	12020.7
551.235	12093.69
551.599	12070.64
551.962	12093.92
552.326	12124.2
552.689	12158.78
553.053	12185.89
553.417	12208.72
553.78	12345.21
554.143	12331.88
554.507	12370.52
554.87	12469.73
555.234	12594.92
555.597	12497.98
555.96	12606.67
556.323	12580.01
556.686	12636.28
557.05	12651.42
557.413	12779.1
557.776	12787.01
558.139	12790.4
558.502	12875.82
558.865	12928.93
559.228	13036.95
559.59	12994.91
559.953	13140.45
560.316	13157.39
560.679	13252.08
561.041	13391.51
561.404	13389.93
561.767	13416.37
562.129	13343.83
562.492	13464.5
562.854	13467.44
563.217	13541.34
563.579	13593.77
563.941	13638.51
564.304	13688.68
564.666	13749.69
565.028	13838.28
565.39	13851.16
565.753	13897.71
566.115	14027.88
566.477	13964.83
566.839	14034.89
567.201	14158.05
567.563	14163.92
567.925	14349
568.287	14322.11
568.648	14275.78
569.01	14299.51
569.372	14384.48
569.734	14391.26
570.095	14530.47
570.457	14608.43
570.819	14676.22
571.18	14662.21
571.542	14793.74
571.903	14827.86
572.265	14904.01
572.626	14942.88
572.987	15019.27
573.349	15099.94
573.71	15173.61
574.071	15272.14
574.432	15265.36
574.794	15430.78
575.155	15460.84
575.516	15455.19
575.877	15559.82
576.238	15675.97
576.599	15819.47
576.96	15851.11
577.32	15918.23
577.681	16006.13
578.042	16200.7
578.403	16143.98
578.763	16300.81
579.124	16472.11
579.485	16605.67
579.845	16741.93
580.206	16782.38
580.566	17014.69
580.927	17111.19
581.287	17242.71
581.648	17341.69
582.008	17660.33
582.368	17835.46
582.728	17867.1
583.089	18031.39
583.449	18244.94
583.809	18419.18
584.169	18623.69
584.529	18717.25
584.889	19111.14
585.249	19202.66
585.609	19400.62
585.969	19636.77
586.329	19797.67
586.688	20125.12
587.048	20366.7
587.408	20439.01
587.768	20742.96
588.127	21042.84
588.487	21190.86
588.846	21678.07
589.206	21830.16
589.565	22066.54
589.925	22577.49
590.284	22712.4
590.643	22998.94
591.003	23415.88
591.362	23706.5
591.721	24093.6
592.08	24339.92
592.44	24718.9
592.799	24983.75
593.158	25226
593.517	25658.99
593.876	26043.61
594.235	26358.4
594.593	26647.43
594.952	26981.44
595.311	27350.24
595.67	27662.55
596.029	28279.93
596.387	28607.38
596.746	28889.18
597.104	29092.12
597.463	29410.98
597.822	30032.66
598.18	30274.91
598.538	30395.13
598.897	30996.7
599.255	31120.76
599.613	31899.27
599.972	31995.77
600.33	32416.32
600.688	32652.93
601.046	33108.96
601.404	33574.71
601.762	33816.51
602.12	34237.97
602.478	34590.73
602.836	34911.62
603.194	35071.85
603.552	35515
603.91	35670.02
604.268	36104.59
604.625	36328.99
604.983	36756.1
605.341	36903.89
605.698	37373.03
606.056	37793.36
606.413	37923.3
606.771	38387.69
607.128	38689.83
607.485	38767.34
607.843	38986.77
608.2	39455.91
608.557	39808.44
608.914	39940.64
609.272	40400.75
609.629	40656.78
609.986	40973.39
610.343	41007.74
610.7	41704.21
611.057	41648.62
611.414	41987.14
611.771	42334.71
612.127	42502.84
612.484	42844.98
612.841	42974.69
613.198	43099.21
613.554	43359.76
613.911	43539.19
614.267	43874.78
614.624	44003.81
614.98	44381.88
615.337	44687.41
615.693	44682.44
616.05	44856.67
616.406	45142.99
616.762	45159.26
617.118	45274.97
617.475	45622.76
617.831	45759.7
618.187	45934.16
618.543	46157.66
618.899	46513.13
619.255	46501.83
619.611	46676.74
619.967	46812.33
620.323	47040.12
620.678	46946.56
621.034	47045.77
621.39	47163.51
621.746	47144.07
622.101	47714.45
622.457	47576.15
622.812	47654.57
623.168	47785.41
623.523	47851.17
623.879	48179.75
624.234	48008.23
624.589	48154.21
624.945	48288.22
625.3	48380.42
625.655	48493.87
626.01	48539.06
626.365	48544.03
626.72	48620.19
627.075	48705.16
627.43	48698.61
627.785	48660.87
628.14	48896.34
628.495	48950.13
628.85	49003.68
629.205	48943.8
629.559	49139.05
629.914	48986.96
630.269	49130.91
630.623	49208.42
630.978	49089.33
631.332	49252.26
631.687	49417.46
632.041	49282.77
632.396	49376.55
632.75	49269.21
633.104	49432.6
633.459	49295.2
633.813	49235.32
634.167	49359.15
634.521	49372.49
634.875	49473.73
635.229	49501.98
635.583	49313.96
635.937	49383.11
636.291	49420.85
636.645	49400.51
636.999	49291.36
637.352	49392.15
637.706	49258.37
638.06	49503.33
638.413	49363.9
638.767	49258.14
639.121	49331.81
639.474	49102.21
639.828	49257.46
640.181	49353.73
640.534	49332.04
640.888	49241.42
641.241	49101.53
641.594	49175.66
641.947	49265.82
642.301	49232.6
642.654	49214.3
643.007	49240.29
643.36	49204.81
643.713	49242.77
644.066	49339.04
644.419	49129.33
644.771	48898.6
645.124	48580.64
645.477	48514.2
645.83	48344.49
646.182	48094.33
646.535	48078.51
646.888	48145.85
647.24	48064.27
647.593	48151.73
647.945	48116.47
648.298	47940.21
648.65	47781.12
649.002	47832.41
649.355	48070.15
649.707	47902.92
650.059	48161.9
650.411	48659.74
650.763	48641.66
651.115	48961.65
651.467	48854.76
651.819	48810.69
652.171	48734.99
652.523	48738.83
652.875	48711.04
653.227	48575.45
653.578	48824.93
653.93	48777.02
654.282	48737.25
654.633	48561.21
654.985	48586.07
655.337	48631.04
655.688	48789.68
656.039	48893.86
656.391	48445.73
656.742	48607.76
657.094	48635.78
657.445	48713.97
657.796	48654.54
658.147	48546.75
658.498	48677.82
658.849	48581.55
659.2	48551.72
659.551	48352.63
659.902	48620.42
660.253	48433.75
660.604	48548.55
660.955	48332.74
661.306	48520.98
661.656	48408.67
662.007	48528.89
662.358	48513.75
662.708	48402.12
663.059	48433.53
663.409	48140.43
663.76	48415.45
664.11	48396.47
664.461	48509.23
664.811	48464.26
665.161	48318.5
665.511	48256.58
665.862	48372.06
666.212	48401.89
666.562	48415.68
666.912	48427.2
667.262	48267.88
667.612	48375.23
667.962	48353.53
668.312	48322.57
668.662	48564.82
669.011	48358.05
669.361	48308.56
669.711	48360.76
670.06	48229.24
670.41	48194.21
670.76	48169.13
671.109	48324.15
671.459	48215.91
671.808	48101.79
672.157	48302.46
672.507	47977.95
672.856	47989.47
673.205	48055.69
673.554	48185.4
673.904	48036.93
674.253	48222.46
674.602	48142.01
674.951	47551.52
675.3	47340.45
675.649	47995.12
675.998	47933.65
676.346	47931.62
676.695	48114.89
677.044	47869.48
677.393	47879.19
677.741	47976.14
678.09	47841.91
678.438	47716.26
678.787	47853.21
679.135	47797.16
679.484	47491.63
679.832	47738.41
680.181	47542.03
680.529	47657.73
680.877	47418.41
681.225	47303.61
681.573	47590.61
681.922	47338.42
682.27	47278.76
682.618	47338.42
682.966	47247.8
683.314	47236.27
683.661	47181.36
684.009	46843.06
684.357	46896.85
684.705	46890.07
685.053	46945.66
685.4	46871.99
685.748	46710.18
686.095	46706.79
686.443	46509.51
686.79	46596.29
687.138	46643.29
687.485	46473.35
687.832	46405.33
688.18	46512.45
688.527	46283.98
688.874	46183.87
689.221	46160.82
689.568	45981.62
689.915	45818
690.262	45914.72
690.609	45693.04
690.956	45554.96
691.303	45580.95
691.65	45424.12
691.997	45487.17
692.344	45296.66
692.69	45148.19
693.037	45240.39
693.383	44761.31
693.73	45060.28
694.077	44865.71
694.423	44761.31
694.769	44696
695.116	44534.42
695.462	44408.1
695.808	44419.4
696.155	44260.98
696.501	44049.92
696.847	44163.36
697.193	43776.02
697.539	44094.89
697.885	43704.39
698.231	43718.85
698.577	43574
698.923	43741
699.269	43446.09
699.614	43123.39
699.96	43122.03
700.306	43188.69
700.651	43011.3
700.997	42871.42
701.342	42807.24
701.688	42830.51
702.033	42653.79
702.379	42716.62
702.724	42496.06
703.069	42607.02
703.415	42089.74
703.76	42205.9
704.105	42096.29
704.45	42120.25
704.795	41838
705.14	41680.03
705.485	41733.37
705.83	41487.04
706.175	41665.57
706.52	41414.96
706.865	41422.87
707.209	41278.91
707.554	41149.88
707.899	41307.61
708.243	40916.44
708.588	40913.5
708.932	40621.76
709.277	40695.88
709.621	40683
709.966	40348.54
710.31	40547.63
710.654	40201.65
710.998	40222.67
711.342	40397.13
711.687	40172.5
712.031	39840.08
712.375	39875.56
712.719	39992.17
713.063	39727.32
713.407	39914.66
713.75	39736.81
714.094	39604.61
714.438	39455.69
714.782	39616.36
715.125	39421.56
715.469	39415.01
715.812	39276.71
716.156	38929.15
716.499	38973.66
716.843	39002.82
717.186	38928.69
717.53	38971.86
717.873	39028.58
718.216	38960.33
718.559	38722.82
718.902	38432.44
719.246	38561.92
719.589	38321.93
719.932	38422.49
720.275	38309.05
720.617	38380.23
720.96	38247.36
721.303	38099.34
721.646	38126.23
721.989	37977.98
722.331	38071.54
722.674	37931.21
723.016	37966.01
723.359	37885.78
723.701	37844.65
724.044	37703.64
724.386	37487.83
724.729	37609.86
725.071	37487.83
725.413	37541.16
725.755	37411.9
726.097	37204.9
726.439	36971.23
726.782	37201.96
727.124	37246.48
727.465	37166.93
727.807	37031.57
728.149	36942.76
728.491	36937.56
728.833	37068.4
729.175	36812.14
729.516	36714.97
729.858	36791.57
730.199	36783.89
730.541	36641.52
730.882	36577.57
731.224	36597.68
731.565	36340.97
731.906	36448.08
732.248	36494.18
732.589	36163.79
732.93	36180.74
733.271	36179.39
733.612	36234.53
733.953	36136.45
734.294	36040.41
734.635	35862.56
734.976	36207.86
735.317	35815.1
735.658	36001.31
735.999	35825.72
736.339	35718.61
736.68	35765.84
737.021	35595.22
737.361	35606.97
737.702	35802.67
738.042	35550.93
738.383	35607.88
738.723	35537.6
739.063	35333.31
739.404	35517.48
739.744	35435.45
740.084	35252.86
740.424	35371.05
740.764	35194.33
741.104	35407.66
741.444	35040.43
741.784	34949.82
742.124	35042.69
742.464	35060.77
742.804	34886.54
743.143	34931.06
743.483	34753.21
743.823	34637.06
744.162	34689.26
744.502	34789.59
744.841	34511.63
745.181	34678.18
745.52	34578.98
745.86	34389.15
746.199	34405.2
746.538	34516.83
746.877	34472.31
747.216	34454.69
747.556	34182.6
747.895	34399.55
748.234	34106.9
748.573	33982.16
748.911	34140.8
749.25	34034.36
749.589	33842.05
749.928	33867.58
750.267	34112.55
750.605	33906.45
750.944	33742.62
751.283	33628.49
751.621	33782.16
751.96	33594.37
752.298	33592.56
752.636	33564.99
752.975	33300.82
753.313	33230.31
753.651	33360.48
753.989	33132.91
754.327	33172.01
754.666	33037.1
755.004	32974.73
755.342	32951.9
755.679	33044.78
756.017	32576.54
756.355	32875.75
756.693	32687.73
757.031	32724.56
757.368	32395.31
757.706	32436.21
758.044	32360.05
758.381	32350.11
758.719	32350.79
759.056	32260.39
759.394	32108.53
759.731	32007.52
760.068	31926.17
760.405	31888.65
760.743	31727.75
761.08	31846.62
761.417	31610.69
761.754	31560.75
762.091	31389.68
762.428	31440.08
762.765	31158.05
763.102	31365.95
763.438	31161.21
763.775	30997.83
764.112	31061.78
764.449	31005.51
764.785	30851.17
765.122	30617.73
765.458	30556.26
765.795	30498.18
766.131	30425.87
766.467	30466.77
766.804	30262.03
767.14	30108.36
767.476	30099.32
767.812	29911.76
768.148	29912.89
768.485	29766.45
768.821	29746.56
769.157	29573.23
769.492	29537.3
769.828	29481.48
770.164	29248.5
770.5	29245.56
770.836	29135.05
771.171	28961.72
771.507	28847.15
771.842	28714.05
772.178	28691
772.513	28599.25
772.849	28567.84
773.184	28416.88
773.519	28439.7
773.855	28331.01
774.19	28123.33
774.525	28118.81
774.86	28140.28
775.195	27965.82
775.53	27857.12
775.865	27669.55
776.2	27472.05
776.535	27274.09
776.87	27374.65
777.205	27249.23
777.539	27087.42
777.874	27127.2
778.209	26829.35
778.543	26900.31
778.878	26759.75
779.212	26622.8
779.547	26464.39
779.881	26539.19
780.215	26391.85
780.55	26521.11
780.884	26248.35
781.218	26200.89
781.552	26094.46
781.886	26045.87
782.22	25921.13
782.554	25783.05
782.888	25504.87
783.222	25551.19
783.556	25460.35
783.889	25420.35
784.223	25154.37
784.557	25167.25
784.89	25257.64
785.224	25034.14
785.557	24862.62
785.891	24765.45
786.224	24736.98
786.558	24743.3
786.891	24539.69
787.224	24409.75
787.557	24266.48
787.891	24311
788.224	24268.97
788.557	24271.23
788.89	24149.87
789.223	24093.38
789.556	23917.56
789.888	23981.74
790.221	23889.99
790.554	23665.14
790.887	23631.92
791.219	23474.19
791.552	23410.01
791.884	23290.01
792.217	23226.06
792.549	23207.98
792.882	23065.61
793.214	22892.05
793.546	22966.4
793.879	22864.94
794.211	22641.89
794.543	22725.28
794.875	22661.1
795.207	22666.07
795.539	22491.84
795.871	22542.01
796.203	22335.91
796.535	22112.19
796.867	22259.98
797.198	22126.42
797.53	22109.25
797.862	22087.33
798.193	21880.55
798.525	21818.64
798.856	21826.09
799.188	21627.23
799.519	21512.2
799.85	21397.86
800.182	21475.82
800.513	21455.71
800.844	21199.67
801.175	21400.12
801.506	21348.37
801.837	21117.41
802.168	21210.74
802.499	21036.51
802.83	20954.7
803.161	20854.37
803.491	20882.39
803.822	20820.7
804.153	20751.09
804.483	20585
804.814	20531.21
805.145	20592
805.475	20465.45
805.805	20355.17
806.136	20397.66
806.466	20336.41
806.796	20370.54
807.126	20160.15
807.457	20058.23
807.787	20143.65
808.117	19994.28
808.447	19989.3
808.777	19928.74
809.107	19865.69
809.436	19834.96
809.766	19820.95
810.096	19664.57
810.426	19669.31
810.755	19633.83
811.085	19603.78
811.414	19572.59
811.744	19396.1
812.073	19368.3
812.403	19387.51
812.732	19284.24
813.061	19267.97
813.39	19093.74
813.719	19025.71
814.049	19173.73
814.378	19047.41
814.707	18931.71
815.036	19021.42
815.365	18851.03
815.693	18762.67
816.022	18693.97
816.351	18660.07
816.68	18531.26
817.008	18722.45
817.337	18507.08
817.665	18464.37
817.994	18480.87
818.322	18426.86
818.651	18313.19
818.979	18311.38
819.307	18361.55
819.636	18307.09
819.964	18194.55
820.292	18359.74
820.62	18224.15
820.948	18183.48
821.276	18190.93
821.604	18078.39
821.932	18188.45
822.259	18106.64
822.587	18086.98
822.915	18030.26
823.243	18076.13
823.57	18006.98
823.898	18101.67
824.225	17994.56
824.553	17963.6
824.88	18037.94
825.207	18085.17
825.535	17950.49
825.862	18070.71
826.189	18014.89
826.516	18054.89
826.843	18116.81
827.17	18049.02
827.497	18145.51
827.824	18070.26
828.151	18074.33
828.478	18037.72
828.805	18119.98
829.131	18003.59
829.458	17995.69
829.785	17884.28
830.111	18001.79
830.438	17996.14
830.764	18008.57
831.09	17979.19
831.417	17894.44
831.743	17927.66
832.069	17980.09
832.395	17858.29
832.722	17932.64
833.048	17834.79
833.374	17759.76
833.7	17741.91
834.026	17877.95
834.351	17803.15
834.677	17757.05
835.003	17883.37
835.329	17839.08
835.654	17788.68
835.98	17694
836.306	17809.93
836.631	17698.52
836.956	17789.14
837.282	17614.45
837.607	17615.36
837.932	17501.01
838.258	17575.13
838.583	17551.63
838.908	17396.6
839.233	17502.36
839.558	17448.58
839.883	17467.11
840.208	17385.08
840.533	17299.43
840.858	17284.07
841.182	17273.9
841.507	17296.72
841.832	17163.62
842.156	17174.69
842.481	17065.09
842.805	17094.69
843.13	17032.32
843.454	17031.19
843.778	16963.4
844.103	16861.7
844.427	16864.87
844.751	16797.75
845.075	16774.93
845.399	16668.04
845.723	16621.48
846.047	16708.71
846.371	16528.38
846.695	16515.27
847.019	16375.61
847.343	16346.01
847.666	16236.41
847.99	16180.37
848.313	16185.34
848.637	16016.3
848.96	16007.49
849.284	15964.55
849.607	15877.32
849.931	15728.63
850.254	15685.46
850.577	15695.86
850.9	15554.17
851.223	15489.08
851.546	15470.78
851.869	15310.11
852.192	15408.86
852.515	15275.3
852.838	15243.44
853.161	15279.37
853.483	15153.05
853.806	15066.27
854.129	15091.58
854.451	14958.02
854.774	14960.96
855.096	14919.83
855.419	14853.17
855.741	14770.69
856.063	14696.79
856.385	14690.01
856.708	14745.15
857.03	14555.55
857.352	14567.07
857.674	14596
857.996	14486.4
858.318	14468.55
858.64	14403.69
858.961	14323.24
859.283	14346.52
859.605	14277.36
859.926	14292.28
860.248	14200.53
860.57	14111.95
860.891	14121.66
861.212	14080.31
861.534	14047.77
861.855	14011.83
862.176	14009.58
862.498	13934.55
862.819	13944.49
863.14	13930.26
863.461	13868.11
863.782	13837.6
864.103	13810.03
864.424	13739.75
864.745	13827.88
865.065	13696.82
865.386	13684.16
865.707	13645.52
866.027	13749.24
866.348	13678.74
866.668	13625.18
866.989	13501.79
867.309	13516.03
867.63	13568
867.95	13484.17
868.27	13448.23
868.59	13431.96
868.91	13288.69
869.23	13354
869.55	13349.48
869.87	13422.02
870.19	13312.42
870.51	13440.1
870.83	13361.23
871.15	13242.59
871.469	13328.46
871.789	13319.65
872.109	13242.36
872.428	13159.88
872.748	13228.8
873.067	13164.4
873.386	13188.81
873.706	13116.04
874.025	13098.19
874.344	13016.61
874.663	13028.58
874.982	12998.08
875.301	12998.53
875.62	12945.65
875.939	12954.46
876.258	12954.46
876.577	12907.01
876.896	12901.81
877.214	12794.69
877.533	12925.08
877.852	12874.46
878.17	12801.25
878.489	12774.35
878.807	12704.75
879.125	12670.18
879.444	12693
879.762	12683.51
880.08	12704.07
880.398	12627.46
880.716	12611.87
881.034	12603.74
881.352	12553.34
881.67	12556.28
881.988	12531.42
882.306	12538.88
882.624	12402.16
882.941	12351.99
883.259	12286.91
883.577	12327.13
883.894	12372.33
884.212	12338.88
884.529	12325.55
884.846	12277.42
885.164	12332.11
885.481	12205.55
885.798	12268.38
886.115	12078.78
886.432	12130.3
886.75	12090.53
887.067	12077.42
887.383	12072
887.7	11975.96
888.017	12037.65
888.334	12055.28
888.651	11945
888.967	11948.61
889.284	11917.43
889.6	11845.11
889.917	11753.82
890.233	11754.49
890.55	11658.45
890.866	11714.49
891.182	11669.3
891.498	11616.64
891.815	11565.8
892.131	11525.12
892.447	11538.45
892.763	11446.93
893.079	11450.32
893.395	11401.51
893.71	11384.33
894.026	11352.47
894.342	11324.9
894.657	11228.41
894.973	11174.4
895.289	11229.08
895.604	11231.57
895.92	11107.05
896.235	11065.47
896.55	11032.03
896.865	10970.11
897.181	10963.55
897.496	10975.98
897.811	10877.91
898.126	10887.62
898.441	10760.62
898.756	10801.98
899.071	10785.71
899.386	10767.17
899.7	10615.31
900.015	10582.55
900.33	10602.66
900.644	10559.04
900.959	10500.74
901.273	10455.09
901.588	10436.79
901.902	10385.26
902.216	10370.35
902.531	10326.51
902.845	10325.15
903.159	10260.07
903.473	10177.59
903.787	10215.78
904.101	10143.24
904.415	10124.03
904.729	10098.72
905.042	9989.79
905.356	10038.83
905.67	9934.65
905.984	9948.89
906.297	9977.82
906.611	9822.11
906.924	9822.34
907.237	9854.66
907.551	9780.76
907.864	9723.59
908.177	9723.81
908.491	9704.38
908.804	9632.97
909.117	9552.97
909.43	9484.04
909.743	9479.98
910.056	9469.58
910.368	9423.26
910.681	9390.04
910.994	9373.99
911.307	9319.75
911.619	9296.48
911.932	9279.98
912.244	9105.07
912.557	9185.75
912.869	9048.12
913.181	9029.82
913.494	9031.63
913.806	8964.74
914.118	8972.65
914.43	8859.65
914.742	8945.08
915.054	8812.65
915.366	8839.54
915.678	8743.05
915.99	8750.05
916.302	8679.77
916.613	8632.77
916.925	8589.83
917.236	8623.73
917.548	8522.26
917.859	8500.79
918.171	8521.36
918.482	8478.87
918.794	8394.81
919.105	8336.96
919.416	8267.35
919.727	8291.76
920.038	8246.34
920.349	8265.55
920.66	8207.92
920.971	8154.59
921.282	8126.11
921.593	8042.05
921.903	8016.51
922.214	8038.88
922.525	8015.16
922.835	7906.46
923.146	7877.08
923.456	7861.94
923.767	7820.13
924.077	7781.04
924.387	7768.61
924.697	7717.31
925.008	7661.04
925.318	7663.53
925.628	7696.29
925.938	7588.05
926.248	7470.54
926.558	7536.07
926.867	7525.45
927.177	7483.19
927.487	7432.8
927.796	7293.37
928.106	7388.96
928.416	7358
928.725	7318
929.034	7282.52
929.344	7197.78
929.653	7218.57
929.962	7202.07
930.271	7169.08
930.581	7101.73
930.89	7050.44
931.199	7028.29
931.508	7043.2
931.817	6992.58
932.125	6953.26
932.434	6920.72
932.743	6883.21
933.051	6874.85
933.36	6809.09
933.669	6785.58
933.977	6820.16
934.286	6754.85
934.594	6723.67
934.902	6678.02
935.21	6652.71
935.519	6668.98
935.827	6569.54
936.135	6577.68
936.443	6498.36
936.751	6486.61
937.059	6512.15
937.367	6494.97
937.674	6487.29
937.982	6427.18
938.29	6445.25
938.597	6433.28
938.905	6299.5
939.213	6308.99
939.52	6243.45
939.827	6292.04
940.135	6206.84
940.442	6192.83
940.749	6140.86
941.056	6167.97
941.363	6133.17
941.67	6103.12
941.977	6036.45
942.284	5989.45
942.591	5980.41
942.898	6012.05
943.205	5887.08
943.511	5873.97
943.818	5921.2
944.125	5859.96
944.431	5849.11
944.738	5818.15
945.044	5797.36
945.35	5722.11
945.657	5783.58
945.963	5698.16
946.269	5675.33
946.575	5685.5
946.881	5639.63
947.187	5623.35
947.493	5580.64
947.799	5587.65
948.105	5505.39
948.41	5523.24
948.716	5526.18
949.022	5488.67
949.327	5435.56
949.633	5443.47
949.938	5448.67
950.244	5415.22
950.549	5375.23
950.854	5365.28
951.16	5320.54
951.465	5268.11
951.77	5273.31
952.075	5226.08
952.38	5200.54
952.685	5227.21
952.99	5166.64
953.294	5137.49
953.599	5122.35
953.904	5085.97
954.209	5058.85
954.513	5080.09
954.818	5086.42
955.122	5002.35
955.426	5004.61
955.731	4981.11
956.035	4898.4
956.339	4964.84
956.643	4892.75
956.948	4881.68
957.252	4852.3
957.556	4846.65
957.86	4800.55
958.163	4805.3
958.467	4765.3
958.771	4792.19
959.075	4733.21
959.378	4725.3
959.682	4717.84
959.985	4673.1
960.289	4659.76
960.592	4627.9
960.896	4627.22
961.199	4617.51
961.502	4614.12
961.805	4544.51
962.108	4507.9
962.411	4497.51
962.714	4478.98
963.017	4456.38
963.32	4437.17
963.623	4497.06
963.926	4427
964.228	4392.65
964.531	4345.87
964.833	4340.68
965.136	4326.21
965.438	4334.58
965.741	4272.66
966.043	4278.98
966.345	4251.87
966.648	4246.67
966.95	4243.96
967.252	4197.86
967.554	4150.63
967.856	4165.09
968.158	4106.78
968.46	4102.04
968.761	4085.54
969.063	4095.71
969.365	4060.01
969.666	4078.08
969.968	4036.28
970.269	4010.29
970.571	3985.88
970.872	3988.37
971.174	3950.4
971.475	3971.87
971.776	3947.92
972.077	3893.23
972.378	3920.12
972.679	3918.77
972.98	3885.55
973.281	3810.3
973.582	3842.84
973.883	3855.49
974.183	3796.28
974.484	3775.95
974.785	3761.03
975.085	3774.59
975.386	3744.53
975.686	3689.62
975.986	3702.5
976.287	3684.2
976.587	3662.05
976.887	3664.08
977.187	3644.2
977.487	3621.15
977.787	3593.8
978.087	3568.72
978.387	3557.65
978.687	3571.21
978.987	3550.87
979.286	3506.57
979.586	3530.3
979.885	3511.77
980.185	3480.13
980.484	3443.3
980.784	3445.79
981.083	3392.45
981.382	3378.89
981.682	3401.04
981.981	3405.33
982.28	3363.08
982.579	3327.14
982.878	3336.18
983.177	3326.47
983.475	3313.81
983.774	3314.49
984.073	3271.55
984.372	3232.68
984.67	3264.55
984.969	3246.24
985.267	3189.97
985.566	3186.58
985.864	3152.46
986.162	3152.23
986.461	3153.59
986.759	3130.54
987.057	3123.31
987.355	3080.6
987.653	3052.58
987.951	3108.84
988.249	3083.76
988.547	3051.45
988.844	3033.59
989.142	3019.81
989.44	3006.47
989.737	2949.98
990.035	2969.19
990.332	2974.39
990.63	2928.06
990.927	2940.26
991.224	2910.43
991.521	2920.6
991.819	2912.24
992.116	2884.22
992.413	2870.66
992.71	2820.04
993.006	2872.69
993.303	2848.51
993.6	2812.58
993.897	2811.45
994.193	2800.6
994.49	2795.41
994.787	2754.28
995.083	2741.85
995.379	2757.67
995.676	2718.8
995.972	2721.96
996.268	2708.63
996.565	2699.59
996.861	2684.68
997.157	2679.03
997.453	2632.7
997.749	2651.91
998.044	2590.89
998.34	2606.03
998.636	2592.47
998.932	2577.33
999.227	2566.26
999.523	2555.64
999.818	2552.25
1000.114	2538.01
1000.409	2499.6
1000.704	2461.86
1001	2484.91
1001.295	2478.8
1001.59	2469.09
1001.885	2420.95
1002.18	2434.96
1002.475	2415.3
1002.77	2363.55
1003.065	2401.52
1003.359	2379.82
1003.654	2368.07
1003.949	2288.75
1004.243	2392.48
1004.538	2328.53
1004.832	2300.96
1005.127	2326.49
1005.421	2290.11
1005.715	2290.56
1006.009	2247.4
1006.304	2232.48
1006.598	2230.68
1006.892	2213.28
1007.186	2205.59
1007.48	2215.31
1007.773	2194.74
1008.067	2182.09
1008.361	2155.2
1008.655	2111.58
1008.948	2140.06
1009.242	2145.03
1009.535	2111.13
1009.829	2098.7
1010.122	2053.28
1010.415	2074.3
1010.708	2083.56
1011.001	2048.99
1011.295	2055.09
1011.588	2024.35
1011.881	2004.47
1012.173	1995.88
1012.466	1977.8
1012.759	1981.64
1013.052	1978.03
1013.344	1941.42
1013.637	1947.75
1013.93	1947.52
1014.222	1906.39
1014.514	1925.83
1014.807	1892.83
1015.099	1901.87
1015.391	1860.29
1015.683	1874.08
1015.976	1830.91
1016.268	1846.51
1016.56	1828.65
1016.851	1802.21
1017.143	1813.51
1017.435	1801.31
1017.727	1813.06
1018.018	1769.45
1018.31	1765.15
1018.602	1773.51
1018.893	1748.65
1019.185	1701.42
1019.476	1726.73
1019.767	1686.51
1020.058	1699.39
1020.35	1658.04
1020.641	1656.23
1020.932	1647.64
1021.223	1651.48
1021.514	1631.6
1021.804	1606.74
1022.095	1611.94
1022.386	1620.75
1022.677	1590.24
1022.967	1563.57
1023.258	1554.99
1023.548	1573.74
1023.839	1542.78
1024.129	1539.39
1024.419	1516.57
1024.709	1522.22
1025	1505.72
1025.29	1498.72
1025.58	1479.28
1025.87	1489.9
1026.16	1466.4
1026.449	1471.83
1026.739	1444.03
1027.029	1418.27
1027.319	1408.55
1027.608	1398.16
1027.898	1432.05
1028.187	1406.74
1028.477	1384.6
1028.766	1377.59
1029.055	1348.44
1029.344	1355.9
1029.634	1362
1029.923	1346.63
1030.212	1325.61
1030.501	1324.03
1030.79	1308.67
1031.078	1313.64
1031.367	1305.5
1031.656	1293.75
1031.945	1279.51
1032.233	1284.94
1032.522	1253.98
1032.81	1237.26
1033.099	1241.32
1033.387	1232.28
1033.675	1216.24
1033.963	1209.23
1034.251	1207.88
1034.54	1213.98
1034.828	1199.52
1035.116	1183.02
1035.403	1171.95
1035.691	1198.84
1035.979	1150.03
1036.267	1138.05
1036.554	1145.28
1036.842	1139.41
1037.129	1127.65
1037.417	1128.33
1037.704	1097.37
1037.992	1095.11
1038.279	1083.14
1038.566	1112.51
1038.853	1112.51
1039.14	1112.51
