Data from hue_260_FLMS001491_00035.txt Node
Date: Tue Feb 07 15:58:55 GMT 2017
User: dcchb
Spectrometer: FLMS00149
Trigger mode: 0
Integration Time (sec): 2.000000E-2
Scans to average: 10
Electric dark correction enabled: true
Nonlinearity correction enabled: false
Boxcar width: 0
XAxis mode: Wavelengths
Number of Pixels in Spectrum: 2048
>>>>>Begin Spectral Data<<<<<
341.393	-10.31
341.776	-10.31
342.16	-10.31
342.543	-67.71
342.927	-63.19
343.31	-79.01
343.693	-63.87
344.077	-53.7
344.46	-64.32
344.843	-51.67
345.226	-36.52
345.61	-37.65
345.993	-32.91
346.376	23.36
346.759	-1.5
347.142	39.63
347.525	31.27
347.908	54.55
348.291	76.69
348.674	91.61
349.057	104.04
349.44	138.84
349.823	137.93
350.206	172.74
350.588	181.1
350.971	214.32
351.354	229.91
351.737	229.91
352.119	239.4
352.502	251.38
352.884	256.58
353.267	282.56
353.65	282.11
354.032	277.59
354.414	299.51
354.797	303.58
355.179	309.68
355.562	309.91
355.944	327.99
356.326	318.72
356.709	344.03
357.091	319.85
357.473	322.11
357.855	326.18
358.238	351.49
358.62	327.31
359.002	326.18
359.384	336.35
359.766	339.28
360.148	325.95
360.53	353.3
360.912	330.7
361.294	302
361.676	325.73
362.057	320.53
362.439	337.93
362.821	318.95
363.203	320.75
363.584	313.3
363.966	300.64
364.348	322.34
364.729	302
365.111	317.59
365.493	322.34
365.874	311.71
366.256	308.1
366.637	323.69
367.019	325.73
367.4	284.37
367.781	301.32
368.163	310.81
368.544	319.85
368.925	305.39
369.306	319.62
369.688	309.23
370.069	293.41
370.45	315.33
370.831	311.71
371.212	322.34
371.593	307.2
371.974	315.33
372.355	295.44
372.736	320.75
373.117	314.2
373.498	294.09
373.879	290.7
374.26	319.85
374.641	315.1
375.021	314.2
375.402	314.65
375.783	295.44
376.163	292.73
376.544	330.02
376.925	313.97
377.305	311.49
377.686	351.04
378.066	328.89
378.447	307.65
378.827	329.34
379.208	335.22
379.588	312.84
379.968	305.61
380.349	311.49
380.729	308.1
381.109	338.15
381.489	319.85
381.87	368.44
382.25	328.44
382.63	321.21
383.01	344.26
383.39	339.96
383.77	314.43
384.15	337.48
384.53	371.83
384.91	339.06
385.29	341.32
385.67	363.69
386.049	358.72
386.429	344.03
386.809	346.97
387.189	339.51
387.568	349.45
387.948	337.93
388.328	366.85
388.707	346.06
389.087	341.09
389.466	330.47
389.846	353.75
390.225	364.14
390.605	356.46
390.984	380.19
391.363	356.91
391.743	356.46
392.122	344.93
392.501	352.17
392.881	380.87
393.26	374.99
393.639	380.41
394.018	357.14
394.397	370.02
394.776	377.02
395.155	373.41
395.534	373.18
395.913	378.38
396.292	386.52
396.671	393.52
397.05	379.51
397.429	415.89
397.808	397.14
398.186	384.71
398.565	381.09
398.944	392.16
399.323	388.55
399.701	408.66
400.08	400.53
400.458	401.88
400.837	407.98
401.215	411.83
401.594	410.24
401.972	410.24
402.351	400.75
402.729	400.07
403.107	409.34
403.486	442.56
403.864	424.48
404.242	425.38
404.62	437.14
404.999	441.2
405.377	433.29
405.755	449.34
406.133	439.85
406.511	450.92
406.889	451.6
407.267	452.05
407.645	465.38
408.023	471.03
408.401	475.78
408.779	475.78
409.156	487.98
409.534	494.99
409.912	460.86
410.29	492.73
410.667	514.2
411.045	517.81
411.422	526.62
411.8	502.9
412.178	513.97
412.555	539.96
412.933	543.8
413.31	560.97
413.687	560.75
414.065	566.85
414.442	537.92
414.819	572.27
415.197	578.15
415.574	592.61
415.951	582.22
416.328	611.14
416.705	600.97
417.082	603.91
417.46	616.34
417.837	633.06
418.214	661.31
418.591	633.06
418.967	655.66
419.344	640.52
419.721	650.92
420.098	667.19
420.475	682.78
420.852	682.33
421.228	690.01
421.605	702.44
421.982	706.05
422.358	741.31
422.735	721.87
423.111	747.41
423.488	745.38
423.864	752.61
424.241	761.19
424.617	796
424.994	797.58
425.37	806.84
425.746	796.67
426.123	842.55
426.499	832.61
426.875	824.92
427.251	852.94
427.627	886.84
428.003	870.8
428.379	891.13
428.756	907.86
429.132	870.8
429.507	928.2
429.883	919.61
430.259	934.98
430.635	930.91
431.011	933.39
431.387	959.38
431.763	989.44
432.138	977.23
432.514	990.57
432.89	993.05
433.265	1033.5
433.641	1059.04
434.016	1055.65
434.392	1086.84
434.767	1090.68
435.143	1082.32
435.518	1124.12
435.894	1127.74
436.269	1157.79
436.644	1167.29
437.02	1184.91
437.395	1233.5
437.77	1210.45
438.145	1244.8
438.52	1243.44
438.895	1252.93
439.271	1273.95
439.646	1311.69
440.021	1305.59
440.395	1325.25
440.77	1343.78
441.145	1339.71
441.52	1404.57
441.895	1388.75
442.27	1381.52
442.645	1434.62
443.019	1410.67
443.394	1414.74
443.769	1419.48
444.143	1461.29
444.518	1488.86
444.892	1434.4
445.267	1461.97
445.641	1476.88
446.016	1479.14
446.39	1504.9
446.764	1528.18
447.139	1485.7
447.513	1526.15
447.887	1566.15
448.262	1566.37
448.636	1571.34
449.01	1615.41
449.384	1576.77
449.758	1586.71
450.132	1636.88
450.506	1626.48
450.88	1656.76
451.254	1644.11
451.628	1667.16
452.002	1669.87
452.376	1733.82
452.75	1721.62
453.123	1726.14
453.497	1767.95
453.871	1751.68
454.244	1795.29
454.618	1793.48
454.992	1801.85
455.365	1836.65
455.739	1867.15
456.112	1882.07
456.486	1889.07
456.859	1885.68
457.232	1918.68
457.606	1963.87
457.979	1955.29
458.352	1987.15
458.725	1983.31
459.099	2055.62
459.472	2061.95
459.845	2075.06
460.218	2081.84
460.591	2132.68
460.964	2115.06
461.337	2154.83
461.71	2171.1
462.083	2214.49
462.456	2178.56
462.829	2194.15
463.201	2264.43
463.574	2261.95
463.947	2300.59
464.32	2327.93
464.692	2348.95
465.065	2353.47
465.438	2376.97
465.81	2418.33
466.183	2435.73
466.555	2491.09
466.928	2487.7
467.3	2518.44
467.672	2535.39
468.045	2578.55
468.417	2607.93
468.789	2610.86
469.161	2661.48
469.534	2667.36
469.906	2687.02
470.278	2698.77
470.65	2747.81
471.022	2807.24
471.394	2866.22
471.766	2888.82
472.138	2916.39
472.51	2959.33
472.882	2989.16
473.253	3051.76
473.625	3056.5
473.997	3063.73
474.369	3121.81
474.74	3156.39
475.112	3185.31
475.484	3257.4
475.855	3294.91
476.227	3338.75
476.598	3395.25
476.97	3412.42
477.341	3484.51
477.713	3490.84
478.084	3531.97
478.455	3656.26
478.827	3665.98
479.198	3750.04
479.569	3735.81
479.94	3831.85
480.311	3853.77
480.682	3894.67
481.053	3976.93
481.424	4045.4
481.795	4096.7
482.166	4103.48
482.537	4202.91
482.908	4268.9
483.279	4258.5
483.65	4319.07
484.021	4394.77
484.391	4496.46
484.762	4483.58
485.133	4537.82
485.503	4566.97
485.874	4623.92
486.244	4683.58
486.615	4717.25
486.985	4745.5
487.356	4881.09
487.726	4910.69
488.097	4933.74
488.467	4964.25
488.837	5111.59
489.207	5105.04
489.578	5198.14
489.948	5246.05
490.318	5296.22
490.688	5311.81
491.058	5354.97
491.428	5450.34
491.798	5463.44
492.168	5559.94
492.538	5590.22
492.908	5628.41
493.278	5672.03
493.648	5696.66
494.017	5706.83
494.387	5752.93
494.757	5808.97
495.126	5873.38
495.496	5858.91
495.866	5914.96
496.235	5903.88
496.605	5999.02
496.974	5988.85
497.344	6065.91
497.713	6075.18
498.082	6099.13
498.452	6180.26
498.821	6176.87
499.19	6176.19
499.559	6229.53
499.928	6279.92
500.298	6280.82
500.667	6327.38
501.036	6293.7
501.405	6320.82
501.774	6321.95
502.143	6411.89
502.512	6431.1
502.88	6467.49
503.249	6415.96
503.618	6487.37
503.987	6462.51
504.356	6521.72
504.724	6568.95
505.093	6566.92
505.462	6628.84
505.83	6603.98
506.199	6635.84
506.567	6698.67
506.936	6709.06
507.304	6764.88
507.672	6751.09
508.041	6796.29
508.409	6803.3
508.777	6838.55
509.145	6918.55
509.514	6860.24
509.882	6860.02
510.25	6865.21
510.618	6934.59
510.986	6895.72
511.354	6940.02
511.722	7024.31
512.09	7033.57
512.458	6978.43
512.826	7090.29
513.193	7025.89
513.561	7026.34
513.929	7089.39
514.297	7169.84
514.664	7134.59
515.032	7113.8
515.4	7219.1
515.767	7219.78
516.135	7201.7
516.502	7174.13
516.869	7300.46
517.237	7252.55
517.604	7241.48
517.972	7285.99
518.339	7293.45
518.706	7254.36
519.073	7285.77
519.44	7310.85
519.808	7345.2
520.175	7333.23
520.542	7401.47
520.909	7402.38
521.276	7344.07
521.643	7460.68
522.009	7489.15
522.376	7444.63
522.743	7450.96
523.11	7545.65
523.477	7573.22
523.843	7566.21
524.21	7560.34
524.577	7596.5
524.943	7596.5
525.31	7572.99
525.676	7697.96
526.043	7663.61
526.409	7703.16
526.776	7736.15
527.142	7718.53
527.508	7763.72
527.874	7796.04
528.241	7809.6
528.607	7738.41
528.973	7815.25
529.339	7769.82
529.705	7836.26
530.071	7792.87
530.437	7803.95
530.803	7912.42
531.169	7943.83
531.535	7845.53
531.901	7936.6
532.267	7883.04
532.632	7915.58
532.998	7877.84
533.364	7879.2
533.73	7888.46
534.095	7990.16
534.461	7903.15
534.826	7917.84
535.192	7896.6
535.557	7966.43
535.923	7963.49
536.288	7911.52
536.653	7902.25
537.019	7876.71
537.384	7872.42
537.749	7953.55
538.114	7887.56
538.479	7871.29
538.845	7907
539.21	7858.86
539.575	7920.78
539.94	7912.87
540.305	7931.85
540.67	7911.29
541.034	7902.7
541.399	7943.15
541.764	7904.96
542.129	7910.16
542.494	7891.4
542.858	7920.78
543.223	7830.39
543.587	7925.3
543.952	7872.87
544.316	7872.42
544.681	7820.44
545.045	7869.26
545.41	7852.31
545.774	7854.12
546.138	7834
546.503	7795.36
546.867	7811.86
547.231	7848.24
547.595	7856.83
547.959	7752.65
548.324	7843.72
548.688	7820.9
549.052	7807.56
549.416	7805.98
549.779	7784.74
550.143	7789.03
550.507	7836.49
550.871	7849.82
551.235	7713.55
551.599	7793.78
551.962	7795.13
552.326	7754.91
552.689	7828.13
553.053	7746.77
553.417	7790.39
553.78	7847.79
554.143	7769.37
554.507	7786.09
554.87	7794.91
555.234	7831.97
555.597	7748.58
555.96	7794.23
556.323	7816.83
556.686	7852.31
557.05	7912.87
557.413	7843.72
557.776	7828.13
558.139	7876.04
558.502	7848.69
558.865	7797.39
559.228	7870.61
559.59	7830.61
559.953	7839.43
560.316	7956.26
560.679	7964.62
561.041	8054.11
561.404	7921.91
561.767	8034.9
562.129	7944.28
562.492	8002.36
562.854	7990.84
563.217	8040.78
563.579	8018.86
563.941	8023.15
564.304	8066.09
564.666	8097.27
565.028	8075.13
565.39	8123.04
565.753	8114.9
566.115	8163.71
566.477	8202.35
566.839	8158.51
567.201	8219.08
567.563	8228.57
567.925	8207.78
568.287	8239.64
568.648	8276.25
569.01	8334.33
569.372	8381.33
569.734	8348.57
570.095	8353.31
570.457	8394.44
570.819	8388.34
571.18	8422.69
571.542	8412.74
571.903	8469.24
572.265	8469.92
572.626	8463.37
572.987	8551.27
573.349	8506.53
573.71	8606.41
574.071	8585.62
574.432	8567.32
574.794	8595.34
575.155	8643.25
575.516	8627.65
575.877	8709.46
576.238	8690.25
576.599	8706.97
576.96	8676.47
577.32	8717.37
577.681	8782.68
578.042	8812.96
578.403	8796.24
578.763	8806.18
579.124	8800.98
579.485	8878.72
579.845	8912.84
580.206	8898.61
580.566	8900.19
580.927	8893.64
581.287	9002.33
581.648	8969.11
582.008	8981.54
582.368	8951.04
582.728	9026.97
583.089	9011.6
583.449	8969.11
583.809	9134.99
584.169	9109
584.529	9038.27
584.889	9161.88
585.249	9104.03
585.609	9112.84
585.969	9132.5
586.329	9094.31
586.688	9148.32
587.048	9107.87
587.408	9159.84
587.768	9215.66
588.127	9137.02
588.487	9209.56
588.846	9170.69
589.206	9222.22
589.565	9214.53
589.925	9201.88
590.284	9281.87
590.643	9272.16
591.003	9251.59
591.362	9264.47
591.721	9296.11
592.08	9291.82
592.44	9328.2
592.799	9384.47
593.158	9322.78
593.517	9330.91
593.876	9338.6
594.235	9375.43
594.593	9344.7
594.952	9371.36
595.311	9352.61
595.67	9382.89
596.029	9402.1
596.387	9461.98
596.746	9436.45
597.104	9370.46
597.463	9406.39
597.822	9468.31
598.18	9441.19
598.538	9455.43
598.897	9474.19
599.255	9403.91
599.613	9498.59
599.972	9404.13
600.33	9477.8
600.688	9408.42
601.046	9514.18
601.404	9558.7
601.762	9502.89
602.12	9541.75
602.478	9492.94
602.836	9534.52
603.194	9511.93
603.552	9562.09
603.91	9584.92
604.268	9518.03
604.625	9500.17
604.983	9592.6
605.341	9518.03
605.698	9583.34
606.056	9537.69
606.413	9523.22
606.771	9555.54
607.128	9592.37
607.485	9555.77
607.843	9538.37
608.2	9656.55
608.557	9571.13
608.914	9602.32
609.272	9685.25
609.629	9669.44
609.986	9775.65
610.343	9639.38
610.7	9730.45
611.057	9746.72
611.414	9734.97
611.771	9686.84
612.127	9692.71
612.484	9739.49
612.841	9828.53
613.198	9781.07
613.554	9780.17
613.911	9809.32
614.267	9721.19
614.624	9749.21
614.98	9818.58
615.337	9840.73
615.693	9749.88
616.05	9805.48
616.406	9876.44
616.762	9819.71
617.118	9787.62
617.475	9857.68
617.831	9900.62
618.187	9873.5
618.543	9850.22
618.899	9925.25
619.255	9861.29
619.611	9889.77
619.967	9894.74
620.323	9962.76
620.678	9913.72
621.034	9927.28
621.39	9885.93
621.746	9933.16
622.101	10034.4
622.457	9868.07
622.812	9950.33
623.168	9958.47
623.523	9900.62
623.879	10006.15
624.234	9937.9
624.589	9944.46
624.945	9920.05
625.3	9905.59
625.655	9954.17
626.01	9855.64
626.365	9894.29
626.72	9897.9
627.075	9956.89
627.43	9906.49
627.785	9857.68
628.14	9875.76
628.495	9885.02
628.85	9805.93
629.205	9892.25
629.559	9828.53
629.914	9894.51
630.269	9851.8
630.623	9829.88
630.978	9866.49
631.332	9823.56
631.687	9781.3
632.041	9764.12
632.396	9799.15
632.75	9739.26
633.104	9771.81
633.459	9731.13
633.813	9779.04
634.167	9709.21
634.521	9740.17
634.875	9669.89
635.229	9706.95
635.583	9628.76
635.937	9686.84
636.291	9615.88
636.645	9693.62
636.999	9608.65
637.352	9688.87
637.706	9597.57
638.06	9642.09
638.413	9563.22
638.767	9588.99
639.121	9605.48
639.474	9499.27
639.828	9554.86
640.181	9548.31
640.534	9494.07
640.888	9527.07
641.241	9507.41
641.594	9497.24
641.947	9487.52
642.301	9488.2
642.654	9547.18
643.007	9457.46
643.36	9452.27
643.713	9422.89
644.066	9475.77
644.419	9466.28
644.771	9444.81
645.124	9318.03
645.477	9297.24
645.83	9243.23
646.182	9193.06
646.535	9110.81
646.888	9177.24
647.24	9167.53
647.593	9234.42
647.945	9126.85
648.298	9108.77
648.65	9082.56
649.002	9084.82
649.355	9209.33
649.707	9173.4
650.059	9130.47
650.411	9247.98
650.763	9236.68
651.115	9330.69
651.467	9258.15
651.819	9337.01
652.171	9266.28
652.523	9249.33
652.875	9254.08
653.227	9265.38
653.578	9338.14
653.93	9283.23
654.282	9231.25
654.633	9322.78
654.985	9329.33
655.337	9283.68
655.688	9304.92
656.039	9391.02
656.391	9250.01
656.742	9235.55
657.094	9290.91
657.445	9287.52
657.796	9310.12
658.147	9262.44
658.498	9265.38
658.849	9236.9
659.2	9238.49
659.551	9194.87
659.902	9281.87
660.253	9234.42
660.604	9337.01
660.955	9219.28
661.306	9375.43
661.656	9227.19
662.007	9276.9
662.358	9312.38
662.708	9264.02
663.059	9298.37
663.409	9207.75
663.76	9346.05
664.11	9304.92
664.461	9342.89
664.811	9278.26
665.161	9295.21
665.511	9256.79
665.862	9271.25
666.212	9326.39
666.562	9350.35
666.912	9302.44
667.262	9264.47
667.612	9273.74
667.962	9265.38
668.312	9228.54
668.662	9326.62
669.011	9229.67
669.361	9166.85
669.711	9237.13
670.06	9195.1
670.41	9261.08
670.76	9199.62
671.109	9276.45
671.459	9215.89
671.808	9166.62
672.157	9200.29
672.507	9156.45
672.856	9241.65
673.205	9236.68
673.554	9246.62
673.904	9172.72
674.253	9202.1
674.602	9192.61
674.951	9075.55
675.3	8950.13
675.649	9083.24
675.998	9113.29
676.346	9131.6
676.695	9203.46
677.044	9071.26
677.393	9137.02
677.741	9117.36
678.09	9014.31
678.438	9109
678.787	9024.48
679.135	9105.38
679.484	9019.96
679.832	9061.77
680.181	8956.01
680.529	8994.65
680.877	8896.35
681.225	8912.17
681.573	8987.65
681.922	8913.52
682.27	8916.23
682.618	8860.87
682.966	8854.77
683.314	8847.76
683.661	8850.7
684.009	8779.29
684.357	8790.36
684.705	8755.11
685.053	8807.08
685.4	8799.63
685.748	8754.2
686.095	8747.43
686.443	8712.85
686.79	8651.83
687.138	8724.38
687.485	8676.24
687.832	8645.96
688.18	8601.44
688.527	8630.82
688.874	8568
689.221	8561.44
689.568	8517.37
689.915	8459.52
690.262	8481.9
690.609	8472.18
690.956	8441.67
691.303	8436.25
691.65	8393.54
691.997	8318.51
692.344	8298.85
692.69	8299.75
693.037	8338.62
693.383	8269.25
693.73	8228.12
694.077	8205.97
694.423	8168.23
694.769	8098.4
695.116	8131.4
695.462	8055.92
695.808	8102.02
696.155	8025.41
696.501	8036.26
696.847	8022.7
697.193	7921.68
697.539	7973.66
697.885	7833.1
698.231	7857.05
698.577	7853.21
698.923	7845.75
699.269	7796.04
699.614	7799.43
699.96	7729.6
700.306	7719.43
700.651	7686.89
700.997	7632.65
701.342	7671.97
701.688	7682.82
702.033	7628.13
702.379	7610.28
702.724	7560.56
703.069	7599.66
703.415	7509.49
703.76	7538.64
704.105	7524.18
704.45	7495.71
704.795	7401.25
705.14	7414.35
705.485	7356.05
705.83	7382.94
706.175	7327.12
706.52	7309.27
706.865	7240.12
707.209	7219.78
707.554	7284.41
707.899	7261.59
708.243	7204.87
708.588	7266.56
708.932	7156.51
709.277	7090.52
709.621	7168.71
709.966	7061.82
710.31	7135.49
710.654	7026.79
710.998	7073.8
711.342	7039.22
711.687	6988.38
712.031	7003.97
712.375	6974.36
712.719	6987.92
713.063	6928.72
713.407	6959.22
713.75	6882.16
714.094	6874.25
714.438	6917.42
714.782	6866.12
715.125	6869.51
715.469	6867.47
715.812	6796.74
716.156	6826.35
716.499	6805.56
716.843	6809.4
717.186	6795.16
717.53	6845.33
717.873	6796.97
718.216	6783.64
718.559	6697.54
718.902	6724.43
719.246	6683.3
719.589	6714.26
719.932	6660.93
720.275	6693.69
720.617	6625.67
720.96	6737.76
721.303	6703.64
721.646	6685.33
721.989	6603.98
722.331	6694.37
722.674	6670.42
723.016	6636.07
723.359	6649.18
723.701	6661.83
724.044	6545.45
724.386	6657.99
724.729	6596.97
725.071	6601.04
725.413	6548.84
725.755	6536.64
726.097	6507.48
726.439	6537.54
726.782	6536.41
727.124	6581.15
727.465	6484.21
727.807	6495.73
728.149	6617.31
728.491	6515.62
728.833	6555.84
729.175	6520.59
729.516	6475.85
729.858	6531.66
730.199	6504.77
730.541	6491.67
730.882	6524.21
731.224	6499.35
731.565	6436.3
731.906	6534.83
732.248	6488.28
732.589	6481.72
732.93	6463.42
733.271	6541.16
733.612	6519.69
733.953	6545.45
734.294	6455.73
734.635	6454.15
734.976	6493.47
735.317	6425.68
735.658	6420.71
735.999	6486.02
736.339	6465
736.68	6497.99
737.021	6469.97
737.361	6499.57
737.702	6500.25
738.042	6477.2
738.383	6465.23
738.723	6505.22
739.063	6476.52
739.404	6528.95
739.744	6471.1
740.084	6493.7
740.424	6546.35
740.764	6508.39
741.104	6545
741.444	6500.48
741.784	6521.95
742.124	6540.48
742.464	6573.92
742.804	6543.42
743.143	6507.03
743.483	6555.62
743.823	6561.72
744.162	6584.77
744.502	6580.48
744.841	6679.91
745.181	6703.64
745.52	6627.71
745.86	6717.65
746.199	6754.26
746.538	6690.76
746.877	6808.95
747.216	6797.87
747.556	6813.46
747.895	6866.12
748.234	6873.35
748.573	6925.33
748.911	6971.43
749.25	7046.23
749.589	7040.35
749.928	7104.3
750.267	7153.12
750.605	7151.99
750.944	7180.23
751.283	7300.46
751.621	7352.66
751.96	7456.61
752.298	7441.47
752.636	7503.16
752.975	7652.09
753.313	7653.44
753.651	7756.72
753.989	7836.49
754.327	7863.38
754.666	7970.72
755.004	8002.81
755.342	8156.93
755.679	8139.08
756.017	8248.23
756.355	8433.76
756.693	8494.1
757.031	8592.63
757.368	8638.05
757.706	8732.28
758.044	8841.43
758.381	9003.24
758.719	9072.39
759.056	9196.68
759.394	9289.56
759.731	9391.02
760.068	9491.36
760.405	9624.46
760.743	9746.27
761.08	9935.64
761.417	9978.13
761.754	10050.22
762.091	10185.81
762.428	10340.15
762.765	10372.02
763.102	10609.3
763.438	10583.76
763.775	10717.77
764.112	10915.73
764.449	10985.56
764.785	11080.47
765.122	11174.48
765.458	11345.55
765.795	11358.43
766.131	11504.19
766.467	11664.41
766.804	11822.37
767.14	11784.63
767.476	12001.13
767.812	11997.06
768.148	12229.37
768.485	12272.3
768.821	12255.81
769.157	12365.64
769.492	12532.86
769.828	12615.8
770.164	12602.24
770.5	12664.61
770.836	12842.23
771.171	12891.05
771.507	12916.81
771.842	12913.64
772.178	13027.76
772.513	13079.74
772.849	13140.76
773.184	13173.07
773.519	13262.33
773.855	13334.65
774.19	13296.23
774.525	13392.5
774.86	13470.01
775.195	13530.8
775.53	13451.48
775.865	13482.67
776.2	13517.7
776.535	13509.56
776.87	13564.7
777.205	13609.9
777.539	13609.44
777.874	13706.17
778.209	13673.4
778.543	13656.67
778.878	13688.76
779.212	13757.92
779.547	13679.5
779.881	13745.03
780.215	13705.26
780.55	13865.26
780.884	13792.72
781.218	13818.93
781.552	13865.26
781.886	13813.96
782.22	13750.91
782.554	13806.73
782.888	13725.15
783.222	13743
783.556	13704.58
783.889	13687.18
784.223	13643.79
784.557	13666.17
784.89	13701.42
785.224	13610.12
785.557	13642.89
785.891	13592.27
786.224	13662.32
786.558	13706.84
786.891	13510.01
787.224	13486.06
787.557	13559.73
787.891	13524.7
788.224	13524.02
788.557	13554.76
788.89	13535.55
789.223	13526.06
789.556	13417.81
789.888	13378.04
790.221	13349.11
790.554	13338.27
790.887	13298.72
791.219	13448.77
791.552	13291.71
791.884	13244.48
792.217	13299.85
792.549	13201.32
792.882	13181.43
793.214	13166.97
793.546	13156.57
793.879	13046.75
794.211	13081.32
794.543	13107.54
794.875	13141.66
795.207	13058.95
795.539	13024.83
795.871	13048.78
796.203	12988.67
796.535	12837.94
796.867	12813.76
797.198	12863.25
797.53	12865.51
797.862	12724.27
798.193	12758.39
798.525	12711.39
798.856	12726.53
799.188	12660.54
799.519	12585.74
799.85	12571.51
800.182	12593.43
800.513	12591.84
800.844	12445.86
801.175	12592.3
801.506	12562.24
801.837	12480.43
802.168	12465.75
802.499	12394.11
802.83	12400.21
803.161	12373.32
803.491	12335.81
803.822	12361.12
804.153	12209.93
804.483	12207
804.814	12209.93
805.145	12161.12
805.475	12232.98
805.805	12148.47
806.136	12190.95
806.466	12123.83
806.796	12132.65
807.126	11967.23
807.457	11949.38
807.787	11928.13
808.117	11853.78
808.447	11848.13
808.777	11880.22
809.107	11848.59
809.436	11842.94
809.766	11763.84
810.096	11699.44
810.426	11720.68
810.755	11769.72
811.085	11756.84
811.414	11636.61
811.744	11589.38
812.073	11506.45
812.403	11570.85
812.732	11497.86
813.061	11554.58
813.39	11489.95
813.719	11450.41
814.049	11591.64
814.378	11469.61
814.707	11475.04
815.036	11416.06
815.365	11414.02
815.693	11309.62
816.022	11312.78
816.351	11322.5
816.68	11181.94
817.008	11271.88
817.337	11207.02
817.665	11083.41
817.994	11131.09
818.322	11168.6
818.651	11139.23
818.979	11103.97
819.307	11179.9
819.636	11159.34
819.964	11036.4
820.292	11107.36
820.62	11057.42
820.948	11113.92
821.276	11080.02
821.604	11036.63
821.932	11019.68
822.259	10996.63
822.587	10996.41
822.915	10983.75
823.243	10978.55
823.57	11032.79
823.898	11066.23
824.225	11030.98
824.553	11028.27
824.88	11089.96
825.207	11037.76
825.535	10955.73
825.862	10979.01
826.189	11019
826.516	11073.69
826.843	11072.56
827.17	11088.38
827.497	11016.52
827.824	11068.95
828.151	11071.66
828.478	11057.65
828.805	11103.07
829.131	11050.87
829.458	11059.45
829.785	10995.5
830.111	11007.93
830.438	11064.2
830.764	11038.21
831.09	11085.67
831.417	10996.41
831.743	11072.34
832.069	10993.02
832.395	11048.38
832.722	10972.23
833.048	10997.54
833.374	10923.87
833.7	10912.34
834.026	10931.32
834.351	10993.92
834.677	10944.2
835.003	10943.98
835.329	10931.32
835.654	10906.01
835.98	10862.85
836.306	10872.12
836.631	10832.34
836.956	10912.79
837.282	10887.03
837.607	10760.71
837.932	10776.98
838.258	10837.77
838.583	10780.37
838.908	10732.68
839.233	10755.51
839.558	10716.64
839.883	10609.3
840.208	10721.16
840.533	10691.56
840.858	10716.41
841.182	10661.73
841.507	10646.58
841.832	10621.95
842.156	10572.01
842.481	10582.63
842.805	10613.37
843.13	10561.39
843.454	10413.82
843.778	10505.12
844.103	10476.42
844.427	10398.91
844.751	10390.55
845.075	10378.34
845.399	10344.22
845.723	10330.89
846.047	10330.66
846.371	10181.51
846.695	10253.37
847.019	10114.62
847.343	10081.63
847.666	10143.32
847.99	9996.21
848.313	10027.62
848.637	9948.98
848.96	9868.3
849.284	9878.47
849.607	9840.05
849.931	9837.57
850.254	9734.74
850.577	9741.07
850.9	9627.63
851.223	9705.14
851.546	9653.62
851.869	9569.32
852.192	9584.92
852.515	9489.1
852.838	9484.58
853.161	9489.78
853.483	9373.4
853.806	9375.43
854.129	9420.85
854.451	9325.04
854.774	9304.47
855.096	9281.65
855.419	9295.89
855.741	9256.79
856.063	9179.05
856.385	9151.93
856.708	9076
857.03	9170.01
857.352	9150.58
857.674	9038.49
857.996	8987.19
858.318	8982.67
858.64	9042.78
858.961	8941.77
859.283	8917.82
859.605	8925.05
859.926	8926.18
860.248	8892.28
860.57	8834.2
860.891	8907.2
861.212	8775.67
861.534	8764.6
861.855	8751.49
862.176	8745.17
862.498	8754.43
862.819	8665.85
863.14	8702.23
863.461	8720.99
863.782	8704.04
864.103	8622.68
864.424	8615.45
864.745	8652.96
865.065	8570.03
865.386	8616.58
865.707	8539.3
866.027	8651.38
866.348	8498.17
866.668	8560.99
866.989	8538.84
867.309	8471.5
867.63	8488.9
867.95	8409.81
868.27	8374.1
868.59	8365.06
868.91	8397.38
869.23	8357.61
869.55	8373.42
869.87	8393.31
870.19	8405.74
870.51	8455
870.83	8376.59
871.15	8293.65
871.469	8292.07
871.789	8346.98
872.109	8351.28
872.428	8303.37
872.748	8337.27
873.067	8313.99
873.386	8263.82
873.706	8222.69
874.025	8182.02
874.344	8150.83
874.663	8152.86
874.982	8240.55
875.301	8156.48
875.62	8121.91
875.939	8112.64
876.258	8125.75
876.577	8090.95
876.896	8055.92
877.214	8124.39
877.533	8104.05
877.852	8077.16
878.17	8088.46
878.489	8035.35
878.807	8010.5
879.125	8048.01
879.444	8008.01
879.762	8034.45
880.08	8017.73
880.398	7927.79
880.716	7993.32
881.034	7930.72
881.352	7949.25
881.67	7878.07
881.988	7877.17
882.306	7845.53
882.624	7856.38
882.941	7760.33
883.259	7770.73
883.577	7779.09
883.894	7791.29
884.212	7764.4
884.529	7782.03
884.846	7712.42
885.164	7636.72
885.481	7645.99
885.798	7721.69
886.115	7582.94
886.432	7639.88
886.75	7594.01
887.067	7584.97
887.383	7609.15
887.7	7557.4
888.017	7577.51
888.334	7526.89
888.651	7472.43
888.967	7519.21
889.284	7430.62
889.6	7401.02
889.917	7382.26
890.233	7431.98
890.55	7380.68
890.866	7355.6
891.182	7328.71
891.498	7288.25
891.815	7285.54
892.131	7256.17
892.447	7231.53
892.763	7201.48
893.079	7219.33
893.395	7224.98
893.71	7164.87
894.026	7141.82
894.342	7142.95
894.657	7109.95
894.973	7046
895.289	7102.27
895.604	7087.81
895.92	6994.25
896.235	6964.87
896.55	6993.35
896.865	6951.31
897.181	6891.2
897.496	6875.38
897.811	6923.74
898.126	6839.45
898.441	6796.06
898.756	6762.39
899.071	6774.37
899.386	6741.83
899.7	6691.43
900.015	6667.71
900.33	6615.28
900.644	6598.78
900.959	6679.01
901.273	6577.31
901.588	6579.12
901.902	6558.56
902.216	6451.89
902.531	6470.42
902.845	6399.24
903.159	6400.37
903.473	6414.83
903.787	6389.52
904.101	6343.42
904.415	6367.37
904.729	6298.22
905.042	6270.88
905.356	6284.44
905.67	6232.24
905.984	6263.87
906.297	6258
906.611	6200.15
906.924	6147.72
907.237	6182.97
907.551	6127.83
907.864	6083.54
908.177	6158.11
908.491	6095.97
908.804	6020.04
909.117	6020.49
909.43	6014.62
909.743	5944.11
910.056	5950.66
910.368	5945.69
910.681	5850.55
910.994	5918.12
911.307	5827.73
911.619	5850.33
911.932	5854.62
912.244	5743.89
912.557	5726.49
912.869	5735.3
913.181	5718.13
913.494	5668.18
913.806	5696.66
914.118	5601.29
914.43	5582.31
914.742	5616.21
915.054	5562.88
915.366	5526.49
915.678	5547.28
915.99	5484.46
916.302	5400.62
916.613	5462.54
916.925	5407.63
917.236	5411.69
917.548	5364.46
917.859	5414.18
918.171	5347.74
918.482	5324.46
918.794	5297.8
919.105	5345.25
919.416	5233.85
919.727	5256.9
920.038	5205.82
920.349	5179.61
920.66	5149.1
920.971	5233.62
921.282	5147.52
921.593	5102.78
921.903	5102.78
922.214	5117.92
922.525	5051.93
922.835	5013.06
923.146	5012.61
923.456	5002.21
923.767	4960.86
924.077	4972.38
924.387	4912.95
924.697	4893.74
925.008	4906.4
925.318	4876.57
925.628	4839.51
925.938	4846.29
926.248	4804.7
926.558	4820.07
926.867	4745.95
927.177	4788.21
927.487	4748.66
927.796	4723.35
928.106	4710.47
928.416	4704.82
928.725	4677.25
929.034	4639.28
929.344	4627.99
929.653	4661.88
929.962	4584.82
930.271	4554.54
930.581	4551.6
930.89	4529.23
931.199	4530.81
931.508	4522.23
931.817	4499.4
932.125	4470.7
932.434	4464.15
932.743	4420.31
933.051	4389.57
933.36	4398.16
933.669	4404.94
933.977	4350.93
934.286	4317.71
934.594	4319.97
934.902	4307.77
935.21	4288.33
935.519	4285.62
935.827	4253.31
936.135	4269.8
936.443	4173.53
936.751	4223.93
937.059	4173.76
937.367	4193.42
937.674	4173.53
937.982	4163.82
938.29	4149.58
938.597	4070.94
938.905	4040.66
939.213	4068.45
939.52	4020.77
939.827	4076.14
940.135	4020.32
940.442	4026.19
940.749	3952.3
941.056	3996.36
941.363	3956.14
941.67	3942.35
941.977	3959.3
942.284	3885.18
942.591	3895.35
942.898	3883.82
943.205	3850.38
943.511	3834.56
943.818	3831.62
944.125	3797.95
944.431	3795.47
944.738	3793.43
945.044	3761.79
945.35	3738.29
945.657	3695.58
945.963	3740.33
946.269	3647.45
946.575	3655.36
946.881	3672.98
947.187	3624.4
947.493	3607.67
947.799	3593.21
948.105	3605.87
948.41	3558.41
948.716	3569.26
949.022	3535.36
949.327	3520.9
949.633	3549.82
949.938	3492.42
950.244	3512.99
950.549	3463.72
950.854	3498.75
951.16	3477.73
951.465	3447.45
951.77	3409.71
952.075	3412.65
952.38	3431.63
952.685	3366.55
952.99	3398.41
953.294	3346.89
953.599	3364.52
953.904	3292.2
954.209	3270.28
954.513	3302.37
954.818	3273.67
955.122	3272.77
955.426	3253.33
955.731	3261.47
956.035	3226.67
956.339	3204.52
956.643	3191.87
956.948	3225.08
957.252	3162.26
957.556	3130.85
957.86	3190.51
958.163	3121.81
958.467	3116.84
958.771	3126.78
959.075	3110.96
959.378	3087.69
959.682	3075.94
959.985	3074.58
960.289	3047.46
960.592	3026.45
960.896	3021.7
961.199	2966.11
961.502	3026.9
961.805	2984.64
962.108	2984.64
962.411	2937.86
962.714	2946.45
963.017	2948.26
963.32	2938.31
963.623	2919.1
963.926	2933.11
964.228	2878.2
964.531	2864.87
964.833	2838.65
965.136	2859.22
965.438	2811.76
965.741	2800.01
966.043	2799.79
966.345	2792.55
966.648	2802.95
966.95	2799.11
967.252	2803.4
967.554	2768.83
967.856	2745.32
968.158	2710.52
968.46	2696.96
968.761	2710.97
969.063	2692.44
969.365	2703.06
969.666	2710.3
969.968	2665.33
970.269	2655.16
970.571	2608.6
970.872	2623.74
971.174	2618.32
971.475	2630.07
971.776	2583.07
972.077	2644.31
972.378	2595.5
972.679	2575.16
972.98	2535.84
973.281	2524.09
973.582	2549.4
973.883	2543.75
974.183	2532.67
974.484	2523.86
974.785	2492
975.085	2513.92
975.386	2464.65
975.686	2485.9
975.986	2471.21
976.287	2437.76
976.587	2421.26
976.887	2410.87
977.187	2422.17
977.487	2363.86
977.787	2380.81
978.087	2397.54
978.387	2360.25
978.687	2351.89
978.987	2346.01
979.286	2322.06
979.586	2318.22
979.885	2320.48
980.185	2322.28
980.484	2284.09
980.784	2267.6
981.083	2296.75
981.382	2254.71
981.682	2277.31
981.981	2226.47
982.28	2226.24
982.579	2214.04
982.878	2236.18
983.177	2212.46
983.475	2197.77
983.774	2160.25
984.073	2169.97
984.372	2155.73
984.67	2172.46
984.969	2141.95
985.267	2121.61
985.566	2153.7
985.864	2181.5
986.162	2139.92
986.461	2073.02
986.759	2128.16
987.057	2073.02
987.355	2095.4
987.653	2049.52
987.951	2082.29
988.249	2097.43
988.547	2080.71
988.844	2034.83
989.142	2046.58
989.44	2025.57
989.737	2010.2
990.035	2020.37
990.332	1997.32
990.63	1987.83
990.927	1950.32
991.224	1947.6
991.521	1977.89
991.819	1987.6
992.116	1925.68
992.413	1919.81
992.71	1914.38
993.006	1893.59
993.303	1918.68
993.6	1904.22
993.897	1909.87
994.193	1887.49
994.49	1875.52
994.787	1858.79
995.083	1843.65
995.379	1845.91
995.676	1837.1
995.972	1829.64
996.268	1810.88
996.565	1813.82
996.861	1784.67
997.157	1800.49
997.453	1768.17
997.749	1799.36
998.044	1779.92
998.34	1767.5
998.636	1761.62
998.932	1725.46
999.227	1731.56
999.523	1700.38
999.818	1711.9
1000.114	1704.67
1000.409	1680.94
1000.704	1689.08
1001	1675.75
1001.295	1678.68
1001.59	1677.78
1001.885	1647.73
1002.18	1644.34
1002.475	1627.61
1002.77	1628.29
1003.065	1607.05
1003.359	1626.93
1003.654	1602.75
1003.949	1586.48
1004.243	1588.52
1004.538	1560.5
1004.832	1585.81
1005.127	1539.71
1005.421	1566.37
1005.715	1549.65
1006.009	1524.34
1006.304	1537.67
1006.598	1542.87
1006.892	1531.8
1007.186	1512.59
1007.48	1504.23
1007.773	1487.5
1008.067	1496.54
1008.361	1482.53
1008.655	1470.78
1008.948	1441.4
1009.242	1464.9
1009.535	1423.1
1009.829	1437.11
1010.122	1420.39
1010.415	1397.79
1010.708	1417.45
1011.001	1395.53
1011.295	1377.9
1011.588	1387.62
1011.881	1372.7
1012.173	1380.39
1012.466	1367.73
1012.759	1348.98
1013.052	1370.9
1013.344	1367.05
1013.637	1335.87
1013.93	1343.55
1014.222	1308.07
1014.514	1318.69
1014.807	1307.17
1015.099	1313.5
1015.391	1264.23
1015.683	1290.9
1015.976	1267.17
1016.268	1259.49
1016.56	1247.74
1016.851	1252.48
1017.143	1246.83
1017.435	1243.89
1017.727	1236.66
1018.018	1238.47
1018.31	1221.52
1018.602	1194.86
1018.893	1191.92
1019.185	1187.62
1019.476	1189.21
1019.767	1185.82
1020.058	1180.62
1020.35	1163.67
1020.641	1167.74
1020.932	1179.26
1021.223	1145.59
1021.514	1113.28
1021.804	1132.48
1022.095	1130.9
1022.386	1127.06
1022.677	1122.54
1022.967	1108.98
1023.258	1118.47
1023.548	1095.2
1023.839	1089.55
1024.129	1099.26
1024.419	1080.96
1024.709	1061.07
1025	1061.53
1025.29	1056.78
1025.58	1046.38
1025.87	1020.4
1026.16	1037.12
1026.449	1030.34
1026.739	1033.5
1027.029	1003.45
1027.319	1021.98
1027.608	1011.13
1027.898	1010.45
1028.187	982.88
1028.477	980.62
1028.766	981.98
1029.055	982.66
1029.344	975.2
1029.634	957.8
1029.923	958.48
1030.212	951.47
1030.501	949.44
1030.79	939.5
1031.078	915.31
1031.367	921.42
1031.656	932.26
1031.945	909.21
1032.233	924.35
1032.522	920.06
1032.81	917.8
1033.099	926.61
1033.387	902.89
1033.675	881.19
1033.963	872.15
1034.251	876.67
1034.54	877.12
1034.828	880.29
1035.116	871.93
1035.403	881.19
1035.691	843
1035.979	850.91
1036.267	866.73
1036.554	838.71
1036.842	830.57
1037.129	847.52
1037.417	827.18
1037.704	802.78
1037.992	828.99
1038.279	797.58
1038.566	790.8
1038.853	790.8
1039.14	790.8
