Data from hue_20_FLMS001491_16.txt Node
Date: Mon Feb 06 15:33:41 GMT 2017
User: dcchb
Spectrometer: FLMS00149
Trigger mode: 0
Integration Time (sec): 2.000000E-2
Scans to average: 10
Electric dark correction enabled: true
Nonlinearity correction enabled: false
Boxcar width: 0
XAxis mode: Wavelengths
Number of Pixels in Spectrum: 2048
>>>>>Begin Spectral Data<<<<<
341.393	-4.89
341.776	-4.89
342.16	-4.89
342.543	-73.81
342.927	-60.48
343.31	-54.38
343.693	-69.97
344.077	-77.88
344.46	-59.8
344.843	-58.22
345.226	-32.46
345.61	-21.84
345.993	-11.67
346.376	1.21
346.759	-15.73
347.142	25.62
347.525	31.04
347.908	50.25
348.291	84.38
348.674	86.86
349.057	122.57
349.44	118.27
349.823	150.36
350.206	157.37
350.588	195.56
350.971	203.02
351.354	236.01
351.737	224.26
352.119	256.35
352.502	277.14
352.884	266.97
353.267	277.37
353.65	285.73
354.032	295.9
354.414	307.2
354.797	314.65
355.179	326.86
355.562	309.68
355.944	330.25
356.326	318.49
356.709	332.96
357.091	332.73
357.473	345.61
357.855	353.3
358.238	342.67
358.62	327.99
359.002	342.45
359.384	330.92
359.766	354.2
360.148	332.28
360.53	313.07
360.912	318.49
361.294	323.69
361.676	342.67
362.057	331.6
362.439	353.3
362.821	329.34
363.203	327.99
363.584	325.05
363.966	328.66
364.348	325.5
364.729	290.7
365.111	303.81
365.493	336.35
365.874	303.13
366.256	313.52
366.637	322.11
367.019	289.12
367.4	317.59
367.781	302.68
368.163	306.74
368.544	316.91
368.925	307.42
369.306	324.82
369.688	312.62
370.069	309.68
370.45	331.15
370.831	339.51
371.212	307.42
371.593	302.22
371.974	295.22
372.355	326.4
372.736	295.22
373.117	316.23
373.498	302.22
373.879	319.4
374.26	340.87
374.641	316.01
375.021	312.84
375.402	332.51
375.783	309.91
376.163	318.04
376.544	330.7
376.925	339.96
377.305	332.28
377.686	283.69
378.066	327.31
378.447	328.44
378.827	330.25
379.208	320.98
379.588	338.83
379.968	356.46
380.349	307.2
380.729	343.35
381.109	315.1
381.489	339.96
381.87	331.83
382.25	320.98
382.63	323.69
383.01	324.14
383.39	346.74
383.77	341.32
384.15	351.26
384.53	368.89
384.91	344.26
385.29	330.02
385.67	347.19
386.049	373.18
386.429	330.25
386.809	359.4
387.189	342.45
387.568	351.49
387.948	350.58
388.328	339.74
388.707	364.82
389.087	362.34
389.466	352.62
389.846	332.73
390.225	370.7
390.605	396.23
390.984	357.36
391.363	352.39
391.743	370.47
392.122	359.17
392.501	347.42
392.881	374.09
393.26	353.97
393.639	358.27
394.018	359.62
394.397	347.87
394.776	378.38
395.155	386.29
395.534	377.25
395.913	361.43
396.292	381.54
396.671	372.28
397.05	393.75
397.429	382.22
397.808	382.45
398.186	376.8
398.565	380.64
398.944	367.98
399.323	380.64
399.701	372.96
400.08	389.91
400.458	395.78
400.837	389
401.215	383.58
401.594	393.29
401.972	386.74
402.351	391.26
402.729	389.23
403.107	404.59
403.486	389
403.864	394.88
404.242	402.33
404.62	398.27
404.999	386.29
405.377	427.19
405.755	397.81
406.133	403.69
406.511	394.2
406.889	425.84
407.267	396.23
407.645	434.88
408.023	418.83
408.401	412.73
408.779	424.48
409.156	420.41
409.534	429.23
409.912	423.12
410.29	435.55
410.667	434.65
411.045	439.62
411.422	450.69
411.8	434.65
412.178	446.17
412.555	434.2
412.933	455.67
413.31	443.24
413.687	457.25
414.065	459.06
414.442	483.69
414.819	472.16
415.197	487.53
415.574	472.39
415.951	460.41
416.328	476
416.705	483.24
417.082	471.71
417.46	471.48
417.837	485.04
418.214	481.65
418.591	490.47
418.967	480.75
419.344	485.5
419.721	478.72
420.098	478.04
420.475	474.2
420.852	475.55
421.228	494.99
421.605	510.35
421.982	514.2
422.358	509
422.735	494.08
423.111	503.35
423.488	519.62
423.864	523.23
424.241	525.49
424.617	525.72
424.994	534.08
425.37	516.46
425.746	535.44
426.123	536.79
426.499	534.99
426.875	539.05
427.251	537.47
427.627	541.09
428.003	550.8
428.379	528.21
428.756	539.96
429.132	561.2
429.507	564.14
429.883	538.6
430.259	595.78
430.635	580.18
431.011	581.54
431.387	582.89
431.763	580.41
432.138	612.05
432.514	605.49
432.89	605.72
433.265	618.6
433.641	611.82
434.016	616.11
434.392	608.2
434.767	623.12
435.143	601.88
435.518	613.85
435.894	639.62
436.269	635.32
436.644	636.45
437.02	648.2
437.395	661.99
437.77	652.72
438.145	664.7
438.52	671.25
438.895	663.12
439.271	655.21
439.646	660.86
440.021	689.33
440.395	673.97
440.77	675.1
441.145	704.92
441.52	705.15
441.895	709.44
442.27	718.94
442.645	706.73
443.019	705.38
443.394	710.57
443.769	712.83
444.143	694.3
444.518	727.98
444.892	703.57
445.267	746.05
445.641	726.17
446.016	719.84
446.39	739.5
446.764	731.82
447.139	750.12
447.513	736.11
447.887	761.87
448.262	769.56
448.636	753.96
449.01	756.68
449.384	760.29
449.758	793.96
450.132	773.62
450.506	782.21
450.88	761.65
451.254	786.73
451.628	809.1
452.002	786.96
452.376	791.48
452.75	810.01
453.123	784.24
453.497	818.14
453.871	831.48
454.244	835.54
454.618	838.93
454.992	866.5
455.365	878.93
455.739	884.13
456.112	889.55
456.486	878.48
456.859	906.73
457.232	871.93
457.606	895.43
457.979	889.1
458.352	941.08
458.725	943.34
459.099	951.47
459.472	953.96
459.845	954.64
460.218	963.45
460.591	1003.9
460.964	989.66
461.337	993.28
461.71	986.95
462.083	990.79
462.456	1008.42
462.829	1018.59
463.201	1021.07
463.574	1034.41
463.947	1057.01
464.32	1086.84
464.692	1094.07
465.065	1074.18
465.438	1079.6
465.81	1099.26
466.183	1141.98
466.555	1143.33
466.928	1143.33
467.3	1134.74
467.672	1155.31
468.045	1169.09
468.417	1197.79
468.789	1210.45
469.161	1236.66
469.534	1262.65
469.906	1257
470.278	1269.2
470.65	1298.13
471.022	1318.24
471.394	1334.96
471.766	1329.32
472.138	1366.6
472.51	1374.06
472.882	1384.68
473.253	1438.47
473.625	1469.2
473.997	1471.23
474.369	1484.11
474.74	1540.16
475.112	1529.99
475.484	1513.49
475.855	1583.77
476.227	1615.18
476.598	1646.6
476.97	1658.12
477.341	1694.96
477.713	1709.87
478.084	1745.8
478.455	1761.62
478.827	1806.14
479.198	1835.52
479.569	1857.66
479.94	1878.68
480.311	1893.59
480.682	1943.08
481.053	1972.91
481.424	2029.18
481.795	2081.39
482.166	2117.09
482.537	2151.21
482.908	2181.95
483.279	2175.17
483.65	2228.05
484.021	2279.8
484.391	2335.39
484.762	2351.21
485.133	2387.82
485.503	2428.04
485.874	2476.63
486.244	2494.26
486.615	2559.11
486.985	2560.24
487.356	2626
487.726	2673.46
488.097	2671.2
488.467	2709.17
488.837	2786.68
489.207	2837.98
489.578	2891.08
489.948	2896.96
490.318	2953.45
490.688	2973.79
491.058	2997.97
491.428	3052.21
491.798	3116.16
492.168	3137.63
492.538	3171.07
492.908	3252.88
493.278	3254.01
493.648	3304.18
494.017	3284.97
494.387	3314.8
494.757	3427.11
495.126	3410.84
495.496	3444.97
495.866	3481.8
496.235	3508.69
496.605	3552.76
496.974	3561.57
497.344	3629.14
497.713	3620.78
498.082	3668.01
498.452	3706.2
498.821	3679.31
499.19	3674.11
499.559	3736.48
499.928	3781
500.298	3771.06
500.667	3815.8
501.036	3883.37
501.405	3878.4
501.774	3863.49
502.143	3921.11
502.512	3945.29
502.88	3996.14
503.249	3976.93
503.618	3974.44
503.987	4030.04
504.356	4071.84
504.724	4086.76
505.093	4119.3
505.462	4103.93
505.83	4145.06
506.199	4175.79
506.567	4228.22
506.936	4202.46
507.304	4248.11
507.672	4304.38
508.041	4259.63
508.409	4358.39
508.777	4372.4
509.145	4402.68
509.514	4378.73
509.882	4404.04
510.25	4428.44
510.618	4391.61
510.986	4433.41
511.354	4462.79
511.722	4531.94
512.09	4486.97
512.458	4556.12
512.826	4540.08
513.193	4551.38
513.561	4570.13
513.929	4642.45
514.297	4638.38
514.664	4677.7
515.032	4670.47
515.4	4716.57
515.767	4715.89
516.135	4758.38
516.502	4712.5
516.869	4770.58
517.237	4827.98
517.604	4739.17
517.972	4831.82
518.339	4874.31
518.706	4850.13
519.073	4832.73
519.44	4876.57
519.808	4915.21
520.175	4907.98
520.542	4948.2
520.909	4948.88
521.276	4986.17
521.643	5045.15
522.009	5029.11
522.376	5100.06
522.743	5062.32
523.11	5134.19
523.477	5169.89
523.843	5199.95
524.21	5220.29
524.577	5263.45
524.943	5234.07
525.31	5289.66
525.676	5353.84
526.043	5375.76
526.409	5363.56
526.776	5458.02
527.142	5453.73
527.508	5490.79
527.874	5543.22
528.241	5512.26
528.607	5519.04
528.973	5574.63
529.339	5581.63
529.705	5641.52
530.071	5692.59
530.437	5710.44
530.803	5726.71
531.169	5724.23
531.535	5756.32
531.901	5799.71
532.267	5812.36
532.632	5875.41
532.998	5847.16
533.364	5858.01
533.73	5896.65
534.095	5919.48
534.461	5989.53
534.826	5999.48
535.192	6018.91
535.557	6098.46
535.923	6056.42
536.288	6077.21
536.653	6150.43
537.019	6092.13
537.384	6171.22
537.749	6133.93
538.114	6184.55
538.479	6199.92
538.845	6226.36
539.21	6215.74
539.575	6284.21
539.94	6246.7
540.305	6322.86
540.67	6300.48
541.034	6369.86
541.399	6379.35
541.764	6428.62
542.129	6447.6
542.494	6468.39
542.858	6511.1
543.223	6511.33
543.587	6599.46
543.952	6584.09
544.316	6600.36
544.681	6575.05
545.045	6625.22
545.41	6677.2
545.774	6684.65
546.138	6707.7
546.503	6783.64
546.867	6738.89
547.231	6819.57
547.595	6847.36
547.959	6804.2
548.324	6839.9
548.688	6829.06
549.052	6927.81
549.416	6914.03
549.779	6918.77
550.143	6940.24
550.507	7009.39
550.871	7057.07
551.235	7046
551.599	7100.69
551.962	7095.04
552.326	7155.38
552.689	7168.48
553.053	7149.05
553.417	7157.64
553.78	7269.05
554.143	7189.05
554.507	7206.22
554.87	7219.56
555.234	7328.25
555.597	7272.44
555.96	7260.91
556.323	7400.34
556.686	7379.78
557.05	7463.39
557.413	7443.73
557.776	7467.46
558.139	7528.93
558.502	7568.47
558.865	7502.03
559.228	7583.84
559.59	7601.01
559.953	7602.37
560.316	7675.14
560.679	7630.84
561.041	7730.95
561.404	7747
561.767	7799.65
562.129	7777.96
562.492	7902.7
562.854	7856.6
563.217	7962.59
563.579	7883.27
563.941	7939.31
564.304	8000.33
564.666	8071.28
565.028	8023.6
565.39	8052.08
565.753	8126.65
566.115	8111.74
566.477	8151.06
566.839	8121
567.201	8168.01
567.563	8193.99
567.925	8215.69
568.287	8276.25
568.648	8304.27
569.01	8366.42
569.372	8404.61
569.734	8443.25
570.095	8455.23
570.457	8558.5
570.819	8481.9
571.18	8537.26
571.542	8591.72
571.903	8651.83
572.265	8646.64
572.626	8702.91
572.987	8696.35
573.349	8704.94
573.71	8848.21
574.071	8880.08
574.432	8956.91
574.794	8989.68
575.155	9032.62
575.516	9003.92
575.877	9152.84
576.238	9198.03
576.599	9251.59
576.96	9330.91
577.32	9403.91
577.681	9502.66
578.042	9549.66
578.403	9607.52
578.763	9626.5
579.124	9737.23
579.485	9916.66
579.845	9913.27
580.206	10011.35
580.566	10167.73
580.927	10199.14
581.287	10332.69
581.648	10417.44
582.008	10563.87
582.368	10689.97
582.728	10760.71
583.089	10965.22
583.449	11085.67
583.809	11215.38
584.169	11399.33
584.529	11563.85
584.889	11781.7
585.249	11863.73
585.609	12040.45
585.969	12249.03
586.329	12379.87
586.688	12650.37
587.048	12896.24
587.408	12982.57
587.768	13246.29
588.127	13421.65
588.487	13635.88
588.846	13908.42
589.206	14100.28
589.565	14294.85
589.925	14620.94
590.284	14734.16
590.643	15121.95
591.003	15376.63
591.362	15629.05
591.721	15886.45
592.08	16130.28
592.44	16506.54
592.799	16773.2
593.158	17018.39
593.517	17276.47
593.876	17652.28
594.235	17806.85
594.593	18186.27
594.952	18397.12
595.311	18738.12
595.67	18963.65
596.029	19414.72
596.387	19676.86
596.746	20018.32
597.104	20174.47
597.463	20473.9
597.822	20858.75
598.18	21016.48
598.538	21374.66
598.897	21766.07
599.255	21851.04
599.613	22381.87
599.972	22615.54
600.33	22952.25
600.688	23181.62
601.046	23484.89
601.404	23841.27
601.762	24156.06
602.12	24456.84
602.478	24731.86
602.836	25107
603.194	25123.49
603.552	25562.58
603.91	25765.28
604.268	26086.86
604.625	26282.78
604.983	26701.98
605.341	26859.04
605.698	27144.68
606.056	27504.67
606.413	27655.63
606.771	28074.37
607.128	28282.73
607.485	28367.25
607.843	28668.71
608.2	28965.65
608.557	29260.78
608.914	29461.46
609.272	29669.59
609.629	29902.8
609.986	30250.59
610.343	30278.61
610.7	30705.94
611.057	30854.19
611.414	31133.96
611.771	31375.08
612.127	31604.23
612.484	31770.55
612.841	32059.81
613.198	32096.87
613.554	32374.15
613.911	32627.25
614.267	32769.84
614.624	32799
614.98	33156.73
615.337	33537.28
615.693	33457.06
616.05	33679.88
616.406	34008
616.762	34101.56
617.118	34193.54
617.475	34368.45
617.831	34553.07
618.187	34634.2
618.543	34831.49
618.899	35141.31
619.255	35238.93
619.611	35286.84
619.967	35507.4
620.323	35625.81
620.678	35649.09
621.034	35752.14
621.39	35896.09
621.746	36040.27
622.101	36409.75
622.457	36207.27
622.812	36374.72
623.168	36508.28
623.523	36645.67
623.879	36905.33
624.234	36725.45
624.589	36850.87
624.945	37076.17
625.3	37173.34
625.655	37343.06
626.01	37361.14
626.365	37384.86
626.72	37521.36
627.075	37546.44
627.43	37575.59
627.785	37513.9
628.14	37756.61
628.495	37868.47
628.85	37685.42
629.205	37724.97
629.559	38067.33
629.914	37979.88
630.269	38085.86
630.623	37936.49
630.978	37875.47
631.332	38150.72
631.687	38214
632.041	38157.73
632.396	38263.26
632.75	38143.04
633.104	38194.56
633.459	38124.05
633.813	38131.96
634.167	38101.91
634.521	38257.16
634.875	38284.05
635.229	38220.32
635.583	38155.92
635.937	38261.9
636.291	38130.38
636.645	38343.03
636.999	38182.36
637.352	38312.98
637.706	38286.99
638.06	38428
638.413	38185.75
638.767	38194.56
639.121	38353.43
639.474	38172.87
639.828	38083.15
640.181	38286.76
640.534	38187.78
640.888	38188.01
641.241	38043.6
641.594	38263.94
641.947	38310.72
642.301	38185.3
642.654	38252.64
643.007	38188.23
643.36	38198.18
643.713	38171.96
644.066	38282.69
644.419	38122.7
644.771	37877.73
645.124	37475.03
645.477	37449.27
645.83	37290.4
646.182	37185.55
646.535	36993.91
646.888	37131.99
647.24	37000.24
647.593	37288.6
647.945	37035.95
648.298	37085.44
648.65	37018.09
649.002	36856.29
649.355	37080.24
649.707	36933.35
650.059	37192.78
650.411	37606.55
650.763	37574.46
651.115	38069.14
651.467	38007.22
651.819	37840.22
652.171	37796.83
652.523	37703.27
652.875	37735.36
653.227	37656.72
653.578	37959.76
653.93	37822.37
654.282	37594.12
654.633	37570.62
654.985	37630.51
655.337	37783.27
655.688	37652.43
656.039	37910.05
656.391	37531.3
656.742	37580.57
657.094	37595.48
657.445	37821.01
657.796	37696.72
658.147	37589.15
658.498	37581.92
658.849	37601.58
659.2	37630.73
659.551	37420.34
659.902	37661.92
660.253	37467.12
660.604	37694.69
660.955	37509.38
661.306	37538.08
661.656	37590.51
662.007	37643.39
662.358	37590.73
662.708	37687.68
663.059	37445.43
663.409	37461.02
663.76	37607.68
664.11	37666.89
664.461	37613.33
664.811	37591.64
665.161	37590.73
665.511	37545.54
665.862	37659.43
666.212	37702.82
666.562	37799.77
666.912	37694.23
667.262	37531.3
667.612	37596.84
667.962	37595.71
668.312	37455.15
668.662	37721.13
669.011	37517.97
669.361	37483.39
669.711	37393
670.06	37450.4
670.41	37369.72
670.76	37396.84
671.109	37618.3
671.459	37494.01
671.808	37332.66
672.157	37465.99
672.507	37210.41
672.856	37386.67
673.205	37475.94
673.554	37447.46
673.904	37368.82
674.253	37579.21
674.602	37461.47
674.951	36905.78
675.3	36641.61
675.649	37222.83
675.998	37294.02
676.346	37297.41
676.695	37511.19
677.044	37150.29
677.393	37209.28
677.741	37355.03
678.09	37219.9
678.438	37173.34
678.787	37162.05
679.135	37276.17
679.484	36937.19
679.832	37107.13
680.181	36934.71
680.529	36978.55
680.877	36974.71
681.225	36924.76
681.573	37107.81
681.922	36819.46
682.27	36801.6
682.618	36730.42
682.966	36690.19
683.314	36877.53
683.661	36661.95
684.009	36547.15
684.357	36453.59
684.705	36430.99
685.053	36502.85
685.4	36380.6
685.748	36170.21
686.095	36176.76
686.443	36106.93
686.79	36145.12
687.138	36226.02
687.485	36228.28
687.832	35977.44
688.18	36042.07
688.527	35731.8
688.874	35814.96
689.221	35798.69
689.568	35730.67
689.915	35648.41
690.262	35700.61
690.609	35511.24
690.956	35350.79
691.303	35382.66
691.65	35311.25
691.997	35306.5
692.344	35107.64
692.69	35001.42
693.037	35061.76
693.383	34718.49
693.73	34871.03
694.077	34680.3
694.423	34687.53
694.769	34549.46
695.116	34563.24
695.462	34595.11
695.808	34424.26
696.155	34360.76
696.501	34305.62
696.847	34297.49
697.193	33949.02
697.539	34065.18
697.885	33859.31
698.231	33782.7
698.577	33839.65
698.923	33623.61
699.269	33531.41
699.614	33305.2
699.96	33323.05
700.306	33393.56
700.651	33300.9
700.997	33272.2
701.342	33074.92
701.688	33087.35
702.033	32889.16
702.379	32964.19
702.724	32789.05
703.069	33036.5
703.415	32592.9
703.76	32477.65
704.105	32636.51
704.45	32497.76
704.795	32312.23
705.14	32186.58
705.485	32297.99
705.83	32071.78
706.175	32207.83
706.52	32040.37
706.865	31864.33
707.209	31804.9
707.554	31767.61
707.899	31883.77
708.243	31653.94
708.588	31625.92
708.932	31512.25
709.277	31350.22
709.621	31360.62
709.966	31262.31
710.31	31294.4
710.654	30962.21
710.998	31031.59
711.342	31143.9
711.687	30923.79
712.031	30771.25
712.375	30755.21
712.719	30822.78
713.063	30696.9
713.407	30768.32
713.75	30708.66
714.094	30658.94
714.438	30479.51
714.782	30585.95
715.125	30452.62
715.469	30470.47
715.812	30168.56
716.156	30165.62
716.499	30151.83
716.843	30152.74
717.186	29969.24
717.53	30061.44
717.873	30085.62
718.216	30057.6
718.559	29874.55
718.902	29774.44
719.246	29832.29
719.589	29702.58
719.932	29579.65
720.275	29588.46
720.617	29626.88
720.96	29521.79
721.303	29509.82
721.646	29454.9
721.989	29216.72
722.331	29382.81
722.674	29277.51
723.016	29364.51
723.359	29118.87
723.701	29297.17
724.044	28990.28
724.386	28878.2
724.729	29086.33
725.071	28845.2
725.413	28981.92
725.755	28979.21
726.097	28877.97
726.439	28789.84
726.782	28754.58
727.124	28741.93
727.465	28622.83
727.807	28555.72
728.149	28574.7
728.491	28560.01
728.833	28488.15
729.175	28374.48
729.516	28421.71
729.858	28380.13
730.199	28361.82
730.541	28287.48
730.882	28214.71
731.224	28308.04
731.565	28049.29
731.906	28157.99
732.248	28171.55
732.589	27957.09
732.93	27853.36
733.271	27933.14
733.612	27955.96
733.953	27985.11
734.294	27795.29
734.635	27828.28
734.976	27854.27
735.317	27685.01
735.658	27713.03
735.999	27627.61
736.339	27560.94
736.68	27615.4
737.021	27517.33
737.361	27351.91
737.702	27455.86
738.042	27431.91
738.383	27400.27
738.723	27429.65
739.063	27258.35
739.404	27355.75
739.744	27194.62
740.084	27253.83
740.424	27222.65
740.764	27017.68
741.104	27238.69
741.444	26892.03
741.784	26978.58
742.124	27027.62
742.464	26883.9
742.804	26920.28
743.143	26866.05
743.483	26877.12
743.823	26757.35
744.162	26748.53
744.502	26876.89
744.841	26623.57
745.181	26732.72
745.52	26650.46
745.86	26657.24
746.199	26640.06
746.538	26646.39
746.877	26500.18
747.216	26475.55
747.556	26445.72
747.895	26553.96
748.234	26394.87
748.573	26353.29
748.911	26309.9
749.25	26352.84
749.589	26144.71
749.928	26198.04
750.267	26203.92
750.605	26152.62
750.944	26085.95
751.283	25922.57
751.621	25968.44
751.96	25828.56
752.298	25798.05
752.636	25882.57
752.975	25693.19
753.313	25584.5
753.651	25855.9
753.989	25632.63
754.327	25594.44
754.666	25466.76
755.004	25487.1
755.342	25487.55
755.679	25447.55
756.017	25323.26
756.355	25455.46
756.693	25296.82
757.031	25284.84
757.368	25094.11
757.706	25068.8
758.044	25078.75
758.381	25059.54
758.719	24859.09
759.056	24907.9
759.394	24709.04
759.731	24684.63
760.068	24725.54
760.405	24581.59
760.743	24537.74
761.08	24587.69
761.417	24464.75
761.754	24474.7
762.091	24274.47
762.428	24340.46
762.765	24055.05
763.102	24187.47
763.438	24075.84
763.775	23919.68
764.112	24003.52
764.449	23978.44
764.785	23834.49
765.122	23653.7
765.458	23673.81
765.795	23522.63
766.131	23595.62
766.467	23483.08
766.804	23291.22
767.14	23204.22
767.476	23212.13
767.812	23122.41
768.148	23110.66
768.485	23043.32
768.821	22925.58
769.157	22888.97
769.492	22701.18
769.828	22803.33
770.164	22561.75
770.5	22606.95
770.836	22391.36
771.171	22379.16
771.507	22337.35
771.842	22174.87
772.178	22163.57
772.513	22092.39
772.849	22075.21
773.184	21883.58
773.519	21978.26
773.855	21847.42
774.19	21718.16
774.525	21517.49
774.86	21665.05
775.195	21641.55
775.53	21485.4
775.865	21428.67
776.2	21275.91
776.535	21072.53
776.87	21045.18
777.205	20991.17
777.539	20949.36
777.874	21013.32
778.209	20728.13
778.543	20738.75
778.878	20604.74
779.212	20647.45
779.547	20494.24
779.881	20545.31
780.215	20358.42
780.55	20456.95
780.884	20233.23
781.218	20181.48
781.552	20228.93
781.886	20038.88
782.22	19984.64
782.554	19915.95
782.888	19749.4
783.222	19675.73
783.556	19492.23
783.889	19585.56
784.223	19443.19
784.557	19382.85
784.89	19407.48
785.224	19306.7
785.557	19159.58
785.891	19139.69
786.224	19085.01
786.558	19160.26
786.891	18904.67
787.224	18849.76
787.557	18805.92
787.891	18743.09
788.224	18629.65
788.557	18673.49
788.89	18568.64
789.223	18527.73
789.556	18358.47
789.888	18443.44
790.221	18229.66
790.554	18182.21
790.887	18237.8
791.219	18125.71
791.552	18106.73
791.884	17928.88
792.217	17945.15
792.549	17909.44
792.882	17756.23
793.214	17644.37
793.546	17717.13
793.879	17536.8
794.211	17481.43
794.543	17543.58
794.875	17478.72
795.207	17586.06
795.539	17364.37
795.871	17402.34
796.203	17165.51
796.535	17130.93
796.867	17026.3
797.198	17028.11
797.53	17070.37
797.862	16920.09
798.193	16906.53
798.525	16779.98
798.856	16864.95
799.188	16709.7
799.519	16700.66
799.85	16582.25
800.182	16573.89
800.513	16551.97
800.844	16392.87
801.175	16423.16
801.506	16372.08
801.837	16279.66
802.168	16331.86
802.499	16320.11
802.83	16182.26
803.161	16092.54
803.491	16127.57
803.822	16134.35
804.153	16034.69
804.483	15941.13
804.814	15724.64
805.145	15734.13
805.475	15796.05
805.805	15727.13
806.136	15721.48
806.466	15700.46
806.796	15632.22
807.126	15532.78
807.457	15510.19
807.787	15450.75
808.117	15463.86
808.447	15416.63
808.777	15297.99
809.107	15306.8
809.436	15201.72
809.766	15296.63
810.096	15195.17
810.426	15176.63
810.755	15200.36
811.085	15113.13
811.414	15051.21
811.744	14991.78
812.073	14910.43
812.403	14887.15
812.732	14872.24
813.061	14829.07
813.39	14693.71
813.719	14648.29
814.049	14769.64
814.378	14703.43
814.707	14535.97
815.036	14603.99
815.365	14566.93
815.693	14431.12
816.022	14425.24
816.351	14353.15
816.68	14302.99
817.008	14329.88
817.337	14242.65
817.665	14211.69
817.994	14182.99
818.322	14235.19
818.651	14133.95
818.979	14048.08
819.307	14086.49
819.636	14137.34
819.964	13977.12
820.292	14025.7
820.62	14044.24
820.948	13995.65
821.276	14034.07
821.604	14037.23
821.932	14003.78
822.259	14010.56
822.587	13886.05
822.915	13850.79
823.243	13959.49
823.57	13866.61
823.898	13891.7
824.225	13946.16
824.553	13958.14
824.88	13899.61
825.207	13874.75
825.535	13844.24
825.862	13909.55
826.189	13837.01
826.516	13872.94
826.843	13940.06
827.17	13961.07
827.497	13898.93
827.824	13898.7
828.151	13935.76
828.478	13854.18
828.805	13939.61
829.131	13790.23
829.458	13785.26
829.785	13767.86
830.111	13787.74
830.438	13834.98
830.764	13841.3
831.09	13843.34
831.417	13752.49
831.743	13807.63
832.069	13767.41
832.395	13761.3
832.722	13797.91
833.048	13759.95
833.374	13682.89
833.7	13720.4
834.026	13707.29
834.351	13773.73
834.677	13651.7
835.003	13674.75
835.329	13684.02
835.654	13673.62
835.98	13547.75
836.306	13576.9
836.631	13504.36
836.956	13551.59
837.282	13635.88
837.607	13487.41
837.932	13460.97
838.258	13530.35
838.583	13442.9
838.908	13341.65
839.233	13515.44
839.558	13333.97
839.883	13346.17
840.208	13332.16
840.533	13233.18
840.858	13282
841.182	13347.08
841.507	13260.98
841.832	13142.56
842.156	13161.09
842.481	13143.24
842.805	13141.89
843.13	13132.17
843.454	13114.54
843.778	12947.99
844.103	12989.57
844.427	12904.15
844.751	12917.26
845.075	12931.72
845.399	12878.39
845.723	12714.33
846.047	12823.93
846.371	12746.64
846.695	12712.29
847.019	12583.93
847.343	12517.27
847.666	12445.63
847.99	12480.89
848.313	12477.72
848.637	12358.18
848.96	12309.37
849.284	12264.17
849.607	12243.83
849.931	12182.82
850.254	12137.39
850.577	12076.6
850.9	11952.09
851.223	11958.64
851.546	11844.75
851.869	11863.95
852.192	11907.79
852.515	11782.15
852.838	11724.3
853.161	11689.27
853.483	11637.29
853.806	11622.83
854.129	11637.97
854.451	11495.38
854.774	11466.22
855.096	11467.13
855.419	11369.28
855.741	11344.42
856.063	11344.42
856.385	11344.87
856.708	11233.46
857.03	11227.59
857.352	11237.76
857.674	11192.78
857.996	11151.43
858.318	11084.99
858.64	11087.93
858.961	11014.71
859.283	11003.64
859.605	10953.47
859.926	10989.85
860.248	10981.04
860.57	10859.46
860.891	10935.84
861.212	10778.56
861.534	10791.44
861.855	10808.84
862.176	10757.54
862.498	10757.09
862.819	10772.23
863.14	10668.73
863.461	10632.35
863.782	10612.69
864.103	10618.11
864.424	10587.6
864.745	10622.86
865.065	10614.04
865.386	10593.48
865.707	10599.81
866.027	10522.75
866.348	10548.28
866.668	10535.4
866.989	10499.47
867.309	10390.55
867.63	10391.45
867.95	10368.63
868.27	10408.17
868.59	10388.51
868.91	10296.99
869.23	10338.8
869.55	10272.13
869.87	10353.48
870.19	10341.51
870.51	10332.24
870.83	10357.1
871.15	10251.79
871.469	10181.29
871.789	10256.54
872.109	10161.4
872.428	10146.03
872.748	10245.01
873.067	10146.03
873.386	10188.52
873.706	10071.68
874.025	10032.36
874.344	10013.15
874.663	10064.45
874.982	10052.25
875.301	10055.64
875.62	9968.64
875.939	9919.82
876.258	9927.51
876.577	9944.23
876.896	9967.96
877.214	9881.63
877.533	9892.93
877.852	9901.07
878.17	9841.63
878.489	9852.71
878.807	9835.31
879.125	9778.58
879.444	9823.78
879.762	9735.42
880.08	9748.3
880.398	9677.34
880.716	9782.88
881.034	9682.54
881.352	9723.9
881.67	9756.44
881.988	9698.13
882.306	9620.4
882.624	9608.65
882.941	9562.09
883.259	9587.18
883.577	9566.61
883.894	9511.7
884.212	9532.49
884.529	9531.59
884.846	9524.58
885.164	9447.52
885.481	9440.97
885.798	9349.44
886.115	9370.69
886.432	9325.26
886.75	9337.92
887.067	9299.05
887.383	9228.99
887.7	9233.97
888.017	9258.6
888.334	9256.11
888.651	9213.4
888.967	9154.19
889.284	9127.75
889.6	9081.65
889.917	9077.13
890.233	9089.11
890.55	9047.76
890.866	9027.19
891.182	9036.91
891.498	8981.09
891.815	8920.98
892.131	8953.75
892.447	8897.03
892.763	8848.21
893.079	8829.46
893.395	8723.7
893.71	8755.11
894.026	8768.67
894.342	8732.28
894.657	8647.32
894.973	8655.68
895.289	8651.83
895.604	8676.92
895.92	8580.88
896.235	8524.83
896.55	8521.44
896.865	8536.81
897.181	8506.08
897.496	8480.54
897.811	8451.39
898.126	8454.55
898.441	8345.63
898.756	8354.44
899.071	8293.43
899.386	8332.3
899.7	8229.25
900.015	8212.07
900.33	8154.9
900.644	8214.33
900.959	8149.93
901.273	8179.53
901.588	8089.82
901.902	8028.57
902.216	8034.45
902.531	8009.37
902.845	8012.08
903.159	7927.33
903.473	7895.24
903.787	7841.69
904.101	7820.44
904.415	7770.28
904.729	7742.03
905.042	7716.27
905.356	7690.73
905.67	7717.85
905.984	7681.24
906.297	7722.82
906.611	7577.96
906.924	7541.36
907.237	7602.6
907.551	7516.95
907.864	7486.44
908.177	7512.2
908.491	7491.87
908.804	7424.97
909.117	7390.4
909.43	7356.05
909.743	7360.8
910.056	7298.65
910.368	7275.37
910.681	7204.64
910.994	7212.1
911.307	7167.35
911.619	7071.09
911.932	7163.29
912.244	7084.42
912.557	7050.75
912.869	7014.59
913.181	7000.35
913.494	6973.01
913.806	6934.59
914.118	6924.42
914.43	6888.27
914.742	6898.43
915.054	6833.13
915.366	6797.19
915.678	6753.13
915.99	6757.42
916.302	6700.93
916.613	6696.63
916.925	6686.69
917.236	6631.32
917.548	6535.05
917.859	6584.32
918.171	6550.2
918.482	6461.84
918.794	6476.07
919.105	6538.22
919.416	6442.18
919.727	6425.45
920.038	6413.7
920.349	6314.27
920.66	6339.58
920.971	6294.38
921.282	6307.26
921.593	6267.26
921.903	6215.74
922.214	6238.11
922.525	6196.98
922.835	6137.78
923.146	6108.17
923.456	6082.86
923.767	6067.72
924.077	6048.51
924.387	6075.86
924.697	5981.4
925.008	5968.29
925.318	5915.64
925.628	5923.09
925.938	5947.95
926.248	5860.27
926.558	5841.51
926.867	5830.89
927.177	5799.93
927.487	5789.99
927.796	5734.4
928.106	5749.09
928.416	5672.93
928.725	5678.81
929.034	5676.55
929.344	5646.04
929.653	5646.49
929.962	5579.6
930.271	5528.98
930.581	5522.88
930.89	5501.64
931.199	5475.65
931.508	5475.42
931.817	5429.09
932.125	5387.97
932.434	5365.14
932.743	5377.34
933.051	5352.26
933.36	5262.32
933.669	5267.06
933.977	5255.54
934.286	5287.4
934.594	5254.64
934.902	5195.88
935.21	5212.38
935.519	5176.22
935.827	5152.49
936.135	5103.68
936.443	5091.02
936.751	5040.4
937.059	5064.58
937.367	5026.39
937.674	5065.71
937.982	5033.85
938.29	4957.02
938.597	4964.93
938.905	4896.91
939.213	4944.36
939.52	4890.8
939.827	4882.44
940.135	4840.18
940.442	4811.48
940.749	4816.91
941.056	4811.26
941.363	4719.96
941.67	4712.5
941.977	4742.33
942.284	4668.44
942.591	4710.24
942.898	4646.74
943.205	4668.89
943.511	4652.39
943.818	4634.09
944.125	4586.86
944.431	4581.89
944.738	4576.01
945.044	4522.45
945.35	4542.56
945.657	4502.79
945.963	4444.49
946.269	4426.86
946.575	4454.43
946.881	4388.67
947.187	4403.58
947.493	4394.77
947.799	4349.12
948.105	4338.05
948.41	4337.82
948.716	4299.18
949.022	4258.73
949.327	4265.96
949.633	4211.95
949.938	4220.31
950.244	4220.31
950.549	4136.25
950.854	4144.61
951.16	4121.33
951.465	4136.93
951.77	4092.18
952.075	4110.94
952.38	4075.23
952.685	4063.25
952.99	4025.06
953.294	4071.16
953.599	4020.32
953.904	4008.57
954.209	3969.47
954.513	3980.55
954.818	3912.07
955.122	3967.21
955.426	3901
955.731	3915.01
956.035	3890.38
956.339	3878.63
956.643	3830.27
956.948	3784.62
957.252	3845.86
957.556	3809.7
957.86	3795.01
958.163	3788.46
958.467	3803.15
958.771	3741.68
959.075	3705.75
959.378	3700.1
959.682	3710.5
959.985	3671.17
960.289	3665.75
960.592	3639.76
960.896	3588.46
961.199	3614.68
961.502	3550.27
961.805	3588.46
962.108	3541.91
962.411	3541.69
962.714	3533.33
963.017	3496.04
963.32	3549.37
963.623	3494.91
963.926	3463.5
964.228	3412.88
964.531	3399.54
964.833	3433.89
965.136	3443.61
965.438	3391.41
965.741	3357.96
966.043	3344.4
966.345	3376.04
966.648	3325.2
966.95	3313.22
967.252	3307.12
967.554	3270.73
967.856	3282.03
968.158	3259.43
968.46	3268.47
968.761	3242.26
969.063	3214.24
969.365	3170.85
969.666	3211.75
969.968	3177.18
970.269	3164.52
970.571	3144.63
970.872	3131.98
971.174	3128.82
971.475	3115.03
971.776	3073.68
972.077	3106.22
972.378	3093.56
972.679	3066.67
972.98	3052.43
973.281	3042.26
973.582	3035.71
973.883	3011.08
974.183	3037.74
974.484	2973.34
974.785	2966.79
975.085	2960.23
975.386	2948.93
975.686	2903.74
975.986	2921.36
976.287	2922.95
976.587	2901.93
976.887	2847.69
977.187	2926.56
977.487	2848.15
977.787	2825.55
978.087	2798.66
978.387	2781.25
978.687	2746.45
978.987	2753.91
979.286	2757.53
979.586	2768.15
979.885	2738.09
980.185	2696.96
980.484	2709.17
980.784	2715.27
981.083	2675.04
981.382	2647.92
981.682	2675.72
981.981	2681.37
982.28	2678.88
982.579	2640.24
982.878	2639.56
983.177	2594.59
983.475	2628.04
983.774	2585.55
984.073	2581.94
984.372	2578.77
984.67	2564.31
984.969	2576.97
985.267	2562.5
985.566	2521.37
985.864	2522.5
986.162	2510.53
986.461	2517.31
986.759	2454.94
987.057	2512.11
987.355	2477.31
987.653	2443.41
987.951	2439.79
988.249	2451.09
988.547	2421.04
988.844	2403.19
989.142	2391.89
989.44	2394.6
989.737	2374.26
990.035	2347.82
990.332	2383.75
990.63	2350.08
990.927	2360.02
991.224	2317.09
991.521	2301.27
991.819	2286.35
992.116	2296.3
992.413	2278.89
992.71	2270.08
993.006	2266.01
993.303	2281.61
993.6	2228.27
993.897	2242.74
994.193	2231.44
994.49	2223.08
994.787	2192.8
995.083	2173.59
995.379	2171.1
995.676	2152.57
995.972	2146.92
996.268	2158.9
996.565	2113.48
996.861	2130.42
997.157	2122.51
997.453	2084.32
997.749	2089.52
998.044	2073.93
998.34	2078.9
998.636	2058.11
998.932	2056.53
999.227	2017.88
999.523	2029.18
999.818	2027.38
1000.114	2009.52
1000.409	1995.06
1000.704	1979.02
1001	1994.61
1001.295	1952.58
1001.59	1950.09
1001.885	1955.51
1002.18	1925.68
1002.475	1930.66
1002.77	1908.96
1003.065	1901.05
1003.359	1929.98
1003.654	1882.97
1003.949	1901.5
1004.243	1858.11
1004.538	1829.19
1004.832	1824.44
1005.127	1868.51
1005.421	1821.96
1005.715	1804.56
1006.009	1827.61
1006.304	1780.38
1006.598	1787.61
1006.892	1764.11
1007.186	1758.46
1007.48	1770.66
1007.773	1748.06
1008.067	1756.2
1008.361	1746.03
1008.655	1698.12
1008.948	1696.54
1009.242	1697.44
1009.535	1685.92
1009.829	1684.11
1010.122	1662.41
1010.415	1680.27
1010.708	1666.71
1011.001	1641.4
1011.295	1669.19
1011.588	1609.76
1011.881	1608.4
1012.173	1603.43
1012.466	1579.7
1012.759	1601.17
1013.052	1595.52
1013.344	1583.77
1013.637	1567.05
1013.93	1534.06
1014.222	1534.96
1014.514	1526.15
1014.807	1521.4
1015.099	1525.02
1015.391	1518.46
1015.683	1508.29
1015.976	1476.43
1016.268	1465.36
1016.56	1446.83
1016.851	1458.58
1017.143	1444.57
1017.435	1454.06
1017.727	1448.18
1018.018	1431.23
1018.31	1419.93
1018.602	1401.63
1018.893	1406.15
1019.185	1409.99
1019.476	1392.14
1019.767	1372.93
1020.058	1374.51
1020.35	1358.92
1020.641	1365.7
1020.932	1356.89
1021.223	1356.66
1021.514	1329.54
1021.804	1320.05
1022.095	1290.67
1022.386	1313.04
1022.677	1273.27
1022.967	1300.16
1023.258	1288.19
1023.548	1272.14
1023.839	1259.94
1024.129	1269.88
1024.419	1257.9
1024.709	1244.35
1025	1225.14
1025.29	1201.41
1025.58	1220.17
1025.87	1180.84
1026.16	1191.47
1026.449	1179.71
1026.739	1162.54
1027.029	1200.73
1027.319	1151.92
1027.608	1151.01
1027.898	1159.6
1028.187	1134.52
1028.477	1142.88
1028.766	1159.38
1029.055	1133.61
1029.344	1136.1
1029.634	1122.09
1029.923	1089.32
1030.212	1098.13
1030.501	1103.33
1030.79	1089.32
1031.078	1081.19
1031.367	1069.21
1031.656	1074.63
1031.945	1039.15
1032.233	1043.9
1032.522	1025.82
1032.81	1028.76
1033.099	1016.56
1033.387	1013.84
1033.675	1012.94
1033.963	1040.51
1034.251	1009.55
1034.54	1016.1
1034.828	989.66
1035.116	985.82
1035.403	982.43
1035.691	973.39
1035.979	956.9
1036.267	962.55
1036.554	948.53
1036.842	945.14
1037.129	938.14
1037.417	943.79
1037.704	923
1037.992	936.11
1038.279	923.22
1038.566	924.58
1038.853	924.58
1039.14	924.58
