Data from hue_160_FLMS001491_00003.txt Node
Date: Tue Feb 07 16:50:40 GMT 2017
User: dcchb
Spectrometer: FLMS00149
Trigger mode: 0
Integration Time (sec): 2.000000E-2
Scans to average: 10
Electric dark correction enabled: true
Nonlinearity correction enabled: false
Boxcar width: 0
XAxis mode: Wavelengths
Number of Pixels in Spectrum: 2048
>>>>>Begin Spectral Data<<<<<
341.393	-2.43
341.776	-2.43
342.16	-2.43
342.543	-52.37
342.927	-76.33
343.31	-60.73
343.693	-77.23
344.077	-57.12
344.46	-48.53
344.843	-62.54
345.226	-52.6
345.61	-34.97
345.993	-30.68
346.376	-6.5
346.759	16.1
347.142	32.37
347.525	40.51
347.908	70.11
348.291	67.85
348.674	90.22
349.057	113.73
349.44	128.41
349.823	117.79
350.206	149.21
350.588	193.95
350.971	216.32
351.354	231.69
351.737	222.65
352.119	234.17
352.502	269.2
352.884	265.81
353.267	278.69
353.65	288.86
354.032	307.85
354.414	309.88
354.797	301.52
355.179	306.49
355.562	308.52
355.944	315.08
356.326	329.77
356.709	349.65
357.091	329.99
357.473	326.6
357.855	341.74
358.238	359.82
358.62	362.31
359.002	345.81
359.384	333.16
359.766	332.93
360.148	334.74
360.53	335.64
360.912	349.43
361.294	355.08
361.676	343.78
362.057	341.97
362.439	324.57
362.821	334.96
363.203	343.1
363.584	317.34
363.966	323.66
364.348	313.27
364.729	313.95
365.111	305.59
365.493	314.17
365.874	288.86
366.256	295.87
366.637	313.27
367.019	314.17
367.4	331.35
367.781	294.29
368.163	322.31
368.544	314.4
368.925	315.75
369.306	325.7
369.688	313.27
370.069	325.47
370.45	308.52
370.831	298.13
371.212	318.47
371.593	297.68
371.974	302.42
372.355	311.01
372.736	312.36
373.117	313.49
373.498	334.51
373.879	298.35
374.26	324.34
374.641	319.37
375.021	314.17
375.402	327.73
375.783	316.21
376.163	326.83
376.544	332.25
376.925	315.3
377.305	309.88
377.686	337.45
378.066	335.64
378.447	326.6
378.827	321.86
379.208	305.81
379.588	327.96
379.968	319.6
380.349	299.94
380.729	320.27
381.109	344.23
381.489	342.87
381.87	324.57
382.25	301.52
382.63	339.93
383.01	357.34
383.39	353.04
383.77	327.96
384.15	339.48
384.53	346.26
384.91	365.24
385.29	346.71
385.67	350.56
386.049	341.52
386.429	357.11
386.809	339.48
387.189	351.46
387.568	349.43
387.948	363.89
388.328	357.11
388.707	358.01
389.087	367.96
389.466	361.85
389.846	384.68
390.225	365.92
390.605	366.37
390.984	365.92
391.363	355.53
391.743	360.72
392.122	348.75
392.501	380.39
392.881	373.38
393.26	369.54
393.639	359.37
394.018	375.87
394.397	357.34
394.776	383.78
395.155	393.49
395.534	365.7
395.913	393.72
396.292	366.15
396.671	411.12
397.05	367.5
397.429	367.96
397.808	378.58
398.186	385.13
398.565	393.49
398.944	377.9
399.323	391.68
399.701	396.43
400.08	406.15
400.458	395.07
400.837	389.65
401.215	399.14
401.594	407.73
401.972	419.71
402.351	384.45
402.729	412.25
403.107	414.51
403.486	416.32
403.864	413.83
404.242	413.15
404.62	427.39
404.999	416.99
405.377	435.75
405.755	421.29
406.133	424
406.511	421.74
406.889	419.25
407.267	434.17
407.645	460.84
408.023	429.65
408.401	446.82
408.779	448.63
409.156	462.87
409.534	431.01
409.912	468.74
410.29	458.58
410.667	460.84
411.045	467.39
411.422	456.32
411.8	440.5
412.178	472.13
412.555	456.09
412.933	499.7
413.31	502.19
413.687	499.48
414.065	482.98
414.442	488.86
414.819	492.7
415.197	505.58
415.574	493.38
415.951	521.4
416.328	500.83
416.705	496.77
417.082	512.13
417.46	508.74
417.837	530.66
418.214	525.92
418.591	510.55
418.967	522.98
419.344	518.01
419.721	545.13
420.098	538.35
420.475	558.91
420.852	548.97
421.228	551
421.605	558.01
421.982	560.95
422.358	574.96
422.735	572.92
423.111	569.53
423.488	585.8
423.864	580.83
424.241	577.44
424.617	604.11
424.994	594.17
425.37	593.71
425.746	576.54
426.123	609.31
426.499	606.37
426.875	613.83
427.251	628.29
427.627	596.88
428.003	612.7
428.379	640.04
428.756	651.11
429.132	643.43
429.507	638.23
429.883	644.11
430.259	670.1
430.635	667.16
431.011	658.12
431.387	678.46
431.763	705.12
432.138	675.07
432.514	712.13
432.89	684.56
433.265	709.87
433.641	702.41
434.016	718.68
434.392	725.24
434.767	717.78
435.143	718.91
435.518	740.83
435.894	774.27
436.269	770.88
436.644	781.5
437.02	775.18
437.395	755.29
437.77	791
438.145	783.09
438.52	790.54
438.895	798.23
439.271	806.81
439.646	836.87
440.021	802.75
440.395	820.15
440.77	849.07
441.145	842.75
441.52	858.34
441.895	844.55
442.27	849.53
442.645	862.41
443.019	862.86
443.394	874.84
443.769	884.78
444.143	861.05
444.518	890.43
444.892	878.23
445.267	913.93
445.641	938.56
446.016	909.86
446.39	919.58
446.764	913.48
447.139	925.68
447.513	926.81
447.887	918.22
448.262	949.64
448.636	972.91
449.01	963.65
449.384	980.6
449.758	1003.65
450.132	988.51
450.506	999.35
450.88	1005.23
451.254	1016.75
451.628	989.41
452.002	1013.14
452.376	1047.26
452.75	1034.38
453.123	1058.33
453.497	1076.19
453.871	1073.25
454.244	1101.5
454.618	1096.3
454.992	1086.81
455.365	1129.52
455.739	1150.76
456.112	1146.02
456.486	1167.03
456.859	1196.86
457.232	1188.5
457.606	1193.02
457.979	1199.12
458.352	1239.8
458.725	1235.5
459.099	1244.09
459.472	1271.66
459.845	1284.99
460.218	1307.82
460.591	1277.54
460.964	1321.83
461.337	1351.89
461.71	1367.25
462.083	1369.51
462.456	1390.08
462.829	1419.45
463.201	1424.65
463.574	1451.77
463.947	1463.75
464.32	1494.25
464.692	1517.76
465.065	1548.94
465.438	1535.38
465.81	1581.71
466.183	1590.52
466.555	1635.49
466.928	1616.74
467.3	1645.89
467.672	1691.54
468.045	1744.42
468.417	1719.33
468.789	1747.81
469.161	1796.85
469.534	1818.54
469.906	1858.31
470.278	1885.88
470.65	1919.33
471.022	1947.8
471.394	1984.19
471.766	2008.82
472.138	2051.98
472.51	2103.05
472.882	2124.29
473.253	2191.86
473.625	2245.87
473.997	2292.65
474.369	2330.39
474.74	2347.34
475.112	2417.85
475.484	2488.35
475.855	2537.39
476.227	2592.3
476.598	2675.47
476.97	2745.97
477.341	2786.42
477.713	2857.61
478.084	2890.15
478.455	2998.85
478.827	3040.43
479.198	3129.47
479.569	3207.43
479.94	3290.82
480.311	3378.27
480.682	3446.29
481.053	3571.71
481.424	3691.03
481.795	3703.91
482.166	3831.59
482.537	3879.05
482.908	4033.62
483.279	4094.86
483.65	4194.52
484.021	4326.95
484.391	4415.31
484.762	4535.53
485.133	4615.75
485.503	4704.79
485.874	4863.66
486.244	4957.67
486.615	5118.11
486.985	5142.29
487.356	5352.91
487.726	5446.01
488.097	5566.92
488.467	5692.79
488.837	5839.22
489.207	6017.75
489.578	6085.77
489.948	6201.93
490.318	6365.54
490.688	6439.21
491.058	6589.94
491.428	6782.48
491.798	6828.8
492.168	7008.23
492.538	7103.15
492.908	7266.53
493.278	7399.18
493.648	7492.97
494.017	7624.71
494.387	7774.54
494.757	7900.64
495.126	8024.03
495.496	8064.25
495.866	8200.74
496.235	8349.44
496.605	8458.59
496.974	8585.59
497.344	8692.94
497.713	8756.66
498.082	8875.53
498.452	8998.01
498.821	9106.71
499.19	9201.4
499.559	9255.18
499.928	9334.05
500.298	9454.05
500.667	9607.71
501.036	9619.92
501.405	9779.69
501.774	9863.53
502.143	9921.38
502.512	9986.01
502.88	10149.39
503.249	10102.62
503.618	10224.87
503.987	10298.09
504.356	10411.53
504.724	10470.52
505.093	10572.21
505.462	10531.31
505.83	10658.08
506.199	10707.8
506.567	10920.45
506.936	10928.36
507.304	11044.29
507.672	11089.93
508.041	11089.03
508.409	11241.34
508.777	11311.85
509.145	11401.56
509.514	11376.71
509.882	11452.86
510.25	11445.18
510.618	11537.15
510.986	11611.28
511.354	11707.32
511.722	11763.59
512.09	11760.2
512.458	11823.7
512.826	11966.52
513.193	11937.14
513.561	11983.92
513.929	12014.2
514.297	12164.71
514.664	12244.71
515.032	12151.6
515.4	12256.68
515.767	12210.81
516.135	12339.39
516.502	12179.17
516.869	12391.14
517.237	12352.5
517.604	12409.9
517.972	12479.28
518.339	12450.58
518.706	12485.15
519.073	12466.85
519.44	12545.72
519.808	12584.13
520.175	12527.41
520.542	12657.12
520.909	12683.56
521.276	12731.7
521.643	12768.76
522.009	12862.32
522.376	12878.59
522.743	12835.88
523.11	12890.57
523.477	13030.45
523.843	12985.93
524.21	13138.92
524.577	13070.67
524.943	13045.59
525.31	13102.99
525.676	13211.69
526.043	13184.79
526.409	13188.41
526.776	13274.51
527.142	13290.78
527.508	13220.27
527.874	13309.54
528.241	13356.54
528.607	13275.87
528.973	13361.06
529.339	13283.32
529.705	13327.16
530.071	13399.7
530.437	13391.34
530.803	13403.77
531.169	13392.47
531.535	13354.28
531.901	13393.6
532.267	13371.23
532.632	13394.05
532.998	13298.69
533.364	13343.66
533.73	13371.46
534.095	13413.94
534.461	13281.52
534.826	13376.43
535.192	13268.18
535.557	13380.72
535.923	13186.83
536.288	13268.18
536.653	13107.06
537.019	13153.16
537.384	13121.07
537.749	13150.22
538.114	13088.75
538.479	12996.32
538.845	13058.47
539.21	12996.78
539.575	13038.36
539.94	12967.17
540.305	12952.03
540.67	12890.57
541.034	12943.9
541.399	12885.59
541.764	12755.43
542.129	12812.37
542.494	12813.5
542.858	12669.1
543.223	12719.95
543.587	12677.92
543.952	12697.8
544.316	12621.19
544.681	12546.85
545.045	12587.07
545.41	12538.26
545.774	12454.19
546.138	12492.16
546.503	12470.24
546.867	12356.34
547.231	12400.41
547.595	12316.12
547.959	12377.58
548.324	12242.45
548.688	12276.34
549.052	12253.07
549.416	12239.73
549.779	12171.49
550.143	12199.96
550.507	12074.54
550.871	12042.68
551.235	12009.91
551.599	12106.4
551.962	12031.6
552.326	11971.95
552.689	11972.62
553.053	11879.52
553.417	11842.68
553.78	12001.1
554.143	11847.43
554.507	11827.77
554.87	11855.34
555.234	11943.25
555.597	11807.2
555.96	11757.04
556.323	11776.7
556.686	11719.97
557.05	11777.15
557.413	11720.43
557.776	11800.42
558.139	11743.25
558.502	11678.62
558.865	11691.5
559.228	11709.81
559.59	11705.74
559.953	11675
560.316	11762.46
560.679	11715
561.041	11698.51
561.404	11784.15
561.767	11733.08
562.129	11753.42
562.492	11775.11
562.854	11711.16
563.217	11675.68
563.579	11692.18
563.941	11738.28
564.304	11777.6
564.666	11781.89
565.028	11722.91
565.39	11691.73
565.753	11749.35
566.115	11658.06
566.477	11802.91
566.839	11764.27
567.201	11821.67
567.563	11828.45
567.925	11847.65
568.287	11848.56
568.648	11838.16
569.01	11847.43
569.372	11861.89
569.734	11807.2
570.095	11864.38
570.457	11850.59
570.819	11882.46
571.18	11835.68
571.542	11936.69
571.903	11941.44
572.265	11948.44
572.626	11991.83
572.987	11985.28
573.349	11978.05
573.71	12005.16
574.071	12089.46
574.432	12058.5
574.794	12110.47
575.155	12022.34
575.516	11951.15
575.877	12038.84
576.238	12069.12
576.599	12054.2
576.96	12051.49
577.32	12009.46
577.681	12087.2
578.042	12053.75
578.403	12056.24
578.763	12117.93
579.124	12086.74
579.485	12138.27
579.845	12113.86
580.206	12048.78
580.566	12100.53
580.927	12015.56
581.287	12072.73
581.648	12045.62
582.008	12097.14
582.368	12051.27
582.728	12142.56
583.089	12001.32
583.449	12015.33
583.809	12063.69
584.169	12070.02
584.529	12063.92
584.889	12063.92
585.249	11985.28
585.609	11937.82
585.969	12016.01
586.329	11991.83
586.688	11932.4
587.048	11966.3
587.408	11882.46
587.768	11909.35
588.127	11959.52
588.487	11864.38
588.846	11942.57
589.206	11892.63
589.565	11922.68
589.925	11930.82
590.284	11906.86
590.643	11891.95
591.003	11993.87
591.362	11915.45
591.721	11839.07
592.08	11873.64
592.44	11861.67
592.799	11853.98
593.158	11824.6
593.517	11832.06
593.876	11738.96
594.235	11788.45
594.593	11764.27
594.952	11781.44
595.311	11752.06
595.67	11729.01
596.029	11900.76
596.387	11912.51
596.746	11836.36
597.104	11772.85
597.463	11785.51
597.822	11814.44
598.18	11712.97
598.538	11743.02
598.897	11797.03
599.255	11654.89
599.613	11828.45
599.972	11775.57
600.33	11815.34
600.688	11671.16
601.046	11787.09
601.404	11762.69
601.762	11778.96
602.12	11757.94
602.478	11809.92
602.836	11851.04
603.194	11738.73
603.552	11795.45
603.91	11763.81
604.268	11801.33
604.625	11749.13
604.983	11768.33
605.341	11689.24
605.698	11778.5
606.056	11816.47
606.413	11783.25
606.771	11894.21
607.128	11817.82
607.485	11724.95
607.843	11767.66
608.2	11795.45
608.557	11832.51
608.914	11802.01
609.272	11839.07
609.629	11805.17
609.986	11734.66
610.343	11768.56
610.7	11826.41
611.057	11846.3
611.414	11818.95
611.771	11923.81
612.127	11892.4
612.484	11867.99
612.841	11966.3
613.198	11826.64
613.554	11864.15
613.911	11951.61
614.267	11945.05
614.624	11939.18
614.98	11940.08
615.337	11969.46
615.693	11958.61
616.05	11960.19
616.406	11979.4
616.762	11976.69
617.118	12035.67
617.475	12063.24
617.831	12044.03
618.187	11992.51
618.543	12075.67
618.899	12099.17
619.255	12089.46
619.611	12025.73
619.967	12104.6
620.323	12059.63
620.678	12067.54
621.034	12038.38
621.39	12052.85
621.746	12069.57
622.101	12164.26
622.457	12063.02
622.812	12115.67
623.168	12067.99
623.523	12162
623.879	12130.58
624.234	12005.16
624.589	12061.66
624.945	12083.35
625.3	12156.35
625.655	12079.29
626.01	12139.17
626.365	12087.2
626.72	12066.63
627.075	12170.81
627.43	11992.74
627.785	12013.75
628.14	12088.78
628.495	12088.1
628.85	12039.74
629.205	11997.03
629.559	12079.06
629.914	12035.22
630.269	12042.45
630.623	11967.65
630.978	12017.82
631.332	12012.4
631.687	12032.73
632.041	11959.06
632.396	11951.38
632.75	11833.19
633.104	11899.18
633.459	11929.69
633.813	11947.99
634.167	11970.82
634.521	11903.92
634.875	11929.23
635.229	11936.92
635.583	11809.92
635.937	11784.83
636.291	11908.9
636.645	11796.58
636.999	11801.33
637.352	11793.64
637.706	11760.2
638.06	11786.19
638.413	11704.83
638.767	11673.65
639.121	11693.99
639.474	11606.53
639.828	11625.51
640.181	11720.43
640.534	11620.77
640.888	11575.57
641.241	11537.83
641.594	11602.92
641.947	11590.03
642.301	11642.69
642.654	11644.27
643.007	11567.21
643.36	11594.78
643.713	11599.07
644.066	11539.19
644.419	11545.29
644.771	11467.55
645.124	11398.63
645.477	11397.5
645.83	11328.8
646.182	11307.56
646.535	11122.25
646.888	11205.64
647.24	11178.75
647.593	11163.83
647.945	11222.59
648.298	11199.99
648.65	11128.58
649.002	11104.85
649.355	11274.56
649.707	11231.4
650.059	11238.63
650.411	11347.78
650.763	11411.51
651.115	11462.81
651.467	11366.54
651.819	11373.32
652.171	11401.56
652.523	11390.04
652.875	11411.73
653.227	11260.78
653.578	11402.24
653.93	11403.37
654.282	11399.53
654.633	11389.36
654.985	11338.52
655.337	11364.28
655.688	11387.1
656.039	11461.45
656.391	11373.32
656.742	11342.36
657.094	11352.98
657.445	11496.48
657.796	11418.06
658.147	11429.36
658.498	11472.98
658.849	11394.11
659.2	11431.85
659.551	11439.08
659.902	11413.32
660.253	11369.7
660.604	11431.62
660.955	11387.1
661.306	11440.21
661.656	11468.91
662.007	11461.45
662.358	11440.89
662.708	11370.38
663.059	11428.91
663.409	11365.63
663.76	11460.09
664.11	11506.65
664.461	11535.57
664.811	11526.08
665.161	11381.68
665.511	11510.04
665.862	11432.52
666.212	11480.43
666.562	11524.73
666.912	11493.77
667.262	11412.64
667.612	11443.6
667.962	11440.43
668.312	11429.13
668.662	11462.35
669.011	11408.57
669.361	11485.63
669.711	11434.11
670.06	11369.02
670.41	11419.87
670.76	11451.96
671.109	11479.3
671.459	11391.17
671.808	11268.91
672.157	11425.74
672.507	11320.89
672.856	11359.08
673.205	11368.57
673.554	11420.77
673.904	11385.75
674.253	11390.72
674.602	11341
674.951	11225.07
675.3	11192.76
675.649	11298.29
675.998	11272.3
676.346	11313.43
676.695	11346.88
677.044	11265.75
677.393	11315.24
677.741	11235.69
678.09	11165.19
678.438	11129.48
678.787	11258.07
679.135	11179.2
679.484	11052.42
679.832	11112.76
680.181	11087.9
680.529	11113.21
680.877	11044.06
681.225	11086.77
681.573	11160.44
681.922	10980.11
682.27	11010.16
682.618	11035.92
682.966	11004.06
683.314	10960.9
683.661	10992.08
684.009	10866.21
684.357	10902.59
684.705	10886.32
685.053	10981.01
685.4	10911.86
685.748	10898.98
686.095	10788.47
686.443	10782.37
686.79	10763.62
687.138	10788.25
687.485	10741.69
687.832	10729.72
688.18	10682.04
688.527	10619.44
688.874	10622.38
689.221	10572.21
689.568	10534.69
689.915	10579.44
690.262	10518.42
690.609	10456.73
690.956	10419.67
691.303	10451.31
691.65	10391.2
691.997	10341.03
692.344	10260.58
692.69	10241.6
693.037	10294.7
693.383	10205.89
693.73	10151.65
694.077	10080.47
694.423	10160.92
694.769	10080.02
695.116	10094.71
695.462	10063.07
695.808	9968.16
696.155	9920.93
696.501	9926.35
696.847	9908.5
697.193	9870.76
697.539	9783.3
697.885	9803.19
698.231	9755.05
698.577	9722.51
698.923	9643.87
699.269	9653.59
699.614	9621.5
699.96	9571.78
700.306	9550.99
700.651	9491.11
700.997	9423.09
701.342	9514.38
701.688	9421.73
702.033	9375.86
702.379	9333.82
702.724	9327.95
703.069	9346.03
703.415	9270.55
703.76	9253.82
704.105	9222.64
704.45	9249.08
704.795	9145.13
705.14	9091.57
705.485	9113.04
705.83	9028.97
706.175	9007.5
706.52	9015.64
706.865	9037.33
707.209	8884.57
707.554	8859.26
707.899	8953.95
708.243	8843.44
708.588	8838.24
708.932	8811.12
709.277	8744.91
709.621	8795.53
709.966	8799.15
710.31	8783.33
710.654	8699.49
710.998	8715.76
711.342	8687.74
711.687	8686.83
712.031	8596.67
712.375	8625.59
712.719	8586.05
713.063	8595.54
713.407	8611.36
713.75	8563
714.094	8570.45
714.438	8530.68
714.782	8477.12
715.125	8478.03
715.469	8486.39
715.812	8452.72
716.156	8391.93
716.499	8453.62
716.843	8417.91
717.186	8336.33
717.53	8379.72
717.873	8379.5
718.216	8308.76
718.559	8279.84
718.902	8248.2
719.246	8265.6
719.589	8186.28
719.932	8213.4
720.275	8275.09
720.617	8205.26
720.96	8220.18
721.303	8247.52
721.646	8216.56
721.989	8157.36
722.331	8256.11
722.674	8204.36
723.016	8171.14
723.359	8152.61
723.701	8118.94
724.044	8181.31
724.386	8091.14
724.729	8180.18
725.071	8098.6
725.413	8142.67
725.755	8032.39
726.097	8026.96
726.439	8052.95
726.782	8040.75
727.124	8150.8
727.465	8061.77
727.807	8071.71
728.149	8039.17
728.491	8061.77
728.833	8117.81
729.175	8052.27
729.516	8045.49
729.858	8013.86
730.199	8068.54
730.541	7991.03
730.882	7959.17
731.224	8033.29
731.565	7953.07
731.906	7990.81
732.248	8076.45
732.589	7993.97
732.93	8004.82
733.271	8022.44
733.612	8052.5
733.953	8035.33
734.294	7949.9
734.635	7940.19
734.976	7977.02
735.317	7983.35
735.658	7961.88
735.999	7961.43
736.339	8025.61
736.68	8074.42
737.021	8043.69
737.361	7979.96
737.702	7984.03
738.042	7996
738.383	7991.26
738.723	8101.54
739.063	7987.19
739.404	8091.6
739.744	8111.26
740.084	8066.51
740.424	8043.69
740.764	8070.58
741.104	8088.66
741.444	8064.25
741.784	8059.73
742.124	8163.68
742.464	8139.96
742.804	8125.04
743.143	8160.29
743.483	8203.91
743.823	8206.17
744.162	8231.7
744.502	8310.8
744.841	8262.89
745.181	8348.76
745.52	8363.9
745.86	8391.7
746.199	8487.52
746.538	8411.36
746.877	8545.37
747.216	8622.43
747.556	8607.97
747.895	8650.22
748.234	8654.29
748.573	8717.12
748.911	8725.48
749.25	8849.99
749.589	8858.58
749.928	8942.42
750.267	9016.54
750.605	9079.37
750.944	9129.53
751.283	9194.17
751.621	9337.66
751.96	9295.86
752.298	9426.93
752.636	9607.04
752.975	9643.42
753.313	9683.87
753.651	9887.25
753.989	10016.06
754.327	10077.08
754.666	10070.07
755.004	10290.41
755.342	10344.19
755.679	10527.46
756.017	10667.57
756.355	10784.18
756.693	10829.6
757.031	11010.84
757.368	11118.86
757.706	11275.92
758.044	11445.86
758.381	11623.71
758.719	11745.28
759.056	11974.2
759.394	11991.61
759.731	12251.49
760.068	12355.44
760.405	12426.85
760.743	12625.04
761.08	12798.82
761.417	12944.57
761.754	13106.6
762.091	13368.07
762.428	13415.3
762.765	13622.3
763.102	13729.86
763.438	13871.1
763.775	13994.49
764.112	14258.89
764.449	14391.77
764.785	14511.54
765.122	14597.86
765.458	14774.13
765.795	14929.38
766.131	15158.75
766.467	15219.09
766.804	15351.07
767.14	15510.61
767.476	15623.83
767.812	15731.62
768.148	15895.91
768.485	15984.27
768.821	16060.88
769.157	16243.47
769.492	16391.72
769.828	16572.95
770.164	16565.95
770.5	16681.43
770.836	16835.55
771.171	16850.01
771.507	17033.05
771.842	17045.94
772.178	17091.13
772.513	17222.65
772.849	17326.61
773.184	17405.93
773.519	17443.21
773.855	17575.87
774.19	17558.01
774.525	17673.04
774.86	17766.59
775.195	17796.65
775.53	17882.75
775.865	17952.8
776.2	17897.21
776.535	17840.04
776.87	17980.83
777.205	17953.48
777.539	17999.36
777.874	18143.76
778.209	18155.06
778.543	18187.83
778.878	18130.2
779.212	18157.09
779.547	18253.81
779.881	18242.06
780.215	18125.23
780.55	18218.11
780.884	18272.12
781.218	18240.25
781.552	18403.41
781.886	18301.72
782.22	18248.16
782.554	18296.07
782.888	18098.56
783.222	18264.44
783.556	18287.71
783.889	18248.84
784.223	18102.63
784.557	18086.13
784.89	18122.29
785.224	18216.3
785.557	18202.52
785.891	18141.5
786.224	18154.61
786.558	18144.44
786.891	18026.25
787.224	17979.92
787.557	18050.88
787.891	17994.61
788.224	18074.38
788.557	18073.03
788.89	18052.01
789.223	18027.38
789.556	17921.62
789.888	17920.26
790.221	17915.74
790.554	17745.58
790.887	17688.86
791.219	17749.42
791.552	17633.04
791.884	17650.67
792.217	17694.51
792.549	17653.15
792.882	17555.53
793.214	17545.58
793.546	17612.47
793.879	17462.42
794.211	17426.49
794.543	17486.83
794.875	17434.17
795.207	17501.97
795.539	17353.27
795.871	17464.46
796.203	17285.48
796.535	17238.02
796.867	17161.64
797.198	17100.85
797.53	17144.46
797.862	17057.46
798.193	17054.98
798.525	16934.3
798.856	16987.63
799.188	16810.69
799.519	16856.79
799.85	16733.4
800.182	16701.76
800.513	16793.06
800.844	16654.99
801.175	16739.05
801.506	16676
801.837	16538.38
802.168	16559.85
802.499	16542.9
802.83	16464.03
803.161	16325.5
803.491	16351.72
803.822	16402.34
804.153	16355.33
804.483	16237.14
804.814	16149.24
805.145	16193.3
805.475	16226.75
805.805	16164.15
806.136	16154.89
806.466	16139.52
806.796	16052.29
807.126	15957.83
807.457	15929.58
807.787	15864.05
808.117	15867.44
808.447	15782.01
808.777	15798.51
809.107	15765.07
809.436	15659.53
809.766	15703.82
810.096	15674.45
810.426	15625.63
810.755	15716.71
811.085	15650.04
811.414	15516.48
811.744	15555.58
812.073	15444.62
812.403	15477.84
812.732	15410.72
813.061	15308.13
813.39	15347
813.719	15292.31
814.049	15415.92
814.378	15224.51
814.707	15346.77
815.036	15254.12
815.365	15141.81
815.693	15037.63
816.022	15081.24
816.351	15029.49
816.68	14966.89
817.008	15081.47
817.337	14952.66
817.665	14932.09
817.994	14906.56
818.322	14877.86
818.651	14906.56
818.979	14777.3
819.307	14793.57
819.636	14946.78
819.964	14723.51
820.292	14802.83
820.62	14798.09
820.948	14678.54
821.276	14699.56
821.604	14733.23
821.932	14681.03
822.259	14702.95
822.587	14639.22
822.915	14638.77
823.243	14678.77
823.57	14568.94
823.898	14739.33
824.225	14615.04
824.553	14571.88
824.88	14685.77
825.207	14701.14
825.535	14651.65
825.862	14673.79
826.189	14648.26
826.516	14646.23
826.843	14773
827.17	14733.23
827.497	14701.36
827.824	14727.8
828.151	14782.72
828.478	14700.01
828.805	14844.64
829.131	14643.06
829.458	14756.96
829.785	14720.12
830.111	14725.32
830.438	14781.36
830.764	14669.28
831.09	14712.66
831.417	14688.48
831.743	14751.53
832.069	14641.25
832.395	14678.31
832.722	14735.71
833.048	14736.62
833.374	14603.51
833.7	14600.8
834.026	14595.15
834.351	14604.87
834.677	14599.9
835.003	14646
835.329	14614.14
835.654	14556.96
835.98	14587.47
836.306	14541.6
836.631	14432.67
836.956	14463.63
837.282	14497.75
837.607	14430.86
837.932	14339.79
838.258	14387.47
838.583	14400.36
838.908	14241.04
839.233	14388.83
839.558	14289.62
839.883	14179.57
840.208	14224.32
840.533	14262.05
840.858	14212.34
841.182	14146.13
841.507	14158.33
841.832	14133.02
842.156	14101.15
842.481	14112.45
842.805	14034.49
843.13	13956.53
843.454	13974.15
843.778	13909.3
844.103	13898
844.427	13853.7
844.751	13849.18
845.075	13838.79
845.399	13814.38
845.723	13715.63
846.047	13669.08
846.371	13650.77
846.695	13625.01
847.019	13584.33
847.343	13479.02
847.666	13386.37
847.99	13267.73
848.313	13297.79
848.637	13237.9
848.96	13198.58
849.284	13175.53
849.607	13100.95
849.931	13113.38
850.254	12918.13
850.577	12920.85
850.9	12864.35
851.223	12856.89
851.546	12770.57
851.869	12626.17
852.192	12674.07
852.515	12621.65
852.838	12602.44
853.161	12575.32
853.483	12518.15
853.806	12432.95
854.129	12381.43
854.451	12366.29
854.774	12278.6
855.096	12330.35
855.419	12320.64
855.741	12215.55
856.063	12165.61
856.385	12238.15
856.708	12080.64
857.03	12082.68
857.352	12160.87
857.674	11982.34
857.996	11945.51
858.318	11921.78
858.64	11931.72
858.961	11853.76
859.283	11860.31
859.605	11738.28
859.926	11739.18
860.248	11747.77
860.57	11671.61
860.891	11654.44
861.212	11660.31
861.534	11635.46
861.855	11548.91
862.176	11569.92
862.498	11612.86
862.819	11661.44
863.14	11543.03
863.461	11484.27
863.782	11466.65
864.103	11467.55
864.424	11473.2
864.745	11443.6
865.065	11339.19
865.386	11283.38
865.707	11337.16
866.027	11313.21
866.348	11312.3
866.668	11295.13
866.989	11292.19
867.309	11192.08
867.63	11235.69
867.95	11201.34
868.27	11107.34
868.59	11128.8
868.91	11171.97
869.23	11119.76
869.55	11114.79
869.87	11128.8
870.19	11078.41
870.51	11089.26
870.83	11060.1
871.15	10984.63
871.469	10968.13
871.789	10967.45
872.109	10974.23
872.428	10927.68
872.748	10957.28
873.067	10924.74
873.386	10885.19
873.706	10875.25
874.025	10835.7
874.344	10808.36
874.663	10775.59
874.982	10764.52
875.301	10803.61
875.62	10724.07
875.939	10743.73
876.258	10777.85
876.577	10708.93
876.896	10781.92
877.214	10733.11
877.533	10613.79
877.852	10666.44
878.17	10591.64
878.489	10626.67
878.807	10684.52
879.125	10628.93
879.444	10575.82
879.762	10524.75
880.08	10595.71
880.398	10471.65
880.716	10537.86
881.034	10438.2
881.352	10416.96
881.67	10432.1
881.988	10424.42
882.306	10419.9
882.624	10319.79
882.941	10344.64
883.259	10227.13
883.577	10297.86
883.894	10286.57
884.212	10277.3
884.529	10261.26
884.846	10275.72
885.164	10226.68
885.481	10114.37
885.798	10158.89
886.115	10011.32
886.432	10089.51
886.75	10014.48
887.067	10040.24
887.383	10010.41
887.7	10037.31
888.017	9941.26
888.334	9958.66
888.651	9956.4
888.967	9911.89
889.284	9817.43
889.6	9858.55
889.917	9742.4
890.233	9786.24
890.55	9661.05
890.866	9746.01
891.182	9660.37
891.498	9576.75
891.815	9596.19
892.131	9603.87
892.447	9512.57
892.763	9549.86
893.079	9501.95
893.395	9532.01
893.71	9469.86
894.026	9444.78
894.342	9402.75
894.657	9327.49
894.973	9331.34
895.289	9318.91
895.604	9270.32
895.92	9192.58
896.235	9158.46
896.55	9193.26
896.865	9148.29
897.181	9074.17
897.496	9109.87
897.811	9078.24
898.126	9056.77
898.441	8945.13
898.756	8923.89
899.071	8861.74
899.386	8946.71
899.7	8893.61
900.015	8774.29
900.33	8725.7
900.644	8751.46
900.959	8784.68
901.273	8699.94
901.588	8651.58
901.902	8630.79
902.216	8594.86
902.531	8554.63
902.845	8552.15
903.159	8465.37
903.473	8502.21
903.787	8471.7
904.101	8381.08
904.415	8428.99
904.729	8297.24
905.042	8263.12
905.356	8309.22
905.67	8250.01
905.984	8153.74
906.297	8257.69
906.611	8201.42
906.924	8164.59
907.237	8102.44
907.551	8108.09
907.864	8028.32
908.177	8047.75
908.491	8017.02
908.804	7897.48
909.117	7898.83
909.43	7871.71
909.743	7804.15
910.056	7793.07
910.368	7755.33
910.681	7694.32
910.994	7738.84
911.307	7687.54
911.619	7648.67
911.932	7658.16
912.244	7583.13
912.557	7521.44
912.869	7501.33
913.181	7440.76
913.494	7471.72
913.806	7351.73
914.118	7424.72
914.43	7327.1
914.742	7360.54
915.054	7296.59
915.366	7301.33
915.678	7194.22
915.99	7213.2
916.302	7183.82
916.613	7162.13
916.925	7140.66
917.236	7109.25
917.548	7076.48
917.859	7072.86
918.171	7028.12
918.482	6924.62
918.794	6972.75
919.105	6951.74
919.416	6905.41
919.727	6858.63
920.038	6869.03
920.349	6811.18
920.66	6765.53
920.971	6718.75
921.282	6730.28
921.593	6671.75
921.903	6627.9
922.214	6658.86
922.525	6569.38
922.835	6573.67
923.146	6570.73
923.456	6503.84
923.767	6565.99
924.077	6445.54
924.387	6461.13
924.697	6420.23
925.008	6386.56
925.318	6387.69
925.628	6386.56
925.938	6329.83
926.248	6271.3
926.558	6249.61
926.867	6229.5
927.177	6170.52
927.487	6196.05
927.796	6182.72
928.106	6181.14
928.416	6105.43
928.725	6037.41
929.034	6072.67
929.344	6005.1
929.653	6011.65
929.962	5991.76
930.271	5974.14
930.581	5952.89
930.89	5895.95
931.199	5916.96
931.508	5931.43
931.817	5845.55
932.125	5861.82
932.434	5808.94
932.743	5746.12
933.051	5754.26
933.36	5772.11
933.669	5701.6
933.977	5695.73
934.286	5689.62
934.594	5683.75
934.902	5606.01
935.21	5565.79
935.519	5587.93
935.827	5500.02
936.135	5557.42
936.443	5439.91
936.751	5455.73
937.059	5474.94
937.367	5434.94
937.674	5385.23
937.982	5361.5
938.29	5329.41
938.597	5345.23
938.905	5290.31
939.213	5289.86
939.52	5315.62
939.827	5269.07
940.135	5239.01
940.442	5181.62
940.749	5213.7
941.056	5165.8
941.363	5140.94
941.67	5126.48
941.977	5046.7
942.284	5085.12
942.591	5050.09
942.898	5041.96
943.205	5040.15
943.511	4978
943.818	4929.87
944.125	4914.28
944.431	4928.74
944.738	4910.21
945.044	4869.31
945.35	4835.41
945.657	4837.67
945.963	4869.31
946.269	4759.93
946.575	4826.14
946.881	4740.04
947.187	4751.8
947.493	4719.25
947.799	4729.88
948.105	4706.37
948.41	4629.99
948.716	4605.81
949.022	4573.72
949.327	4622.31
949.633	4539.37
949.938	4533.04
950.244	4497.34
950.549	4503.89
950.854	4507.28
951.16	4468.19
951.465	4440.84
951.77	4411.01
952.075	4415.99
952.38	4395.2
952.685	4386.83
952.99	4367.85
953.294	4382.54
953.599	4332.6
953.904	4272.03
954.209	4308.87
954.513	4260.96
954.818	4256.89
955.122	4242.43
955.426	4226.61
955.731	4183.68
956.035	4164.92
956.339	4177.12
956.643	4162.66
956.948	4135.31
957.252	4145.71
957.556	4087.63
957.86	4098.71
958.163	4060.74
958.467	4033.85
958.771	4025.49
959.075	4004.92
959.378	3970.8
959.682	3993.4
959.985	3988.2
960.289	3973.74
960.592	3903.23
960.896	3907.3
961.199	3907.98
961.502	3849.67
961.805	3884.7
962.108	3814.65
962.411	3835.44
962.714	3790.47
963.017	3811.26
963.32	3768.32
963.623	3773.29
963.926	3727.19
964.228	3740.52
964.531	3730.13
964.833	3691.26
965.136	3693.52
965.438	3630.7
965.741	3677.47
966.043	3601.09
966.345	3631.15
966.648	3577.82
966.95	3589.34
967.252	3555.9
967.554	3534.43
967.856	3479.51
968.158	3512.05
968.46	3493.75
968.761	3508.89
969.063	3473.19
969.365	3501.66
969.666	3467.76
969.968	3442
970.269	3398.39
970.571	3405.62
970.872	3387.31
971.174	3371.49
971.475	3322.23
971.776	3359.97
972.077	3317.94
972.378	3309.57
972.679	3306.86
972.98	3290.37
973.281	3267.99
973.582	3289.46
973.883	3236.36
974.183	3210.37
974.484	3172.4
974.785	3175.57
975.085	3210.37
975.386	3197.26
975.686	3127.21
975.986	3122.91
976.287	3179.63
976.587	3097.83
976.887	3081.33
977.187	3071.84
977.487	3061.22
977.787	3062.8
978.087	3043.37
978.387	3016.25
978.687	3023.48
978.987	3008.79
979.286	2954.78
979.586	3016.02
979.885	2966.76
980.185	2923.6
980.484	2942.13
980.784	2945.74
981.083	2921.11
981.382	2924.5
981.682	2882.24
981.981	2876.37
982.28	2845.63
982.579	2824.61
982.878	2845.18
983.177	2822.13
983.475	2808.57
983.774	2804.73
984.073	2778.74
984.372	2789.14
984.67	2729.48
984.969	2743.26
985.267	2724.96
985.566	2707.56
985.864	2720.44
986.162	2708.46
986.461	2667.11
986.759	2700.1
987.057	2654.22
987.355	2651.96
987.653	2623.49
987.951	2630.04
988.249	2617.16
988.547	2595.69
988.844	2615.35
989.142	2603.6
989.44	2554.57
989.737	2512.53
990.035	2551.18
990.332	2528.13
990.63	2512.53
990.927	2495.81
991.224	2488.35
991.521	2491.52
991.819	2467.79
992.116	2469.82
992.413	2445.87
992.71	2439.99
993.006	2427.34
993.303	2417.62
993.6	2389.15
993.897	2392.54
994.193	2374.46
994.49	2388.02
994.787	2377.85
995.083	2319.77
995.379	2335.59
995.676	2326.32
995.972	2329.49
996.268	2316.15
996.565	2273.9
996.861	2262.37
997.157	2237.74
997.453	2275.02
997.749	2264.86
998.044	2232.99
998.34	2216.5
998.636	2205.2
998.932	2190.73
999.227	2162.94
999.523	2187.12
999.818	2146.21
1000.114	2150.73
1000.409	2151.86
1000.704	2107.35
1001	2103.73
1001.295	2104.63
1001.59	2075.93
1001.885	2083.17
1002.18	2072.77
1002.475	2052.21
1002.77	2060.57
1003.065	2002.26
1003.359	2009.72
1003.654	2017.4
1003.949	2027.8
1004.243	1996.16
1004.538	1967.69
1004.832	1984.86
1005.127	1986.9
1005.421	1925.66
1005.715	1984.41
1006.009	1958.42
1006.304	1903.51
1006.598	1878.43
1006.892	1910.97
1007.186	1887.01
1007.48	1899.22
1007.773	1866
1008.067	1853.34
1008.361	1841.14
1008.655	1807.24
1008.948	1826.68
1009.242	1809.73
1009.535	1808.82
1009.829	1757.3
1010.122	1776.05
1010.415	1799.11
1010.708	1773.57
1011.001	1774.93
1011.295	1748.71
1011.588	1738.99
1011.881	1714.36
1012.173	1732.44
1012.466	1706.23
1012.759	1694.02
1013.052	1684.31
1013.344	1683.18
1013.637	1645.89
1013.93	1653.35
1014.222	1641.82
1014.514	1658.09
1014.807	1640.92
1015.099	1617.19
1015.391	1633.46
1015.683	1597.08
1015.976	1579.45
1016.268	1560.92
1016.56	1568.6
1016.851	1564.99
1017.143	1560.69
1017.435	1530.64
1017.727	1548.72
1018.018	1486.35
1018.31	1497.87
1018.602	1506.01
1018.893	1509.85
1019.185	1469.4
1019.476	1469.17
1019.767	1483.41
1020.058	1473.24
1020.35	1455.61
1020.641	1424.43
1020.932	1402.96
1021.223	1405.9
1021.514	1391.88
1021.804	1396.4
1022.095	1359.12
1022.386	1361.6
1022.677	1370.64
1022.967	1341.94
1023.258	1384.43
1023.548	1357.53
1023.839	1338.33
1024.129	1365.9
1024.419	1312.79
1024.709	1313.69
1025	1298.33
1025.29	1295.39
1025.58	1276.41
1025.87	1263.53
1026.16	1301.49
1026.449	1238.22
1026.739	1260.59
1027.029	1249.06
1027.319	1243.19
1027.608	1220.36
1027.898	1224.43
1028.187	1212
1028.477	1200.7
1028.766	1204.09
1029.055	1194.6
1029.344	1169.74
1029.634	1159.12
1029.923	1177.88
1030.212	1150.76
1030.501	1136.3
1030.79	1140.82
1031.078	1129.74
1031.367	1115.73
1031.656	1123.42
1031.945	1110.76
1032.233	1123.19
1032.522	1120.7
1032.81	1095.85
1033.099	1082.74
1033.387	1078.9
1033.675	1073.93
1033.963	1073.47
1034.251	1051.1
1034.54	1040.93
1034.828	1057.88
1035.116	1052.23
1035.403	1039.35
1035.691	1040.26
1035.979	1030.31
1036.267	1007.49
1036.554	1010.65
1036.842	1009.07
1037.129	965.91
1037.417	981.95
1037.704	966.58
1037.992	989.63
1038.279	951.9
1038.566	950.77
1038.853	950.77
1039.14	950.77
