Data from hue_180_FLMS001491_00062.txt Node
Date: Tue Feb 07 16:47:18 GMT 2017
User: dcchb
Spectrometer: FLMS00149
Trigger mode: 0
Integration Time (sec): 2.000000E-2
Scans to average: 10
Electric dark correction enabled: true
Nonlinearity correction enabled: false
Boxcar width: 0
XAxis mode: Wavelengths
Number of Pixels in Spectrum: 2048
>>>>>Begin Spectral Data<<<<<
341.393	-29.43
341.776	-29.43
342.16	-29.43
342.543	-57.68
342.927	-63.33
343.31	-70.11
343.693	-74.63
344.077	-78.02
344.46	-50.45
344.843	-46.83
345.226	-49.55
345.61	-19.72
345.993	-15.2
346.376	-14.29
346.759	18.02
347.142	24.35
347.525	48.3
347.908	42.2
348.291	70.68
348.674	97.12
349.057	118.13
349.44	138.92
349.823	139.6
350.206	171.46
350.588	178.02
350.971	207.62
351.354	220.95
351.737	218.92
352.119	238.36
352.502	259.15
352.884	275.42
353.267	257.79
353.65	305.47
354.032	287.39
354.414	281.07
354.797	309.09
355.179	312.48
355.562	316.09
355.944	345.92
356.326	322.42
356.709	333.27
357.091	330.78
357.473	353.83
357.855	313.61
358.238	340.27
358.62	364.68
359.002	355.87
359.384	326.94
359.766	332.36
360.148	341.86
360.53	347.5
360.912	331.46
361.294	336.21
361.676	330.33
362.057	332.82
362.439	328.3
362.821	341.4
363.203	320.84
363.584	342.76
363.966	319.26
364.348	332.82
364.729	325.36
365.111	307.73
365.493	330.1
365.874	321.97
366.256	323.78
366.637	315.87
367.019	307.28
367.4	316.55
367.781	324.23
368.163	280.84
368.544	320.39
368.925	304.79
369.306	293.72
369.688	284.91
370.069	297.79
370.45	304.12
370.831	309.77
371.212	302.53
371.593	329.2
371.974	325.36
372.355	311.8
372.736	312.48
373.117	307.96
373.498	303.44
373.879	310.9
374.26	299.37
374.641	309.31
375.021	316.09
375.402	312.93
375.783	319.03
376.163	326.94
376.544	309.77
376.925	311.12
377.305	337.11
377.686	321.07
378.066	318.35
378.447	314.74
378.827	333.04
379.208	349.76
379.588	319.26
379.968	338.69
380.349	338.69
380.729	324.23
381.109	309.09
381.489	327.39
381.87	343.66
382.25	319.26
382.63	318.58
383.01	327.62
383.39	361.29
383.77	335.75
384.15	338.24
384.53	345.25
384.91	337.56
385.29	340.05
385.67	361.74
386.049	362.87
386.429	356.54
386.809	361.29
387.189	349.09
387.568	352.25
387.948	342.08
388.328	367.17
388.707	362.65
389.087	348.41
389.466	340.5
389.846	355.64
390.225	347.96
390.605	352.7
390.984	359.48
391.363	373.04
391.743	376.88
392.122	344.34
392.501	364
392.881	369.88
393.26	372.82
393.639	360.16
394.018	383.44
394.397	386.37
394.776	359.48
395.155	389.09
395.534	389.76
395.913	375.3
396.292	407.39
396.671	394.06
397.05	372.36
397.429	380.05
397.808	380.05
398.186	393.38
398.565	386.83
398.944	357.45
399.323	388.86
399.701	388.86
400.08	388.41
400.458	386.15
400.837	404
401.215	409.65
401.594	394.51
401.972	418.24
402.351	402.64
402.729	409.42
403.107	411.91
403.486	417.33
403.864	424.11
404.242	439.71
404.62	433.6
404.999	420.5
405.377	437.22
405.755	430.89
406.133	435.19
406.511	465.24
406.889	439.71
407.267	445.58
407.645	470.44
408.023	466.6
408.401	473.38
408.779	444.68
409.156	481.96
409.534	472.25
409.912	504.11
410.29	514.96
410.667	531.23
411.045	492.59
411.422	523.32
411.8	519.03
412.178	532.58
412.555	547.95
412.933	538.23
413.31	544.56
413.687	536.2
414.065	559.93
414.442	555.64
414.819	580.72
415.197	567.84
415.574	565.8
415.951	599.02
416.328	599.48
416.705	610.32
417.082	632.24
417.46	612.81
417.837	643.77
418.214	641.96
418.591	624.56
418.967	638.34
419.344	665.01
419.721	656.42
420.098	674.28
420.475	684.9
420.852	695.74
421.228	716.99
421.605	707.04
421.982	721.28
422.358	705.01
422.735	744.56
423.111	759.47
423.488	747.72
423.864	766.25
424.241	774.39
424.617	820.26
424.994	795.18
425.37	795.63
425.746	822.75
426.123	851.9
426.499	835.4
426.875	854.61
427.251	852.35
427.627	884.44
428.003	873.82
428.379	885.12
428.756	907.04
429.132	909.75
429.507	944.78
429.883	944.55
430.259	944.78
430.635	966.47
431.011	955.85
431.387	980.48
431.763	1021.61
432.138	1000.6
432.514	1021.39
432.89	1034.27
433.265	1065.23
433.641	1035.85
434.016	1086.69
434.392	1088.95
434.767	1099.58
435.143	1136.41
435.518	1163.3
435.894	1189.74
436.269	1173.92
436.644	1214.15
437.02	1235.62
437.395	1212.79
437.77	1233.36
438.145	1297.54
438.52	1275.62
438.895	1315.62
439.271	1337.31
439.646	1331.89
440.021	1374.82
440.395	1366.69
440.77	1366.01
441.145	1376.18
441.52	1429.51
441.895	1449.85
442.27	1424.99
442.645	1473.13
443.019	1468.83
443.394	1486.46
443.769	1497.98
444.143	1502.95
444.518	1536.63
444.892	1525.1
445.267	1554.48
445.641	1542.5
446.016	1571.65
446.39	1587.7
446.764	1617.53
447.139	1599
447.513	1638.32
447.887	1641.26
448.262	1623.4
448.636	1650.07
449.01	1673.35
449.384	1697.53
449.758	1703.85
450.132	1725.32
450.506	1716.51
450.88	1756.96
451.254	1755.38
451.628	1770.74
452.002	1794.7
452.376	1817.07
452.75	1832.21
453.123	1854.36
453.497	1894.13
453.871	1903.62
454.244	1918.54
454.618	1982.94
454.992	1971.87
455.365	1983.39
455.739	2026.56
456.112	2045.31
456.486	2083.05
456.859	2068.14
457.232	2092.54
457.606	2081.7
457.979	2128.7
458.352	2220.9
458.725	2259.32
459.099	2217.96
459.472	2259.55
459.845	2286.44
460.218	2312.43
460.591	2347.23
460.964	2332.99
461.337	2402.59
461.71	2431.74
462.083	2472.65
462.456	2457.28
462.829	2509.93
463.201	2545.87
463.574	2553.32
463.947	2612.53
464.32	2684.84
464.692	2669.93
465.065	2720.78
465.438	2723.26
465.81	2736.14
466.183	2803.49
466.555	2884.39
466.928	2915.57
467.3	2876.48
467.672	2935.69
468.045	3021.78
468.417	3021.33
468.789	3097.26
469.161	3123.03
469.534	3159.41
469.906	3257.26
470.278	3295.22
470.65	3339.06
471.022	3380.65
471.394	3442.56
471.766	3467.2
472.138	3561.43
472.51	3605.5
472.882	3653.18
473.253	3741.54
473.625	3757.13
473.997	3825.61
474.369	3902.21
474.74	3920.97
475.112	4015.66
475.484	4112.15
475.855	4196.22
476.227	4226.27
476.598	4334.07
476.97	4432.6
477.341	4463.1
477.713	4561.86
478.084	4616.77
478.455	4693.61
478.827	4833.94
479.198	4897.89
479.569	4919.59
479.94	5100.6
480.311	5155.06
480.682	5278.67
481.053	5421.04
481.424	5479.8
481.795	5590.53
482.166	5674.6
482.537	5703.97
482.908	5905.1
483.279	5943.52
483.65	6069.61
484.021	6256.95
484.391	6293.56
484.762	6319.33
485.133	6451.3
485.503	6556.16
485.874	6633.44
486.244	6799.54
486.615	6885.19
486.985	7020.78
487.356	7128.8
487.726	7226.42
488.097	7392.74
488.467	7395.46
488.837	7580.99
489.207	7695.11
489.578	7856.23
489.948	7934.65
490.318	8017.81
490.688	8040.41
491.058	8119.96
491.428	8321.08
491.798	8401.08
492.168	8536.44
492.538	8540.51
492.908	8691.01
493.278	8793.38
493.648	8874.29
494.017	8985.47
494.387	9050.78
494.757	9105.69
495.126	9203.32
495.496	9235.63
495.866	9332.13
496.235	9409.87
496.605	9503.87
496.974	9533.03
497.344	9634.94
497.713	9605.79
498.082	9743.64
498.452	9857.31
498.821	9890.53
499.19	9835.17
499.559	9978.44
499.928	10091.43
500.298	10110.19
500.667	10143.63
501.036	10179.79
501.405	10261.59
501.774	10246.68
502.143	10328.49
502.512	10325.77
502.88	10421.36
503.249	10478.76
503.618	10520.8
503.987	10617.97
504.356	10577.29
504.724	10600.12
505.093	10633.56
505.462	10636.5
505.83	10635.37
506.199	10751.3
506.567	10831.3
506.936	10852.99
507.304	11014.12
507.672	11044.17
508.041	11024.96
508.409	11065.19
508.777	11153.32
509.145	11170.95
509.514	11125.53
509.882	11205.52
510.25	11213.66
510.618	11228.57
510.986	11284.84
511.354	11273.55
511.722	11404.62
512.09	11447.33
512.458	11444.16
512.826	11390.15
513.193	11381.57
513.561	11534.56
513.929	11497.49
514.297	11583.14
514.664	11527.78
515.032	11602.12
515.4	11603.03
515.767	11666.08
516.135	11677.15
516.502	11527.32
516.869	11692.52
517.237	11744.72
517.604	11633.76
517.972	11725.51
518.339	11782.91
518.706	11775.45
519.073	11820.88
519.44	11830.82
519.808	11908.1
520.175	11794.66
520.542	11857.03
520.909	11925.51
521.276	11884.6
521.643	11944.04
522.009	11931.61
522.376	11939.06
522.743	11984.26
523.11	12025.16
523.477	12107.2
523.843	12043.02
524.21	12127.53
524.577	12078.04
524.943	12092.96
525.31	12129.57
525.676	12197.81
526.043	12220.64
526.409	12121.43
526.776	12282.78
527.142	12217.48
527.508	12163.24
527.874	12158.95
528.241	12282.11
528.607	12226.97
528.973	12316.68
529.339	12190.36
529.705	12280.07
530.071	12164.37
530.437	12170.7
530.803	12154.2
531.169	12342.67
531.535	12131.6
531.901	12138.38
532.267	12087.54
532.632	12061.32
532.998	12113.3
533.364	12116.91
533.73	12011.83
534.095	12025.62
534.461	11967.99
534.826	12064.71
535.192	11950.36
535.557	11976.8
535.923	11845.06
536.288	11915.11
536.653	11874.89
537.019	11748.79
537.384	11770.03
537.749	11810.03
538.114	11681.44
538.479	11643.25
538.845	11692.07
539.21	11627.43
539.575	11571.39
539.94	11495.23
540.305	11549.7
540.67	11466.99
541.034	11485.97
541.399	11470.38
541.764	11448.46
542.129	11388.57
542.494	11255.47
542.858	11302.7
543.223	11274.45
543.587	11277.61
543.952	11118.75
544.316	11141.35
544.681	11024.51
545.045	11128.69
545.41	11050.05
545.774	11035.81
546.138	10884.18
546.503	10848.25
546.867	10809.15
547.231	10855.48
547.595	10776.16
547.959	10778.19
548.324	10730.06
548.688	10655.48
549.052	10511.53
549.416	10608.25
549.779	10516.73
550.143	10525.54
550.507	10514.24
550.871	10464.98
551.235	10422.04
551.599	10435.38
551.962	10293.01
552.326	10288.71
552.689	10319.67
553.053	10132.11
553.417	10197.64
553.78	10280.35
554.143	10114.48
554.507	10199.22
554.87	10132.33
555.234	10140.92
555.597	10027.48
555.96	10020.25
556.323	9940.25
556.686	9898.89
557.05	10032.67
557.413	9968.72
557.776	9930.98
558.139	9900.25
558.502	9972.11
558.865	9907.71
559.228	9836.97
559.59	9845.79
559.953	9829.06
560.316	9881.72
560.679	9831.55
561.041	9841.04
561.404	9825
561.767	9816.18
562.129	9815.28
562.492	9792
562.854	9825
563.217	9741.83
563.579	9725.79
563.941	9761.49
564.304	9700.93
564.666	9767.14
565.028	9847.14
565.39	9744.32
565.753	9814.37
566.115	9747.48
566.477	9766.69
566.839	9741.38
567.201	9846.46
567.563	9739.57
567.925	9813.02
568.287	9837.88
568.648	9792.45
569.01	9825.45
569.372	9838.1
569.734	9795.84
570.095	9804.43
570.457	9868.61
570.819	9843.98
571.18	9843.53
571.542	9847.59
571.903	9853.02
572.265	9789.74
572.626	9813.24
572.987	9821.83
573.349	9917.42
573.71	9863.86
574.071	9918.55
574.432	9909.51
574.794	9884.2
575.155	9897.99
575.516	9823.41
575.877	9770.76
576.238	9836.52
576.599	9864.54
576.96	9884.66
577.32	9909.51
577.681	9948.38
578.042	9872.45
578.403	9876.52
578.763	9839.91
579.124	9856.18
579.485	9853.47
579.845	9858.67
580.206	9910.19
580.566	9864.54
580.927	9813.02
581.287	9895.95
581.648	9802.17
582.008	9852.79
582.368	9782.06
582.728	9917.87
583.089	9801.49
583.449	9761.72
583.809	9857.31
584.169	9825.22
584.529	9768.27
584.889	9836.07
585.249	9743.64
585.609	9772.12
585.969	9709.97
586.329	9728.5
586.688	9737.09
587.048	9783.64
587.408	9741.61
587.768	9753.13
588.127	9718.78
588.487	9658.67
588.846	9721.27
589.206	9657.77
589.565	9627.71
589.925	9616.41
590.284	9623.65
590.643	9609.18
591.003	9614.83
591.362	9645.34
591.721	9643.08
592.08	9693.02
592.44	9646.02
592.799	9596.08
593.158	9595.4
593.517	9581.39
593.876	9597.88
594.235	9615.28
594.593	9585.45
594.952	9568.96
595.311	9501.16
595.67	9559.24
596.029	9562.86
596.387	9575.51
596.746	9554.72
597.104	9518.79
597.463	9515.85
597.822	9556.3
598.18	9503.2
598.538	9480.37
598.897	9555.17
599.255	9432.92
599.613	9603.31
599.972	9463.2
600.33	9496.42
600.688	9536.87
601.046	9506.13
601.404	9517.89
601.762	9458.23
602.12	9495.74
602.478	9488.51
602.836	9507.04
603.194	9406.48
603.552	9433.37
603.91	9416.42
604.268	9446.25
604.625	9378.23
604.983	9521.28
605.341	9429.3
605.698	9471.11
606.056	9491.45
606.413	9449.86
606.771	9515.85
607.128	9501.84
607.485	9457.32
607.843	9401.05
608.2	9501.39
608.557	9517.43
608.914	9430.66
609.272	9484.21
609.629	9520.15
609.986	9577.54
610.343	9455.06
610.7	9559.01
611.057	9528.05
611.414	9488.96
611.771	9521.73
612.127	9573.03
612.484	9489.86
612.841	9602.85
613.198	9565.57
613.554	9505.46
613.911	9530.54
614.267	9552.46
614.624	9520.6
614.98	9551.33
615.337	9599.47
615.693	9588.84
616.05	9569.86
616.406	9631.78
616.762	9623.87
617.118	9565.34
617.475	9586.13
617.831	9657.99
618.187	9626.58
618.543	9721.27
618.899	9712.91
619.255	9609.63
619.611	9684.43
619.967	9594.49
620.323	9712.23
620.678	9688.5
621.034	9641.95
621.39	9644.66
621.746	9587.94
622.101	9741.61
622.457	9619.8
622.812	9660.71
623.168	9694.6
623.523	9657.99
623.879	9672.46
624.234	9616.19
624.589	9677.2
624.945	9709.97
625.3	9682.4
625.655	9718.33
626.01	9634.27
626.365	9706.81
626.72	9613.48
627.075	9690.76
627.43	9589.97
627.785	9622.74
628.14	9663.42
628.495	9680.14
628.85	9640.37
629.205	9578.22
629.559	9636.53
629.914	9599.47
630.269	9618.22
630.623	9574.83
630.978	9515.63
631.332	9550.65
631.687	9576.19
632.041	9563.31
632.396	9449.86
632.75	9528.28
633.104	9478.34
633.459	9499.81
633.813	9465.23
634.167	9557.21
634.521	9452.35
634.875	9388.17
635.229	9482.41
635.583	9477.89
635.937	9387.49
636.291	9419.58
636.645	9421.16
636.999	9386.59
637.352	9442.63
637.706	9366.25
638.06	9375.74
638.413	9334.16
638.767	9274.05
639.121	9271.34
639.474	9303.65
639.828	9293.94
640.181	9280.15
640.534	9286.93
640.888	9243.09
641.241	9207.16
641.594	9305.69
641.947	9224.79
642.301	9219.14
642.654	9238.8
643.007	9288.06
643.36	9266.37
643.713	9230.21
644.066	9246.25
644.419	9191.34
644.771	9110.66
645.124	9032.47
645.477	9081.06
645.83	9017.56
646.182	8997.22
646.535	8875.64
646.888	8961.97
647.24	8853.72
647.593	8932.59
647.945	8909.77
648.298	8883.33
648.65	8950.89
649.002	8899.82
649.355	8937.34
649.707	8918.81
650.059	8959.03
650.411	9063.66
650.763	9052.81
651.115	9163.32
651.467	9118.8
651.819	9167.84
652.171	9071.34
652.523	9037.67
652.875	9065.47
653.227	9070.89
653.578	9105.24
653.93	9123.32
654.282	9073.38
654.633	9055.98
654.985	8989.76
655.337	9086.71
655.688	9061.63
656.039	9134.39
656.391	9058.01
656.742	9043.77
657.094	9080.61
657.445	9116.99
657.796	9084.45
658.147	9141.17
658.498	9111.34
658.849	9142.75
659.2	9116.99
659.551	9104.56
659.902	9147.95
660.253	9100.5
660.604	9206.26
660.955	9040.61
661.306	9141.62
661.656	9142.75
662.007	9134.84
662.358	9096.65
662.708	9153.38
663.059	9131.68
663.409	9127.61
663.76	9142.75
664.11	9144.79
664.461	9122.64
664.811	9198.35
665.161	9164.67
665.511	9111.12
665.862	9150.44
666.212	9170.55
666.562	9203.32
666.912	9139.36
667.262	9196.09
667.612	9078.35
667.962	9166.48
668.312	9115.18
668.662	9237.44
669.011	9192.92
669.361	9179.59
669.711	9116.77
670.06	9179.14
670.41	9187.27
670.76	9118.8
671.109	9108.18
671.459	9118.57
671.808	9139.59
672.157	9196.99
672.507	9107.05
672.856	9109.76
673.205	9086.03
673.554	9043.77
673.904	9122.87
674.253	9082.19
674.602	9073.83
674.951	8946.83
675.3	8846.04
675.649	9007.16
675.998	9098.46
676.346	9025.24
676.695	9027.28
677.044	8933.27
677.393	9026.6
677.741	9010.1
678.09	8951.57
678.438	8967.62
678.787	8936.66
679.135	8916.77
679.484	8883.78
679.832	8847.85
680.181	8893.04
680.529	8905.02
680.877	8841.97
681.225	8880.61
681.573	8924.91
681.922	8826.15
682.27	8814.85
682.618	8832.93
682.966	8758.36
683.314	8779.15
683.661	8663.9
684.009	8694.63
684.357	8621.86
684.705	8637.68
685.053	8588.64
685.4	8652.37
685.748	8585.25
686.095	8628.19
686.443	8545.03
686.79	8549.78
687.138	8581.64
687.485	8515.65
687.832	8507.97
688.18	8501.41
688.527	8502.32
688.874	8462.32
689.221	8393.85
689.568	8386.16
689.915	8455.54
690.262	8446.05
690.609	8302.55
690.956	8344.13
691.303	8290.35
691.65	8268.65
691.997	8231.59
692.344	8185.04
692.69	8160.86
693.037	8208.32
693.383	8099.62
693.73	8134.64
694.077	8056
694.423	8069.11
694.769	8021.88
695.116	7971.71
695.462	7978.72
695.808	7945.72
696.155	7899.17
696.501	7858.27
696.847	7835.67
697.193	7820.3
697.539	7800.42
697.885	7781.66
698.231	7733.07
698.577	7735.11
698.923	7644.26
699.269	7616.92
699.614	7570.37
699.96	7510.71
700.306	7553.87
700.651	7557.48
700.997	7535.56
701.342	7483.59
701.688	7464.15
702.033	7383.93
702.379	7386.64
702.724	7378.05
703.069	7364.72
703.415	7304.38
703.76	7292.18
704.105	7275.01
704.45	7278.17
704.795	7218.96
705.14	7222.8
705.485	7206.76
705.83	7192.52
706.175	7164.73
706.52	7103.03
706.865	7089.02
707.209	7116.37
707.554	7042.7
707.899	7061.23
708.243	7004.73
708.588	6985.07
708.932	6915.24
709.277	6964.51
709.621	6976.26
709.966	6928.35
710.31	6851.51
710.654	6822.59
710.998	6888.35
711.342	6858.52
711.687	6825.75
712.031	6823.72
712.375	6769.48
712.719	6806.77
713.063	6753.66
713.407	6811.74
713.75	6728.58
714.094	6724.51
714.438	6687.68
714.782	6697.17
715.125	6653.1
715.469	6660.33
715.812	6658.75
716.156	6612.43
716.499	6606.32
716.843	6648.81
717.186	6587.11
717.53	6558.42
717.873	6592.76
718.216	6646.55
718.559	6593.44
718.902	6572.2
719.246	6550.28
719.589	6494.24
719.932	6479.32
720.275	6550.73
720.617	6528.13
720.96	6516.61
721.303	6474.8
721.646	6508.02
721.989	6479.1
722.331	6474.58
722.674	6486.1
723.016	6484.97
723.359	6482.94
723.701	6447.23
724.044	6367.91
724.386	6402.94
724.729	6453.56
725.071	6423.73
725.413	6369.95
725.755	6424.86
726.097	6391.41
726.439	6356.16
726.782	6375.37
727.124	6417.18
727.465	6365.2
727.807	6350.51
728.149	6364.97
728.491	6319.1
728.833	6371.3
729.175	6336.73
729.516	6345.54
729.858	6384.18
730.199	6387.35
730.541	6318.87
730.882	6343.51
731.224	6337.4
731.565	6290.85
731.906	6352.32
732.248	6369.49
732.589	6357.52
732.93	6332.43
733.271	6293.79
733.612	6315.94
733.953	6364.3
734.294	6317.74
734.635	6361.81
734.976	6345.99
735.317	6367.69
735.658	6348.93
735.999	6366.78
736.339	6379.89
736.68	6383.73
737.021	6380.11
737.361	6343.51
737.702	6371.75
738.042	6368.14
738.383	6375.37
738.723	6376.95
739.063	6391.64
739.404	6449.27
739.744	6477.97
740.084	6385.54
740.424	6449.49
740.764	6411.75
741.104	6495.59
741.444	6408.59
741.784	6481.58
742.124	6543.73
742.464	6503.5
742.804	6512.09
743.143	6523.39
743.483	6558.87
743.823	6563.84
744.162	6654.23
744.502	6647.68
744.841	6623.72
745.181	6756.6
745.52	6743.5
745.86	6729.48
746.199	6777.84
746.538	6765.42
746.877	6901.23
747.216	6983.04
747.556	6951.85
747.895	7028.69
748.234	7004.28
748.573	7023.71
748.911	7028.69
749.25	7157.04
749.589	7224.84
749.928	7300.54
750.267	7381.22
750.605	7353.42
750.944	7461.22
751.283	7476.58
751.621	7618.95
751.96	7653.3
752.298	7736.01
752.636	7928.1
752.975	7964.93
753.313	7990.69
753.651	8177.36
753.989	8224.13
754.327	8347.29
754.666	8433.62
755.004	8582.09
755.342	8721.07
755.679	8841.29
756.017	8856.66
756.355	9060.5
756.693	9241.73
757.031	9325.8
757.368	9438.11
757.706	9611.44
758.044	9758.56
758.381	9872.45
758.719	9997.42
759.056	10149.96
759.394	10312.44
759.731	10398.77
760.068	10601.25
760.405	10794.91
760.743	10889.83
761.08	11126.2
761.417	11225.19
761.754	11411.62
762.091	11597.83
762.428	11708.11
762.765	11802.12
763.102	12072.39
763.438	12243.46
763.775	12306.96
764.112	12551.93
764.449	12707.41
764.785	12832.83
765.122	12996.21
765.458	13093.16
765.795	13308.97
766.131	13454.96
766.467	13484.79
766.804	13659.92
767.14	13843.65
767.476	14001.16
767.812	14144.88
768.148	14341.49
768.485	14408.38
768.821	14417.19
769.157	14573.8
769.492	14753.68
769.828	14931.75
770.164	14901.7
770.5	15071.64
770.836	15175.82
771.171	15237.96
771.507	15370.84
771.842	15457.39
772.178	15521.12
772.513	15658.74
772.849	15713.2
773.184	15836.59
773.519	15932.63
773.855	15900.32
774.19	15950.94
774.525	16085.4
774.86	16209.46
775.195	16254.43
775.53	16364.03
775.865	16328.1
776.2	16275
776.535	16398.16
776.87	16520.64
777.205	16512.28
777.539	16449.91
777.874	16670.01
778.209	16587.98
778.543	16631.37
778.878	16630.47
779.212	16671.6
779.547	16683.57
779.881	16773.29
780.215	16759.73
780.55	16865.49
780.884	16734.42
781.218	16899.84
781.552	16947.29
781.886	16824.81
782.22	16797.24
782.554	16914.08
782.888	16831.37
783.222	16742.78
783.556	16839.95
783.889	16816
784.223	16749.79
784.557	16753.85
784.89	16831.37
785.224	16821.87
785.557	16746.4
785.891	16801.99
786.224	16690.35
786.558	16796.79
786.891	16646.96
787.224	16610.13
787.557	16692.39
787.891	16658.71
788.224	16708.2
788.557	16745.27
788.89	16721.76
789.223	16671.14
789.556	16537.81
789.888	16529
790.221	16499.17
790.554	16467.53
790.887	16486.29
791.219	16418.04
791.552	16491.04
791.884	16425.5
792.217	16394.99
792.549	16313.41
792.882	16229.35
793.214	16284.71
793.546	16312.28
793.879	16222.12
794.211	16123.81
794.543	16209.91
794.875	16131.04
795.207	16279.74
795.539	16137.82
795.871	16061.89
796.203	16031.84
796.535	15964.27
796.867	15947.09
797.198	15910.71
797.53	16016.47
797.862	15781.45
798.193	15866.42
798.525	15778.74
798.856	15861.22
799.188	15638.63
799.519	15564.73
799.85	15597.27
800.182	15607.67
800.513	15624.39
800.844	15528.8
801.175	15644.73
801.506	15526.31
801.837	15447.45
802.168	15416.26
802.499	15409.26
802.83	15315.47
803.161	15346.88
803.491	15270.73
803.822	15265.08
804.153	15257.85
804.483	15123.16
804.814	15113.44
805.145	15049.72
805.475	15038.19
805.805	15057.63
806.136	14973.79
806.466	15006.55
806.796	14986.89
807.126	14941.92
807.457	14943.51
807.787	14834.36
808.117	14766.79
808.447	14759.33
808.777	14852.43
809.107	14717.3
809.436	14725.21
809.766	14769.27
810.096	14644.98
810.426	14598.66
810.755	14515.95
811.085	14600.01
811.414	14581.26
811.744	14374.03
812.073	14464.87
812.403	14464.87
812.732	14239.12
813.061	14493.35
813.39	14339
813.719	14278.44
814.049	14299
814.378	14254.71
814.707	14172.9
815.036	14181.49
815.365	14149.4
815.693	14037.31
816.022	14036.18
816.351	14043.19
816.68	14003.87
817.008	14071.44
817.337	13886.13
817.665	13922.74
817.994	13913.48
818.322	13946.92
818.651	13821.28
818.979	13880.71
819.307	13849.97
819.636	13848.84
819.964	13736.31
820.292	13768.17
820.62	13776.53
820.948	13736.98
821.276	13788.96
821.604	13778.34
821.932	13788.73
822.259	13792.12
822.587	13728.4
822.915	13724.33
823.243	13780.15
823.57	13690.43
823.898	13750.99
824.225	13714.39
824.553	13635.07
824.88	13610.21
825.207	13728.17
825.535	13732.24
825.862	13800.48
826.189	13688.4
826.516	13822.63
826.843	13867.15
827.17	13799.13
827.497	13776.3
827.824	13779.47
828.151	13805
828.478	13780.37
828.805	13764.1
829.131	13692.46
829.458	13726.59
829.785	13720.94
830.111	13699.7
830.438	13884.55
830.764	13849.07
831.09	13706.25
831.417	13799.13
831.743	13728.62
832.069	13680.26
832.395	13700.15
832.722	13736.08
833.048	13667.38
833.374	13732.92
833.7	13608.17
834.026	13601.62
834.351	13635.29
834.677	13644.1
835.003	13669.19
835.329	13642.07
835.654	13614.95
835.98	13656.99
836.306	13664.22
836.631	13530.89
836.956	13670.77
837.282	13645.69
837.607	13486.37
837.932	13494.96
838.258	13533.37
838.583	13496.54
838.908	13433.94
839.233	13393.72
839.558	13442.75
839.883	13306.49
840.208	13335.41
840.533	13346.26
840.858	13313.04
841.182	13249.09
841.507	13252.02
841.832	13118.02
842.156	13288.41
842.481	13183.33
842.805	13188.98
843.13	13094.29
843.454	13068.07
843.778	13014.29
844.103	13068.3
844.427	12986.27
844.751	13037.11
845.075	12967.29
845.399	12973.39
845.723	12834.18
846.047	12901.75
846.371	12749.89
846.695	12789.21
847.019	12668.54
847.343	12581.31
847.666	12506.06
847.99	12470.8
848.313	12376.12
848.637	12415.21
848.96	12405.72
849.284	12409.11
849.607	12271.71
849.931	12244.14
850.254	12158.95
850.577	12129.79
850.9	12053.19
851.223	12029.68
851.546	11940.42
851.869	11876.47
852.192	11930.7
852.515	11869.24
852.838	11763.25
853.161	11838.28
853.483	11789.24
853.806	11633.31
854.129	11656.59
854.451	11635.34
854.774	11518.06
855.096	11536.59
855.419	11502.47
855.741	11434.67
856.063	11408.91
856.385	11419.3
856.708	11306.54
857.03	11252.75
857.352	11297.05
857.674	11296.37
857.996	11151.51
858.318	11206.43
858.64	11099.31
858.961	11107.9
859.283	11070.84
859.605	11081.91
859.926	11058.41
860.248	11038.07
860.57	11053.66
860.891	10996.49
861.212	10906.78
861.534	10902.48
861.855	10853.44
862.176	10844.18
862.498	10849.83
862.819	10803.05
863.14	10790.85
863.461	10824.97
863.782	10783.16
864.103	10792.65
864.424	10727.57
864.745	10700
865.065	10684.86
865.386	10625.88
865.707	10567.35
866.027	10681.02
866.348	10576.39
866.668	10560.34
866.989	10524.19
867.309	10471.31
867.63	10551.76
867.95	10505.43
868.27	10420.69
868.59	10450.06
868.91	10515.6
869.23	10446.45
869.55	10317.19
869.87	10441.02
870.19	10385.21
870.51	10347.69
870.83	10417.3
871.15	10326
871.469	10346.11
871.789	10377.52
872.109	10295.04
872.428	10288.03
872.748	10324.87
873.067	10240.8
873.386	10266.11
873.706	10232.22
874.025	10181.82
874.344	10146.8
874.663	10125.78
874.982	10090.3
875.301	10109.96
875.62	10095.95
875.939	10172.11
876.258	10119.9
876.577	10008.72
876.896	10092.33
877.214	10073.12
877.533	10044.65
877.852	9962.39
878.17	9974.37
878.489	9989.06
878.807	9990.64
879.125	9991.32
879.444	9941.15
879.762	9895.05
880.08	9939.57
880.398	9876.97
880.716	9834.26
881.034	9749.97
881.352	9848.27
881.67	9812.34
881.988	9797.88
882.306	9783.87
882.624	9690.08
882.941	9633.14
883.259	9636.75
883.577	9627.26
883.894	9651.89
884.212	9610.31
884.529	9594.04
884.846	9600.82
885.164	9579.13
885.481	9516.98
885.798	9479.24
886.115	9453.48
886.432	9451.45
886.75	9436.76
887.067	9463.42
887.383	9312.24
887.7	9325.57
888.017	9335.52
888.334	9316.99
888.651	9327.38
888.967	9268.4
889.284	9229.31
889.6	9207.61
889.917	9151.12
890.233	9123.09
890.55	9119.25
890.866	9115.86
891.182	9075.19
891.498	9052.13
891.815	9078.12
892.131	9017.56
892.447	8938.69
892.763	8948.86
893.079	8954.74
893.395	8871.12
893.71	8840.39
894.026	8860.28
894.342	8829.09
894.657	8740.96
894.973	8761.75
895.289	8766.49
895.604	8721.07
895.92	8673.39
896.235	8661.86
896.55	8657.79
896.865	8611.92
897.181	8564.24
897.496	8638.13
897.811	8452.6
898.126	8489.66
898.441	8425.26
898.756	8437.46
899.071	8332.61
899.386	8451.25
899.7	8306.17
900.015	8195.89
900.33	8193.85
900.644	8190.01
900.959	8269.56
901.273	8190.46
901.588	8134.87
901.902	8126.28
902.216	8072.73
902.531	8076.57
902.845	8051.03
903.159	8004.93
903.473	7859.17
903.787	7881.77
904.101	7889.91
904.415	7848.55
904.729	7744.15
905.042	7825.27
905.356	7760.64
905.67	7799.74
905.984	7761.32
906.297	7696.24
906.611	7670.02
906.924	7604.94
907.237	7607.65
907.551	7622.79
907.864	7530.59
908.177	7549.35
908.491	7526.07
908.804	7465.96
909.117	7419.18
909.43	7351.16
909.743	7281.79
910.056	7310.94
910.368	7244.05
910.681	7241.56
910.994	7261.45
911.307	7227.1
911.619	7165.18
911.932	7162.24
912.244	7118.63
912.557	7046.54
912.869	7067.55
913.181	6983.94
913.494	7049.7
913.806	6939.42
914.118	6944.39
914.43	6874.11
914.742	6885.86
915.054	6884.28
915.366	6823.27
915.678	6813.32
915.99	6815.58
916.302	6754.12
916.613	6685.19
916.925	6696.94
917.236	6632.09
917.548	6636.61
917.859	6585.31
918.171	6565.42
918.482	6531.3
918.794	6562.71
919.105	6529.49
919.416	6511.18
919.727	6503.05
920.038	6477.06
920.349	6427.8
920.66	6353.45
920.971	6338.53
921.282	6374.24
921.593	6319.55
921.903	6296.73
922.214	6228.25
922.525	6217.41
922.835	6206.79
923.146	6210.4
923.456	6131.99
923.767	6114.36
924.077	6107.35
924.387	6049.28
924.697	6052.67
925.008	6003.18
925.318	5978.54
925.628	6000.24
925.938	5945.78
926.248	5869.85
926.558	5894.93
926.867	5880.47
927.177	5901.94
927.487	5811.77
927.796	5722.5
928.106	5815.61
928.416	5718.21
928.725	5741.04
929.034	5683.41
929.344	5727.7
929.653	5705.1
929.962	5635.28
930.271	5611.55
930.581	5623.98
930.89	5554.6
931.199	5495.39
931.508	5569.74
931.817	5548.5
932.125	5548.95
932.434	5461.95
932.743	5438.9
933.051	5378.11
933.36	5432.12
933.669	5348.28
933.977	5331.33
934.286	5364.32
934.594	5315.74
934.902	5239.58
935.21	5254.04
935.519	5252.23
935.827	5210.43
936.135	5217.43
936.443	5131.79
936.751	5133.59
937.059	5183.08
937.367	5107.83
937.674	5114.16
937.982	5120.26
938.29	5034.39
938.597	5029.64
938.905	5000.26
939.213	5048.62
939.52	4986.25
939.827	4974.73
940.135	4875.75
940.442	4906.26
940.749	4893.6
941.056	4927.27
941.363	4836.43
941.67	4817.44
941.977	4764.56
942.284	4770.67
942.591	4709.2
942.898	4753.26
943.205	4698.35
943.511	4715.75
943.818	4699.93
944.125	4651.57
944.431	4616.77
944.738	4618.13
945.044	4602.99
945.35	4568.41
945.657	4560.05
945.963	4539.71
946.269	4489.32
946.575	4537.45
946.881	4443.89
947.187	4475.31
947.493	4417.23
947.799	4399.38
948.105	4404.12
948.41	4395.53
948.716	4363.22
949.022	4303.79
949.327	4323.67
949.633	4302.2
949.938	4329.77
950.244	4331.81
950.549	4245.26
950.854	4212.49
951.16	4253.39
951.465	4203.22
951.77	4214.75
952.075	4200.51
952.38	4136.11
952.685	4162.09
952.99	4092.94
953.294	4113.73
953.599	4097.46
953.904	4048.65
954.209	4027.86
954.513	4021.31
954.818	4059.72
955.122	3970.46
955.426	3977.69
955.731	4005.71
956.035	3936.56
956.339	3927.07
956.643	3930.01
956.948	3892.27
957.252	3887.75
957.556	3863.57
957.86	3861.76
958.163	3832.61
958.467	3813.18
958.771	3805.49
959.075	3790.35
959.378	3741.09
959.682	3739.05
959.985	3742.44
960.289	3744.48
960.592	3692.5
960.896	3682.56
961.199	3671.03
961.502	3654.31
961.805	3658.6
962.108	3627.19
962.411	3607.31
962.714	3583.13
963.017	3582.67
963.32	3552.17
963.623	3538.38
963.926	3544.26
964.228	3502.68
964.531	3498.38
964.833	3515.78
965.136	3450.47
965.438	3503.81
965.741	3414.77
966.043	3426.07
966.345	3400.98
966.648	3396.46
966.95	3373.19
967.252	3357.14
967.554	3364.15
967.856	3340.65
968.158	3373.64
968.46	3287.99
968.761	3258.61
969.063	3311.04
969.365	3257.71
969.666	3231.27
969.968	3213.42
970.269	3201.22
970.571	3219.75
970.872	3250.71
971.174	3129.58
971.475	3177.26
971.776	3150.37
972.077	3135.23
972.378	3125.06
972.679	3118.05
972.98	3137.26
973.281	3091.61
973.582	3096.81
973.883	3070.15
974.183	3047.77
974.484	3047.55
974.785	3027.89
975.085	2984.5
975.386	2965.97
975.686	2971.39
975.986	2953.09
976.287	2961
976.587	2962.13
976.887	2899.75
977.187	2913.54
977.487	2900.43
977.787	2930.26
978.087	2894.78
978.387	2863.15
978.687	2857.95
978.987	2833.99
979.286	2791.06
979.586	2816.37
979.885	2815.24
980.185	2792.64
980.484	2747.67
980.784	2759.64
981.083	2767.78
981.382	2768.01
981.682	2754.67
981.981	2725.52
982.28	2725.75
982.579	2694.79
982.878	2708.57
983.177	2670.83
983.475	2655.69
983.774	2622.7
984.073	2610.27
984.372	2616.15
984.67	2612.98
984.969	2605.75
985.267	2588.35
985.566	2592.19
985.864	2565.98
986.162	2574.79
986.461	2558.29
986.759	2542.93
987.057	2533.21
987.355	2525.98
987.653	2522.82
987.951	2479.43
988.249	2468.13
988.547	2489.14
988.844	2473.32
989.142	2439.88
989.44	2414.57
989.737	2428.58
990.035	2418.19
990.332	2360.56
990.63	2373.21
990.927	2353.1
991.224	2354.46
991.521	2376.38
991.819	2356.27
992.116	2318.53
992.413	2306.78
992.71	2313.1
993.006	2294.57
993.303	2280.11
993.6	2278.3
993.897	2263.61
994.193	2250.05
994.49	2236.72
994.787	2217.74
995.083	2227.46
995.379	2218.42
995.676	2175.03
995.972	2215.93
996.268	2167.57
996.565	2175.25
996.861	2150.62
997.157	2175.93
997.453	2179.32
997.749	2155.14
998.044	2131.86
998.34	2096.16
998.636	2134.8
998.932	2073.11
999.227	2057.06
999.523	2071.3
999.818	2073.11
1000.114	2030.62
1000.409	2020.46
1000.704	2026.78
1001	2018.87
1001.295	2038.53
1001.59	2003.96
1001.885	2001.47
1002.18	1998.76
1002.475	1958.99
1002.77	1968.93
1003.065	1925.99
1003.359	1891.19
1003.654	1916.5
1003.949	1902.27
1004.243	1906.33
1004.538	1890.29
1004.832	1860.23
1005.127	1869.27
1005.421	1886.9
1005.715	1850.06
1006.009	1840.57
1006.304	1838.09
1006.598	1828.82
1006.892	1794.02
1007.186	1803.96
1007.48	1789.73
1007.773	1785.21
1008.067	1742.95
1008.361	1725.77
1008.655	1760.35
1008.948	1712.21
1009.242	1718.77
1009.535	1693.01
1009.829	1717.86
1010.122	1685.77
1010.415	1698.2
1010.708	1687.81
1011.001	1676.74
1011.295	1661.82
1011.588	1666.79
1011.881	1635.83
1012.173	1616.4
1012.466	1599.68
1012.759	1596.29
1013.052	1611.2
1013.344	1599.9
1013.637	1591.09
1013.93	1541.37
1014.222	1575.27
1014.514	1550.19
1014.807	1556.29
1015.099	1543.41
1015.391	1537.53
1015.683	1515.16
1015.976	1489.62
1016.268	1498.89
1016.56	1525.33
1016.851	1493.46
1017.143	1465.44
1017.435	1490.98
1017.727	1448.27
1018.018	1457.31
1018.31	1462.73
1018.602	1435.16
1018.893	1444.65
1019.185	1414.82
1019.476	1408.49
1019.767	1399
1020.058	1392.22
1020.35	1358.33
1020.641	1373.69
1020.932	1355.61
1021.223	1344.99
1021.514	1323.07
1021.804	1335.95
1022.095	1330.08
1022.386	1315.62
1022.677	1323.07
1022.967	1327.14
1023.258	1295.05
1023.548	1278.1
1023.839	1265.45
1024.129	1270.87
1024.419	1265.9
1024.709	1268.84
1025	1264.09
1025.29	1233.81
1025.58	1234.26
1025.87	1194.49
1026.16	1188.16
1026.449	1196.75
1026.739	1170.08
1027.029	1170.53
1027.319	1169.18
1027.608	1196.97
1027.898	1158.78
1028.187	1159.91
1028.477	1155.17
1028.766	1155.85
1029.055	1145
1029.344	1140.48
1029.634	1127.37
1029.923	1114.26
1030.212	1101.61
1030.501	1107.49
1030.79	1078.79
1031.078	1091.67
1031.367	1093.7
1031.656	1069.29
1031.945	1036.98
1032.233	1069.29
1032.522	1072.46
1032.81	1021.39
1033.099	1032.23
1033.387	1047.15
1033.675	1067.49
1033.963	1002.18
1034.251	1029.52
1034.54	1028.39
1034.828	1003.98
1035.116	990.43
1035.403	978
1035.691	1008.05
1035.979	983.87
1036.267	988.84
1036.554	977.09
1036.842	961.27
1037.129	919.92
1037.417	934.61
1037.704	942.07
1037.992	952.69
1038.279	908.85
1038.566	929.18
1038.853	929.18
1039.14	929.18
