Data from hue_330_FLMS001491_79.txt Node
Date: Mon Feb 06 15:45:53 GMT 2017
User: dcchb
Spectrometer: FLMS00149
Trigger mode: 0
Integration Time (sec): 2.000000E-2
Scans to average: 10
Electric dark correction enabled: true
Nonlinearity correction enabled: false
Boxcar width: 0
XAxis mode: Wavelengths
Number of Pixels in Spectrum: 2048
>>>>>Begin Spectral Data<<<<<
341.393	-29.84
341.776	-29.84
342.16	-29.84
342.543	-67.81
342.927	-63.29
343.31	-77.75
343.693	-61.26
344.077	-40.47
344.46	-58.77
344.843	-60.8
345.226	-37.53
345.61	-45.21
345.993	-21.93
346.376	-0.47
346.759	12.87
347.142	31.62
347.525	41.57
347.908	54.9
348.291	55.58
348.674	103.71
349.057	103.94
349.44	131.51
349.823	133.77
350.206	169.47
350.588	178.74
350.971	196.36
351.354	217.38
351.737	229.81
352.119	258.06
352.502	264.84
352.884	278.17
353.267	285.85
353.65	285.18
354.032	315.23
354.414	304.38
354.797	301.22
355.179	321.33
355.562	318.17
355.944	322.01
356.326	325.18
356.709	311.16
357.091	337.15
357.473	337.15
357.855	339.19
358.238	339.41
358.62	338.28
359.002	324.05
359.384	338.96
359.766	325.63
360.148	318.4
360.53	328.11
360.912	317.04
361.294	315.23
361.676	318.17
362.057	335.12
362.439	353.65
362.821	329.69
363.203	321.79
363.584	323.59
363.966	314.1
364.348	334.21
364.729	332.18
365.111	299.19
365.493	328.11
365.874	312.75
366.256	301.67
366.637	286.31
367.019	300.54
367.4	324.05
367.781	299.86
368.163	293.54
368.544	293.76
368.925	298.96
369.306	319.3
369.688	309.36
370.069	319.3
370.45	309.36
370.831	318.4
371.212	289.24
371.593	310.49
371.974	319.07
372.355	320.88
372.736	302.35
373.117	325.18
373.498	308.45
373.879	296.48
374.26	317.94
374.641	326.3
375.021	313.2
375.402	321.56
375.783	315.46
376.163	322.01
376.544	319.07
376.925	301.22
377.305	317.94
377.686	319.3
378.066	321.33
378.447	340.09
378.827	327.43
379.208	350.03
379.588	303.25
379.968	321.33
380.349	319.98
380.729	325.18
381.109	334.21
381.489	319.53
381.87	345.74
382.25	330.6
382.63	329.24
383.01	347.55
383.39	343.71
383.77	329.24
384.15	348.68
384.53	328.56
384.91	326.76
385.29	350.71
385.67	343.71
386.049	363.37
386.429	333.08
386.809	356.36
387.189	350.03
387.568	367.43
387.948	340.32
388.328	345.29
388.707	337.15
389.087	356.59
389.466	352.07
389.846	368.11
390.225	349.36
390.605	343.25
390.984	345.29
391.363	374.44
391.743	357.72
392.122	366.76
392.501	342.58
392.881	387.32
393.26	358.85
393.639	373.31
394.018	373.31
394.397	365.4
394.776	382.12
395.155	379.41
395.534	378.73
395.913	369.47
396.292	399.07
396.671	376.47
397.05	383.48
397.429	378.96
397.808	389.35
398.186	381.9
398.565	384.83
398.944	388.68
399.323	404.5
399.701	402.69
400.08	381.67
400.458	383.25
400.837	398.62
401.215	406.3
401.594	393.65
401.972	399.3
402.351	397.04
402.729	420.31
403.107	389.13
403.486	416.7
403.864	409.01
404.242	383.48
404.62	441.1
404.999	412.86
405.377	401.11
405.755	461.89
406.133	451.05
406.511	454.66
406.889	449.01
407.267	437.94
407.645	429.13
408.023	448.79
408.401	452.4
408.779	442.69
409.156	489.69
409.534	478.62
409.912	469.35
410.29	460.99
410.667	462.35
411.045	498.73
411.422	493.53
411.8	465.06
412.178	517.26
412.555	503.02
412.933	508.22
413.31	531.05
413.687	517.26
414.065	524.94
414.442	521.1
414.819	532.85
415.197	548.67
415.574	546.64
415.951	540.99
416.328	568.56
416.705	560.65
417.082	560.65
417.46	565.85
417.837	573.76
418.214	593.19
418.591	578.05
418.967	601.33
419.344	618.05
419.721	610.82
420.098	592.29
420.475	631.61
420.852	645.17
421.228	638.61
421.605	615.56
421.982	644.49
422.358	686.3
422.735	647.43
423.111	664.38
423.488	676.58
423.864	660.76
424.241	641.55
424.617	670.48
424.994	724.71
425.37	701.44
425.746	687.65
426.123	683.58
426.499	699.4
426.875	717.03
427.251	712.96
427.627	752.28
428.003	771.94
428.379	744.15
428.756	765.39
429.132	769.46
429.507	782.79
429.883	784.6
430.259	801.77
430.635	804.48
431.011	798.61
431.387	829.57
431.763	827.08
432.138	831.15
432.514	841.09
432.89	855.56
433.265	859.62
433.641	873.64
434.016	882.45
434.392	886.06
434.767	892.62
435.143	895.1
435.518	908.21
435.894	914.54
436.269	945.95
436.644	934.42
437.02	959.73
437.395	954.09
437.77	954.99
438.145	1006.97
438.52	982.11
438.895	1010.35
439.271	985.95
439.646	1010.13
440.021	1010.35
440.395	1012.61
440.77	1014.65
441.145	1045.16
441.52	1024.82
441.895	1076.34
442.27	1060.3
442.645	1067.98
443.019	1049.68
443.394	1060.97
443.769	1097.13
444.143	1085.61
444.518	1071.6
444.892	1082.22
445.267	1100.3
445.641	1099.84
446.016	1117.24
446.39	1114.53
446.764	1117.92
447.139	1119.5
447.513	1125.83
447.887	1126.96
448.262	1121.09
448.636	1134.19
449.01	1153.18
449.384	1133.74
449.758	1147.75
450.132	1139.84
450.506	1150.69
450.88	1177.81
451.254	1167.19
451.628	1162.89
452.002	1171.03
452.376	1201.76
452.75	1212.61
453.123	1208.77
453.497	1198.6
453.871	1231.14
454.244	1232.95
454.618	1267.75
454.992	1271.14
455.365	1261.65
455.739	1290.12
456.112	1304.58
456.486	1283.57
456.859	1296.67
457.232	1317.24
457.606	1290.12
457.979	1342.1
458.352	1368.09
458.725	1376.67
459.099	1393.85
459.472	1394.3
459.845	1403.11
460.218	1398.59
460.591	1400.63
460.964	1437.46
461.337	1444.47
461.71	1456.9
462.083	1504.35
462.456	1494.64
462.829	1480.85
463.201	1491.02
463.574	1513.17
463.947	1521.3
464.32	1553.17
464.692	1564.24
465.065	1566.95
465.438	1581.19
465.81	1599.94
466.183	1581.41
466.555	1635.65
466.928	1606.27
467.3	1619.83
467.672	1668.42
468.045	1696.66
468.417	1710.22
468.789	1729.88
469.161	1705.93
469.534	1740.51
469.906	1789.77
470.278	1776.44
470.65	1801.29
471.022	1826.6
471.394	1877.45
471.766	1838.81
472.138	1877
472.51	1936.66
472.882	1954.06
473.253	1957.67
473.625	1976.21
473.997	1992.93
474.369	2044.9
474.74	1997.67
475.112	2071.57
475.484	2115.41
475.855	2156.31
476.227	2148.86
476.598	2158.8
476.97	2205.35
477.341	2219.14
477.713	2261.85
478.084	2250.77
478.455	2354.95
478.827	2338
479.198	2405.35
479.569	2408.96
479.94	2437.66
480.311	2448.28
480.682	2543.87
481.053	2549.3
481.424	2605.12
481.795	2588.84
482.166	2665
482.537	2661.84
482.908	2715.85
483.279	2716.98
483.65	2756.3
484.021	2825.45
484.391	2867.48
484.762	2871.55
485.133	2876.29
485.503	2887.14
485.874	2975.05
486.244	2994.71
486.615	3063.41
486.985	3054.37
487.356	3168.94
487.726	3184.53
488.097	3197.64
488.467	3212.78
488.837	3261.37
489.207	3268.83
489.578	3400.8
489.948	3393.34
490.318	3431.99
490.688	3401.03
491.058	3441.93
491.428	3489.39
491.798	3513.79
492.168	3601.7
492.538	3623.17
492.908	3615.94
493.278	3664.07
493.648	3675.82
494.017	3745.65
494.387	3744.29
494.757	3758.76
495.126	3832.2
495.496	3811.86
495.866	3834.69
496.235	3899.32
496.605	3907
496.974	3898.87
497.344	3959.66
497.713	3947.68
498.082	3968.92
498.452	3991.97
498.821	4031.97
499.19	4030.61
499.559	4085.53
499.928	4071.74
500.298	4068.58
500.667	4113.1
501.036	4125.75
501.405	4155.13
501.774	4156.71
502.143	4210.72
502.512	4242.59
502.88	4250.72
503.249	4232.19
503.618	4314.45
503.987	4323.71
504.356	4388.57
504.724	4349.25
505.093	4379.31
505.462	4369.59
505.83	4431.73
506.199	4382.47
506.567	4464.95
506.936	4413.43
507.304	4501.11
507.672	4488.68
508.041	4516.25
508.409	4536.59
508.777	4539.75
509.145	4623.14
509.514	4571.62
509.882	4559.41
510.25	4612.97
510.618	4593.31
510.986	4650.03
511.354	4671.95
511.722	4712.86
512.09	4677.83
512.458	4750.82
512.826	4723.7
513.193	4781.56
513.561	4758.5
513.929	4791.72
514.297	4816.81
514.664	4823.14
515.032	4876.69
515.4	4891.16
515.767	4877.6
516.135	4844.6
516.502	4812.97
516.869	4941.55
517.237	4891.16
517.604	4908.78
517.972	4931.83
518.339	4938.61
518.706	4935.22
519.073	4958.5
519.44	4982
519.808	5074.2
520.175	5037.14
520.542	5090.93
520.909	5095.67
521.276	5087.76
521.643	5130.47
522.009	5123.92
522.376	5134.99
522.743	5189.23
523.11	5186.97
523.477	5242.79
523.843	5255.89
524.21	5273.29
524.577	5321.65
524.943	5355.78
525.31	5354.65
525.676	5421.09
526.043	5405.04
526.409	5445.49
526.776	5480.07
527.142	5466.28
527.508	5543.12
527.874	5493.17
528.241	5505.15
528.607	5583.34
528.973	5617.01
529.339	5683.68
529.705	5642.78
530.071	5737.24
530.437	5694.3
530.803	5756.44
531.169	5766.61
531.535	5788.76
531.901	5796.44
532.267	5860.4
532.632	5862.88
532.998	5890.68
533.364	5913.28
533.73	5966.16
534.095	5949.89
534.461	6024.91
534.826	6071.24
535.192	6019.71
535.557	6083.22
535.923	6080.96
536.288	6113.05
536.653	6150.11
537.019	6133.84
537.384	6159.6
537.749	6240.73
538.114	6223.33
538.479	6284.11
538.845	6286.83
539.21	6249.09
539.575	6338.58
539.94	6348.75
540.305	6348.29
540.67	6369.31
541.034	6400.72
541.399	6447.5
541.764	6491.57
542.129	6483.21
542.494	6518.46
542.858	6482.53
543.223	6565.24
543.587	6603.88
543.952	6605.46
544.316	6604.11
544.681	6703.76
545.045	6722.75
545.41	6791.45
545.774	6750.54
546.138	6812.24
546.503	6827.38
546.867	6829.86
547.231	6892.69
547.595	6896.53
547.959	6917.09
548.324	6980.14
548.688	6964.1
549.052	6998.9
549.416	6988.28
549.779	7048.39
550.143	7038.9
550.507	7116.86
550.871	7073.92
551.235	7133.36
551.599	7188.72
551.962	7178.33
552.326	7174.26
552.689	7195.5
553.053	7150.98
553.417	7248.16
553.78	7316.4
554.143	7282.28
554.507	7273.47
554.87	7292.9
555.234	7386.23
555.597	7367.7
555.96	7385.33
556.323	7380.58
556.686	7444.31
557.05	7512.33
557.413	7465.33
557.776	7551.43
558.139	7538.77
558.502	7551.43
558.865	7583.06
559.228	7591.88
559.59	7680.46
559.953	7694.02
560.316	7748.48
560.679	7737.86
561.041	7751.65
561.404	7796.39
561.767	7813.11
562.129	7870.06
562.492	7847.24
562.854	7892.89
563.217	7844.98
563.579	7936.5
563.941	7955.93
564.304	7955.48
564.666	8044.52
565.028	8070.51
565.39	8085.2
565.753	8065.99
566.115	8144.86
566.477	8195.93
566.839	8184.4
567.201	8215.36
567.563	8202.26
567.925	8256.04
568.287	8335.13
568.648	8277.51
569.01	8383.04
569.372	8409.93
569.734	8374
570.095	8434.34
570.457	8506.43
570.819	8512.76
571.18	8599.99
571.542	8605.41
571.903	8653.77
572.265	8753.65
572.626	8742.13
572.987	8783.48
573.349	8808.12
573.71	8834.56
574.071	8931.73
574.432	8942.8
574.794	9069.35
575.155	9128.56
575.516	9062.12
575.877	9183.93
576.238	9216.24
576.599	9410.36
576.96	9398.83
577.32	9486.29
577.681	9613.29
578.042	9721.31
578.403	9736.68
578.763	9870.69
579.124	9911.59
579.485	10002.21
579.845	10159.04
580.206	10244.46
580.566	10352.71
580.927	10523.78
581.287	10631.12
581.648	10777.1
582.008	10890.32
582.368	11040.83
582.728	11314.94
583.089	11361.5
583.449	11542.51
583.809	11703.63
584.169	11944.76
584.529	12068.37
584.889	12318.76
585.249	12447.57
585.609	12600.11
585.969	12909.02
586.329	13064.28
586.688	13310.82
587.048	13525.73
587.408	13663.36
587.768	13987.64
588.127	14155.55
588.487	14435.31
588.846	14665.59
589.206	14864.23
589.565	15101.74
589.925	15375.17
590.284	15681.38
590.643	15950.07
591.003	16238.2
591.362	16566.56
591.721	16742.37
592.08	17009.26
592.44	17395.23
592.799	17580.31
593.158	17872.06
593.517	18150.02
593.876	18506.39
594.235	18692.38
594.593	19085.13
594.952	19425.01
595.311	19638.79
595.67	19832.23
596.029	20286.46
596.387	20604.87
596.746	20850.29
597.104	21149.03
597.463	21351.74
597.822	21761.45
598.18	21948.56
598.538	22193.07
598.897	22610.92
599.255	22688.65
599.613	23259.71
599.972	23439.14
600.33	23724.56
600.688	23890.66
601.046	24282.51
601.404	24588.94
601.762	24722.27
602.12	25154.8
602.478	25411.52
602.836	25711.85
603.194	25749.14
603.552	26108.45
603.91	26271.16
604.268	26757.25
604.625	26725.16
604.983	27094.41
605.341	27281.98
605.698	27529.43
606.056	27914.51
606.413	28101.85
606.771	28301.16
607.128	28529.41
607.485	28682.85
607.843	28868.83
608.2	29271.31
608.557	29474.24
608.914	29650.51
609.272	29993.32
609.629	30163.49
609.986	30351.5
610.343	30472.63
610.7	30951.04
611.057	30991.94
611.414	31240.07
611.771	31502.89
612.127	31685.03
612.484	31871.69
612.841	32155.07
613.198	32256.54
613.554	32313.71
613.911	32610.65
614.267	32739.24
614.624	32815.85
614.98	33011.1
615.337	33367.7
615.693	33444.76
616.05	33551.65
616.406	33856.5
616.762	33946.21
617.118	33920.45
617.475	34163.38
617.831	34364.51
618.187	34353.88
618.543	34660.32
618.899	34857.15
619.255	34891.95
619.611	34994.55
619.967	35190.47
620.323	35298.04
620.678	35297.81
621.034	35382.11
621.39	35360.64
621.746	35498.04
622.101	36078.36
622.457	35773.73
622.812	35895.31
623.168	36119.71
623.523	36213.72
623.879	36285.81
624.234	36324
624.589	36486.26
624.945	36508.18
625.3	36703.88
625.655	36674.73
626.01	36789.75
626.365	36903.87
626.72	36959.24
627.075	37067.94
627.43	36956.75
627.785	37142.96
628.14	37166.92
628.495	37325.78
628.85	37311.77
629.205	37225.67
629.559	37383.64
629.914	37266.8
630.269	37428.83
630.623	37403.97
630.978	37272.68
631.332	37488.27
631.687	37555.83
632.041	37479
632.396	37658.43
632.75	37500.69
633.104	37641.03
633.459	37549.06
633.813	37582.05
634.167	37543.86
634.521	37587.7
634.875	37706.57
635.229	37708.6
635.583	37542.05
635.937	37657.53
636.291	37547.47
636.645	37685.32
636.999	37604.65
637.352	37639.9
637.706	37507.7
638.06	37624.76
638.413	37500.69
638.767	37526.46
639.121	37566.46
639.474	37482.16
639.828	37501.37
640.181	37623.4
640.534	37598.32
640.888	37594.48
641.241	37549.51
641.594	37454.59
641.947	37542.28
642.301	37341.83
642.654	37763.06
643.007	37540.24
643.36	37584.76
643.713	37505.44
644.066	37713.8
644.419	37425.22
644.771	37240.36
645.124	37046.24
645.477	36846.25
645.83	36628.18
646.182	36549.76
646.535	36355.64
646.888	36450.78
647.24	36321.06
647.593	36634.95
647.945	36455.3
648.298	36479.25
648.65	36342.76
649.002	36237.23
649.355	36328.3
649.707	36411.68
650.059	36471.8
650.411	36931.9
650.763	36839.24
651.115	37310.64
651.467	37198.78
651.819	37095.28
652.171	37156.75
652.523	37013.7
652.875	37116.98
653.227	36988.17
653.578	37138.44
653.93	37157.43
654.282	36880.37
654.633	36855.06
654.985	36984.55
655.337	37018.9
655.688	37074.49
656.039	37178.44
656.391	36776.87
656.742	36832.92
657.094	36796.98
657.445	37065.68
657.796	36873.37
658.147	36881.28
658.498	36688.51
658.849	36921.27
659.2	36759.7
659.551	36754.27
659.902	36960.37
660.253	36916.53
660.604	36943.42
660.955	36817.77
661.306	36879.24
661.656	36840.15
662.007	36735.29
662.358	36704.33
662.708	36799.02
663.059	36778.68
663.409	36559.93
663.76	36732.81
664.11	36764.67
664.461	36784.1
664.811	36795.63
665.161	36786.59
665.511	36665.69
665.862	36773.26
666.212	36907.49
666.562	36781.17
666.912	36729.64
667.262	36657.55
667.612	36792.24
667.962	36802.41
668.312	36623.66
668.662	36798.57
669.011	36667.04
669.361	36638.12
669.711	36711.79
670.06	36521.74
670.41	36557.89
670.76	36529.87
671.109	36546.82
671.459	36507.95
671.808	36399.71
672.157	36702.52
672.507	36469.76
672.856	36397.67
673.205	36549.31
673.554	36591.57
673.904	36327.62
674.253	36704.56
674.602	36512.47
674.951	35970.34
675.3	35749.1
675.649	36332.82
675.998	36465.69
676.346	36390.22
676.695	36411.68
677.044	36031.81
677.393	36281.74
677.741	36281.07
678.09	36188.41
678.438	36121.97
678.787	36204.68
679.135	36281.07
679.484	35948.19
679.832	36008.53
680.181	35915.43
680.529	35978.7
680.877	35944.13
681.225	35969.66
681.573	36110.45
681.922	35726.5
682.27	35709.1
682.618	35742.32
682.966	35639.95
683.314	35715.66
683.661	35713.17
684.009	35495.1
684.357	35492.39
684.705	35391.37
685.053	35415.78
685.4	35244.93
685.748	35148.89
686.095	35194.54
686.443	35080.87
686.79	35031.16
687.138	35171.49
687.485	35133.75
687.832	34956.13
688.18	34932.85
688.527	34748.9
688.874	34748.22
689.221	34703.71
689.568	34683.37
689.915	34586.2
690.262	34524.28
690.609	34459.19
690.956	34394.11
691.303	34288.8
691.65	34127.9
691.997	34261.46
692.344	33961.35
692.69	33840
693.037	34010.39
693.383	33760.45
693.73	33727.91
694.077	33650.85
694.423	33685.43
694.769	33573.11
695.116	33659.44
695.462	33498.99
695.808	33304.19
696.155	33436.39
696.501	33074.6
696.847	33145.1
697.193	32890.19
697.539	32960.93
697.885	32949.4
698.231	32649.3
698.577	32677.77
698.923	32699.92
699.269	32427.83
699.614	32414.5
699.96	32350.77
700.306	32428.74
700.651	32282.53
700.997	32122.98
701.342	32170.67
701.688	32073.72
702.033	31964.12
702.379	31986.04
702.724	31927.96
703.069	31858.58
703.415	31567.74
703.76	31553.05
704.105	31606.61
704.45	31513.06
704.795	31368.2
705.14	31211.82
705.485	31152.84
705.83	31118.04
706.175	31088.89
706.52	30996.91
706.865	30930.92
707.209	30849.34
707.554	30758.95
707.899	30864.03
708.243	30730.7
708.588	30637.15
708.932	30346.98
709.277	30341.56
709.621	30335.91
709.966	30211.17
710.31	30214.33
710.654	30052.98
710.998	30098.18
711.342	30029.48
711.687	30034
712.031	29832.65
712.375	29860.67
712.719	29873.1
713.063	29746.77
713.407	29907.9
713.75	29614.35
714.094	29631.52
714.438	29554.24
714.782	29581.35
715.125	29441.92
715.469	29498.19
715.812	29312.21
716.156	29178.88
716.499	29259.1
716.843	29213
717.186	28963.74
717.53	29146.79
717.873	29170.74
718.216	28995.16
718.559	28992.9
718.902	28737.99
719.246	28756.07
719.589	28620.25
719.932	28581.38
720.275	28534.6
720.617	28531.89
720.96	28464.32
721.303	28476.07
721.646	28469.97
721.989	28329.64
722.331	28413.93
722.674	28312.01
723.016	28228.62
723.359	28207.61
723.701	28342.52
724.044	28088.51
724.386	27934.62
724.729	28068.17
725.071	27966.71
725.413	27996.54
725.755	28060.72
726.097	27907.05
726.439	27773.27
726.782	27597.23
727.124	27806.26
727.465	27591.58
727.807	27619.37
728.149	27605.59
728.491	27520.39
728.833	27559.94
729.175	27491.92
729.516	27380.73
729.858	27318.59
730.199	27418.93
730.541	27394.52
730.882	27220.51
731.224	27223.22
731.565	27203.11
731.906	27043.57
732.248	27106.39
732.589	26926.74
732.93	26981.2
733.271	26899.17
733.612	26987.52
733.953	27000.63
734.294	26898.71
734.635	26716.35
734.976	26840.18
735.317	26688.32
735.658	26665.73
735.999	26680.41
736.339	26639.29
736.68	26713.86
737.021	26593.86
737.361	26476.8
737.702	26594.54
738.042	26534.43
738.383	26510.25
738.723	26409.01
739.063	26434.09
739.404	26317.94
739.744	26373.53
740.084	26248.79
740.424	26270.26
740.764	26222.57
741.104	26213.53
741.444	26108.9
741.784	25983.26
742.124	26034.33
742.464	26076.36
742.804	25988
743.143	25919.98
743.483	25938.74
743.823	25785.52
744.162	25766.99
744.502	25742.13
744.841	25649.48
745.181	25728.8
745.52	25548.24
745.86	25711.17
746.199	25633.21
746.538	25515.02
746.877	25556.38
747.216	25493.1
747.556	25408.36
747.895	25427.11
748.234	25358.19
748.573	25266.89
748.911	25378.08
749.25	25296.04
749.589	25092.21
749.928	25153
750.267	25177.18
750.605	25127.23
750.944	25155.03
751.283	24978.09
751.621	24935.38
751.96	24871.87
752.298	24927.01
752.636	24851.76
752.975	24811.76
753.313	24637.98
753.651	24752.33
753.989	24515.95
754.327	24558.89
754.666	24470.08
755.004	24489.51
755.342	24430.3
755.679	24369.51
756.017	24259.46
756.355	24212.68
756.693	24233.02
757.031	24181.04
757.368	23998.22
757.706	24127.49
758.044	23902.63
758.381	23990.77
758.719	23892.24
759.056	23943.31
759.394	23735.41
759.731	23644.79
760.068	23686.37
760.405	23567.05
760.743	23445.7
761.08	23474.85
761.417	23437.11
761.754	23297.68
762.091	23293.38
762.428	23175.87
762.765	23035.76
763.102	23087.74
763.438	22966.39
763.775	22789.44
764.112	22786.05
764.449	22844.58
764.785	22726.17
765.122	22553.97
765.458	22507.19
765.795	22448.66
766.131	22406.18
766.467	22347.65
766.804	22307.42
767.14	22036.92
767.476	22129.57
767.812	22096.58
768.148	22054.55
768.485	21980.2
768.821	21801.45
769.157	21720.54
769.492	21697.95
769.828	21764.16
770.164	21529.36
770.5	21489.36
770.836	21386.09
771.171	21260.67
771.507	21297.96
771.842	21175.93
772.178	21017.51
772.513	21071.52
772.849	21073.33
773.184	20870.62
773.519	20845.77
773.855	20827.23
774.19	20726.67
774.525	20657.3
774.86	20614.13
775.195	20489.39
775.53	20410.97
775.865	20295.95
776.2	20265.44
776.535	20076.52
776.87	19990.42
777.205	20098.44
777.539	19998.78
777.874	19941.16
778.209	19734.61
778.543	19747.72
778.878	19703.42
779.212	19634.5
779.547	19458.68
779.881	19589.75
780.215	19437.89
780.55	19450.1
780.884	19299.37
781.218	19234.73
781.552	19135.3
781.886	19175.75
782.22	19100.95
782.554	18991.35
782.888	18754.97
783.222	18757.23
783.556	18714.07
783.889	18599.95
784.223	18458.03
784.557	18365.6
784.89	18531.7
785.224	18398.82
785.557	18188.66
785.891	18210.13
786.224	18213.07
786.558	18091.26
786.891	18053.3
787.224	17845.39
787.557	17936.46
787.891	17898.5
788.224	17837.71
788.557	17802
788.89	17718.39
789.223	17683.59
789.556	17590.26
789.888	17505.06
790.221	17392.3
790.554	17322.47
790.887	17297.61
791.219	17256.26
791.552	17305.52
791.884	17136.03
792.217	17081.8
792.549	17088.12
792.882	16937.85
793.214	16878.19
793.546	16836.83
793.879	16763.39
794.211	16666.89
794.543	16724.97
794.875	16583.05
795.207	16628.7
795.539	16480.23
795.871	16424.41
796.203	16303.74
796.535	16286.34
796.867	16236.4
797.198	16238.88
797.53	16236.85
797.862	16050.19
798.193	16167.47
798.525	16019.68
798.856	16035.27
799.188	15786.69
799.519	15800.47
799.85	15740.36
800.182	15818.78
800.513	15732.45
800.844	15575.85
801.175	15635.51
801.506	15576.53
801.837	15454.04
802.168	15485
802.499	15428.28
802.83	15351.45
803.161	15337.21
803.491	15337.21
803.822	15399.13
804.153	15203.43
804.483	15138.57
804.814	15091.57
805.145	15063.32
805.475	14981.06
805.805	14891.8
806.136	15017.67
806.466	14921.63
806.796	14907.39
807.126	14769.32
807.457	14788.07
807.787	14696.1
808.117	14661.52
808.447	14633.73
808.777	14755.08
809.107	14523.45
809.436	14598.25
809.766	14523.67
810.096	14456.33
810.426	14383.56
810.755	14481.41
811.085	14400.06
811.414	14257.92
811.744	14209.33
812.073	14224.24
812.403	14173.85
812.732	14050.24
813.061	14063.12
813.39	14024.7
813.719	14027.19
814.049	14092.72
814.378	13969.79
814.707	13935.44
815.036	13900.19
815.365	13789.91
815.693	13727.08
816.022	13749.23
816.351	13710.36
816.68	13653.86
817.008	13660.87
817.337	13516.92
817.665	13500.42
817.994	13633.53
818.322	13473.98
818.651	13455.23
818.979	13435.79
819.307	13418.62
819.636	13411.84
819.964	13362.12
820.292	13393.53
820.62	13360.76
820.948	13304.27
821.276	13369.58
821.604	13304.49
821.932	13316.92
822.259	13367.54
822.587	13283.03
822.915	13273.99
823.243	13246.42
823.57	13316.92
823.898	13289.81
824.225	13203.25
824.553	13241.9
824.88	13138.17
825.207	13240.77
825.535	13195.35
825.862	13193.54
826.189	13089.36
826.516	13267.43
826.843	13226.98
827.17	13268.11
827.497	13259.75
827.824	13239.64
828.151	13204.38
828.478	13217.94
828.805	13234.89
829.131	13174.1
829.458	13074.44
829.785	13188.79
830.111	13148.79
830.438	13225.17
830.764	13249.13
831.09	13156.48
831.417	13147.21
831.743	13277.6
832.069	13142.24
832.395	13161
832.722	13153.76
833.048	13158.96
833.374	13131.17
833.7	13062.24
834.026	13099.53
834.351	13125.97
834.677	13149.24
835.003	13065.63
835.329	13057.95
835.654	12969.14
835.98	12945.18
836.306	13038.97
836.631	12990.38
836.956	12905.64
837.282	12935.46
837.607	12879.65
837.932	12873.32
838.258	12888.46
838.583	12790.16
838.908	12692.76
839.233	12803.27
839.558	12712.87
839.883	12689.14
840.208	12620.44
840.533	12672.87
840.858	12674.91
841.182	12662.7
841.507	12653.66
841.832	12571.86
842.156	12577.06
842.481	12535.7
842.805	12510.39
843.13	12441.69
843.454	12431.07
843.778	12397.63
844.103	12407.34
844.427	12351.07
844.751	12347.01
845.075	12356.27
845.399	12290.06
845.723	12184.3
846.047	12170.06
846.371	12137.52
846.695	12150.85
847.019	11963.74
847.343	12036.73
847.666	11918.77
847.99	11836.51
848.313	11813.01
848.637	11725.78
848.96	11709.73
849.284	11737.08
849.607	11590.87
849.931	11563.3
850.254	11488.5
850.577	11513.81
850.9	11413.92
851.223	11374.83
851.546	11392
851.869	11286.69
852.192	11297.09
852.515	11162.4
852.838	11142.97
853.161	11152.01
853.483	11130.54
853.806	11126.25
854.129	11058.68
854.451	10961.73
854.774	10933.94
855.096	10908.17
855.419	10809.87
855.741	10835.63
856.063	10738.69
856.385	10802.64
856.708	10749.08
857.03	10727.61
857.352	10711.79
857.674	10689.87
857.996	10661.4
858.318	10629.76
858.64	10573.72
858.961	10495.53
859.283	10502.99
859.605	10491.69
859.926	10465.93
860.248	10448.3
860.57	10383.89
860.891	10398.58
861.212	10310.68
861.534	10270.9
861.855	10271.81
862.176	10279.72
862.498	10270.68
862.819	10273.61
863.14	10139.61
863.461	10173.05
863.782	10153.39
864.103	10131.24
864.424	10137.35
864.745	10187.51
865.065	10087.4
865.386	10052.6
865.707	10047.41
866.027	10080.85
866.348	9983.45
866.668	10080.62
866.989	9949.55
867.309	9919.95
867.63	9940.97
867.95	9907.75
868.27	9809.9
868.59	9922.66
868.91	9845.15
869.23	9869.1
869.55	9784.59
869.87	9851.25
870.19	9819.61
870.51	9867.52
870.83	9804.7
871.15	9696.91
871.469	9801.99
871.789	9776.9
872.109	9785.27
872.428	9707.3
872.748	9698.49
873.067	9681.54
873.386	9677.25
873.706	9696
874.025	9584.82
874.344	9583.46
874.663	9547.53
874.982	9581.65
875.301	9552.28
875.62	9524.71
875.939	9475.44
876.258	9485.61
876.577	9480.87
876.896	9490.36
877.214	9488.1
877.533	9500.75
877.852	9423.24
878.17	9459.17
878.489	9389.8
878.807	9310.48
879.125	9356.58
879.444	9336.24
879.762	9349.34
880.08	9321.32
880.398	9285.17
880.716	9278.39
881.034	9252.4
881.352	9245.84
881.67	9216.47
881.988	9217.6
882.306	9225.73
882.624	9239.06
882.941	9092.85
883.259	9102.57
883.577	9068
883.894	9028.68
884.212	9039.75
884.529	9025.51
884.846	9033.87
885.164	8959.07
885.481	8984.16
885.798	8957.04
886.115	8963.14
886.432	8886.08
886.75	8913.88
887.067	8905.29
887.383	8903.03
887.7	8841.11
888.017	8860.32
888.334	8820.77
888.651	8795.91
888.967	8750.26
889.284	8689.93
889.6	8692.41
889.917	8613.32
890.233	8647.44
890.55	8610.38
890.866	8628.23
891.182	8585.75
891.498	8524.73
891.815	8513.66
892.131	8501.46
892.447	8435.02
892.763	8430.27
893.079	8419.88
893.395	8476.83
893.71	8327.45
894.026	8371.07
894.342	8317.51
894.657	8295.59
894.973	8270.95
895.289	8262.59
895.604	8228.24
895.92	8200.9
896.235	8155.7
896.55	8184.86
896.865	8072.32
897.181	8106.67
897.496	8096.95
897.811	8059.21
898.126	8014.69
898.441	8007.91
898.756	7943.73
899.071	7870.06
899.386	7861.93
899.7	7847.46
900.015	7739.44
900.33	7797.29
900.644	7751.19
900.959	7767.24
901.273	7649.95
901.588	7673.46
901.902	7658.99
902.216	7621.93
902.531	7592.78
902.845	7560.69
903.159	7518.43
903.473	7450.86
903.787	7490.86
904.101	7381.03
904.415	7461.94
904.729	7408.83
905.042	7356.63
905.356	7405.21
905.67	7339.45
905.984	7329.74
906.297	7315.27
906.611	7280.92
906.924	7204.99
907.237	7251.09
907.551	7172.45
907.864	7146.01
908.177	7167.48
908.491	7145.79
908.804	7075.05
909.117	7022.85
909.43	6954.83
909.743	6963.42
910.056	6931.1
910.368	6877.32
910.681	6902.86
910.994	6866.92
911.307	6878
911.619	6782.63
911.932	6768.85
912.244	6682.75
912.557	6758.68
912.869	6688.62
913.181	6658.57
913.494	6617.66
913.806	6641.39
914.118	6654.05
914.43	6556.42
914.742	6563.43
915.054	6524.33
915.366	6484.11
915.678	6463.77
915.99	6415.41
916.302	6356.43
916.613	6382.87
916.925	6369.31
917.236	6362.76
917.548	6286.15
917.859	6278.92
918.171	6220.84
918.482	6148.3
918.794	6212.48
919.105	6188.98
919.416	6140.62
919.727	6140.84
920.038	6101.52
920.349	6085.48
920.66	6042.76
920.971	6077.79
921.282	6053.16
921.593	5966.38
921.903	5933.16
922.214	5930
922.525	5900.4
922.835	5912.82
923.146	5840.74
923.456	5808.42
923.767	5772.26
924.077	5796.22
924.387	5766.39
924.697	5737.01
925.008	5747.86
925.318	5713.06
925.628	5687.75
925.938	5664.92
926.248	5597.35
926.558	5583.57
926.867	5561.87
927.177	5552.61
927.487	5517.81
927.796	5476.9
928.106	5467.86
928.416	5445.49
928.725	5484.81
929.034	5375.21
929.344	5384.93
929.653	5412.95
929.962	5297.93
930.271	5342.22
930.581	5268.77
930.89	5291.15
931.199	5265.61
931.508	5268.77
931.817	5178.38
932.125	5208.21
932.434	5164.82
932.743	5107.65
933.051	5148.55
933.36	5074.2
933.669	5026.52
933.977	4992.62
934.286	5000.08
934.594	5005.73
934.902	5013.64
935.21	4908.56
935.519	4923.25
935.827	4910.82
936.135	4886.41
936.443	4906.3
936.751	4874.66
937.059	4868.56
937.367	4808.22
937.674	4808.67
937.982	4750.6
938.29	4745.85
938.597	4807.09
938.905	4697.94
939.213	4680.77
939.52	4638.96
939.827	4681.22
940.135	4635.34
940.442	4607.77
940.749	4622.92
941.056	4608.45
941.363	4537.04
941.67	4579.3
941.977	4486.65
942.284	4498.4
942.591	4498.4
942.898	4455.24
943.205	4431.96
943.511	4382.02
943.818	4418.85
944.125	4369.81
944.431	4360.32
944.738	4333.66
945.044	4317.84
945.35	4309.03
945.657	4279.65
945.963	4254.56
946.269	4223.83
946.575	4254.56
946.881	4218.63
947.187	4176.83
947.493	4199.88
947.799	4130.5
948.105	4164.4
948.41	4139.54
948.716	4111.97
949.022	4103.38
949.327	4061.57
949.633	4017.51
949.938	4046.21
950.244	4055.02
950.549	4010.28
950.854	3979.54
951.16	3978.41
951.465	3937.96
951.77	3940.45
952.075	3887.34
952.38	3926.66
952.685	3927.79
952.99	3848.92
953.294	3875.14
953.599	3853.44
953.904	3832.43
954.209	3792.65
954.513	3765.99
954.818	3776.61
955.122	3771.64
955.426	3749.72
955.731	3716.27
956.035	3709.72
956.339	3692.77
956.643	3705.2
956.948	3678.99
957.252	3663.84
957.556	3645.99
957.86	3609.83
958.163	3605.54
958.467	3586.33
958.771	3571.42
959.075	3549.5
959.378	3529.61
959.682	3513.79
959.985	3534.13
960.289	3480.12
960.592	3488.71
960.896	3466.56
961.199	3465.21
961.502	3440.35
961.805	3400.57
962.108	3414.36
962.411	3397.41
962.714	3375.49
963.017	3356.06
963.32	3398.77
963.623	3306.34
963.926	3352.44
964.228	3281.03
964.531	3330.75
964.833	3276.96
965.136	3271.09
965.438	3227.7
965.741	3236.28
966.043	3205.33
966.345	3186.34
966.648	3192.9
966.95	3161.94
967.252	3131.2
967.554	3184.99
967.856	3158.09
968.158	3112.9
968.46	3101.15
968.761	3095.05
969.063	3061.37
969.365	3084.2
969.666	3045.56
969.968	3035.61
970.269	3027.93
970.571	3017.08
970.872	2997.42
971.174	3007.59
971.475	2942.51
971.776	2952
972.077	2949.29
972.378	2927.59
972.679	2924.2
972.98	2911.55
973.281	2913.13
973.582	2834.04
973.883	2858.44
974.183	2859.12
974.484	2871.32
974.785	2867.26
975.085	2825.22
975.386	2817.54
975.686	2793.81
975.986	2779.57
976.287	2760.14
976.587	2754.04
976.887	2735.28
977.187	2748.61
977.487	2719.91
977.787	2705.68
978.087	2685.34
978.387	2714.04
978.687	2670.88
978.987	2655.51
979.286	2624.1
979.586	2645.34
979.885	2600.82
980.185	2615.96
980.484	2611.89
980.784	2641.72
981.083	2573.48
981.382	2596.98
981.682	2591.33
981.981	2562.86
982.28	2539.13
982.579	2539.81
982.878	2519.92
983.177	2513.14
983.475	2520.37
983.774	2510.65
984.073	2486.7
984.372	2474.05
984.67	2470.2
984.969	2438.11
985.267	2425.46
985.566	2406.48
985.864	2386.14
986.162	2439.24
986.461	2387.04
986.759	2417.78
987.057	2359.47
987.355	2373.71
987.653	2376.65
987.951	2355.4
988.249	2333.48
988.547	2326.7
988.844	2335.52
989.142	2323.77
989.44	2288.06
989.737	2295.97
990.035	2247.84
990.332	2237.67
990.63	2220.94
990.927	2210.1
991.224	2216.88
991.521	2212.81
991.819	2190.21
992.116	2205.8
992.413	2181.4
992.71	2173.94
993.006	2187.27
993.303	2185.47
993.6	2141.85
993.897	2131.91
994.193	2100.5
994.49	2094.17
994.787	2116.31
995.083	2061.4
995.379	2095.98
995.676	2079.48
995.972	2068.18
996.268	2077.22
996.565	2040.84
996.861	2038.8
997.157	2024.57
997.453	2017.56
997.749	1974.4
998.044	1995.19
998.34	1970.33
998.636	1961.52
998.932	1970.56
999.227	1947.73
999.523	1960.84
999.818	1948.18
1000.114	1932.82
1000.409	1934.85
1000.704	1912.03
1001	1905.47
1001.295	1884.23
1001.59	1892.37
1001.885	1863.21
1002.18	1862.99
1002.475	1871.35
1002.77	1835.87
1003.065	1838.13
1003.359	1822.08
1003.654	1826.83
1003.949	1823.67
1004.243	1812.82
1004.538	1797.23
1004.832	1755.42
1005.127	1775.31
1005.421	1742.76
1005.715	1714.07
1006.009	1726.49
1006.304	1753.16
1006.598	1698.7
1006.892	1713.39
1007.186	1704.12
1007.48	1688.08
1007.773	1685.59
1008.067	1686.27
1008.361	1640.62
1008.655	1649.89
1008.948	1631.13
1009.242	1630.68
1009.535	1639.94
1009.829	1603.79
1010.122	1585.71
1010.415	1608.31
1010.708	1600.85
1011.001	1577.8
1011.295	1562.2
1011.588	1590.68
1011.881	1565.14
1012.173	1526.73
1012.466	1546.84
1012.759	1518.82
1013.052	1539.61
1013.344	1538.7
1013.637	1536.67
1013.93	1505.03
1014.222	1490.12
1014.514	1459.83
1014.807	1493.51
1015.099	1466.84
1015.391	1476.78
1015.683	1443.79
1015.976	1440.17
1016.268	1443.56
1016.56	1432.26
1016.851	1401.76
1017.143	1416.45
1017.435	1418.25
1017.727	1396.79
1018.018	1370.35
1018.31	1344.81
1018.602	1363.57
1018.893	1357.92
1019.185	1353.62
1019.476	1344.13
1019.767	1351.59
1020.058	1340.06
1020.35	1304.36
1020.641	1301.65
1020.932	1296.9
1021.223	1279.95
1021.514	1295.32
1021.804	1254.64
1022.095	1256.68
1022.386	1255.32
1022.677	1255.09
1022.967	1216.23
1023.258	1241.76
1023.548	1262.55
1023.839	1229.11
1024.129	1236.79
1024.419	1213.74
1024.709	1205.38
1025	1190.46
1025.29	1176.9
1025.58	1136.68
1025.87	1167.64
1026.16	1134.65
1026.449	1145.04
1026.739	1164.48
1027.029	1136.23
1027.319	1138.04
1027.608	1111.14
1027.898	1123.8
1028.187	1115.44
1028.477	1094.65
1028.766	1078.38
1029.055	1077.25
1029.344	1089.67
1029.634	1042.9
1029.923	1067.53
1030.212	1057.59
1030.501	1054.2
1030.79	1045.16
1031.078	1024.14
1031.367	1025.95
1031.656	1047.19
1031.945	1005.84
1032.233	1043.57
1032.522	1022.33
1032.81	983.46
1033.099	980.98
1033.387	997.93
1033.675	995.67
1033.963	991.82
1034.251	959.51
1034.54	947.53
1034.828	965.38
1035.116	961.77
1035.403	945.95
1035.691	942.11
1035.979	921.54
1036.267	926.97
1036.554	946.18
1036.842	926.74
1037.129	917.48
1037.417	901.43
1037.704	890.81
1037.992	898.95
1038.279	874.99
1038.566	925.39
1038.853	925.39
1039.14	925.39
