Data from hue_70_FLMS001491_57.txt Node
Date: Mon Feb 06 15:21:07 GMT 2017
User: dcchb
Spectrometer: FLMS00149
Trigger mode: 0
Integration Time (sec): 2.000000E-2
Scans to average: 10
Electric dark correction enabled: true
Nonlinearity correction enabled: false
Boxcar width: 0
XAxis mode: Wavelengths
Number of Pixels in Spectrum: 2048
>>>>>Begin Spectral Data<<<<<
341.393	1.82
341.776	1.82
342.16	1.82
342.543	-68.91
342.927	-76.82
343.31	-78.4
343.693	-61.23
344.077	-66.65
344.46	-62.81
344.843	-52.64
345.226	-57.61
345.61	-15.13
345.993	-4.51
346.376	-14.9
346.759	9.28
347.142	35.72
347.525	38.66
347.908	56.74
348.291	67.36
348.674	85.21
349.057	120.91
349.44	116.17
349.823	137.86
350.206	168.37
350.588	205.66
350.971	211.08
351.354	212.66
351.737	212.89
352.119	246.56
352.502	261.7
352.884	272.1
353.267	276.84
353.65	291.76
354.032	309.16
354.414	315.94
354.797	288.82
355.179	332.43
355.562	298.99
355.944	332.21
356.326	314.36
356.709	328.37
357.091	331.53
357.473	378.54
357.855	326.56
358.238	349.84
358.62	351.87
359.002	342.38
359.384	313
359.766	327.92
360.148	332.89
360.53	324.98
360.912	350.29
361.294	319.78
361.676	339.21
362.057	332.21
362.439	327.46
362.821	321.36
363.203	344.86
363.584	332.66
363.966	327.24
364.348	326.11
364.729	315.26
365.111	331.53
365.493	321.36
365.874	315.71
366.256	313.45
366.637	299.22
367.019	309.84
367.4	331.98
367.781	321.36
368.163	339.21
368.544	303.96
368.925	308.71
369.306	322.72
369.688	297.18
370.069	305.54
370.45	294.47
370.831	322.04
371.212	292.44
371.593	313.45
371.974	305.54
372.355	308.93
372.736	326.79
373.117	333.11
373.498	307.8
373.879	310.51
374.26	322.94
374.641	326.56
375.021	316.62
375.402	305.77
375.783	323.85
376.163	322.04
376.544	316.62
376.925	339.67
377.305	320.68
377.686	298.76
378.066	322.49
378.447	314.36
378.827	317.29
379.208	314.81
379.588	332.43
379.968	317.07
380.349	320.01
380.729	347.58
381.109	340.34
381.489	308.93
381.87	319.1
382.25	334.69
382.63	344.86
383.01	320.46
383.39	340.34
383.77	334.24
384.15	341.02
384.53	349.61
384.91	345.99
385.29	351.87
385.67	325.66
386.049	331.76
386.429	340.12
386.809	317.97
387.189	338.76
387.568	338.76
387.948	348.71
388.328	338.54
388.707	336.73
389.087	345.32
389.466	329.05
389.846	361.13
390.225	372.21
390.605	363.85
390.984	367.01
391.363	346.45
391.743	356.61
392.122	334.92
392.501	356.61
392.881	362.04
393.26	355.03
393.639	361.36
394.018	360.46
394.397	369.72
394.776	362.26
395.155	356.39
395.534	341.25
395.913	367.24
396.292	371.76
396.671	384.64
397.05	377.86
397.429	393.22
397.808	363.17
398.186	383.96
398.565	379.21
398.944	381.7
399.323	394.35
399.701	380.8
400.08	370.4
400.458	369.5
400.837	388.25
401.215	371.3
401.594	393.68
401.972	381.02
402.351	405.88
402.729	399.55
403.107	402.49
403.486	381.25
403.864	380.8
404.242	373.11
404.62	379.89
404.999	403.39
405.377	410.85
405.755	403.17
406.133	390.96
406.511	407.69
406.889	407.01
407.267	385.31
407.645	417.86
408.023	396.39
408.401	415.6
408.779	410.17
409.156	427.12
409.534	424.18
409.912	411.75
410.29	407.91
410.667	419.44
411.045	411.08
411.422	411.75
411.8	401.36
412.178	423.51
412.555	433.68
412.933	433.68
413.31	442.71
413.687	447.46
414.065	453.79
414.442	437.06
414.819	445.43
415.197	444.75
415.574	451.53
415.951	451.53
416.328	462.83
416.705	453.56
417.082	458.08
417.46	478.87
417.837	499.21
418.214	457.4
418.591	470.96
418.967	479.1
419.344	482.26
419.721	490.85
420.098	486.56
420.475	480.91
420.852	487.68
421.228	478.65
421.605	470.96
421.982	485.88
422.358	479.55
422.735	517.06
423.111	494.92
423.488	518.19
423.864	519.55
424.241	506.22
424.617	512.77
424.994	489.94
425.37	510.28
425.746	515.25
426.123	519.1
426.499	525.2
426.875	494.92
427.251	528.36
427.627	536.27
428.003	545.31
428.379	537.85
428.756	549.38
429.132	560.23
429.507	554.12
429.883	553.9
430.259	563.84
430.635	557.06
431.011	567.46
431.387	577.4
431.763	582.6
432.138	568.13
432.514	584.63
432.89	579.66
433.265	595.25
433.641	593.22
434.016	607.46
434.392	603.39
434.767	631.64
435.143	617.17
435.518	611.07
435.894	630.51
436.269	628.7
436.644	630.73
437.02	643.84
437.395	641.13
437.77	640.22
438.145	651.97
438.52	661.01
438.895	661.24
439.271	659.66
439.646	684.97
440.021	650.84
440.395	676.61
440.77	675.48
441.145	677.51
441.52	706.66
441.895	690.39
442.27	690.17
442.645	694.46
443.019	722.48
443.394	663.5
443.769	702.14
444.143	701.92
444.518	710.96
444.892	711.41
445.267	717.74
445.641	715.93
446.016	712.54
446.39	732.88
446.764	717.96
447.139	726.32
447.513	759.99
447.887	736.94
448.262	740.11
448.636	763.38
449.01	769.94
449.384	782.14
449.758	763.38
450.132	790.28
450.506	781.24
450.88	769.94
451.254	789.37
451.628	783.95
452.002	787.56
452.376	794.57
452.75	814.23
453.123	792.76
453.497	821.46
453.871	821.01
454.244	857.39
454.618	837.05
454.992	856.04
455.365	857.84
455.739	872.99
456.112	879.77
456.486	888.58
456.859	904.85
457.232	884.28
457.606	886.09
457.979	907.79
458.352	950.27
458.725	912.31
459.099	943.27
459.472	948.46
459.845	983.72
460.218	987.33
460.591	986.2
460.964	977.39
461.337	998.41
461.71	1006.09
462.083	1036.15
462.456	1062.81
462.829	1022.81
463.201	1059.42
463.574	1067.33
463.947	1078.86
464.32	1085.64
464.692	1101.68
465.065	1138.52
465.438	1136.93
465.81	1157.95
466.183	1187.33
466.555	1192.98
466.928	1201.56
467.3	1211.73
467.672	1230.04
468.045	1268
468.417	1286.31
468.789	1297.16
469.161	1319.08
469.534	1327.89
469.906	1355.68
470.278	1388.23
470.65	1412.41
471.022	1420.77
471.394	1461.22
471.766	1449.69
472.138	1481.78
472.51	1531.5
472.882	1558.17
473.253	1602.01
473.625	1634.77
473.997	1669.12
474.369	1692.85
474.74	1721.32
475.112	1776.24
475.484	1805.84
475.855	1831.15
476.227	1882.68
476.598	1931.94
476.97	1994.09
477.341	2049.9
477.713	2077.47
478.084	2133.74
478.455	2234.76
478.827	2250.58
479.198	2334.19
479.569	2376.9
479.94	2416.67
480.311	2516.78
480.682	2583.45
481.053	2654.18
481.424	2753.61
481.795	2845.14
482.166	2862.76
482.537	2957.9
482.908	3098.69
483.279	3149.99
483.65	3222.75
484.021	3318.57
484.391	3438.12
484.762	3537.32
485.133	3603.08
485.503	3699.13
485.874	3796.75
486.244	3906.58
486.615	3998.78
486.985	4096.4
487.356	4276.06
487.726	4333.46
488.097	4443.74
488.467	4603.96
488.837	4713.79
489.207	4868.13
489.578	4968.7
489.948	5086.21
490.318	5269.03
490.688	5328.01
491.058	5464.5
491.428	5617.04
491.798	5756.02
492.168	5895.45
492.538	6010.25
492.908	6123.02
493.278	6316.68
493.648	6329.79
494.017	6566.4
494.387	6657.47
494.757	6834.86
495.126	6960.51
495.496	7089.55
495.866	7214.74
496.235	7414.51
496.605	7507.16
496.974	7640.49
497.344	7760.94
497.713	7899.24
498.082	8080.03
498.452	8206.58
498.821	8249.97
499.19	8376.52
499.559	8569.51
499.928	8738.54
500.298	8793.91
500.667	8940.57
501.036	9054.47
501.405	9198.64
501.774	9221.69
502.143	9426.43
502.512	9516.37
502.88	9702.81
503.249	9703.94
503.618	9932.63
503.987	10037.72
504.356	10049.47
504.724	10207.43
505.093	10289.69
505.462	10444.03
505.83	10507.76
506.199	10690.35
506.567	10835.21
506.936	10904.81
507.304	11024.13
507.672	11124.02
508.041	11268.64
508.409	11377.79
508.777	11510.9
509.145	11537.11
509.514	11687.39
509.882	11745.92
510.25	11841.28
510.618	12027.95
510.986	11989.3
511.354	12137.77
511.722	12306.36
512.09	12439.69
512.458	12466.58
512.826	12554.03
513.193	12726.46
513.561	12757.87
513.929	12824.08
514.297	12974.59
514.664	13067.69
515.032	13244.41
515.4	13336.61
515.767	13437.63
516.135	13537.51
516.502	13456.38
516.869	13692.08
517.237	13734.12
517.604	13696.15
517.972	13891.4
518.339	13994
518.706	13976.6
519.073	14125.29
519.44	14192.41
519.808	14332.07
520.175	14323.25
520.542	14551.95
520.909	14615.9
521.276	14668.55
521.643	14786.52
522.009	14854.31
522.376	15052.05
522.743	14942.45
523.11	15110.8
523.477	15330.91
523.843	15290.46
524.21	15530
524.577	15651.81
524.943	15722.76
525.31	15712.82
525.676	15853.16
526.043	15921.18
526.409	16070.33
526.776	16105.35
527.142	16174.5
527.508	16195.52
527.874	16273.94
528.241	16419.24
528.607	16513.93
528.973	16657.88
529.339	16601.39
529.705	16717.09
530.071	16880.93
530.437	16782.4
530.803	16945.33
531.169	16998.89
531.535	17033.46
531.901	17064.65
532.267	17100.13
532.632	17203.86
532.998	17223.06
533.364	17336.51
533.73	17388.94
534.095	17445.66
534.461	17430.29
534.826	17498.09
535.192	17466.22
535.557	17728.14
535.923	17627.8
536.288	17666.89
536.653	17724.29
537.019	17677.74
537.384	17621.92
537.749	17784.41
538.114	17809.26
538.479	17800.22
538.845	17894.46
539.21	17782.37
539.575	17930.84
539.94	17937.85
540.305	18018.75
540.67	17973.1
541.034	17979.2
541.399	17976.72
541.764	17995.47
542.129	18032.53
542.494	18153.21
542.858	18177.16
543.223	18114.34
543.587	18277.27
543.952	18184.62
544.316	18255.13
544.681	18241.79
545.045	18242.25
545.41	18306.43
545.774	18325.63
546.138	18322.47
546.503	18309.14
546.867	18291.06
547.231	18455.12
547.595	18477.49
547.959	18464.39
548.324	18437.72
548.688	18499.41
549.052	18577.6
549.416	18466.2
549.779	18532.86
550.143	18539.87
550.507	18678.39
550.871	18599.53
551.235	18677.26
551.599	18669.81
551.962	18745.74
552.326	18683.36
552.689	18813.98
553.053	18716.81
553.417	18678.39
553.78	18973.53
554.143	18777.83
554.507	18917.71
554.87	19046.29
555.234	18997.48
555.597	18959.97
555.96	19038.16
556.323	19008.78
556.686	19042.23
557.05	19161.54
557.413	19120.64
557.776	19197.02
558.139	19279.06
558.502	19312.05
558.865	19204.48
559.228	19425.27
559.59	19481.31
559.953	19472.04
560.316	19588.65
560.679	19738.03
561.041	19725.37
561.404	19689.67
561.767	19794.52
562.129	19701.42
562.492	19964.23
562.854	19870.45
563.217	19917.91
563.579	19987.29
563.941	20088.3
564.304	20084.68
564.666	20265.92
565.028	20320.61
565.39	20335.75
565.753	20297.33
566.115	20449.87
566.477	20526.03
566.839	20537.33
567.201	20615.52
567.563	20598.34
567.925	20693.48
568.287	20792.24
568.648	20740.94
569.01	20836.08
569.372	20930.54
569.734	20862.06
570.095	21005.34
570.457	21058.9
570.819	21071.78
571.18	21122.85
571.542	21260.25
571.903	21245.78
572.265	21242.17
572.626	21368.49
572.987	21367.36
573.349	21415.04
573.71	21452.56
574.071	21500.24
574.432	21674.7
574.794	21676.05
575.155	21656.85
575.516	21582.5
575.877	21749.5
576.238	21677.41
576.599	21735.94
576.96	21707.01
577.32	21863.62
577.681	21953.11
578.042	21838.54
578.403	21907.01
578.763	21936.84
579.124	21894.81
579.485	22121.01
579.845	22114.46
580.206	22019.55
580.566	22032.43
580.927	22003.73
581.287	22169.83
581.648	21990.17
582.008	22063.84
582.368	22138.64
582.728	22122.82
583.089	22104.74
583.449	22134.8
583.809	22107
584.169	22108.81
584.529	22074.46
584.889	22271.74
585.249	22136.61
585.609	22073.11
585.969	22224.29
586.329	22127.57
586.688	22188.13
587.048	22073.11
587.408	22219.99
587.768	22098.64
588.127	22111.75
588.487	22111.75
588.846	22264.06
589.206	22011.64
589.565	22077.17
589.925	22168.24
590.284	22025.42
590.643	22189.26
591.003	22192.88
591.362	22269.26
591.721	22146.1
592.08	22247.34
592.44	22269.71
592.799	22334.79
593.158	22185.19
593.517	22147.45
593.876	22188.13
594.235	22165.98
594.593	22331.63
594.952	22231.29
595.311	22089.83
595.67	22164.18
596.029	22257.96
596.387	22311.29
596.746	22344.51
597.104	22173.44
597.463	22275.59
597.822	22275.81
598.18	22273.78
598.538	22226.1
598.897	22365.98
599.255	22157.17
599.613	22503.38
599.972	22369.14
600.33	22408.24
600.688	22178.87
601.046	22354.23
601.404	22471.74
601.762	22354.23
602.12	22510.16
602.478	22539.08
602.836	22513.32
603.194	22493.89
603.552	22544.05
603.91	22385.64
604.268	22514.45
604.625	22442.14
604.983	22635.13
605.341	22453.44
605.698	22579.53
606.056	22655.92
606.413	22689.14
606.771	22669.7
607.128	22714.22
607.485	22592.41
607.843	22554.68
608.2	22784.95
608.557	22803.26
608.914	22768.46
609.272	22798.96
609.629	22821.33
609.986	22931.61
610.343	22838.51
610.7	22955.57
611.057	22944.72
611.414	22859.3
611.771	22988.34
612.127	23105.4
612.484	23051.61
612.841	23122.8
613.198	23098.84
613.554	23085.28
613.911	23220.42
614.267	23242.34
614.624	23212.06
614.98	23279.63
615.337	23453.18
615.693	23311.94
616.05	23421.77
616.406	23391.94
616.762	23374.99
617.118	23318.95
617.475	23354.65
617.831	23492.05
618.187	23553.75
618.543	23491.6
618.899	23623.57
619.255	23565.27
619.611	23592.16
619.967	23632.39
620.323	23670.8
620.678	23636.45
621.034	23579.51
621.39	23630.58
621.746	23493.41
622.101	23767.07
622.457	23809.56
622.812	23704.48
623.168	23734.08
623.523	23784.47
623.879	23850.23
624.234	23710.58
624.589	23667.19
624.945	23736.34
625.3	23770.69
625.655	23984.24
626.01	23799.16
626.365	23806.17
626.72	23753.29
627.075	23772.04
627.43	23759.84
627.785	23805.49
628.14	23781.08
628.495	23780.41
628.85	23785.38
629.205	23692.27
629.559	23892.27
629.914	23661.54
630.269	23790.35
630.623	23660.63
630.978	23722.1
631.332	23663.57
631.687	23866.05
632.041	23689.56
632.396	23719.16
632.75	23642.1
633.104	23739.73
633.459	23552.39
633.813	23623.12
634.167	23610.24
634.521	23716.23
634.875	23652.05
635.229	23656.79
635.583	23386.52
635.937	23623.12
636.291	23497.25
636.645	23488.66
636.999	23374.31
637.352	23371.15
637.706	23365.95
638.06	23468.55
638.413	23374.77
638.767	23377.7
639.121	23324.15
639.474	23236.92
639.828	23134.1
640.181	23194.66
640.534	23306.97
640.888	23172.51
641.241	23120.54
641.594	23233.98
641.947	23172.74
642.301	23153.3
642.654	23123.25
643.007	23176.13
643.36	23179.97
643.713	23108.33
644.066	23207.77
644.419	23025.17
644.771	22959.86
645.124	22653.2
645.477	22641.23
645.83	22526.88
646.182	22490.04
646.535	22299.31
646.888	22386.32
647.24	22264.06
647.593	22354
647.945	22418.86
648.298	22279.88
648.65	22242.82
649.002	22206.21
649.355	22281.46
649.707	22273.33
650.059	22310.39
650.411	22544.73
650.763	22690.04
651.115	22758.51
651.467	22771.17
651.819	22887.77
652.171	22828.79
652.523	22726.65
652.875	22709.7
653.227	22522.81
653.578	22730.04
653.93	22758.06
654.282	22666.08
654.633	22639.64
654.985	22639.19
655.337	22697.95
655.688	22576.82
656.039	22750.38
656.391	22573.21
656.742	22580.21
657.094	22565.75
657.445	22694.56
657.796	22639.42
658.147	22619.98
658.498	22636.93
658.849	22699.98
659.2	22650.04
659.551	22567.1
659.902	22660.21
660.253	22629.93
660.604	22716.48
660.955	22566.88
661.306	22605.97
661.656	22671.28
662.007	22658.63
662.358	22595.8
662.708	22573.21
663.059	22568.91
663.409	22489.14
663.76	22598.06
664.11	22689.36
664.461	22713.09
664.811	22568.01
665.161	22572.98
665.511	22527.56
665.862	22520.78
666.212	22545.41
666.562	22681.23
666.912	22580.21
667.262	22633.09
667.612	22476.03
667.962	22601.45
668.312	22573.88
668.662	22706.31
669.011	22558.29
669.361	22563.26
669.711	22530.27
670.06	22519.65
670.41	22426.32
670.76	22357.39
671.109	22575.92
671.459	22454.34
671.808	22483.49
672.157	22475.81
672.507	22359.2
672.856	22430.61
673.205	22297.73
673.554	22439.65
673.904	22387.45
674.253	22458.41
674.602	22436.94
674.951	22097.29
675.3	21935.93
675.649	22198.53
675.998	22271.29
676.346	22323.04
676.695	22455.02
677.044	22184.74
677.393	22289.6
677.741	22319.88
678.09	22250.5
678.438	22146.32
678.787	22158.53
679.135	22145.19
679.484	22052.99
679.832	22231.75
680.181	22045.54
680.529	21993.33
680.877	21926.44
681.225	21862.72
681.573	22135.03
681.922	21836.28
682.27	21822.04
682.618	21894.81
682.966	21753.79
683.314	21826.78
683.661	21784.98
684.009	21646
684.357	21618.88
684.705	21551.09
685.053	21507.02
685.4	21584.31
685.748	21415.95
686.095	21445.55
686.443	21365.1
686.79	21402.16
687.138	21333.69
687.485	21357.42
687.832	21242.85
688.18	21315.84
688.527	21133.47
688.874	21189.51
689.221	21123.07
689.568	21020.48
689.915	21104.77
690.262	21037.2
690.609	20923.76
690.956	20876.75
691.303	20798.34
691.65	20777.77
691.997	20628.4
692.344	20629.08
692.69	20674.27
693.037	20641.73
693.383	20431.34
693.73	20400.61
694.077	20326.03
694.423	20261.18
694.769	20288.29
695.116	20131.69
695.462	20103.89
695.808	20113.38
696.155	20037.91
696.501	19952.26
696.847	19934.41
697.193	19740.29
697.539	19877.01
697.885	19656.67
698.231	19577.13
698.577	19589.56
698.923	19463.91
699.269	19530.12
699.614	19335.55
699.96	19306.17
700.306	19281.09
700.651	19196.8
700.997	19171.04
701.342	19132.17
701.688	19072.06
702.033	18964.49
702.379	19039.51
702.724	18883.81
703.069	18891.04
703.415	18732.4
703.76	18660.77
704.105	18700.54
704.45	18587.32
704.795	18551.84
705.14	18528.34
705.485	18575.34
705.83	18405.63
706.175	18344.16
706.52	18397.27
706.865	18317.5
707.209	18256.48
707.554	18109.59
707.899	18227.11
708.243	18138.07
708.588	18109.14
708.932	17890.17
709.277	17969.94
709.621	17900.33
709.966	17787.8
710.31	17780.79
710.654	17623.05
710.998	17785.31
711.342	17729.72
711.687	17562.04
712.031	17634.58
712.375	17580.34
712.719	17480.01
713.063	17446.79
713.407	17493.34
713.75	17416.96
714.094	17397.75
714.438	17393.23
714.782	17373.34
715.125	17217.19
715.469	17306.9
715.812	17170.41
716.156	17057.87
716.499	17108.72
716.843	17166.79
717.186	17023.52
717.53	17065.33
717.873	17134.93
718.216	17060.81
718.559	17004.76
718.902	16944.43
719.246	16854.03
719.589	16878.21
719.932	16804.54
720.275	16772.91
720.617	16733.59
720.96	16716.41
721.303	16797.76
721.646	16802.74
721.989	16634.15
722.331	16682.97
722.674	16615.62
723.016	16619.46
723.359	16560.26
723.701	16578.11
724.044	16433.48
724.386	16478.9
724.729	16486.59
725.071	16461.28
725.413	16462.86
725.755	16447.49
726.097	16324.78
726.439	16351.67
726.782	16306.03
727.124	16434.61
727.465	16289.3
727.807	16291.11
728.149	16237.55
728.491	16187.39
728.833	16343.77
729.175	16181.51
729.516	16255.18
729.858	16205.01
730.199	16209.53
730.541	16184.45
730.882	16129.76
731.224	16195.07
731.565	16071.46
731.906	16073.04
732.248	16128.4
732.589	16040.72
732.93	15945.81
733.271	15991.01
733.612	16076.2
733.953	16114.62
734.294	15997.56
734.635	15945.13
734.976	15991.68
735.317	15979.93
735.658	15877.34
735.999	15966.15
736.339	15920.5
736.68	16015.19
737.021	15892.25
737.361	15833.5
737.702	15976.77
738.042	15935.41
738.383	15902.87
738.723	15948.3
739.063	15759.37
739.404	15966.15
739.744	15899.26
740.084	15824.91
740.424	15875.75
740.764	15911.69
741.104	15901.52
741.444	15805.25
741.784	15707.17
742.124	15915.3
742.464	15853.83
742.804	15871.91
743.143	15799.6
743.483	15861.29
743.823	15756.89
744.162	15866.49
744.502	15889.31
744.841	15843.21
745.181	15889.09
745.52	15886.15
745.86	15953.04
746.199	15959.59
746.538	15936.32
746.877	16068.97
747.216	16094.05
747.556	16085.69
747.895	16014.73
748.234	16037.56
748.573	16138.8
748.911	16103.77
749.25	16194.84
749.589	16109.42
749.928	16213.37
750.267	16292.02
750.605	16286.37
750.944	16325.01
751.283	16340.83
751.621	16455.4
751.96	16460.82
752.298	16523.65
752.636	16552.57
752.975	16536.75
753.313	16598.22
753.651	16708.05
753.989	16779.46
754.327	16813.13
754.666	16790.08
755.004	16912.11
755.342	17037.98
755.679	16998.21
756.017	17067.59
756.355	17148.26
756.693	17101.71
757.031	17297.41
757.368	17293.12
757.706	17415.38
758.044	17437.3
758.381	17522.49
758.719	17574.02
759.056	17603.85
759.394	17665.54
759.731	17669.61
760.068	17707.8
760.405	17802.26
760.743	17857.85
761.08	17897.17
761.417	17947.79
761.754	17920.45
762.091	18076.83
762.428	18133.77
762.765	18158.18
763.102	18260.78
763.438	18291.28
763.775	18188.24
764.112	18309.36
764.449	18479.53
764.785	18449.25
765.122	18426.87
765.458	18394.11
765.795	18453.31
766.131	18461.68
766.467	18421.68
766.804	18448.79
767.14	18477.27
767.476	18505.97
767.812	18447.44
768.148	18618.73
768.485	18467.1
768.821	18413.77
769.157	18508.45
769.492	18511.17
769.828	18564.5
770.164	18536.7
770.5	18477.95
770.836	18536.48
771.171	18360.21
771.507	18447.89
771.842	18262.13
772.178	18353.43
772.513	18408.34
772.849	18352.75
773.184	18334.67
773.519	18414.22
773.855	18312.08
774.19	18266.88
774.525	18186.65
774.86	18305.52
775.195	18287.67
775.53	18228.01
775.865	18084.28
776.2	18097.17
776.535	17942.82
776.87	17920.9
777.205	17969.26
777.539	17937.62
777.874	17853.56
778.209	17753.9
778.543	17792.99
778.878	17746.89
779.212	17690.17
779.547	17599.78
779.881	17711.64
780.215	17520.91
780.55	17625.77
780.884	17498.09
781.218	17472.32
781.552	17470.06
781.886	17422.83
782.22	17400.23
782.554	17266.68
782.888	17173.35
783.222	17103.29
783.556	17070.75
783.889	16977.42
784.223	16867.82
784.557	16840.93
784.89	16926.12
785.224	16844.09
785.557	16825.79
785.891	16743.75
786.224	16709.41
786.558	16751.89
786.891	16475.06
787.224	16566.13
787.557	16494.5
787.891	16454.27
788.224	16452.91
788.557	16383.76
788.89	16392.8
789.223	16391.9
789.556	16237.78
789.888	16240.27
790.221	16133.6
790.554	16045.02
790.887	16065.13
791.219	15967.5
791.552	16019.71
791.884	15854.06
792.217	15842.31
792.549	15833.27
792.882	15767.28
793.214	15651.58
793.546	15697
793.879	15560.73
794.211	15516.89
794.543	15620.17
794.875	15432.83
795.207	15475.09
795.539	15404.35
795.871	15371.14
796.203	15268.09
796.535	15160.97
796.867	15134.31
797.198	15140.41
797.53	15107.87
797.862	15060.41
798.193	14948.32
798.525	14920.3
798.856	14924.14
799.188	14809.79
799.519	14719.85
799.85	14697.03
800.182	14734.77
800.513	14660.65
800.844	14545.62
801.175	14691.38
801.506	14580.65
801.837	14508.79
802.168	14482.12
802.499	14452.52
802.83	14348.56
803.161	14262.24
803.491	14303.14
803.822	14377.04
804.153	14159.42
804.483	14144.27
804.814	14104.5
805.145	14107.67
805.475	14142.69
805.805	13984.51
806.136	14093.65
806.466	13954
806.796	13970.72
807.126	13864.96
807.457	13723.27
807.787	13872.42
808.117	13804.17
808.447	13744.96
808.777	13860.21
809.107	13649.37
809.436	13631.52
809.766	13657.96
810.096	13596.94
810.426	13469.49
810.755	13483.05
811.085	13383.39
811.414	13406.22
811.744	13408.93
812.073	13365.76
812.403	13308.59
812.732	13312.66
813.061	13205.54
813.39	13176.84
813.719	13136.84
814.049	13249.38
814.378	13172.78
814.707	13045.55
815.036	13135.04
815.365	13053.68
815.693	12893.46
816.022	12939.56
816.351	12865.21
816.68	12858.66
817.008	12931.65
817.337	12815.72
817.665	12759.45
817.994	12801.71
818.322	12809.62
818.651	12698.66
818.979	12578.44
819.307	12588.38
819.636	12576.63
819.964	12576.63
820.292	12616.63
820.62	12507.26
820.948	12575.73
821.276	12579.8
821.604	12432.91
821.932	12540.48
822.259	12592.45
822.587	12464.32
822.915	12411.44
823.243	12553.36
823.57	12489.4
823.898	12494.83
824.225	12393.81
824.553	12478.78
824.88	12496.41
825.207	12505.45
825.535	12448.05
825.862	12522.17
826.189	12453.25
826.516	12577.76
826.843	12530.53
827.17	12509.74
827.497	12498.67
827.824	12516.3
828.151	12487.6
828.478	12423.19
828.805	12481.04
829.131	12504.77
829.458	12417.54
829.785	12411.44
830.111	12472.91
830.438	12479.69
830.764	12405.56
831.09	12480.14
831.417	12368.28
831.743	12401.95
832.069	12435.85
832.395	12414.83
832.722	12370.99
833.048	12348.84
833.374	12437.2
833.7	12347.03
834.026	12372.57
834.351	12390.87
834.677	12350.2
835.003	12385.68
835.329	12328.5
835.654	12241.73
835.98	12204.21
836.306	12252.57
836.631	12170.09
836.956	12178
837.282	12240.6
837.607	12090.54
837.932	12094.39
838.258	12164.44
838.583	12188.17
838.908	12009.42
839.233	12022.97
839.558	12051.45
839.883	12072.47
840.208	11939.14
840.533	11978.91
840.858	11972.35
841.182	11983.88
841.507	11918.34
841.832	11922.19
842.156	11911.79
842.481	11818.23
842.805	11724.23
843.13	11845.58
843.454	11767.16
843.778	11703.21
844.103	11702.98
844.427	11596.09
844.751	11667.28
845.075	11674.51
845.399	11582.99
845.723	11570.11
846.047	11502.76
846.371	11530.78
846.695	11434.29
847.019	11394.97
847.343	11269.77
847.666	11250.79
847.99	11280.17
848.313	11172.83
848.637	11082.43
848.96	11143.9
849.284	11084.47
849.607	10934.87
849.931	11009.67
850.254	10950.23
850.577	10917.47
850.9	10789.33
851.223	10755.89
851.546	10753.18
851.869	10667.76
852.192	10744.36
852.515	10685.16
852.838	10591.15
853.161	10636.8
853.483	10543.92
853.806	10472.96
854.129	10391.15
854.451	10395.67
854.774	10340.76
855.096	10280.65
855.419	10291.27
855.741	10276.81
856.063	10248.33
856.385	10165.62
856.708	10183.7
857.03	10099.41
857.352	10079.52
857.674	10058.96
857.996	10063.48
858.318	10026.64
858.64	9982.58
858.961	9915.01
859.283	9874.56
859.605	9824.39
859.926	9896.7
860.248	9885.18
860.57	9818.06
860.891	9812.64
861.212	9786.42
861.534	9782.58
861.855	9713.21
862.176	9747.55
862.498	9685.41
862.819	9743.94
863.14	9641.79
863.461	9651.51
863.782	9562.02
864.103	9636.82
864.424	9578.52
864.745	9637.5
865.065	9442.48
865.386	9543.04
865.707	9468.47
866.027	9571.74
866.348	9552.76
866.668	9467.56
866.989	9438.86
867.309	9378.75
867.63	9415.59
867.95	9365.87
868.27	9323.16
868.59	9393.21
868.91	9361.8
869.23	9336.94
869.55	9274.57
869.87	9338.3
870.19	9303.95
870.51	9312.54
870.83	9292.43
871.15	9225.76
871.469	9220.11
871.789	9176.5
872.109	9205.87
872.428	9197.96
872.748	9195.03
873.067	9145.76
873.386	9238.19
873.706	9164.74
874.025	9060.34
874.344	9087.01
874.663	9101.47
874.982	9065.99
875.301	9044.97
875.62	8994.58
875.939	8953.23
876.258	8999.55
876.577	9029.38
876.896	9012.88
877.214	8955.94
877.533	8942.83
877.852	8900.57
878.17	8930.17
878.489	8938.08
878.807	8856.73
879.125	8845.21
879.444	8848.37
879.762	8786.9
880.08	8809.95
880.398	8811.31
880.716	8798.2
881.034	8745.77
881.352	8767.24
881.67	8786
881.988	8737.86
882.306	8721.82
882.624	8724.76
882.941	8642.5
883.259	8619.9
883.577	8616.96
883.894	8629.17
884.212	8623.06
884.529	8579.68
884.846	8535.38
885.164	8512.56
885.481	8525.44
885.798	8531.09
886.115	8427.14
886.432	8466.68
886.75	8433.69
887.067	8478.21
887.383	8438.44
887.7	8418.55
888.017	8359.34
888.334	8322.51
888.651	8306.91
888.967	8304.88
889.284	8252.45
889.6	8246.58
889.917	8210.65
890.233	8200.48
890.55	8200.02
890.866	8190.99
891.182	8111.21
891.498	8115.51
891.815	8035.06
892.131	8071.21
892.447	8030.31
892.763	7959.58
893.079	7958
893.395	7948.51
893.71	7958.22
894.026	7972.91
894.342	7900.82
894.657	7886.81
894.973	7850.43
895.289	7815.4
895.604	7757.32
895.92	7768.4
896.235	7779.92
896.55	7634.16
896.865	7732.24
897.181	7648.4
897.496	7633.03
897.811	7561.4
898.126	7596.65
898.441	7527.73
898.756	7504.22
899.071	7488.18
899.386	7462.87
899.7	7412.47
900.015	7414.06
900.33	7325.7
900.644	7389.42
900.959	7352.82
901.273	7299.26
901.588	7302.2
901.902	7218.13
902.216	7265.13
902.531	7250.9
902.845	7141.07
903.159	7149.66
903.473	7095.87
903.787	7059.49
904.101	6995.76
904.415	7047.06
904.729	7037.34
905.042	7020.39
905.356	7020.17
905.67	6897.46
905.984	6982.2
906.297	6896.1
906.611	6864.69
906.924	6891.36
907.237	6812.04
907.551	6727.29
907.864	6763.68
908.177	6784.02
908.491	6738.14
908.804	6650.01
909.117	6671.48
909.43	6601.42
909.743	6577.47
910.056	6565.72
910.368	6528.88
910.681	6469.45
910.994	6482.56
911.307	6435.33
911.619	6422.22
911.932	6431.03
912.244	6432.39
912.557	6327.08
912.869	6353.29
913.181	6366.85
913.494	6262.9
913.806	6277.14
914.118	6255.44
914.43	6209.79
914.742	6209.12
915.054	6152.85
915.366	6184.03
915.678	6130.47
915.99	6103.58
916.302	6029.69
916.613	6030.14
916.925	6023.13
917.236	6017.93
917.548	5954.89
917.859	5924.6
918.171	5902.91
918.482	5890.93
918.794	5867.66
919.105	5871.5
919.416	5825.85
919.727	5790.37
920.038	5771.84
920.349	5728.45
920.66	5723.71
920.971	5676.7
921.282	5726.87
921.593	5638.28
921.903	5605.06
922.214	5623.14
922.525	5540.89
922.835	5579.75
923.146	5491.85
923.456	5557.61
923.767	5519.19
924.077	5450.49
924.387	5428.12
924.697	5417.05
925.008	5402.81
925.318	5361.23
925.628	5358.74
925.938	5385.64
926.248	5304.06
926.558	5283.72
926.867	5292.98
927.177	5217.5
927.487	5234.68
927.796	5174.57
928.106	5188.58
928.416	5166.66
928.725	5206.66
929.034	5118.52
929.344	5122.14
929.653	5118.3
929.962	5053.89
930.271	5022.48
930.581	5018.87
930.89	5006.44
931.199	4972.99
931.508	4956.49
931.817	4958.53
932.125	4953.78
932.434	4912.2
932.743	4873.33
933.051	4871.3
933.36	4816.38
933.669	4809.15
933.977	4821.58
934.286	4798.08
934.594	4785.2
934.902	4711.53
935.21	4748.36
935.519	4666.78
935.827	4688.48
936.135	4638.54
936.443	4598.31
936.751	4542.04
937.059	4580.68
937.367	4590.4
937.674	4559.22
937.982	4514.25
938.29	4516.73
938.597	4504.98
938.905	4446
939.213	4470.63
939.52	4422.04
939.827	4425.21
940.135	4397.41
940.442	4369.84
940.749	4368.03
941.056	4408.49
941.363	4335.49
941.67	4290.97
941.977	4256.85
942.284	4249.17
942.591	4248.72
942.898	4247.81
943.205	4262.05
943.511	4178.66
943.818	4211.65
944.125	4154.93
944.431	4157.87
944.738	4149.74
945.044	4114.03
945.35	4062.05
945.657	4058.44
945.963	4047.14
946.269	4005.33
946.575	4029.06
946.881	3992
947.187	4021.15
947.493	3975.95
947.799	3939.35
948.105	3935.05
948.41	3912.23
948.716	3898.22
949.022	3889.86
949.327	3877.43
949.633	3818.44
949.938	3825
950.244	3844.66
950.549	3813.02
950.854	3770.54
951.16	3772.34
951.465	3768.28
951.77	3710.2
952.075	3697.32
952.38	3698.22
952.685	3715.85
952.99	3712.91
953.294	3665.23
953.599	3605.12
953.904	3603.76
954.209	3593.59
954.513	3601.28
954.818	3590.43
955.122	3581.16
955.426	3549.07
955.731	3534.16
956.035	3546.36
956.339	3513.14
956.643	3506.81
956.948	3469.75
957.252	3488.96
957.556	3443.99
957.86	3443.77
958.163	3449.64
958.467	3382.98
958.771	3432.47
959.075	3395.86
959.378	3359.47
959.682	3379.81
959.985	3362.86
960.289	3345.69
960.592	3335.97
960.896	3298.91
961.199	3279.48
961.502	3279.93
961.805	3278.12
962.108	3230.21
962.411	3213.49
962.714	3225.01
963.017	3202.64
963.32	3198.57
963.623	3143.89
963.926	3190.89
964.228	3171.23
964.531	3119.03
964.833	3147.73
965.136	3092.59
965.438	3131.01
965.741	3076.32
966.043	3051.46
966.345	3052.59
966.648	3023.44
966.95	3051.69
967.252	3003.1
967.554	2984.34
967.856	2953.61
968.158	2988.64
968.46	2935.3
968.761	2914.51
969.063	2931.69
969.365	2944.57
969.666	2892.37
969.968	2919.49
970.269	2862.76
970.571	2867.06
970.872	2860.96
971.174	2834.97
971.475	2840.62
971.776	2838.58
972.077	2768.3
972.378	2797
972.679	2830.9
972.98	2798.58
973.281	2756.78
973.582	2738.93
973.883	2727.17
974.183	2716.33
974.484	2741.41
974.785	2712.03
975.085	2739.38
975.386	2704.58
975.686	2691.69
975.986	2660.74
976.287	2647.4
976.587	2614.41
976.887	2604.92
977.187	2626.16
977.487	2615.09
977.787	2574.41
978.087	2592.04
978.387	2566.27
978.687	2564.47
978.987	2533.28
979.286	2522.21
979.586	2527.63
979.885	2488.31
980.185	2481.3
980.484	2517.69
980.784	2507.97
981.083	2456.45
981.382	2459.16
981.682	2451.7
981.981	2438.82
982.28	2432.27
982.579	2416
982.878	2401.31
983.177	2415.09
983.475	2387.3
983.774	2391.14
984.073	2354.3
984.372	2338.94
984.67	2361.08
984.969	2354.98
985.267	2352.72
985.566	2300.29
985.864	2296.45
986.162	2292.84
986.461	2281.54
986.759	2297.81
987.057	2274.53
987.355	2263.01
987.653	2252.38
987.951	2211.48
988.249	2257.13
988.547	2183.69
988.844	2227.3
989.142	2197.24
989.44	2190.01
989.737	2145.27
990.035	2153.18
990.332	2159.05
990.63	2137.36
990.927	2136.68
991.224	2107.98
991.521	2157.7
991.819	2094.87
992.116	2092.61
992.413	2091.71
992.71	2086.29
993.006	2050.58
993.303	2061.65
993.6	2058.72
993.897	2038.6
994.193	2033.41
994.49	2011.71
994.787	2026.85
995.083	2012.39
995.379	2012.39
995.676	1981.43
995.972	2009.68
996.268	1961.09
996.565	1960.64
996.861	1959.28
997.157	1933.07
997.453	1909.57
997.749	1938.72
998.044	1912.96
998.34	1910.47
998.636	1909.34
998.932	1870.02
999.227	1852.85
999.523	1855.11
999.818	1857.59
1000.114	1854.65
1000.409	1806.07
1000.704	1808.78
1001	1813.07
1001.295	1815.33
1001.59	1804.71
1001.885	1791.61
1002.18	1769.01
1002.475	1771.04
1002.77	1774.88
1003.065	1765.17
1003.359	1739.18
1003.654	1725.84
1003.949	1718.16
1004.243	1728.78
1004.538	1687.65
1004.832	1680.65
1005.127	1689.69
1005.421	1681.55
1005.715	1673.19
1006.009	1676.13
1006.304	1661.89
1006.598	1662.57
1006.892	1666.86
1007.186	1626.41
1007.48	1605.62
1007.773	1618.95
1008.067	1570.82
1008.361	1602.68
1008.655	1574.21
1008.948	1603.14
1009.242	1536.02
1009.535	1548
1009.829	1548.9
1010.122	1529.01
1010.415	1492.18
1010.708	1513.87
1011.001	1510.48
1011.295	1490.82
1011.588	1498.73
1011.881	1492.86
1012.173	1479.75
1012.466	1481.33
1012.759	1473.87
1013.052	1478.85
1013.344	1438.62
1013.637	1468.45
1013.93	1456.47
1014.222	1434.78
1014.514	1402.69
1014.807	1405.63
1015.099	1395.01
1015.391	1397.04
1015.683	1399.75
1015.976	1351.62
1016.268	1366.53
1016.56	1408.34
1016.851	1357.27
1017.143	1333.31
1017.435	1329.02
1017.727	1340.32
1018.018	1317.04
1018.31	1322.24
1018.602	1309.81
1018.893	1303.93
1019.185	1322.69
1019.476	1304.61
1019.767	1308.45
1020.058	1310.94
1020.35	1259.64
1020.641	1232.07
1020.932	1250.6
1021.223	1219.42
1021.514	1230.49
1021.804	1211.28
1022.095	1227.33
1022.386	1199.76
1022.677	1215.8
1022.967	1183.94
1023.258	1179.64
1023.548	1185.97
1023.839	1179.19
1024.129	1165.18
1024.419	1171.73
1024.709	1159.08
1025	1152.98
1025.29	1120.66
1025.58	1124.73
1025.87	1120.44
1026.16	1102.13
1026.449	1095.8
1026.739	1113.21
1027.029	1108.91
1027.319	1085.64
1027.608	1071.85
1027.898	1098.74
1028.187	1066.43
1028.477	1050.83
1028.766	1075.47
1029.055	1034.79
1029.344	1061.46
1029.634	1033.66
1029.923	1055.58
1030.212	1017.84
1030.501	1015.35
1030.79	1024.17
1031.078	1014.68
1031.367	1005.41
1031.656	990.04
1031.945	977.84
1032.233	979.65
1032.522	976.03
1032.81	947.56
1033.099	952.98
1033.387	958.86
1033.675	964.51
1033.963	927.45
1034.251	949.14
1034.54	931.97
1034.828	913.89
1035.116	912.08
1035.403	915.92
1035.691	910.27
1035.979	928.8
1036.267	915.02
1036.554	923.38
1036.842	887.22
1037.129	870.5
1037.417	875.25
1037.704	874.79
1037.992	844.29
1038.279	847.9
1038.566	839.09
1038.853	839.09
1039.14	839.09
