Data from hue_30_FLMS001491_35.txt Node
Date: Mon Feb 06 15:05:11 GMT 2017
User: dcchb
Spectrometer: FLMS00149
Trigger mode: 0
Integration Time (sec): 2.000000E-2
Scans to average: 10
Electric dark correction enabled: true
Nonlinearity correction enabled: false
Boxcar width: 0
XAxis mode: Wavelengths
Number of Pixels in Spectrum: 2048
>>>>>Begin Spectral Data<<<<<
341.393	-35.65
341.776	-35.65
342.16	-35.65
342.543	-44.69
342.927	-71.35
343.31	-72.48
343.693	-64.8
344.077	-53.95
344.46	-73.61
344.843	-41.3
345.226	-41.3
345.61	-22.99
345.993	-20.96
346.376	-10.79
346.759	30.56
347.142	17.23
347.525	38.93
347.908	43.22
348.291	78.02
348.674	97.23
349.057	97
349.44	129.54
349.823	139.04
350.206	155.31
350.588	189.43
350.971	231.01
351.354	224.23
351.737	235.53
352.119	274.17
352.502	250.22
352.884	266.49
353.267	299.71
353.65	285.7
354.032	288.86
354.414	297.45
354.797	299.03
355.179	332.03
355.562	326.6
355.944	305.13
356.326	358.47
356.709	325.25
357.091	337.22
357.473	325.47
357.855	349.88
358.238	353.72
358.62	340.39
359.002	346.04
359.384	336.54
359.766	338.35
360.148	326.83
360.53	330.67
360.912	310.78
361.294	333.83
361.676	336.09
362.057	340.16
362.439	323.44
362.821	330.44
363.203	307.62
363.584	337.45
363.966	321.63
364.348	329.31
364.729	326.15
365.111	320.05
365.493	301.07
365.874	313.72
366.256	298.13
366.637	335.19
367.019	325.02
367.4	328.41
367.781	327.28
368.163	318.01
368.544	326.15
368.925	327.28
369.306	332.25
369.688	327.05
370.069	306.04
370.45	336.32
370.831	323.66
371.212	317.56
371.593	303.78
371.974	308.3
372.355	327.51
372.736	281.18
373.117	324.12
373.498	314.85
373.879	307.17
374.26	319.82
374.641	302.2
375.021	321.18
375.402	302.87
375.783	320.05
376.163	318.01
376.544	329.31
376.925	316.88
377.305	334.51
377.686	330.67
378.066	299.26
378.447	335.41
378.827	348.52
379.208	336.09
379.588	340.16
379.968	338.58
380.349	334.51
380.729	326.38
381.109	328.64
381.489	325.47
381.87	325.92
382.25	328.86
382.63	334.28
383.01	345.36
383.39	321.4
383.77	353.27
384.15	348.75
384.53	354.4
384.91	339.26
385.29	343.55
385.67	351.91
386.049	339.93
386.429	341.29
386.809	359.82
387.189	346.49
387.568	334.28
387.948	346.94
388.328	359.37
388.707	351.91
389.087	357.79
389.466	349.88
389.846	350.78
390.225	340.39
390.605	370.44
390.984	340.16
391.363	348.07
391.743	380.84
392.122	368.41
392.501	386.71
392.881	362.98
393.26	358.47
393.639	365.47
394.018	356.88
394.397	360.5
394.776	351.23
395.155	366.37
395.534	385.36
395.913	357.79
396.292	372.25
396.671	390.78
397.05	377.45
397.429	396.43
397.808	355.75
398.186	370.44
398.565	386.26
398.944	374.96
399.323	379.48
399.701	394.17
400.08	383.32
400.458	377.22
400.837	372.7
401.215	388.97
401.594	399.14
401.972	390.1
402.351	404.34
402.729	373.61
403.107	394.85
403.486	400.5
403.864	400.05
404.242	398.92
404.62	414.06
404.999	412.7
405.377	399.37
405.755	370.44
406.133	401.18
406.511	412.48
406.889	417.45
407.267	409.76
407.645	391.01
408.023	390.33
408.401	434.17
408.779	404.57
409.156	427.84
409.534	440.04
409.912	442.3
410.29	439.59
410.667	429.42
411.045	430.55
411.422	442.76
411.8	437.79
412.178	435.07
412.555	452.93
412.933	434.85
413.31	443.89
413.687	465.58
414.065	460.84
414.442	441.4
414.819	463.77
415.197	450.67
415.574	468.74
415.951	464.9
416.328	474.17
416.705	459.25
417.082	472.81
417.46	502.64
417.837	498.57
418.214	481.63
418.591	494.51
418.967	488.41
419.344	471
419.721	503.55
420.098	497.9
420.475	508.52
420.852	489.76
421.228	493.83
421.605	490.21
421.982	511.68
422.358	511
422.735	512.36
423.111	527.05
423.488	520.95
423.864	541.74
424.241	507.39
424.617	536.54
424.994	527.05
425.37	533.6
425.746	524.79
426.123	532.02
426.499	545.35
426.875	565.92
427.251	552.58
427.627	542.19
428.003	567.27
428.379	565.92
428.756	566.37
429.132	560.72
429.507	575.86
429.883	567.95
430.259	581.51
430.635	567.73
431.011	604.79
431.387	605.69
431.763	602.98
432.138	615.63
432.514	622.19
432.89	613.15
433.265	620.38
433.641	633.26
434.016	627.38
434.392	624.67
434.767	616.99
435.143	635.07
435.518	644.79
435.894	643.66
436.269	667.61
436.644	662.41
437.02	652.92
437.395	666.03
437.77	674.84
438.145	681.85
438.52	682.07
438.895	674.84
439.271	652.02
439.646	673.71
440.021	699.7
440.395	703.77
440.77	711.22
441.145	706.25
441.52	716.2
441.895	714.84
442.27	700.38
442.645	732.92
443.019	732.69
443.394	721.85
443.769	732.01
444.143	720.49
444.518	741.28
444.892	751.22
445.267	739.7
445.641	777.21
446.016	767.72
446.39	743.09
446.764	783.09
447.139	764.33
447.513	757.55
447.887	763.2
448.262	780.6
448.636	788.06
449.01	803.2
449.384	781.73
449.758	798.91
450.132	782.86
450.506	801.39
450.88	796.42
451.254	834.16
451.628	804.33
452.002	832.58
452.376	835.74
452.75	838
453.123	856.76
453.497	852.69
453.871	858.56
454.244	853.14
454.618	877.1
454.992	893.59
455.365	882.07
455.739	905.8
456.112	894.04
456.486	899.47
456.859	937.21
457.232	915.51
457.606	931.78
457.979	946.47
458.352	937.88
458.725	966.13
459.099	959.35
459.472	986.02
459.845	967.04
460.218	991.67
460.591	1019.46
460.964	1026.24
461.337	1030.31
461.71	1028.05
462.083	1027.15
462.456	1063.08
462.829	1071.67
463.201	1080.03
463.574	1063.08
463.947	1102.17
464.32	1094.27
464.692	1143.3
465.065	1113.47
465.438	1160.93
465.81	1142.85
466.183	1153.7
466.555	1196.64
466.928	1203.64
467.3	1196.18
467.672	1225.56
468.045	1250.19
468.417	1279.8
468.789	1266.92
469.161	1300.81
469.534	1319.57
469.906	1324.32
470.278	1331.55
470.65	1343.52
471.022	1370.64
471.394	1388.95
471.766	1394.37
472.138	1421.26
472.51	1480.02
472.882	1493.58
473.253	1492.9
473.625	1499.9
473.997	1581.48
474.369	1577.87
474.74	1576.96
475.112	1611.09
475.484	1660.58
475.855	1674.59
476.227	1748.71
476.598	1736.96
476.97	1757.98
477.341	1796.62
477.713	1848.6
478.084	1875.26
478.455	1887.46
478.827	1925.88
479.198	1977.18
479.569	2034.81
479.94	2079.78
480.311	2055.14
480.682	2151.19
481.053	2171.52
481.424	2252.43
481.795	2263.5
482.166	2298.53
482.537	2336.27
482.908	2416.49
483.279	2459.43
483.65	2494.45
484.021	2589.37
484.391	2600.89
484.762	2588.91
485.133	2692.64
485.503	2750.72
485.874	2800.89
486.244	2814.22
486.615	2889.47
486.985	2935.57
487.356	2989.13
487.726	3028.68
488.097	3125.62
488.467	3119.75
488.837	3237.26
489.207	3318.39
489.578	3344.83
489.948	3394.54
490.318	3439.97
490.688	3487.65
491.058	3505.28
491.428	3613.52
491.798	3675.44
492.168	3677.47
492.538	3811.48
492.908	3799.28
493.278	3888.09
493.648	3934.19
494.017	4008.54
494.387	4033.85
494.757	4059.16
495.126	4162.21
495.496	4173.51
495.866	4220.51
496.235	4272.71
496.605	4365.59
496.974	4374.86
497.344	4444.46
497.713	4446.95
498.082	4523.33
498.452	4530.56
498.821	4573.04
499.19	4610.56
499.559	4715.41
499.928	4690.33
500.298	4818.46
500.667	4844.67
501.036	4816.65
501.405	4863.21
501.774	4889.19
502.143	4944.11
502.512	4984.56
502.88	5027.95
503.249	5056.65
503.618	5080.15
503.987	5118.11
504.356	5121.96
504.724	5164.67
505.093	5185.68
505.462	5231.56
505.83	5249.18
506.199	5296.87
506.567	5380.48
506.936	5410.99
507.304	5486.01
507.672	5471.55
508.041	5447.82
508.409	5537.09
508.777	5592.23
509.145	5633.13
509.514	5650.98
509.882	5709.06
510.25	5693.47
510.618	5720.81
510.986	5799.23
511.354	5814.59
511.722	5846.91
512.09	5883.07
512.458	5894.36
512.826	5927.58
513.193	5935.49
513.561	5981.59
513.929	5985.89
514.297	6080.8
514.664	6091.42
515.032	6095.26
515.4	6081.48
515.767	6194.92
516.135	6177.3
516.502	6177.07
516.869	6366.89
517.237	6270.63
517.604	6209.61
517.972	6325.09
518.339	6360.34
518.706	6389.72
519.073	6415.93
519.44	6420.23
519.808	6470.39
520.175	6458.42
520.542	6571.41
520.909	6606.66
521.276	6607.34
521.643	6734.34
522.009	6727.11
522.376	6762.59
522.743	6793.1
523.11	6816.15
523.477	6812.76
523.843	6847.33
524.21	6915.81
524.577	6962.36
524.943	7015.69
525.31	7000.32
525.676	7140.66
526.043	7150.38
526.409	7149.47
526.776	7238.96
527.142	7192.18
527.508	7296.81
527.874	7279.64
528.241	7327.32
528.607	7360.09
528.973	7430.14
529.339	7380.88
529.705	7532.74
530.071	7580.2
530.437	7558.95
530.803	7659.06
531.169	7689.35
531.535	7651.38
531.901	7722.79
532.267	7760.98
532.632	7803.69
532.998	7811.15
533.364	7841.66
533.73	7883.01
534.095	7964.59
534.461	7975.44
534.826	8071.03
535.192	8080.52
535.557	8100.63
535.923	8126.4
536.288	8210.46
536.653	8151.71
537.019	8158.49
537.384	8217.02
537.749	8221.76
538.114	8243.46
538.479	8244.36
538.845	8322.78
539.21	8399.61
539.575	8378.37
539.94	8385.82
540.305	8464.69
540.67	8463.11
541.034	8549.66
541.399	8645.03
541.764	8583.11
542.129	8656.78
542.494	8654.74
542.858	8748.3
543.223	8659.04
543.587	8781.75
543.952	8847.51
544.316	8864.23
544.681	8839.6
545.045	8912.82
545.41	8939.71
545.774	9002.31
546.138	8941.74
546.503	8999.37
546.867	9014.73
547.231	9125.47
547.595	9105.13
547.959	9129.08
548.324	9094.96
548.688	9266.48
549.052	9302.18
549.416	9279.81
549.779	9314.84
550.143	9325.01
550.507	9379.47
550.871	9471.67
551.235	9419.47
551.599	9452.46
551.962	9472.12
552.326	9552.35
552.689	9614.27
553.053	9643.87
553.417	9587.6
553.78	9715.06
554.143	9689.29
554.507	9723.64
554.87	9763.19
555.234	9873.47
555.597	9798.22
555.96	9830.31
556.323	9893.36
556.686	9914.37
557.05	9958.66
557.413	9961.38
557.776	10007.93
558.139	10083.18
558.502	10082.73
558.865	10079.34
559.228	10099.68
559.59	10227.81
559.953	10198.21
560.316	10293.57
560.679	10214.03
561.041	10339.22
561.404	10364.53
561.767	10417.41
562.129	10413.57
562.492	10538.54
562.854	10451.53
563.217	10531.53
563.579	10562.49
563.941	10546.9
564.304	10620.79
564.666	10686.78
565.028	10753.22
565.39	10783.73
565.753	10782.15
566.115	10895.36
566.477	10896.27
566.839	10917.28
567.201	11020.56
567.563	10924.97
567.925	11096.71
568.287	11005.87
568.648	11158.41
569.01	11149.59
569.372	11200.21
569.734	11189.37
570.095	11270.95
570.457	11281.57
570.819	11279.08
571.18	11381.9
571.542	11474.56
571.903	11477.27
572.265	11555.68
572.626	11610.15
572.987	11637.94
573.349	11745.96
573.71	11771.5
574.071	11773.08
574.432	11847.88
574.794	12018.72
575.155	11957.71
575.516	12138.72
575.877	12131.26
576.238	12247.64
576.599	12340.3
576.96	12357.25
577.32	12476.11
577.681	12559.5
578.042	12771.92
578.403	12751.81
578.763	12808.99
579.124	12900.28
579.485	13091.24
579.845	13227.96
580.206	13313.38
580.566	13360.61
580.927	13533.49
581.287	13664.33
581.648	13735.74
582.008	13865.91
582.368	14079.91
582.728	14275.84
583.089	14280.58
583.449	14470.86
583.809	14685.77
584.169	14895.71
584.529	15065.42
584.889	15234.46
585.249	15383.83
585.609	15421.57
585.969	15871.05
586.329	16002.8
586.688	16098.62
587.048	16356.69
587.408	16445.73
587.768	16777.02
588.127	16899.95
588.487	17153.96
588.846	17495.19
589.206	17564.57
589.565	17863.99
589.925	18107.83
590.284	18294.04
590.643	18489.51
591.003	18774.48
591.362	19063.51
591.721	19289.04
592.08	19535.36
592.44	19825.3
592.799	20078.17
593.158	20362.91
593.517	20566.75
593.876	20844.93
594.235	21024.81
594.593	21288.99
594.952	21578.47
595.311	21738.69
595.67	22078.12
596.029	22415.29
596.387	22600.59
596.746	22885.33
597.104	23018.89
597.463	23364.87
597.822	23638.08
598.18	23823.61
598.538	23956.49
598.897	24318.51
599.255	24372.97
599.613	24923.24
599.972	24984.03
600.33	25222.22
600.688	25386.06
601.046	25746.27
601.404	26041.63
601.762	26160.05
602.12	26657.66
602.478	26805.23
602.836	26966.13
603.194	27073.47
603.552	27386.91
603.91	27440.01
604.268	27817.63
604.625	27879.1
604.983	28227.79
605.341	28195.93
605.698	28589.36
606.056	28914.32
606.413	29001.78
606.771	29211.27
607.128	29397.48
607.485	29473.63
607.843	29654.64
608.2	30023.67
608.557	30215.31
608.914	30278.36
609.272	30661.85
609.629	30772.35
609.986	31095.06
610.343	30998.34
610.7	31397.42
611.057	31510.19
611.414	31729.39
611.771	31688.04
612.127	32059.1
612.484	32113.56
612.841	32323.27
613.198	32319.66
613.554	32417.51
613.911	32882.81
614.267	32801
614.624	32929.81
614.98	33116.93
615.337	33384.04
615.693	33464.04
616.05	33464.26
616.406	33857.25
616.762	33733.41
617.118	33892.5
617.475	33986.73
617.831	34148.31
618.187	34236.22
618.543	34276.67
618.899	34683.66
619.255	34774.96
619.611	34773.83
619.967	34820.61
620.323	35055.86
620.678	34903.77
621.034	35015.41
621.39	35050.21
621.746	35041.4
622.101	35690.42
622.457	35226.02
622.812	35470.31
623.168	35665.56
623.523	35827.82
623.879	35788.72
624.234	35856.29
624.589	35885.67
624.945	35894.93
625.3	36103.29
625.655	36163.17
626.01	36209.5
626.365	36204.53
626.72	36255.6
627.075	36335.82
627.43	36461.92
627.785	36357.52
628.14	36403.39
628.495	36521.81
628.85	36568.59
629.205	36548.47
629.559	36718.41
629.914	36572.43
630.269	36724.06
630.623	36536.95
630.978	36587.57
631.332	36664.63
631.687	36792.54
632.041	36653.56
632.396	36670.73
632.75	36580.79
633.104	36618.08
633.459	36583.05
633.813	36564.52
634.167	36652.2
634.521	36636.16
634.875	36710.73
635.229	36522.26
635.583	36536.72
635.937	36553.9
636.291	36583.73
636.645	36578.08
636.999	36680.22
637.352	36733.1
637.706	36371.3
638.06	36654.69
638.413	36504.18
638.767	36539.89
639.121	36608.13
639.474	36341.93
639.828	36454.24
640.181	36500.57
640.534	36626.21
640.888	36488.36
641.241	36300.57
641.594	36463.73
641.947	36561.13
642.301	36464.86
642.654	36444.52
643.007	36465.31
643.36	36431.19
643.713	36307.8
644.066	36582.15
644.419	36379.89
644.771	36072.1
645.124	35620.14
645.477	35685.22
645.83	35439.35
646.182	35425.34
646.535	35226.25
646.888	35341.95
647.24	35060.83
647.593	35309.64
647.945	35197.32
648.298	35061.28
648.65	35096.76
649.002	34950.78
649.355	35094.5
649.707	35120.04
650.059	35310.09
650.411	35746.24
650.763	35766.35
651.115	36068.94
651.467	35940.13
651.819	36050.86
652.171	35879.57
652.523	35905.78
652.875	35924.76
653.227	35670.08
653.578	35934.93
653.93	35680.02
654.282	35624.66
654.633	35752.11
654.985	35701.04
655.337	35733.13
655.688	35781.71
656.039	35869.85
656.391	35552.57
656.742	35553.7
657.094	35641.83
657.445	35670.31
657.796	35536.75
658.147	35590.53
658.498	35519.57
658.849	35579.23
659.2	35513.25
659.551	35544.66
659.902	35622.62
660.253	35545.79
660.604	35600.48
660.955	35358.45
661.306	35579.46
661.656	35465.56
662.007	35477.77
662.358	35456.98
662.708	35567.26
663.059	35372.69
663.409	35232.35
663.76	35452.91
664.11	35575.39
664.461	35530.2
664.811	35588.5
665.161	35507.15
665.511	35409.07
665.862	35442.06
666.212	35505.79
666.562	35613.13
666.912	35484.77
667.262	35449.29
667.612	35505.11
667.962	35455.85
668.312	35306.92
668.662	35536.07
669.011	35420.37
669.361	35276.19
669.711	35400.71
670.06	35324.78
670.41	35203.65
670.76	35257.66
671.109	35392.57
671.459	35294.5
671.808	35188.96
672.157	35419.24
672.507	35088.4
672.856	35088.4
673.205	35186.48
673.554	35230.32
673.904	35252.01
674.253	35244.55
674.602	35174.95
674.951	34660.39
675.3	34561.41
675.649	35047.27
675.998	34959.59
676.346	35066.48
676.695	35145.57
677.044	34826.26
677.393	34878.91
677.741	34995.97
678.09	34839.59
678.438	34756.88
678.787	34866.48
679.135	34915.75
679.484	34757.56
679.832	34793.27
680.181	34565.48
680.529	34617.23
680.877	34580.39
681.225	34527.06
681.573	34727.73
681.922	34448.64
682.27	34491.13
682.618	34398.25
682.966	34292.71
683.314	34348.31
683.661	34278.48
684.009	34246.61
684.357	34127.29
684.705	33944.02
685.053	34053.85
685.4	33907.87
685.748	33848.88
686.095	33775.44
686.443	33779.28
686.79	33774.76
687.138	33719.62
687.485	33652.5
687.832	33739.73
688.18	33759.85
688.527	33491.15
688.874	33463.13
689.221	33331.38
689.568	33295.23
689.915	33335.9
690.262	33172.07
690.609	33130.94
690.956	32982.24
691.303	32941.11
691.65	32856.59
691.997	32835.35
692.344	32694.34
692.69	32578.41
693.037	32666.09
693.383	32328.02
693.73	32542.93
694.077	32341.13
694.423	32362.14
694.769	32099.33
695.116	32157.63
695.462	32117.4
695.808	31995.6
696.155	32017.29
696.501	31864.98
696.847	31831.08
697.193	31552
697.539	31693.01
697.885	31438.1
698.231	31265.45
698.577	31272.68
698.923	31177.99
699.269	31158.11
699.614	31048.28
699.96	30924.44
700.306	30935.51
700.651	30949.07
700.997	30814.84
701.342	30648.97
701.688	30697.55
702.033	30511.12
702.379	30522.42
702.724	30387.96
703.069	30532.36
703.415	30168.53
703.76	30234.06
704.105	30175.31
704.45	30074.75
704.795	29950.68
705.14	29849.89
705.485	29907.74
705.83	29708.2
706.175	29735.77
706.52	29594.98
706.865	29555.66
707.209	29477.47
707.554	29419.85
707.899	29433.18
708.243	29367.65
708.588	29241.1
708.932	29119.29
709.277	28969.92
709.621	29022.12
709.966	28845.4
710.31	28985.96
710.654	28746.42
710.998	28796.14
711.342	28793.65
711.687	28664.61
712.031	28518.4
712.375	28441.79
712.719	28447.67
713.063	28507.56
713.407	28412.64
713.75	28314.11
714.094	28271.4
714.438	28139.66
714.782	28323.15
715.125	28020.34
715.469	28163.84
715.812	27954.12
716.156	27913.22
716.499	27817.86
716.843	27879.1
717.186	27772.21
717.53	27847.46
717.873	27876.61
718.216	27751.19
718.559	27603.4
718.902	27491.54
719.246	27436.62
719.589	27397.08
719.932	27333.35
720.275	27362.95
720.617	27278.44
720.96	27152.11
721.303	27265.55
721.646	27280.02
721.989	27044.32
722.331	27102.62
722.674	27111.89
723.016	27076.63
723.359	26996.63
723.701	27013.58
724.044	26785.11
724.386	26662.86
724.729	26789.41
725.071	26749.41
725.413	26743.99
725.755	26673.48
726.097	26554.39
726.439	26339.25
726.782	26468.97
727.124	26504.9
727.465	26365.01
727.807	26463.99
728.149	26328.63
728.491	26229.88
728.833	26292.47
729.175	26112.59
729.516	26163.66
729.858	26255.86
730.199	26131.8
730.541	26048.86
730.882	25960.73
731.224	26117.11
731.565	25851.13
731.906	25906.04
732.248	25885.93
732.589	25873.73
732.93	25774.07
733.271	25781.75
733.612	25844.12
733.953	25804.8
734.294	25666.95
734.635	25657.01
734.976	25610.23
735.317	25599.38
735.658	25536.56
735.999	25458.82
736.339	25399.39
736.68	25531.59
737.021	25340.63
737.361	25323.23
737.702	25410.24
738.042	25276.23
738.383	25405.94
738.723	25290.92
739.063	25117.36
739.404	25233.74
739.744	25120.07
740.084	24928.21
740.424	24990.13
740.764	25026.52
741.104	25034.2
741.444	24873.98
741.784	24869.46
742.124	24884.83
742.464	24865.17
742.804	24772.51
743.143	24678.5
743.483	24747.88
743.823	24613.42
744.162	24606.42
744.502	24687.99
744.841	24596.7
745.181	24638.73
745.52	24510.82
745.86	24545.4
746.199	24459.53
746.538	24466.53
746.877	24503.82
747.216	24490.71
747.556	24399.64
747.895	24553.54
748.234	24259.76
748.573	24263.15
748.911	24248.01
749.25	24282.13
749.589	24176.82
749.928	24106.32
750.267	24105.41
750.605	23996.94
750.944	24062.93
751.283	23939.77
751.621	24068.8
751.96	23828.81
752.298	23866.1
752.636	23845.53
752.975	23651.86
753.313	23638.08
753.651	23708.59
753.989	23580
754.327	23664.07
754.666	23471.08
755.004	23531.19
755.342	23654.58
755.679	23537.06
756.017	23364.87
756.355	23392.89
756.693	23313.57
757.031	23411.42
757.368	23246.22
757.706	23217.07
758.044	23113.12
758.381	23124.42
758.719	23069.96
759.056	22941.83
759.394	23029.96
759.731	22841.94
760.068	22842.85
760.405	22679.91
760.743	22707.93
761.08	22808.95
761.417	22619.57
761.754	22561.5
762.091	22535.74
762.428	22509.3
762.765	22236.31
763.102	22405.34
763.438	22249.87
763.775	22174.84
764.112	22140.72
764.449	22208.29
764.785	22074.73
765.122	21862.76
765.458	21807.84
765.795	21832.48
766.131	21769.65
766.467	21686.27
766.804	21574.18
767.14	21456.44
767.476	21587.74
767.812	21284.24
768.148	21421.64
768.485	21186.39
768.821	21230.01
769.157	21111.37
769.492	21091.25
769.828	21041.31
770.164	20794.31
770.5	20822.33
770.836	20727.65
771.171	20656.69
771.507	20612.62
771.842	20498.05
772.178	20544.38
772.513	20419.41
772.849	20360.65
773.184	20243.59
773.519	20302.8
773.855	20111.17
774.19	20152.52
774.525	20152.75
774.86	19956.59
775.195	19948.68
775.53	19983.71
775.865	19774.9
776.2	19713.44
776.535	19592.54
776.87	19556.83
777.205	19442.94
777.539	19419.43
777.874	19449.04
778.209	19269.61
778.543	19208.82
778.878	19078.88
779.212	19049.95
779.547	19021.7
779.881	19062.38
780.215	18853.35
780.55	18830.97
780.884	18835.27
781.218	18717.76
781.552	18724.31
781.886	18617.87
782.22	18491.32
782.554	18424.88
782.888	18302.4
783.222	18275.73
783.556	18109.18
783.889	18068.06
784.223	18031.9
784.557	17947.38
784.89	17849.08
785.224	17747.16
785.557	17733.6
785.891	17694.96
786.224	17563.44
786.558	17627.62
786.891	17476.66
787.224	17476.43
787.557	17422.42
787.891	17347.85
788.224	17296.55
788.557	17282.77
788.89	17196.89
789.223	17148.98
789.556	17090.23
789.888	16969.33
790.221	16965.03
790.554	16764.36
790.887	16859.95
791.219	16793.06
791.552	16702.22
791.884	16611.6
792.217	16694.98
792.549	16527.08
792.882	16446.63
793.214	16389.23
793.546	16330.25
793.879	16330.7
794.211	16223.81
794.543	16241.21
794.875	16204.38
795.207	16162.34
795.539	16067.88
795.871	16015.91
796.203	16000.99
796.535	15823.14
796.867	15860.88
797.198	15737.72
797.53	15775.91
797.862	15579.76
798.193	15785.86
798.525	15644.16
798.856	15570.04
799.188	15377.96
799.519	15495.24
799.85	15232.42
800.182	15337.96
800.513	15389.26
800.844	15218.41
801.175	15290.28
801.506	15210.96
801.837	15082.15
802.168	15087.8
802.499	15005.76
802.83	14945.43
803.161	14839.89
803.491	14895.48
803.822	14890.29
804.153	14740.91
804.483	14726.67
804.814	14643.06
805.145	14655.04
805.475	14644.42
805.805	14581.59
806.136	14549.05
806.466	14511.09
806.796	14476.74
807.126	14328.27
807.457	14414.82
807.787	14283.3
808.117	14225.67
808.447	14226.8
808.777	14164.43
809.107	14150.42
809.436	14153.36
809.766	14182.73
810.096	14041.04
810.426	13970.08
810.755	14010.54
811.085	13981.61
811.414	13921.5
811.744	13847.15
812.073	13767.38
812.403	13836.53
812.732	13797.66
813.061	13677.44
813.39	13681.28
813.719	13587.95
814.049	13742.97
814.378	13642.86
814.707	13546.37
815.036	13497.55
815.365	13443.32
815.693	13407.16
816.022	13424.34
816.351	13300.72
816.68	13259.14
817.008	13399.7
817.337	13194.29
817.665	13065.25
817.994	13187.96
818.322	13150.22
818.651	13133.04
818.979	13052.59
819.307	13054.18
819.636	13012.6
819.964	12983.44
820.292	13045.59
820.62	12989.77
820.948	12928.53
821.276	12926.72
821.604	12917.23
821.932	12940.73
822.259	13032.03
822.587	12930.11
822.915	12902.77
823.243	12886.5
823.57	12875.88
823.898	12954.07
824.225	12857.8
824.553	12809.89
824.88	12838.14
825.207	12832.49
825.535	12821.19
825.862	12840.85
826.189	12854.63
826.516	12808.53
826.843	12940.51
827.17	12854.41
827.497	12886.95
827.824	12863.22
828.151	12834.75
828.478	12855.31
828.805	12882.66
829.131	12818.25
829.458	12899.15
829.785	12796.33
830.111	12744.58
830.438	12859.38
830.764	12769.89
831.09	12763.34
831.417	12672.49
831.743	12798.82
832.069	12794.07
832.395	12722.43
832.722	12811.02
833.048	12675.43
833.374	12778.03
833.7	12642.44
834.026	12688.31
834.351	12759.72
834.677	12663.45
835.003	12741.42
835.329	12722.21
835.654	12699.84
835.98	12646.5
836.306	12584.81
836.631	12516.34
836.956	12572.38
837.282	12623.91
837.607	12486.96
837.932	12455.1
838.258	12467.75
838.583	12488.54
838.908	12412.84
839.233	12370.8
839.558	12395.89
839.883	12329.68
840.208	12339.85
840.533	12220.3
840.858	12352.27
841.182	12294.65
841.507	12265.27
841.832	12269.34
842.156	12130.13
842.481	12150.7
842.805	12164.48
843.13	12056.24
843.454	12075.67
843.778	11997.48
844.103	12069.34
844.427	11988.67
844.751	12053.52
845.075	12001.77
845.399	11918.61
845.723	11845.85
846.047	11900.08
846.371	11767.2
846.695	11823.02
847.019	11654.89
847.343	11638.85
847.666	11628
847.99	11524.27
848.313	11489.47
848.637	11436.37
848.96	11405.18
849.284	11437.04
849.607	11391.17
849.931	11244.96
850.254	11314.34
850.577	11205.64
850.9	11082.93
851.223	11095.36
851.546	11036.38
851.869	10929.03
852.192	10995.25
852.515	10847.23
852.838	10865.53
853.161	10840.45
853.483	10853.56
853.806	10680.68
854.129	10694.24
854.451	10655.14
854.774	10625.99
855.096	10633
855.419	10515.26
855.741	10568.37
856.063	10527.46
856.385	10454.92
856.708	10458.09
857.03	10370.63
857.352	10422.61
857.674	10308.26
857.996	10280.24
858.318	10229.17
858.64	10283.85
858.961	10262.61
859.283	10164.53
859.605	10164.53
859.926	10179.45
860.248	10108.49
860.57	10139.45
860.891	10007.03
861.212	10019
861.534	10033.69
861.855	10068.04
862.176	10025.33
862.498	9935.39
862.819	9992.79
863.14	9859.46
863.461	9959.34
863.782	9853.36
864.103	9882.73
864.424	9821.95
864.745	9924.09
865.065	9797.31
865.386	9710.99
865.707	9715.51
866.027	9780.14
866.348	9705.56
866.668	9758.44
866.989	9681.61
867.309	9678.9
867.63	9648.84
867.95	9666.92
868.27	9659.92
868.59	9636.87
868.91	9595.28
869.23	9518.45
869.55	9433.25
869.87	9571.1
870.19	9560.03
870.51	9514.38
870.83	9519.58
871.15	9452.24
871.469	9478.68
871.789	9513.7
872.109	9527.49
872.428	9439.13
872.748	9501.95
873.067	9409.53
873.386	9470.54
873.706	9420.83
874.025	9346.25
874.344	9335.4
874.663	9320.26
874.982	9339.25
875.301	9304.67
875.62	9257.89
875.939	9233.49
876.258	9266.71
876.577	9254.73
876.896	9234.39
877.214	9153.71
877.533	9182.41
877.852	9184
878.17	9244.79
878.489	9220.61
878.807	9160.49
879.125	9134.51
879.444	9049.08
879.762	9066.03
880.08	9057.9
880.398	9021.97
880.716	9028.29
881.034	8944
881.352	8973.38
881.67	8945.13
881.988	8967.73
882.306	8927.28
882.624	8905.13
882.941	8934.06
883.259	8843.21
883.577	8844.57
883.894	8826.04
884.212	8819.71
884.529	8801.18
884.846	8821.29
885.164	8733.16
885.481	8732.71
885.798	8729.77
886.115	8662.88
886.432	8677.57
886.75	8652.03
887.067	8608.87
887.383	8579.72
887.7	8611.13
888.017	8581.07
888.334	8528.42
888.651	8579.72
888.967	8523.45
889.284	8444.58
889.6	8430.8
889.917	8362.55
890.233	8382.66
890.55	8384.02
890.866	8382.21
891.182	8341.53
891.498	8271.03
891.815	8262.66
892.131	8285.26
892.447	8265.83
892.763	8223.8
893.079	8152.38
893.395	8205.49
893.71	8191.93
894.026	8092.27
894.342	8113.06
894.657	8043.91
894.973	8023.57
895.289	8061.09
895.604	8038.49
895.92	8011.37
896.235	7931.37
896.55	7948.55
896.865	7924.82
897.181	7908.1
897.496	7831.49
897.811	7812.96
898.126	7793.3
898.441	7734.09
898.756	7770.47
899.071	7712.17
899.386	7718.95
899.7	7628.78
900.015	7622.45
900.33	7610.48
900.644	7536.81
900.959	7604.83
901.273	7502.46
901.588	7532.74
901.902	7424.95
902.216	7398.73
902.531	7432.63
902.845	7431.27
903.159	7320.09
903.473	7286.19
903.787	7275.57
904.101	7277.38
904.415	7263.59
904.729	7265.18
905.042	7172.75
905.356	7114.67
905.67	7113.54
905.984	7132.3
906.297	7105.63
906.611	7036.48
906.924	6985.41
907.237	7038.97
907.551	7011.17
907.864	6956.71
908.177	6992.42
908.491	6969.82
908.804	6839.65
909.117	6802.82
909.43	6864.28
909.743	6791.29
910.056	6767.79
910.368	6710.39
910.681	6707.9
910.994	6685.3
911.307	6620
911.619	6629.03
911.932	6627.45
912.244	6568.7
912.557	6561.92
912.869	6567.34
913.181	6582.93
913.494	6463.84
913.806	6412.54
914.118	6414.58
914.43	6361.47
914.742	6360.34
915.054	6335.26
915.366	6324.18
915.678	6262.49
915.99	6224.3
916.302	6184.07
916.613	6163.96
916.925	6162.83
917.236	6137.52
917.548	6110.4
917.859	6131.19
918.171	6051.42
918.482	6029.95
918.794	6000.35
919.105	6033.57
919.416	5966.23
919.727	5951.09
920.038	5921.93
920.349	5869.73
920.66	5850.07
920.971	5830.19
921.282	5868.15
921.593	5764.65
921.903	5762.84
922.214	5745.22
922.525	5745.67
922.835	5715.84
923.146	5690.3
923.456	5692.56
923.767	5656.4
924.077	5631.55
924.387	5554.94
924.697	5535.73
925.008	5570.76
925.318	5495.96
925.628	5498.44
925.938	5516.52
926.248	5448.5
926.558	5416.86
926.867	5396.52
927.177	5371.44
927.487	5389.52
927.796	5314.27
928.106	5301.39
928.416	5288.51
928.725	5271.78
929.034	5220.26
929.344	5274.49
929.653	5223.87
929.962	5215.06
930.271	5154.5
930.581	5107.49
930.89	5106.36
931.199	5083.54
931.508	5124.44
931.817	5075.86
932.125	5064.1
932.434	5030.21
932.743	4966.71
933.051	4979.36
933.36	4915.86
933.669	4899.14
933.977	4906.37
934.286	4893.26
934.594	4873.6
934.902	4880.83
935.21	4858.01
935.519	4813.04
935.827	4775.75
936.135	4768.74
936.443	4699.59
936.751	4708.41
937.059	4697.11
937.367	4681.74
937.674	4683.1
937.982	4666.6
938.29	4639.71
938.597	4624.79
938.905	4603.78
939.213	4531.24
939.52	4549.32
939.827	4543.44
940.135	4488.98
940.442	4491.46
940.749	4432.71
941.056	4499.37
941.363	4457.11
941.67	4403.78
941.977	4353.39
942.284	4362.88
942.591	4329.66
942.898	4363.56
943.205	4318.14
943.511	4314.97
943.818	4316.1
944.125	4262.77
944.431	4239.95
944.738	4225.26
945.044	4214.63
945.35	4201.53
945.657	4197.46
945.963	4156.33
946.269	4155.43
946.575	4133.96
946.881	4108.65
947.187	4118.37
947.493	4083.11
947.799	4043.34
948.105	4024.36
948.41	4046.5
948.716	3956.56
949.022	3971.25
949.327	3965.15
949.633	3968.09
949.938	3951.14
950.244	3923.8
950.549	3887.41
950.854	3855.1
951.16	3882.89
951.465	3858.49
951.77	3856.9
952.075	3786.62
952.38	3835.21
952.685	3799.73
952.99	3745.04
953.294	3727.19
953.599	3747.98
953.904	3672.73
954.209	3729.9
954.513	3697.36
954.818	3710.24
955.122	3619.4
955.426	3673.18
955.731	3589.34
956.035	3608.55
956.339	3560.87
956.643	3568.55
956.948	3578.49
957.252	3541.88
957.556	3551.83
957.86	3501.66
958.163	3541.66
958.467	3490.59
958.771	3509.57
959.075	3482.22
959.378	3440.19
959.682	3421.89
959.985	3417.37
960.289	3390.48
960.592	3398.84
960.896	3392.51
961.199	3374.43
961.502	3326.07
961.805	3332.62
962.108	3327.2
962.411	3300.53
962.714	3269.58
963.017	3262.57
963.32	3271.38
963.623	3267.54
963.926	3226.19
964.228	3231.16
964.531	3209.46
964.833	3208.79
965.136	3178.05
965.438	3183.93
965.741	3161.33
966.043	3124.72
966.345	3165.17
966.648	3082.69
966.95	3115.91
967.252	3058.96
967.554	3052.63
967.856	3060.09
968.158	3053.54
968.46	3057.38
968.761	3012.63
969.063	3022.58
969.365	2997.27
969.666	2955.01
969.968	2973.31
970.269	2951.17
970.571	2933.99
970.872	2954.56
971.174	2890.6
971.475	2905.06
971.776	2899.64
972.077	2897.83
972.378	2875.46
972.679	2840.66
972.98	2862.58
973.281	2825.74
973.582	2836.82
973.883	2793.2
974.183	2826.87
974.484	2783.03
974.785	2771.96
975.085	2749.59
975.386	2756.14
975.686	2726.09
975.986	2740.32
976.287	2757.27
976.587	2687.44
976.887	2658.07
977.187	2678.18
977.487	2667.78
977.787	2670.72
978.087	2639.54
978.387	2639.76
978.687	2604.28
978.987	2628.46
979.286	2566.09
979.586	2591.63
979.885	2550.05
980.185	2586.88
980.484	2552.53
980.784	2530.84
981.083	2520.22
981.382	2534.68
981.682	2505.75
981.981	2511.4
982.28	2472.08
982.579	2467.11
982.878	2444.51
983.177	2468.92
983.475	2447.9
983.774	2432.99
984.073	2384.85
984.372	2394.57
984.67	2383.04
984.969	2402.25
985.267	2374.23
985.566	2406.09
985.864	2357.96
986.162	2356.15
986.461	2338.75
986.759	2304.18
987.057	2311.63
987.355	2298.98
987.653	2296.27
987.951	2291.75
988.249	2242.94
988.547	2253.78
988.844	2286.78
989.142	2223.5
989.44	2245.87
989.737	2209.72
990.035	2195.93
990.332	2197.29
990.63	2224.63
990.927	2199.32
991.224	2184.18
991.521	2132.2
991.819	2151.41
992.116	2151.41
992.413	2173.11
992.71	2157.29
993.006	2110.74
993.303	2097.18
993.6	2113.67
993.897	2066.89
994.193	2074.8
994.49	2082.71
994.787	2065.54
995.083	2039.78
995.379	2028.93
995.676	2015.37
995.972	2010.17
996.268	2002.49
996.565	1978.76
996.861	1977.63
997.157	1963.39
997.453	1971.76
997.749	1975.15
998.044	1938.76
998.34	1956.62
998.636	1949.61
998.932	1948.71
999.227	1890.18
999.523	1912.77
999.818	1873.91
1000.114	1884.53
1000.409	1892.44
1000.704	1871.42
1001	1888.59
1001.295	1823.29
1001.59	1826.22
1001.885	1825.09
1002.18	1819.22
1002.475	1801.82
1002.77	1800.01
1003.065	1779.9
1003.359	1781.7
1003.654	1793.68
1003.949	1744.87
1004.243	1784.64
1004.538	1738.09
1004.832	1735.38
1005.127	1747.58
1005.421	1718.43
1005.715	1675.49
1006.009	1673.46
1006.304	1688.37
1006.598	1668.94
1006.892	1680.46
1007.186	1617.87
1007.48	1646.11
1007.773	1647.02
1008.067	1647.92
1008.361	1645.44
1008.655	1618.09
1008.948	1599.56
1009.242	1598.43
1009.535	1577.42
1009.829	1564.54
1010.122	1617.64
1010.415	1562.73
1010.708	1550.98
1011.001	1530.86
1011.295	1564.76
1011.588	1522.73
1011.881	1525.21
1012.173	1522.5
1012.466	1520.92
1012.759	1487.7
1013.052	1494.48
1013.344	1485.89
1013.637	1459.91
1013.93	1484.99
1014.222	1465.33
1014.514	1437.08
1014.807	1429.85
1015.099	1431.43
1015.391	1428.27
1015.683	1406.12
1015.976	1407.93
1016.268	1387.36
1016.56	1386.91
1016.851	1392.34
1017.143	1391.66
1017.435	1379.91
1017.727	1354.82
1018.018	1329.51
1018.31	1328.61
1018.602	1316.41
1018.893	1290.87
1019.185	1327.03
1019.476	1294.03
1019.767	1285.67
1020.058	1337.2
1020.35	1261.49
1020.641	1254.03
1020.932	1256.29
1021.223	1242.51
1021.514	1254.26
1021.804	1259.01
1022.095	1224.66
1022.386	1239.8
1022.677	1220.14
1022.967	1210.19
1023.258	1216.52
1023.548	1219.23
1023.839	1177.65
1024.129	1169.29
1024.419	1180.36
1024.709	1161.38
1025	1162.96
1025.29	1142.4
1025.58	1126.13
1025.87	1101.72
1026.16	1126.13
1026.449	1115.73
1026.739	1104.21
1027.029	1090.65
1027.319	1108.73
1027.608	1098.78
1027.898	1094.94
1028.187	1101.95
1028.477	1067.83
1028.766	1082.97
1029.055	1069.41
1029.344	1059.46
1029.634	1062.85
1029.923	1025.11
1030.212	1037.32
1030.501	1027.15
1030.79	1034.15
1031.078	1039.58
1031.367	1000.26
1031.656	983.99
1031.945	976.3
1032.233	996.41
1032.522	1010.2
1032.81	977.21
1033.099	993.25
1033.387	965.68
1033.675	962.52
1033.963	972.23
1034.251	975.17
1034.54	927.04
1034.828	935.4
1035.116	944.89
1035.403	964.1
1035.691	938.11
1035.979	907.38
1036.267	917.09
1036.554	905.8
1036.842	905.8
1037.129	908.51
1037.417	880.03
1037.704	887.49
1037.992	852.92
1038.279	877.32
1038.566	879.81
1038.853	879.81
1039.14	879.81
