Data from hue_270_FLMS001491_00067.txt Node
Date: Tue Feb 07 15:57:33 GMT 2017
User: dcchb
Spectrometer: FLMS00149
Trigger mode: 0
Integration Time (sec): 2.000000E-2
Scans to average: 10
Electric dark correction enabled: true
Nonlinearity correction enabled: false
Boxcar width: 0
XAxis mode: Wavelengths
Number of Pixels in Spectrum: 2048
>>>>>Begin Spectral Data<<<<<
341.393	-17.68
341.776	-17.68
342.16	-17.68
342.543	-66.72
342.927	-64.24
343.31	-81.64
343.693	-66.95
344.077	-47.74
344.46	-57
344.843	-29.43
345.226	-35.31
345.61	-27.17
345.993	-17.91
346.376	-23.78
346.759	8.53
347.142	25.03
347.525	23.67
347.908	55.08
348.291	78.59
348.674	84.69
349.057	111.35
349.44	123.78
349.823	142.76
350.206	165.14
350.588	178.92
350.971	206.04
351.354	207.62
351.737	222.99
352.119	242.2
352.502	251.69
352.884	261.18
353.267	281.74
353.65	271.12
354.032	268.19
354.414	295.08
354.797	318.58
355.179	303.44
355.562	307.51
355.944	336.43
356.326	326.04
356.709	332.14
357.091	325.58
357.473	340.73
357.855	347.73
358.238	328.97
358.62	346.83
359.002	340.05
359.384	348.18
359.766	317
360.148	358.8
360.53	340.05
360.912	340.27
361.294	342.53
361.676	324
362.057	327.39
362.439	314.51
362.821	307.28
363.203	326.94
363.584	346.83
363.966	298.24
364.348	332.14
364.729	323.78
365.111	321.29
365.493	322.42
365.874	318.58
366.256	314.51
366.637	290.56
367.019	294.17
367.4	297.56
367.781	295.98
368.163	293.95
368.544	291.91
368.925	331.91
369.306	311.35
369.688	302.08
370.069	316.77
370.45	291.46
370.831	320.16
371.212	304.79
371.593	330.56
371.974	298.24
372.355	303.89
372.736	309.99
373.117	317.9
373.498	330.1
373.879	310.9
374.26	278.35
374.641	334.17
375.021	317.22
375.402	317.45
375.783	300.05
376.163	330.56
376.544	338.92
376.925	335.75
377.305	338.92
377.686	329.43
378.066	332.59
378.447	333.49
378.827	326.04
379.208	304.34
379.588	331.69
379.968	322.65
380.349	343.89
380.729	317.45
381.109	344.79
381.489	342.08
381.87	320.16
382.25	317
382.63	339.82
383.01	351.8
383.39	331.01
383.77	333.95
384.15	355.64
384.53	347.5
384.91	361.52
385.29	335.08
385.67	342.99
386.049	354.51
386.429	343.21
386.809	338.69
387.189	378.69
387.568	361.97
387.948	354.96
388.328	354.28
388.707	358.8
389.087	350.67
389.466	347.73
389.846	372.59
390.225	372.59
390.605	385.92
390.984	347.73
391.363	379.37
391.743	387.96
392.122	387.05
392.501	391.8
392.881	381.85
393.26	364.91
393.639	367.39
394.018	400.61
394.397	370.1
394.776	412.81
395.155	377.79
395.534	380.95
395.913	368.75
396.292	392.02
396.671	410.55
397.05	397
397.429	393.61
397.808	394.51
398.186	402.19
398.565	401.74
398.944	391.8
399.323	401.97
399.701	387.05
400.08	408.97
400.458	414.17
400.837	413.49
401.215	433.38
401.594	432.25
401.972	399.26
402.351	412.14
402.729	429.76
403.107	443.32
403.486	426.15
403.864	442.64
404.242	440.61
404.62	463.21
404.999	436.54
405.377	432.47
405.755	469.99
406.133	449.2
406.511	449.2
406.889	485.58
407.267	460.72
407.645	466.82
408.023	475.86
408.401	474.28
408.779	486.48
409.156	475.41
409.534	480.16
409.912	501.4
410.29	502.98
410.667	521.74
411.045	527.84
411.422	526.03
411.8	516.31
412.178	531.91
412.555	547.5
412.933	543.43
413.31	574.39
413.687	564.67
414.065	565.13
414.442	561.06
414.819	573.71
415.197	579.82
415.574	595.18
415.951	599.48
416.328	603.32
416.705	620.72
417.082	618.23
417.46	632.92
417.837	646.03
418.214	626.59
418.591	645.12
418.967	656.42
419.344	640.38
419.721	651.9
420.098	650.55
420.475	669.53
420.852	667.04
421.228	707.95
421.605	702.07
421.982	720.6
422.358	710.21
422.735	719.47
423.111	732.35
423.488	764.22
423.864	747.04
424.241	765.35
424.617	763.99
424.994	771
425.37	790.88
425.746	836.08
426.123	794.72
426.499	808.51
426.875	820.94
427.251	832.24
427.627	876.76
428.003	853.93
428.379	881.05
428.756	881.28
429.132	898.45
429.507	905.46
429.883	933.48
430.259	924.21
430.635	931.22
431.011	956.75
431.387	938.45
431.763	971.22
432.138	975.06
432.514	1001.73
432.89	1019.13
433.265	1016.64
433.641	1019.13
434.016	1059.35
434.392	1090.99
434.767	1084.43
435.143	1101.38
435.518	1125.56
435.894	1130.54
436.269	1136.41
436.644	1166.69
437.02	1170.31
437.395	1158.78
437.77	1215.05
438.145	1232.91
438.52	1232.23
438.895	1258.44
439.271	1255.05
439.646	1302.06
440.021	1322.39
440.395	1282.62
440.77	1299.12
441.145	1313.13
441.52	1339.34
441.895	1329.17
442.27	1371.88
442.645	1378.44
443.019	1389.29
443.394	1395.84
443.769	1411.43
444.143	1373.24
444.518	1445.33
444.892	1441.49
445.267	1443.3
445.641	1448.49
446.016	1486.23
446.39	1487.36
446.764	1478.77
447.139	1469.51
447.513	1520.13
447.887	1502.28
448.262	1499.11
448.636	1498.44
449.01	1526.68
449.384	1561.48
449.758	1578.66
450.132	1587.7
450.506	1541.37
450.88	1608.94
451.254	1614.59
451.628	1605.55
452.002	1634.02
452.376	1631.09
452.75	1646.91
453.123	1627.47
453.497	1688.26
453.871	1678.32
454.244	1729.84
454.618	1732.78
454.992	1710.86
455.365	1736.17
455.739	1782.04
456.112	1811.2
456.486	1825.43
456.859	1831.99
457.232	1872.66
457.606	1852.78
457.979	1853.91
458.352	1877.63
458.725	1918.54
459.099	1918.76
459.472	1965.09
459.845	1970.29
460.218	1961.93
460.591	1989.04
460.964	2009.83
461.337	2044.18
461.71	2083.96
462.083	2114.69
462.456	2086.22
462.829	2101.58
463.201	2132.54
463.574	2148.81
463.947	2146.1
464.32	2238.3
464.692	2227.68
465.065	2214.57
465.438	2246.44
465.81	2274.69
466.183	2295.48
466.555	2322.37
466.928	2363.27
467.3	2342.93
467.672	2381.8
468.045	2427.9
468.417	2442.37
468.789	2431.74
469.161	2484.85
469.534	2497.73
469.906	2536.6
470.278	2566.43
470.65	2555.58
471.022	2612.08
471.394	2655.24
471.766	2698.63
472.138	2676.94
472.51	2751.28
472.882	2764.62
473.253	2787.67
473.625	2790.6
473.997	2879.19
474.369	2842.58
474.74	2881.45
475.112	2938.85
475.484	2987.66
475.855	3009.58
476.227	3040.09
476.598	3090.71
476.97	3130.71
477.341	3181.55
477.713	3233.3
478.084	3218.62
478.455	3332.74
478.827	3347.43
479.198	3428.78
479.569	3409.57
479.94	3478.27
480.311	3489.12
480.682	3565.05
481.053	3613.63
481.424	3681.88
481.795	3655.67
482.166	3736.34
482.537	3756.68
482.908	3854.08
483.279	3875.77
483.65	3921.87
484.021	3956.45
484.391	4000.52
484.762	4046.62
485.133	4070.57
485.503	4090.01
485.874	4171.13
486.244	4188.76
486.615	4272.83
486.985	4293.62
487.356	4388.3
487.726	4347.63
488.097	4469.88
488.467	4424.23
488.837	4550.56
489.207	4596.43
489.578	4614.06
489.948	4689.54
490.318	4671.01
490.688	4653.38
491.058	4765.24
491.428	4808.4
491.798	4894.73
492.168	4972.02
492.538	4996.65
492.908	4963.65
493.278	5026.7
493.648	5061.28
494.017	5146.93
494.387	5114.84
494.757	5134.72
495.126	5223.53
495.496	5224.21
495.866	5280.71
496.235	5237.09
496.605	5332.68
496.974	5318.9
497.344	5383.08
497.713	5393.93
498.082	5433.02
498.452	5454.04
498.821	5428.28
499.19	5467.37
499.559	5515.05
499.928	5529.97
500.298	5525.67
500.667	5613.81
501.036	5614.71
501.405	5634.37
501.774	5664.2
502.143	5677.53
502.512	5717.99
502.88	5730.87
503.249	5732.67
503.618	5760.47
503.987	5781.71
504.356	5779
504.724	5753.69
505.093	5851.09
505.462	5816.97
505.83	5860.13
506.199	5875.95
506.567	5971.09
506.936	5929.05
507.304	5962.5
507.672	5977.41
508.041	6070.07
508.409	6044.3
508.777	6083.85
509.145	6079.78
509.514	6076.17
509.882	6088.37
510.25	6117.07
510.618	6104.42
510.986	6112.33
511.354	6163.62
511.722	6192.55
512.09	6229.84
512.458	6165.66
512.826	6188.03
513.193	6280.46
513.561	6274.35
513.929	6250.17
514.297	6324.97
514.664	6308.7
515.032	6357.29
515.4	6384.41
515.767	6374.69
516.135	6395.48
516.502	6352.54
516.869	6419.66
517.237	6392.54
517.604	6413.79
517.972	6415.82
518.339	6454.92
518.706	6468.47
519.073	6530.17
519.44	6519.32
519.808	6562.71
520.175	6516.61
520.542	6573.33
520.909	6566.78
521.276	6612.43
521.643	6646.55
522.009	6682.25
522.376	6629.37
522.743	6688.36
523.11	6703.27
523.477	6729.26
523.843	6749.37
524.21	6795.7
524.577	6835.02
524.943	6823.27
525.31	6849.48
525.676	6900.55
526.043	6920.89
526.409	6905.3
526.776	7002.92
527.142	6990.72
527.508	6977.84
527.874	6949.37
528.241	6948.24
528.607	7054.22
528.973	7062.13
529.339	7040.44
529.705	7129.93
530.071	7167.66
530.437	7169.02
530.803	7134.67
531.169	7155.91
531.535	7189.58
531.901	7198.17
532.267	7206.53
532.632	7237.95
532.998	7221.45
533.364	7298.06
533.73	7265.97
534.095	7324.27
534.461	7290.15
534.826	7296.02
535.192	7348.9
535.557	7388.22
535.923	7339.41
536.288	7365.4
536.653	7400.65
537.019	7366.08
537.384	7383.48
537.749	7383.25
538.114	7423.03
538.479	7422.57
538.845	7424.83
539.21	7374.89
539.575	7465.06
539.94	7395.91
540.305	7468.9
540.67	7425.06
541.034	7505.28
541.399	7515.23
541.764	7532.17
542.129	7471.39
542.494	7562.23
542.858	7544.15
543.223	7517.03
543.587	7587.31
543.952	7550.71
544.316	7556.81
544.681	7596.58
545.045	7580.54
545.41	7575.56
545.774	7638.61
546.138	7592.29
546.503	7625.96
546.867	7568.33
547.231	7673.87
547.595	7681.78
547.959	7630.7
548.324	7639.29
548.688	7608.33
549.052	7694.43
549.416	7620.99
549.779	7595.9
550.143	7643.81
550.507	7681.78
550.871	7743.02
551.235	7716.12
551.599	7736.24
551.962	7795.44
552.326	7712.51
552.689	7804.03
553.053	7791.15
553.417	7739.4
553.78	7839.51
554.143	7823.24
554.507	7876.35
554.87	7810.36
555.234	7866.4
555.597	7759.74
555.96	7879.28
556.323	7899.4
556.686	7891.71
557.05	7941.2
557.413	7891.71
557.776	7907.53
558.139	7988.21
558.502	7970.36
558.865	7967.19
559.228	8045.61
559.59	8100.97
559.953	8095.32
560.316	8125.61
560.679	8140.07
561.041	8088.32
561.404	8179.16
561.767	8196.34
562.129	8132.84
562.492	8258.94
562.854	8244.25
563.217	8246.51
563.579	8319.95
563.941	8321.53
564.304	8423
564.666	8443.79
565.028	8390.46
565.39	8502.09
565.753	8498.93
566.115	8535.99
566.477	8480.4
566.839	8536.89
567.201	8593.39
567.563	8587.51
567.925	8693.95
568.287	8698.7
568.648	8693.05
569.01	8729.21
569.372	8825.02
569.734	8799.26
570.095	8866.15
570.457	8857.56
570.819	8895.75
571.18	8890.56
571.542	8938.69
571.903	8830.67
572.265	8985.47
572.626	8926.04
572.987	9022.08
573.349	9020.5
573.71	9058.01
574.071	9100.5
574.432	9142.08
574.794	9195.41
575.155	9199.02
575.516	9198.57
575.877	9220.04
576.238	9275.86
576.599	9289.19
576.96	9232.02
577.32	9344.33
577.681	9400.15
578.042	9452.12
578.403	9414.16
578.763	9481.73
579.124	9498.22
579.485	9573.93
579.845	9617.54
580.206	9544.33
580.566	9681.27
580.927	9625.45
581.287	9690.08
581.648	9711.1
582.008	9726.24
582.368	9742.74
582.728	9765.79
583.089	9775.28
583.449	9816.86
583.809	9850.53
584.169	9867.48
584.529	9862.28
584.889	9952.22
585.249	9914.71
585.609	9905.22
585.969	9979.12
586.329	10035.84
586.688	10054.82
587.048	10056.85
587.408	10075.16
587.768	10116.29
588.127	10159
588.487	10136.17
588.846	10264.98
589.206	10164.2
589.565	10260.24
589.925	10245.78
590.284	10321.93
590.643	10318.99
591.003	10348.15
591.362	10409.39
591.721	10418.2
592.08	10395.83
592.44	10385.66
592.799	10376.39
593.158	10465.21
593.517	10507.01
593.876	10543.85
594.235	10499.33
594.593	10477.63
594.952	10555.82
595.311	10548.59
595.67	10592.43
596.029	10665.65
596.387	10691.41
596.746	10689.61
597.104	10658.65
597.463	10783.39
597.822	10688.93
598.18	10761.02
598.538	10715.82
598.897	10733.67
599.255	10707.01
599.613	10838.53
599.972	10823.61
600.33	10809.15
600.688	10815.93
601.046	10875.59
601.404	10824.52
601.762	10900.9
602.12	10955.14
602.478	11031.74
602.836	11010.73
603.194	10900.67
603.552	10940.9
603.91	10932.76
604.268	11017.73
604.625	10936.83
604.983	10995.36
605.341	10961.01
605.698	10989.49
606.056	11085.75
606.413	11019.31
606.771	11000.56
607.128	11053.21
607.485	10965.08
607.843	10993.78
608.2	11139.76
608.557	11147.9
608.914	11118.07
609.272	11161.91
609.629	11183.6
609.986	11205.3
610.343	11174.79
610.7	11324.62
611.057	11164.4
611.414	11236.94
611.771	11221.34
612.127	11318.74
612.484	11266.77
612.841	11274.22
613.198	11259.76
613.554	11313.09
613.911	11345.41
614.267	11349.02
614.624	11295.47
614.98	11337.27
615.337	11421.34
615.693	11395.58
616.05	11341.11
616.406	11475.35
616.762	11353.54
617.118	11372.53
617.475	11350.83
617.831	11429.47
618.187	11481.22
618.543	11448.46
618.899	11404.39
619.255	11425.18
619.611	11417.5
619.967	11506.99
620.323	11540.21
620.678	11481
621.034	11431.96
621.39	11497.49
621.746	11535.01
622.101	11578.85
622.457	11534.78
622.812	11494.1
623.168	11509.47
623.523	11496.14
623.879	11577.04
624.234	11533.65
624.589	11509.47
624.945	11513.31
625.3	11530.94
625.655	11533.88
626.01	11544.5
626.365	11556.93
626.72	11483.48
627.075	11497.72
627.43	11522.35
627.785	11458.4
628.14	11526.87
628.495	11483.48
628.85	11514.44
629.205	11412.07
629.559	11555.35
629.914	11428.57
630.269	11530.04
630.623	11440.55
630.978	11421.56
631.332	11424.73
631.687	11505.18
632.041	11451.39
632.396	11410.26
632.75	11357.61
633.104	11429.47
633.459	11440.32
633.813	11294.79
634.167	11356.93
634.521	11307.67
634.875	11383.6
635.229	11309.93
635.583	11250.27
635.937	11295.92
636.291	11236.48
636.645	11274
636.999	11208.91
637.352	11279.42
637.706	11169.59
638.06	11240.1
638.413	11150.61
638.767	11135.47
639.121	11198.52
639.474	11104.96
639.828	11084.17
640.181	11139.76
640.534	11208.69
640.888	11172.98
641.241	11121.91
641.594	11109.93
641.947	11091.63
642.301	11075.81
642.654	11102.02
643.007	11131.18
643.36	11077.39
643.713	11094.12
644.066	11053.21
644.419	10949.71
644.771	10992.65
645.124	10799.89
645.477	10900.22
645.83	10777.74
646.182	10730.73
646.535	10652.77
646.888	10624.52
647.24	10626.78
647.593	10726.89
647.945	10737.51
648.298	10601.25
648.65	10561.02
649.002	10598.53
649.355	10657.74
649.707	10673.34
650.059	10733.9
650.411	10856.16
650.763	10870.62
651.115	10912.65
651.467	10846.21
651.819	10849.38
652.171	10840.79
652.523	10900.45
652.875	10726.89
653.227	10792.88
653.578	10882.37
653.93	10839.66
654.282	10768.93
654.633	10802.15
654.985	10843.27
655.337	10807.57
655.688	10777.74
656.039	10800.11
656.391	10780.9
656.742	10800.11
657.094	10850.05
657.445	10848.92
657.796	10763.05
658.147	10855.03
658.498	10858.87
658.849	10875.59
659.2	10860.9
659.551	10851.86
659.902	10840.56
660.253	10860.45
660.604	10884.4
660.955	10831.52
661.306	10854.57
661.656	10837.62
662.007	10869.49
662.358	10864.29
662.708	10827.91
663.059	10879.66
663.409	10808.47
663.76	10881.92
664.11	10839.21
664.461	10891.86
664.811	10829.04
665.161	10772.54
665.511	10848.7
665.862	10851.41
666.212	10873.56
666.562	10862.71
666.912	10761.47
667.262	10797.4
667.612	10795.14
667.962	10803.95
668.312	10835.59
668.662	10911.07
669.011	10850.05
669.361	10840.34
669.711	10828.81
670.06	10793.33
670.41	10778.42
670.76	10768.93
671.109	10807.79
671.459	10756.27
671.808	10725.54
672.157	10829.04
672.507	10663.84
672.856	10709.27
673.205	10674.47
673.554	10759.89
673.904	10669.95
674.253	10739.77
674.602	10739.77
674.951	10591.3
675.3	10484.64
675.649	10634.92
675.998	10664.07
676.346	10636.95
676.695	10734.35
677.044	10636.5
677.393	10699.1
677.741	10683.96
678.09	10663.39
678.438	10553.79
678.787	10650.74
679.135	10600.12
679.484	10520.12
679.832	10467.69
680.181	10496.84
680.529	10531.42
680.877	10461.36
681.225	10473.79
681.573	10552.66
681.922	10418.65
682.27	10378.43
682.618	10288.26
682.966	10449.39
683.314	10357.86
683.661	10370.52
684.009	10337.52
684.357	10309.05
684.705	10253.46
685.053	10341.82
685.4	10288.94
685.748	10145.67
686.095	10138.89
686.443	10201.26
686.79	10154.93
687.138	10151.99
687.485	10133.24
687.832	10059.34
688.18	10116.51
688.527	10005.33
688.874	9992.22
689.221	10000.81
689.568	9937.31
689.915	9957.87
690.262	9938.89
690.609	9897.76
690.956	9877.65
691.303	9898.21
691.65	9775.51
691.997	9769.86
692.344	9734.6
692.69	9719.01
693.037	9677.88
693.383	9592.91
693.73	9675.85
694.077	9582.74
694.423	9523.31
694.769	9565.57
695.116	9534.16
695.462	9474.04
695.808	9435.63
696.155	9542.97
696.501	9377.78
696.847	9429.98
697.193	9324.44
697.539	9385.69
697.885	9333.26
698.231	9233.6
698.577	9273.37
698.923	9237.44
699.269	9127.39
699.614	9192.02
699.96	9124.9
700.306	9093.72
700.651	9034.28
700.997	8990.44
701.342	9002.19
701.688	8927.62
702.033	8939.6
702.379	8934.62
702.724	8936.66
703.069	8873.16
703.415	8783.89
703.76	8801.97
704.105	8786.38
704.45	8813.27
704.795	8687.17
705.14	8715.19
705.485	8731.24
705.83	8667.06
706.175	8651.02
706.52	8633.16
706.865	8549.1
707.209	8566.27
707.554	8472.72
707.899	8514.97
708.243	8470.46
708.588	8468.42
708.932	8341.87
709.277	8380.51
709.621	8302.55
709.966	8326.96
710.31	8367.86
710.654	8304.13
710.998	8291.25
711.342	8288.77
711.687	8221.42
712.031	8218.26
712.375	8231.82
712.719	8199.95
713.063	8218.94
713.407	8229.78
713.75	8177.58
714.094	8156.79
714.438	8150.46
714.782	8180.52
715.125	8082.22
715.469	8093.74
715.812	8111.14
716.156	7983.01
716.499	8015.33
716.843	8061.43
717.186	7974.2
717.53	8005.83
717.873	7991.82
718.216	7920.64
718.559	7924.03
718.902	7901.43
719.246	7960.19
719.589	7913.41
719.932	7906.4
720.275	7850.13
720.617	7936.91
720.96	7865.5
721.303	7850.13
721.646	7925.61
721.989	7794.09
722.331	7858.72
722.674	7858.95
723.016	7852.84
723.359	7785.05
723.701	7838.38
724.044	7822.56
724.386	7819.62
724.729	7842.9
725.071	7688.1
725.413	7734.66
725.755	7818.49
726.097	7702.57
726.439	7756.35
726.782	7723.58
727.124	7790.47
727.465	7682.68
727.807	7728.55
728.149	7669.57
728.491	7709.12
728.833	7708.44
729.175	7705.28
729.516	7737.82
729.858	7637.03
730.199	7671.61
730.541	7667.31
730.882	7670.02
731.224	7714.54
731.565	7642.91
731.906	7596.13
732.248	7694.43
732.589	7585.28
732.93	7610.36
733.271	7562.46
733.612	7604.49
733.953	7656.01
734.294	7619.4
734.635	7569.91
734.976	7632.06
735.317	7605.39
735.658	7597.03
735.999	7643.13
736.339	7608.33
736.68	7684.49
737.021	7641.32
737.361	7614.88
737.702	7633.19
738.042	7628.9
738.383	7646.07
738.723	7693.53
739.063	7592.29
739.404	7624.6
739.744	7649.91
740.084	7641.32
740.424	7618.73
740.764	7674.09
741.104	7659.86
741.444	7593.19
741.784	7627.54
742.124	7687.42
742.464	7693.07
742.804	7696.24
743.143	7716.12
743.483	7718.16
743.823	7673.41
744.162	7777.82
744.502	7867.08
744.841	7749.8
745.181	7795.9
745.52	7784.6
745.86	7898.72
746.199	7904.37
746.538	7930.36
746.877	7980.75
747.216	7976.68
747.556	8036.79
747.895	8027.98
748.234	8031.37
748.573	8111.59
748.911	8153.85
749.25	8245.83
749.589	8230.01
749.928	8276.56
750.267	8364.7
750.605	8412.38
750.944	8517.69
751.283	8522.21
751.621	8622.09
751.96	8642.88
752.298	8676.55
752.636	8835.19
752.975	8878.81
753.313	8957.45
753.651	9049.88
753.989	9097.11
754.327	9211.45
754.666	9268.63
755.004	9469.07
755.342	9496.19
755.679	9630.65
756.017	9685.56
756.355	9833.36
756.693	9974.82
757.031	10067.7
757.368	10232.89
757.706	10345.66
758.044	10417.75
758.381	10606.22
758.719	10703.39
759.056	10895.7
759.394	10987.45
759.731	11154.45
760.068	11277.39
760.405	11428.57
760.743	11551.73
761.08	11720.09
761.417	11828.11
761.754	11980.42
762.091	12151.71
762.428	12277.81
762.765	12381.31
763.102	12673.28
763.438	12765.48
763.775	12848.19
764.112	12999.83
764.449	13209.09
764.785	13339.03
765.122	13396.2
765.458	13628.96
765.795	13742.63
766.131	13856.75
766.467	14069.63
766.804	14178.1
767.14	14297.19
767.476	14386.01
767.812	14603.18
768.148	14752.32
768.485	14757.97
768.821	14901.47
769.157	14972.21
769.492	15123.39
769.828	15313.67
770.164	15315.47
770.5	15426.2
770.836	15663.03
771.171	15643.6
771.507	15666.42
771.842	15803.82
772.178	15935.57
772.513	16031.84
772.849	16076.58
773.184	16224.38
773.519	16277.26
773.855	16312.06
774.19	16401.77
774.525	16491.71
774.86	16623.01
775.195	16667.98
775.53	16703.01
775.865	16726.51
776.2	16740.52
776.535	16773.29
776.87	16936.9
777.205	16933.06
777.539	16949.1
777.874	17103
778.209	17071.81
778.543	17026.61
778.878	16956.79
779.212	17101.41
779.547	17031.13
779.881	17204.91
780.215	17218.02
780.55	17228.64
780.884	17220.06
781.218	17279.72
781.552	17356.78
781.886	17286.27
782.22	17260.73
782.554	17351.58
782.888	17157.91
783.222	17195.65
783.556	17266.38
783.889	17185.93
784.223	17089.66
784.557	17249.89
784.89	17264.8
785.224	17243.78
785.557	17198.36
785.891	17280.85
786.224	17211.69
786.558	17231.58
786.891	17008.54
787.224	17057.35
787.557	17001.76
787.891	17068.65
788.224	17132.15
788.557	17115.43
788.89	17078.36
789.223	17084.24
789.556	17032.04
789.888	17005.6
790.221	16936.67
790.554	16964.7
790.887	16958.14
791.219	16856.68
791.552	16945.49
791.884	16777.36
792.217	16780.52
792.549	16721.54
792.882	16695.32
793.214	16644.03
793.546	16691.26
793.879	16575.78
794.211	16568.1
794.543	16615.1
794.875	16662.1
795.207	16624.37
795.539	16581.65
795.871	16584.82
796.203	16413.98
796.535	16377.59
796.867	16330.36
797.198	16252.4
797.53	16303.24
797.862	16202.68
798.193	16261.44
798.525	16180.08
798.856	16159.07
799.188	16097.83
799.519	16077.71
799.85	15995.46
800.182	15934.44
800.513	16027.77
800.844	15964.5
801.175	15984.61
801.506	15983.03
801.837	15971.5
802.168	15766.99
802.499	15764.05
802.83	15682.92
803.161	15678.85
803.491	15669.59
803.822	15665.97
804.153	15641.79
804.483	15541.23
804.814	15482.02
805.145	15513.21
805.475	15490.38
805.805	15380.78
806.136	15410.16
806.466	15419.43
806.796	15363.16
807.126	15266.21
807.457	15232.99
807.787	15236.15
808.117	15256.49
808.447	15145.08
808.777	15152.31
809.107	15085.65
809.436	15076.61
809.766	15046.78
810.096	15044.52
810.426	14957.97
810.755	14944.86
811.085	14999.78
811.414	14953.45
811.744	14816.05
812.073	14845.88
812.403	14880
812.732	14807.24
813.061	14865.77
813.39	14668.26
813.719	14703.96
814.049	14769.95
814.378	14701.93
814.707	14676.17
815.036	14666.45
815.365	14607.02
815.693	14378.77
816.022	14467.81
816.351	14426.91
816.68	14400.47
817.008	14385.1
817.337	14341.04
817.665	14320.02
817.994	14283.86
818.322	14245.67
818.651	14221.26
818.979	14189.17
819.307	14335.84
819.636	14198.44
819.964	14126.13
820.292	14210.42
820.62	14173.13
820.948	14096.75
821.276	14256.97
821.604	14179.01
821.932	14146.92
822.259	14150.31
822.587	14157.54
822.915	14036.41
823.243	14173.58
823.57	14070.99
823.898	14199.57
824.225	14077.54
824.553	14104.21
824.88	14201.83
825.207	14195.5
825.535	14097.43
825.862	14139.23
826.189	14035.73
826.516	14133.36
826.843	14191.21
827.17	14254.48
827.497	14203.41
827.824	14146.24
828.151	14172.45
828.478	14176.97
828.805	14247.48
829.131	14114.15
829.458	14094.26
829.785	14171.77
830.111	14110.31
830.438	14182.62
830.764	14152.34
831.09	14203.19
831.417	14029.41
831.743	14132.45
832.069	14179.23
832.395	14147.14
832.722	14187.37
833.048	14044.77
833.374	14062.85
833.7	14096.3
834.026	14110.98
834.351	14128.16
834.677	14092.45
835.003	14062.85
835.329	14026.69
835.654	14047.03
835.98	13946.47
836.306	13989.86
836.631	13880.93
836.956	14033.02
837.282	13964.77
837.607	13907.37
837.932	13849.3
838.258	13894.27
838.583	13890.43
838.908	13740.83
839.233	13814.5
839.558	13638
839.883	13752.35
840.208	13680.49
840.533	13727.94
840.858	13683.65
841.182	13737.44
841.507	13704.89
841.832	13628.06
842.156	13669.64
842.481	13576.54
842.805	13553.49
843.13	13502.41
843.454	13484.79
843.778	13392.59
844.103	13435.97
844.427	13391.68
844.751	13410.66
845.075	13379.03
845.399	13307.84
845.723	13199.14
846.047	13183.1
846.371	13143.1
846.695	13196.88
847.019	13051.35
847.343	12948.76
847.666	12928.64
847.99	12897.01
848.313	12809.32
848.637	12746.05
848.96	12730.23
849.284	12713.06
849.607	12706.73
849.931	12591.93
850.254	12458.15
850.577	12472.16
850.9	12358.71
851.223	12425.61
851.546	12304.48
851.869	12320.3
852.192	12316.23
852.515	12183.13
852.838	12072.17
853.161	12140.64
853.483	12066.52
853.806	12035.11
854.129	12039.4
854.451	12028.78
854.774	11848.22
855.096	11935.45
855.419	11756.92
855.741	11815.45
856.063	11785.17
856.385	11792.4
856.708	11596.7
857.03	11612.97
857.352	11697.94
857.674	11567.77
857.996	11596.25
858.318	11458.4
858.64	11513.54
858.961	11473.77
859.283	11430.83
859.605	11383.15
859.926	11426.76
860.248	11251.17
860.57	11331.4
860.891	11277.61
861.212	11248.24
861.534	11228.57
861.855	11182.47
862.176	11192.19
862.498	11184.73
862.819	11128.69
863.14	11130.5
863.461	11095.24
863.782	11028.13
864.103	11118.07
864.424	10943.16
864.745	11003.72
865.065	10951.29
865.386	10980.22
865.707	10932.76
866.027	10949.03
866.348	10914.68
866.668	10950.16
866.989	10913.78
867.309	10804.63
867.63	10753.11
867.95	10803.05
868.27	10686.22
868.59	10768.47
868.91	10678.53
869.23	10643.05
869.55	10670.17
869.87	10746.1
870.19	10670.4
870.51	10650.74
870.83	10661.81
871.15	10600.34
871.469	10656.84
871.789	10669.72
872.109	10591.98
872.428	10494.81
872.748	10580.23
873.067	10426.11
873.386	10548.14
873.706	10526.22
874.025	10513.34
874.344	10437.18
874.663	10447.35
874.982	10474.47
875.301	10430.63
875.62	10300.01
875.939	10341.82
876.258	10363.06
876.577	10360.35
876.896	10336.39
877.214	10292.1
877.533	10349.73
877.852	10248.71
878.17	10286.45
878.489	10184.99
878.807	10203.97
879.125	10205.32
879.444	10170.07
879.762	10137.3
880.08	10131.43
880.398	10182.05
880.716	10106.8
881.034	10088.49
881.352	10086.91
881.67	10033.58
881.988	10025.67
882.306	10037.19
882.624	9939.34
882.941	9976.63
883.259	9907.03
883.577	9995.61
883.894	9867.93
884.212	9902.73
884.529	9863.64
884.846	9807.82
885.164	9817.09
885.481	9774.6
885.798	9829.52
886.115	9717.65
886.432	9704.77
886.75	9610.54
887.067	9702.74
887.383	9608.28
887.7	9670.2
888.017	9530.77
888.334	9579.8
888.651	9573.7
888.967	9503.65
889.284	9472.91
889.6	9455.06
889.917	9387.72
890.233	9413.71
890.55	9402.18
890.866	9331.68
891.182	9346.59
891.498	9288.06
891.815	9246.03
892.131	9244.9
892.447	9179.14
892.763	9224.33
893.079	9186.37
893.395	9107.05
893.71	9058.69
894.026	9153.38
894.342	9026.6
894.657	8967.62
894.973	8947.5
895.289	8964.45
895.604	9016.66
895.92	8897.11
896.235	8798.81
896.55	8844.91
896.865	8808.3
897.181	8770.11
897.496	8738.92
897.811	8764.23
898.126	8696.21
898.441	8645.14
898.756	8603.56
899.071	8625.93
899.386	8550.91
899.7	8462.32
900.015	8499.61
900.33	8418.25
900.644	8394.75
900.959	8413.06
901.273	8408.08
901.588	8345.94
901.902	8254.64
902.216	8285.38
902.531	8268.65
902.845	8172.38
903.159	8114.98
903.473	8131.93
903.787	8109.56
904.101	8051.71
904.415	8073.4
904.729	8058.94
905.042	8030.01
905.356	7953.63
905.67	7936.01
905.984	7990.24
906.297	7936.01
906.611	7842
906.924	7839.74
907.237	7791.38
907.551	7784.6
907.864	7767.42
908.177	7710.48
908.491	7635.67
908.804	7692.4
909.117	7626.86
909.43	7507.77
909.743	7541.67
910.056	7457.15
910.368	7530.14
910.681	7468
910.994	7392.97
911.307	7360.65
911.619	7311.62
911.932	7351.39
912.244	7236.14
912.557	7277.27
912.869	7207.66
913.181	7204.95
913.494	7179.64
913.806	7144.84
914.118	7098.74
914.43	7039.98
914.742	7021.91
915.054	7024.17
915.366	7028.01
915.678	6972.64
915.99	6996.6
916.302	6891.74
916.613	6841.8
916.925	6871.18
917.236	6893.32
917.548	6779.2
917.859	6765.64
918.171	6771.97
918.482	6641.8
918.794	6691.52
919.105	6659.2
919.416	6640.45
919.727	6628.24
920.038	6633.67
920.349	6545.53
920.66	6514.35
920.971	6508.47
921.282	6507.57
921.593	6457.85
921.903	6375.6
922.214	6430.06
922.525	6364.75
922.835	6354.8
923.146	6368.14
923.456	6265.09
923.767	6226.22
924.077	6266.45
924.387	6237.07
924.697	6204.07
925.008	6214.02
925.318	6147.8
925.628	6113.91
925.938	6099.67
926.248	6050.18
926.558	6080.01
926.867	6068.03
927.177	6033.91
927.487	5938.09
927.796	5931.31
928.106	5923.18
928.416	5938.09
928.725	5905.55
929.034	5825.78
929.344	5804.76
929.653	5820.58
929.962	5754.59
930.271	5767.02
930.581	5720.47
930.89	5698.1
931.199	5715.27
931.508	5656.52
931.817	5623.98
932.125	5592.11
932.434	5613.81
932.743	5563.41
933.051	5549.85
933.36	5491.55
933.669	5505.11
933.977	5466.24
934.286	5465.79
934.594	5442.06
934.902	5383.53
935.21	5376.75
935.519	5327.94
935.827	5350.31
936.135	5370.88
936.443	5268.73
936.751	5315.06
937.059	5283.87
937.367	5276.19
937.674	5221.73
937.982	5209.3
938.29	5144.67
938.597	5166.59
938.905	5078.68
939.213	5110.77
939.52	5096.98
939.827	5085.46
940.135	5027.61
940.442	5011.11
940.749	4998.46
941.056	4999.81
941.363	4967.95
941.67	4918.46
941.977	4833.94
942.284	4882.53
942.591	4889.76
942.898	4839.36
943.205	4833.49
943.511	4814.51
943.818	4795.75
944.125	4774.06
944.431	4743.77
944.738	4715.98
945.044	4753.94
945.35	4656.77
945.657	4683.89
945.963	4636.43
946.269	4639.14
946.575	4649.54
946.881	4589.43
947.187	4591.69
947.493	4578.35
947.799	4486.15
948.105	4520.5
948.41	4453.84
948.716	4492.25
949.022	4420.84
949.327	4431.92
949.633	4414.97
949.938	4451.35
950.244	4389.43
950.549	4343.78
950.854	4360.05
951.16	4308.08
951.465	4337
951.77	4319.83
952.075	4278.7
952.38	4225.6
952.685	4211.58
952.99	4178.14
953.294	4195.77
953.599	4173.62
953.904	4165.03
954.209	4121.42
954.513	4101.98
954.818	4087.52
955.122	4083.9
955.426	4097.01
955.731	4003.91
956.035	4012.04
956.339	4012.72
956.643	4019.27
956.948	3996.45
957.252	3980.4
957.556	3986.51
957.86	3936.34
958.163	3928.65
958.467	3917.35
958.771	3903.8
959.075	3869.22
959.378	3799.62
959.682	3819.05
959.985	3821.09
960.289	3784.48
960.592	3790.8
960.896	3789.67
961.199	3773.86
961.502	3739.05
961.805	3745.16
962.108	3701.32
962.411	3701.32
962.714	3678.26
963.017	3661.77
963.32	3672.84
963.623	3629.23
963.926	3596.23
964.228	3581.77
964.531	3604.14
964.833	3560.53
965.136	3542.22
965.438	3533.18
965.741	3511.72
966.043	3513.52
966.345	3506.74
966.648	3463.81
966.95	3458.38
967.252	3427.65
967.554	3464.71
967.856	3445.28
968.158	3438.95
968.46	3390.14
968.761	3346.75
969.063	3353.98
969.365	3349.23
969.666	3358.05
969.968	3326.64
970.269	3282.12
970.571	3289.57
970.872	3303.36
971.174	3239.18
971.475	3239.86
971.776	3231.04
972.077	3193.76
972.378	3210.03
972.679	3201.67
972.98	3146.53
973.281	3179.29
973.582	3151.27
973.883	3162.12
974.183	3153.53
974.484	3104.72
974.785	3078.51
975.085	3050.94
975.386	3077.6
975.686	3062.24
975.986	3019.98
976.287	3066.76
976.587	2966.19
976.887	2997.38
977.187	2952.18
977.487	2976.59
977.787	2927.55
978.087	2959.19
978.387	2913.99
978.687	2927.32
978.987	2903.6
979.286	2876.93
979.586	2864.5
979.885	2851.17
980.185	2838.29
980.484	2790.83
980.784	2814.56
981.083	2836.25
981.382	2781.11
981.682	2783.83
981.981	2752.64
982.28	2774.79
982.579	2713.09
982.878	2725.97
983.177	2712.19
983.475	2756.71
983.774	2683.26
984.073	2685.75
984.372	2693.66
984.67	2639.87
984.969	2619.08
985.267	2635.81
985.566	2610.72
985.864	2621.12
986.162	2608.91
986.461	2579.99
986.759	2559.42
987.057	2607.11
987.355	2547
987.653	2535.02
987.951	2516.49
988.249	2510.39
988.547	2477.84
988.844	2484.17
989.142	2502.93
989.44	2503.15
989.737	2450.95
990.035	2437.85
990.332	2455.47
990.63	2422.93
990.927	2398.52
991.224	2435.36
991.521	2426.09
991.819	2391.97
992.116	2401.69
992.413	2350.62
992.71	2362.37
993.006	2337.28
993.303	2354.68
993.6	2308.81
993.897	2298.87
994.193	2333.67
994.49	2285.08
994.787	2263.61
995.083	2261.58
995.379	2262.48
995.676	2251.18
995.972	2214.8
996.268	2222.26
996.565	2187.68
996.861	2183.39
997.157	2200.34
997.453	2222.48
997.749	2147.23
998.044	2134.35
998.34	2144.07
998.636	2120.57
998.932	2089.61
999.227	2092.54
999.523	2060
999.818	2089.15
1000.114	2075.82
1000.409	2074.69
1000.704	2064.07
1001	2042.83
1001.295	2025.43
1001.59	2000.34
1001.885	2026.78
1002.18	1966.9
1002.475	1989.04
1002.77	1949.95
1003.065	1985.43
1003.359	1961.47
1003.654	1935.26
1003.949	1945.88
1004.243	1919.67
1004.538	1903.4
1004.832	1915.37
1005.127	1900.23
1005.421	1885.32
1005.715	1867.69
1006.009	1868.14
1006.304	1832.44
1006.598	1806.68
1006.892	1851.19
1007.186	1829.05
1007.48	1802.16
1007.773	1787.24
1008.067	1792.21
1008.361	1777.98
1008.655	1791.53
1008.948	1769.16
1009.242	1772.33
1009.535	1725.77
1009.829	1711.76
1010.122	1694.36
1010.415	1730.07
1010.708	1707.92
1011.001	1683.52
1011.295	1663.18
1011.588	1677.87
1011.881	1663.85
1012.173	1634.25
1012.466	1618.66
1012.759	1624.08
1013.052	1624.08
1013.344	1640.13
1013.637	1602.61
1013.93	1588.38
1014.222	1611.2
1014.514	1548.38
1014.807	1552.45
1015.099	1567.81
1015.391	1549.06
1015.683	1534.37
1015.976	1519
1016.268	1507.47
1016.56	1528.04
1016.851	1511.77
1017.143	1500.02
1017.435	1488.94
1017.727	1490.75
1018.018	1472.9
1018.31	1460.7
1018.602	1435.16
1018.893	1435.16
1019.185	1421.15
1019.476	1410.53
1019.767	1424.54
1020.058	1401.49
1020.35	1373.24
1020.641	1363.3
1020.932	1401.71
1021.223	1362.62
1021.514	1361.04
1021.804	1341.83
1022.095	1337.99
1022.386	1344.77
1022.677	1308.16
1022.967	1318.1
1023.258	1323.07
1023.548	1312
1023.839	1296.18
1024.129	1278.1
1024.419	1257.99
1024.709	1261.38
1025	1255.28
1025.29	1238.33
1025.58	1236.97
1025.87	1226.58
1026.16	1225.22
1026.449	1222.96
1026.739	1203.08
1027.029	1165.11
1027.319	1193.13
1027.608	1198.56
1027.898	1188.84
1028.187	1147.94
1028.477	1174.6
1028.766	1139.57
1029.055	1151.1
1029.344	1139.57
1029.634	1118.33
1029.923	1115.39
1030.212	1116.75
1030.501	1115.85
1030.79	1109.07
1031.078	1112
1031.367	1074.27
1031.656	1076.07
1031.945	1059.12
1032.233	1081.95
1032.522	1046.92
1032.81	1052.8
1033.099	1042.85
1033.387	1050.54
1033.675	1037.88
1033.963	1042.85
1034.251	1012.8
1034.54	1036.07
1034.828	1000.37
1035.116	1001.73
1035.403	987.26
1035.691	1011.44
1035.979	992.69
1036.267	982.74
1036.554	971.22
1036.842	969.41
1037.129	956.98
1037.417	937.32
1037.704	952.01
1037.992	959.24
1038.279	928.05
1038.566	918.11
1038.853	918.11
1039.14	918.11
