Data from hue_230_FLMS001491_00006.txt Node
Date: Tue Feb 07 16:36:43 GMT 2017
User: dcchb
Spectrometer: FLMS00149
Trigger mode: 0
Integration Time (sec): 2.000000E-2
Scans to average: 10
Electric dark correction enabled: true
Nonlinearity correction enabled: false
Boxcar width: 0
XAxis mode: Wavelengths
Number of Pixels in Spectrum: 2048
>>>>>Begin Spectral Data<<<<<
341.393	-19.11
341.776	-19.11
342.16	-19.11
342.543	-54.81
342.927	-64.53
343.31	-67.92
343.693	-81.71
344.077	-68.83
344.46	-57.75
344.843	-79.45
345.226	-51.88
345.61	-20.69
345.993	-17.53
346.376	-10.75
346.759	-0.13
347.142	21.34
347.525	47.56
347.908	83.94
348.291	81.23
348.674	105.63
349.057	116.93
349.44	100.66
349.823	125.29
350.206	165.74
350.588	198.96
350.971	200.77
351.354	222.24
351.737	237.83
352.119	238.96
352.502	262.92
352.884	276.93
353.267	287.1
353.65	296.81
354.032	268.57
354.414	294.33
354.797	302.46
355.179	322.12
355.562	311.05
355.944	329.58
356.326	337.72
356.709	331.16
357.091	331.16
357.473	334.1
357.855	341.33
358.238	327.55
358.62	319.19
359.002	332.07
359.384	322.8
359.766	335.91
360.148	330.49
360.53	344.27
360.912	341.33
361.294	351.95
361.676	352.86
362.057	342.69
362.439	347.43
362.821	303.82
363.203	315.8
363.584	333.88
363.966	325.51
364.348	325.97
364.729	318.96
365.111	330.71
365.493	314.89
365.874	305.18
366.256	306.76
366.637	302.01
367.019	293.88
367.4	328.9
367.781	285.06
368.163	304.27
368.544	295.91
368.925	318.51
369.306	323.25
369.688	305.85
370.069	325.97
370.45	302.92
370.831	306.08
371.212	302.24
371.593	309.92
371.974	313.31
372.355	316.93
372.736	299.53
373.117	324.16
373.498	298.62
373.879	327.55
374.26	321.67
374.641	306.98
375.021	321.67
375.402	309.24
375.783	319.64
376.163	343.37
376.544	343.59
376.925	335.46
377.305	336.36
377.686	329.58
378.066	313.76
378.447	334.33
378.827	325.97
379.208	323.93
379.588	332.97
379.968	318.96
380.349	330.49
380.729	326.64
381.109	343.14
381.489	340.88
381.87	341.11
382.25	325.97
382.63	364.16
383.01	342.91
383.39	335.91
383.77	338.4
384.15	331.39
384.53	338.62
384.91	338.62
385.29	333.2
385.67	338.85
386.049	349.02
386.429	348.11
386.809	371.39
387.189	350.37
387.568	362.8
387.948	356.7
388.328	363.71
388.707	354.21
389.087	355.8
389.466	358.73
389.846	348.11
390.225	369.81
390.605	382.91
390.984	363.25
391.363	386.98
391.743	364.84
392.122	365.29
392.501	375.91
392.881	386.53
393.26	383.14
393.639	383.37
394.018	378.62
394.397	363.93
394.776	382.01
395.155	409.58
395.534	398.28
395.913	384.95
396.292	389.02
396.671	415.68
397.05	389.69
397.429	401.9
397.808	407.77
398.186	382.24
398.565	410.94
398.944	409.81
399.323	396.7
399.701	399.18
400.08	430.37
400.458	406.19
400.837	389.47
401.215	429.47
401.594	417.04
401.972	419.3
402.351	417.04
402.729	440.09
403.107	436.25
403.486	417.94
403.864	436.7
404.242	475.79
404.62	423.82
404.999	450.93
405.377	436.92
405.755	461.78
406.133	441.44
406.511	453.19
406.889	467.43
407.267	464.04
407.645	481.89
408.023	493.19
408.401	470.82
408.779	499.07
409.156	485.74
409.534	499.52
409.912	506.75
410.29	503.59
410.667	512.4
411.045	506.75
411.422	539.52
411.8	530.25
412.178	551.72
412.555	544.94
412.933	560.99
413.31	560.31
413.687	585.85
414.065	591.72
414.442	568.22
414.819	595.34
415.197	600.99
415.574	593.98
415.951	611.83
416.328	613.42
416.705	623.81
417.082	623.36
417.46	644.83
417.837	654.77
418.214	642.34
418.591	650.25
418.967	664.71
419.344	653.64
419.721	695
420.098	676.47
420.475	693.19
420.852	710.14
421.228	709.68
421.605	707.42
421.982	707.65
422.358	761.21
422.735	760.08
423.111	778.38
423.488	776.8
423.864	779.29
424.241	784.94
424.617	814.77
424.994	805.95
425.37	805.28
425.746	812.96
426.123	836.46
426.499	831.72
426.875	855.67
427.251	885.5
427.627	886.4
428.003	897.25
428.379	914.88
428.756	907.42
429.132	920.07
429.507	971.15
429.883	962.11
430.259	944.03
430.635	957.81
431.011	971.6
431.387	998.26
431.763	998.72
432.138	1015.44
432.514	1066.51
432.89	1043.69
433.265	1068.55
433.641	1090.69
434.016	1083.46
434.392	1122.56
434.767	1136.57
435.143	1134.31
435.518	1155.55
435.894	1183.34
436.269	1205.49
436.644	1214.98
437.02	1245.49
437.395	1211.59
437.77	1290.23
438.145	1273.74
438.52	1304.92
438.895	1309.22
439.271	1360.06
439.646	1392.15
440.021	1379.72
440.395	1390.8
440.77	1388.08
441.145	1393.28
441.52	1437.12
441.895	1469.21
442.27	1478.93
442.645	1447.97
443.019	1460.17
443.394	1493.62
443.769	1533.17
444.143	1508.08
444.518	1561.87
444.892	1515.77
445.267	1560.06
445.641	1593.5
446.016	1560.06
446.39	1630.56
446.764	1572.26
447.139	1625.37
447.513	1605.93
447.887	1650.22
448.262	1641.19
448.636	1684.57
449.01	1676.89
449.384	1680.51
449.758	1722.31
450.132	1734.06
450.506	1706.04
450.88	1756.44
451.254	1739.71
451.628	1764.8
452.002	1757.57
452.376	1779.04
452.75	1817.45
453.123	1832.14
453.497	1835.53
453.871	1877.56
454.244	1900.61
454.618	1879.37
454.992	1927.28
455.365	1926.15
455.739	1946.49
456.112	1994.85
456.486	2000.95
456.859	2014.96
457.232	2052.93
457.606	2044.34
457.979	2052.7
458.352	2111
458.725	2139.03
459.099	2156.65
459.472	2170.66
459.845	2179.02
460.218	2213.6
460.591	2211.11
460.964	2235.75
461.337	2283.88
461.71	2302.86
462.083	2371.11
462.456	2343.77
462.829	2343.54
463.201	2407.72
463.574	2428.28
463.947	2461.28
464.32	2495.63
464.692	2483.42
465.065	2525
465.438	2579.24
465.81	2627.83
466.183	2627.6
466.555	2651.55
466.928	2667.83
467.3	2664.89
467.672	2726.35
468.045	2791.66
468.417	2779.23
468.789	2801.61
469.161	2798.9
469.534	2869.85
469.906	2947.82
470.278	2961.15
470.65	2968.38
471.022	3042.28
471.394	3083.41
471.766	3073.01
472.138	3162.73
472.51	3194.82
472.882	3224.42
473.253	3239.79
473.625	3304.42
473.997	3351.2
474.369	3366.34
474.74	3407.47
475.112	3412.66
475.484	3518.88
475.855	3585.32
476.227	3623.51
476.598	3715.26
476.97	3650.85
477.341	3730.62
477.713	3819.89
478.084	3846.1
478.455	3943.05
478.827	3999.99
479.198	4072.31
479.569	4050.39
479.94	4190.05
480.311	4158.86
480.682	4237.95
481.053	4369.25
481.424	4409.7
481.795	4426.88
482.166	4495.12
482.537	4522.47
482.908	4644.95
483.279	4674.78
483.65	4770.37
484.021	4792.52
484.391	4845.4
484.762	4869.35
485.133	4940.99
485.503	4997.03
485.874	5064.6
486.244	5151.15
486.615	5177.82
486.985	5254.88
487.356	5374.65
487.726	5374.65
488.097	5426.17
488.467	5452.38
488.837	5564.25
489.207	5610.12
489.578	5656.9
489.948	5747.29
490.318	5775.09
490.688	5771.92
491.058	5848.31
491.428	5932.82
491.798	6025.03
492.168	6128.53
492.538	6136.66
492.908	6146.38
493.278	6210.33
493.648	6228.86
494.017	6297.79
494.387	6314.96
494.757	6366.03
495.126	6450.1
495.496	6452.13
495.866	6525.8
496.235	6549.98
496.605	6601.51
496.974	6608.06
497.344	6674.73
497.713	6695.29
498.082	6705.46
498.452	6794.5
498.821	6797.89
499.19	6794.27
499.559	6875.4
499.928	6877.66
500.298	6980.71
500.667	6988.84
501.036	6978.67
501.405	7020.93
501.774	7017.77
502.143	7059.8
502.512	7096.18
502.88	7151.32
503.249	7152.91
503.618	7183.86
503.987	7193.81
504.356	7257.76
504.724	7284.65
505.093	7260.02
505.462	7304.31
505.83	7332.11
506.199	7384.09
506.567	7439.9
506.936	7413.69
507.304	7535.95
507.672	7511.31
508.041	7521.03
508.409	7579.79
508.777	7594.93
509.145	7591.54
509.514	7615.72
509.882	7651.88
510.25	7661.14
510.618	7681.48
510.986	7702.72
511.354	7810.97
511.722	7755.83
512.09	7812.32
512.458	7859.33
512.826	7878.31
513.193	7875.37
513.561	7904.52
513.929	7890.51
514.297	7980.23
514.664	7972.32
515.032	7968.02
515.4	8016.16
515.767	8052.77
516.135	8061.13
516.502	7984.97
516.869	8063.62
517.237	8093.9
517.604	8033.56
517.972	8138.19
518.339	8099.77
518.706	8129.38
519.073	8144.74
519.44	8169.6
519.808	8224.29
520.175	8193.1
520.542	8212.76
520.909	8242.14
521.276	8279.88
521.643	8291.86
522.009	8269.26
522.376	8342.03
522.743	8325.3
523.11	8434.91
523.477	8398.75
523.843	8391.29
524.21	8445.53
524.577	8483.94
524.943	8488.92
525.31	8503.15
525.676	8561.46
526.043	8553.09
526.409	8595.13
526.776	8690.04
527.142	8624.28
527.508	8640.55
527.874	8702.69
528.241	8659.31
528.607	8672.64
528.973	8764.39
529.339	8798.51
529.705	8789.02
530.071	8788.12
530.437	8723.26
530.803	8803.03
531.169	8828.57
531.535	8723.71
531.901	8737.5
532.267	8819.53
532.632	8819.08
532.998	8719.87
533.364	8859.3
533.73	8779.76
534.095	8822.47
534.461	8784.73
534.826	8815.46
535.192	8817.27
535.557	8829.02
535.923	8843.71
536.288	8840.77
536.653	8872.63
537.019	8878.28
537.384	8786.76
537.749	8777.04
538.114	8845.29
538.479	8812.3
538.845	8781.79
539.21	8774.78
539.575	8759.64
539.94	8746.54
540.305	8805.29
540.67	8795.35
541.034	8735.24
541.399	8714.9
541.764	8713.99
542.129	8723.49
542.494	8707.21
542.858	8814.33
543.223	8600.32
543.587	8765.52
543.952	8632.41
544.316	8670.15
544.681	8740.43
545.045	8693.43
545.41	8768.46
545.774	8683.49
546.138	8593.32
546.503	8626.54
546.867	8673.09
547.231	8707.67
547.595	8655.46
547.959	8640.78
548.324	8654.56
548.688	8619.08
549.052	8621.34
549.416	8567.11
549.779	8616.82
550.143	8600.55
550.507	8599.19
550.871	8653.88
551.235	8597.61
551.599	8618.18
551.962	8631.96
552.326	8608.46
552.689	8633.32
553.053	8534.11
553.417	8575.92
553.78	8613.21
554.143	8532.53
554.507	8586.99
554.87	8598.74
555.234	8665.18
555.597	8558.52
555.96	8605.75
556.323	8523.49
556.686	8604.39
557.05	8624.05
557.413	8561
557.776	8537.73
558.139	8659.31
558.502	8605.07
558.865	8586.09
559.228	8678.06
559.59	8622.7
559.953	8603.94
560.316	8677.38
560.679	8690.72
561.041	8736.82
561.404	8754.22
561.767	8725.07
562.129	8753.54
562.492	8728.23
562.854	8751.06
563.217	8770.26
563.579	8774.11
563.941	8794.67
564.304	8816.82
564.666	8854.33
565.028	8914.44
565.39	8864.05
565.753	8963.25
566.115	8904.27
566.477	8931.16
566.839	8945.85
567.201	9008.45
567.563	8986.08
567.925	9074.89
568.287	8974.55
568.648	9019.75
569.01	9071.95
569.372	9123.93
569.734	9057.04
570.095	9101.78
570.457	9192.4
570.819	9157.6
571.18	9204.38
571.542	9186.98
571.903	9188.33
572.265	9268.56
572.626	9222.23
572.987	9283.02
573.349	9279.18
573.71	9281.21
574.071	9344.26
574.432	9323.02
574.794	9445.05
575.155	9348.78
575.516	9399.4
575.877	9459.06
576.238	9434.43
576.599	9570.24
576.96	9524.59
577.32	9492.05
577.681	9536.35
578.042	9538.38
578.403	9622.22
578.763	9556.68
579.124	9561.88
579.485	9617.93
579.845	9634.2
580.206	9645.04
580.566	9709.67
580.927	9647.08
581.287	9745.15
581.648	9658.83
582.008	9779.95
582.368	9773.4
582.728	9813.85
583.089	9819.95
583.449	9767.53
583.809	9846.62
584.169	9776.79
584.529	9822.21
584.889	9876.45
585.249	9826.06
585.609	9746.28
585.969	9868.09
586.329	9800.52
586.688	9858.37
587.048	9898.6
587.408	9800.29
587.768	10021.3
588.127	9923.91
588.487	9947.86
588.846	9946.73
589.206	9891.14
589.565	9904.7
589.925	9970.46
590.284	9934.98
590.643	9959.16
591.003	10050.23
591.362	9984.47
591.721	10040.29
592.08	10066.5
592.44	10136.33
592.799	10130
593.158	10029.67
593.517	10111.02
593.876	10092.26
594.235	10056.56
594.593	10125.03
594.952	10150.11
595.311	10047.52
595.67	10057.46
596.029	10106.05
596.387	10113.96
596.746	10224.01
597.104	10149.21
597.463	10112.15
597.822	10155.09
598.18	10161.64
598.538	10155.99
598.897	10159.61
599.255	10082.32
599.613	10204.35
599.972	10200.06
600.33	10195.54
600.688	10190.79
601.046	10177.68
601.404	10226.72
601.762	10255.87
602.12	10219.72
602.478	10300.39
602.836	10293.61
603.194	10231.69
603.552	10188.53
603.91	10259.49
604.268	10238.02
604.625	10198.02
604.983	10325.03
605.341	10222.65
605.698	10275.76
606.056	10315.99
606.413	10239.38
606.771	10281.41
607.128	10340.39
607.485	10328.87
607.843	10287.06
608.2	10375.19
608.557	10399.83
608.914	10390.11
609.272	10426.94
609.629	10441.41
609.986	10450.9
610.343	10416.1
610.7	10508.98
611.057	10483.21
611.414	10416.77
611.771	10403.67
612.127	10482.99
612.484	10452.71
612.841	10466.72
613.198	10503.33
613.554	10420.62
613.911	10515.08
614.267	10510.11
614.624	10445.7
614.98	10439.15
615.337	10577
615.693	10562.76
616.05	10480.28
616.406	10575.64
616.762	10493.38
617.118	10516.21
617.475	10582.87
617.831	10554.17
618.187	10540.39
618.543	10575.41
618.899	10702.87
619.255	10618.35
619.611	10666.49
619.967	10644.56
620.323	10734.51
620.678	10614.28
621.034	10631.23
621.39	10571.12
621.746	10605.47
622.101	10751.91
622.457	10661.29
622.812	10636.66
623.168	10681.4
623.523	10701.74
623.879	10685.47
624.234	10619.48
624.589	10639.14
624.945	10690.21
625.3	10689.54
625.655	10649.99
626.01	10651.34
626.365	10676.65
626.72	10590.1
627.075	10630.1
627.43	10637.33
627.785	10627.62
628.14	10586.94
628.495	10626.94
628.85	10654.06
629.205	10541.52
629.559	10643.66
629.914	10593.27
630.269	10587.17
630.623	10544.45
630.978	10588.3
631.332	10530.22
631.687	10689.54
632.041	10517.79
632.396	10538.8
632.75	10504.46
633.104	10481.18
633.459	10476.66
633.813	10439.15
634.167	10525.7
634.521	10457.45
634.875	10408.41
635.229	10381.29
635.583	10375.42
635.937	10364.8
636.291	10423.33
636.645	10364.8
636.999	10311.47
637.352	10344.23
637.706	10309.66
638.06	10365.93
638.413	10349.43
638.767	10365.02
639.121	10339.26
639.474	10232.6
639.828	10289.55
640.181	10272.37
640.534	10299.26
640.888	10270.11
641.241	10174.52
641.594	10190.79
641.947	10252.71
642.301	10184.01
642.654	10176.1
643.007	10166.84
643.36	10205.71
643.713	10179.04
644.066	10218.59
644.419	10160.51
644.771	10025.15
645.124	9990.34
645.477	10028.31
645.83	9914.19
646.182	9911.48
646.535	9866.28
646.888	9824.47
647.24	9796.23
647.593	9782.89
647.945	9814.08
648.298	9713.97
648.65	9662.22
649.002	9712.61
649.355	9692.05
649.707	9756.45
650.059	9838.03
650.411	9960.29
650.763	9923
651.115	10056.33
651.467	10013.62
651.819	10027.63
652.171	9952.38
652.523	9935.88
652.875	9917.58
653.227	9909.22
653.578	10000.97
653.93	9926.84
654.282	9953.06
654.633	10000.97
654.985	9955.09
655.337	9980.63
655.688	9956
656.039	10041.87
656.391	9967.75
656.742	9907.86
657.094	10053.85
657.445	9996.9
657.796	9953.51
658.147	10009.55
658.498	9924.58
658.849	9916.22
659.2	9955.09
659.551	9929.1
659.902	9933.4
660.253	9949.22
660.604	10031.25
660.955	9951.25
661.306	9914.41
661.656	9932.27
662.007	9958.26
662.358	9959.16
662.708	9915.54
663.059	9970.91
663.409	9906.05
663.76	9926.62
664.11	9991.02
664.461	9979.27
664.811	9938.14
665.161	9935.43
665.511	9948.76
665.862	9940.18
666.212	9986.28
666.562	10045.71
666.912	9964.36
667.262	9885.04
667.612	9974.07
667.962	10045.94
668.312	9980.4
668.662	10017.69
669.011	9957.8
669.361	9903.12
669.711	9903.34
670.06	9930.69
670.41	9934.75
670.76	9885.94
671.109	9988.31
671.459	9881.19
671.808	9897.01
672.157	9927.97
672.507	9863.57
672.856	9895.88
673.205	9916.9
673.554	9852.72
673.904	9788.99
674.253	9892.49
674.602	9818.37
674.951	9778.37
675.3	9704.93
675.649	9769.56
675.998	9815.89
676.346	9790.35
676.695	9878.71
677.044	9746.74
677.393	9828.09
677.741	9808.2
678.09	9742.67
678.438	9748.77
678.787	9719.84
679.135	9765.49
679.484	9672.39
679.832	9737.47
680.181	9639.62
680.529	9667.42
680.877	9659.28
681.225	9536.57
681.573	9684.14
681.922	9548.32
682.27	9513.52
682.618	9580.64
682.966	9545.16
683.314	9553.29
683.661	9522.11
684.009	9475.56
684.357	9416.57
684.705	9468.78
685.053	9431.04
685.4	9380.19
685.748	9391.49
686.095	9318.95
686.443	9298.16
686.79	9329.8
687.138	9342.23
687.485	9307.42
687.832	9258.84
688.18	9269.91
688.527	9184.04
688.874	9218.39
689.221	9197.6
689.568	9120.54
689.915	9042.12
690.262	9087.32
690.609	9125.28
690.956	9014.55
691.303	9034.21
691.65	9000.54
691.997	8976.81
692.344	8972.52
692.69	8966.42
693.037	8871.05
693.383	8823.82
693.73	8850.94
694.077	8809.58
694.423	8815.46
694.769	8744.05
695.116	8743.6
695.462	8784.95
695.808	8720.32
696.155	8682.81
696.501	8635.13
696.847	8624.96
697.193	8544.73
697.539	8578.86
697.885	8528.24
698.231	8483.27
698.577	8505.19
698.923	8479.65
699.269	8411.18
699.614	8370.27
699.96	8353.55
700.306	8305.64
700.651	8242.59
700.997	8235.36
701.342	8280.33
701.688	8176.16
702.033	8171.41
702.379	8175.48
702.724	8193.33
703.069	8233.78
703.415	8058.87
703.76	8036.27
704.105	8014.58
704.45	8052.32
704.795	7978.87
705.14	7972.54
705.485	7953.79
705.83	7937.52
706.175	8029.27
706.52	7859.55
706.865	7841.93
707.209	7884.86
707.554	7753.12
707.899	7776.84
708.243	7753.34
708.588	7796.73
708.932	7714.7
709.277	7657.3
709.621	7738.88
709.966	7630.18
710.31	7661.82
710.654	7603.97
710.998	7606.68
711.342	7566.68
711.687	7582.72
712.031	7484.87
712.375	7546.57
712.719	7505.44
713.063	7481.94
713.407	7501.14
713.75	7459.11
714.094	7499.79
714.438	7466.34
714.782	7469.51
715.125	7418.89
715.469	7426.34
715.812	7384.76
716.156	7384.99
716.499	7326.69
716.843	7372.79
717.186	7256.86
717.53	7326.01
717.873	7316.52
718.216	7281.04
718.559	7256.86
718.902	7252.11
719.246	7229.74
719.589	7276.07
719.932	7171.66
720.275	7220.7
720.617	7218.67
720.96	7197.42
721.303	7196.07
721.646	7170.31
721.989	7119.91
722.331	7175.96
722.674	7133.47
723.016	7160.36
723.359	7118.78
723.701	7121.27
724.044	7148.16
724.386	7090.76
724.729	7122.85
725.071	7103.87
725.413	7142.28
725.755	7127.37
726.097	7056.18
726.439	7068.16
726.782	7017.99
727.124	7041.95
727.465	7002.4
727.807	7038.56
728.149	7034.49
728.491	7078.33
728.833	7061.83
729.175	7020.93
729.516	6998.11
729.858	7000.37
730.199	7027.03
730.541	6970.09
730.882	7020.71
731.224	6961.72
731.565	6968.5
731.906	6982.97
732.248	6959.69
732.589	6942.29
732.93	6895.74
733.271	6963.98
733.612	6966.92
733.953	6936.87
734.294	6928.28
734.635	6973.7
734.976	6947.94
735.317	6927.6
735.658	6955.62
735.999	6982.06
736.339	6927.15
736.68	6911.1
737.021	7001.72
737.361	6949.97
737.702	6961.5
738.042	6953.59
738.383	6985.23
738.723	6942.06
739.063	6941.61
739.404	7001.72
739.744	7006.24
740.084	6985.23
740.424	7013.7
740.764	6982.29
741.104	6980.48
741.444	6989.75
741.784	6973.93
742.124	6980.25
742.464	7029.74
742.804	7068.16
743.143	7043.53
743.483	7081.27
743.823	7081.49
744.162	7097.09
744.502	7119.23
744.841	7082.17
745.181	7159.46
745.52	7163.98
745.86	7256.86
746.199	7198.1
746.538	7258.44
746.877	7297.31
747.216	7328.72
747.556	7326.23
747.895	7408.04
748.234	7421.37
748.573	7438.32
748.911	7456.17
749.25	7498.88
749.589	7544.08
749.928	7610.52
750.267	7608.26
750.605	7711.08
750.944	7730.97
751.283	7779.56
751.621	7844.64
751.96	7890.51
752.298	7994.24
752.636	8082.15
752.975	8100.68
753.313	8203.95
753.651	8255.93
753.989	8311.29
754.327	8384.74
754.666	8449.14
755.004	8494.79
755.342	8700.89
755.679	8747.44
756.017	8781.79
756.355	8882.8
756.693	8948.79
757.031	9064.72
757.368	9221.78
757.706	9371.15
758.044	9408.89
758.381	9540.86
758.719	9625.16
759.056	9803
759.394	9914.87
759.731	9982.66
760.068	10002.77
760.405	10173.39
760.743	10277.79
761.08	10501.74
761.417	10545.36
761.754	10624.45
762.091	10776.09
762.428	10863.54
762.765	10997.55
763.102	11135.63
763.438	11160.48
763.775	11350.08
764.112	11545.78
764.449	11609.29
764.785	11724.54
765.122	11776.74
765.458	11879.79
765.795	12007.01
766.131	12151.19
766.467	12230.29
766.804	12355.25
767.14	12358.64
767.476	12501.47
767.812	12564.74
768.148	12778.97
768.485	12830.5
768.821	12771.29
769.157	12966.54
769.492	13039.3
769.828	13077.27
770.164	13110.04
770.5	13283.14
770.836	13321.33
771.171	13364.27
771.507	13394.77
771.842	13465.51
772.178	13599.52
772.513	13667.54
772.849	13760.42
773.184	13689.68
773.519	13783.92
773.855	13836.8
774.19	13899.62
774.525	13933.29
774.86	13969.9
775.195	14034.76
775.53	14120.41
775.865	14026.85
776.2	14048.09
776.535	14077.92
776.87	14085.15
777.205	14093.74
777.539	14170.35
777.874	14283.34
778.209	14161.99
778.543	14118.37
778.878	14124.02
779.212	14218.93
779.547	14179.39
779.881	14391.81
780.215	14228.65
780.55	14324.92
780.884	14269.78
781.218	14343.68
781.552	14323.56
781.886	14278.82
782.22	14196.11
782.554	14213.96
782.888	14207.18
783.222	14201.31
783.556	14183
783.889	14204.02
784.223	14097.81
784.557	14140.29
784.89	14201.99
785.224	14103
785.557	14064.36
785.891	14055.32
786.224	14098.49
786.558	14067.98
786.891	14016.91
787.224	14037.02
787.557	13980.97
787.891	14038.15
788.224	14072.5
788.557	13919.05
788.89	13963.57
789.223	14078.82
789.556	14011.26
789.888	13849
790.221	13859.85
790.554	13745.05
790.887	13836.35
791.219	13721.32
791.552	13780.53
791.884	13787.08
792.217	13664.6
792.549	13690.36
792.882	13610.59
793.214	13660.98
793.546	13599.29
793.879	13550.03
794.211	13478.61
794.543	13643.13
794.875	13478.84
795.207	13610.14
795.539	13558.84
795.871	13527.43
796.203	13321.33
796.535	13275.23
796.867	13417.6
797.198	13249.69
797.53	13275.46
797.862	13223.71
798.193	13245.4
798.525	13157.49
798.856	13185.97
799.188	13004.05
799.519	13007.89
799.85	12980.77
800.182	12985.29
800.513	13021.68
800.844	12903.04
801.175	12986.42
801.506	12935.13
801.837	12868.91
802.168	12837.5
802.499	12763.61
802.83	12664.4
803.161	12744.85
803.491	12722.93
803.822	12706.43
804.153	12603.61
804.483	12556.83
804.814	12553.67
805.145	12482.93
805.475	12552.31
805.805	12493.78
806.136	12525.19
806.466	12482.93
806.796	12508.7
807.126	12243.39
807.457	12361.58
807.787	12315.93
808.117	12251.98
808.447	12253.56
808.777	12290.17
809.107	12264.41
809.436	12189.83
809.766	12218.31
810.096	12199.33
810.426	12079.33
810.755	12139.44
811.085	12123.62
811.414	12017.64
811.744	12014.02
812.073	11982.16
812.403	11955.49
812.732	11874.59
813.061	11886.11
813.39	11845.89
813.719	11817.87
814.049	11848.37
814.378	11764.54
814.707	11730.19
815.036	11753.24
815.365	11740.81
815.693	11601.15
816.022	11643.18
816.351	11616.29
816.68	11601.6
817.008	11654.48
817.337	11581.26
817.665	11549.85
817.994	11615.39
818.322	11527.71
818.651	11461.72
818.979	11436.86
819.307	11532
819.636	11439.57
819.964	11355.05
820.292	11341.95
820.62	11404.77
820.948	11355.05
821.276	11438.22
821.604	11418.1
821.932	11397.31
822.259	11409.29
822.587	11376.3
822.915	11446.8
823.243	11369.97
823.57	11283.19
823.898	11353.92
824.225	11371.55
824.553	11394.83
824.88	11350.99
825.207	11423.75
825.535	11351.89
825.862	11419.01
826.189	11343.98
826.516	11410.19
826.843	11405.45
827.17	11424.88
827.497	11430.08
827.824	11433.02
828.151	11473.24
828.478	11435.28
828.805	11397.54
829.131	11346.02
829.458	11301.5
829.785	11383.53
830.111	11304.89
830.438	11342.63
830.764	11365.22
831.09	11371.78
831.417	11365
831.743	11385.56
832.069	11420.14
832.395	11271.44
832.722	11241.39
833.048	11312.12
833.374	11335.62
833.7	11341.72
834.026	11343.98
834.351	11344.43
834.677	11329.52
835.003	11291.1
835.329	11225.11
835.654	11229.41
835.98	11238.9
836.306	11212.23
836.631	11158.22
836.956	11236.87
837.282	11199.35
837.607	11188.51
837.932	11114.16
838.258	11165
838.583	11157.55
838.908	11096.76
839.233	11107.15
839.558	11061.5
839.883	10998.68
840.208	11035.29
840.533	11021.28
840.858	11019.02
841.182	11037.32
841.507	10909.42
841.832	10934.95
842.156	10946.25
842.481	10904.67
842.805	10853.82
843.13	10886.37
843.454	10797.33
843.778	10807.27
844.103	10771.12
844.427	10711.46
844.751	10750.55
845.075	10802.75
845.399	10646.15
845.723	10589.42
846.047	10669.42
846.371	10519.14
846.695	10585.36
847.019	10461.74
847.343	10388.98
847.666	10358.7
847.99	10345.14
848.313	10312.37
848.637	10258.13
848.96	10197.8
849.284	10208.42
849.607	10137.01
849.931	10188.98
850.254	10068.76
850.577	9989.67
850.9	9975.43
851.223	9921.19
851.546	9941.08
851.869	9861.76
852.192	9868.77
852.515	9746.51
852.838	9714.87
853.161	9680.75
853.483	9712.39
853.806	9638.72
854.129	9650.69
854.451	9569.56
854.774	9583.8
855.096	9530.24
855.419	9513.75
855.741	9509.68
856.063	9433.07
856.385	9493.18
856.708	9339.97
857.03	9390.81
857.352	9318.27
857.674	9334.99
857.996	9328.44
858.318	9253.87
858.64	9328.89
858.961	9224.94
859.283	9217.94
859.605	9145.85
859.926	9190.37
860.248	9175
860.57	9167.09
860.891	9100.65
861.212	9021.1
861.534	9044.83
861.855	8971.84
862.176	9021.56
862.498	8983.59
862.819	9032.63
863.14	8927.32
863.461	8961.45
863.782	8961.9
864.103	8956.93
864.424	8935.46
864.745	8953.54
865.065	8855.01
865.386	8789.25
865.707	8850.71
866.027	8846.42
866.348	8753.99
866.668	8825.63
866.989	8682.58
867.309	8671.06
867.63	8678.74
867.95	8677.16
868.27	8653.66
868.59	8678.51
868.91	8662.92
869.23	8657.95
869.55	8609.82
869.87	8645.52
870.19	8660.89
870.51	8612.3
870.83	8520.33
871.15	8530.72
871.469	8536.15
871.789	8600.32
872.109	8540.67
872.428	8490.5
872.748	8536.15
873.067	8513.77
873.386	8490.27
873.706	8431.29
874.025	8470.16
874.344	8429.03
874.663	8471.29
874.982	8388.58
875.301	8409.6
875.62	8404.62
875.939	8400.1
876.258	8374.79
876.577	8397.62
876.896	8364.85
877.214	8336.83
877.533	8354.91
877.852	8312.65
878.17	8310.84
878.489	8267.68
878.807	8293.21
879.125	8222.71
879.444	8203.27
879.762	8259.32
880.08	8266.32
880.398	8201.24
880.716	8229.49
881.034	8188.58
881.352	8198.53
881.67	8062.49
881.988	8075.14
882.306	8088.47
882.624	8088.25
882.941	8039.89
883.259	8037.4
883.577	7981.13
883.894	8016.16
884.212	7924.41
884.529	7997.85
884.846	7996.5
885.164	7925.09
885.481	7900
885.798	7959.66
886.115	7907.69
886.432	7873.11
886.75	7839.89
887.067	7842.38
887.383	7806.67
887.7	7797.41
888.017	7851.64
888.334	7817.29
888.651	7688.71
888.967	7717.41
889.284	7665.21
889.6	7659.11
889.917	7611.2
890.233	7636.51
890.55	7575.49
890.866	7606.9
891.182	7577.75
891.498	7479.68
891.815	7486.68
892.131	7473.57
892.447	7483.07
892.763	7407.14
893.079	7442.39
893.395	7441.94
893.71	7411.88
894.026	7431.99
894.342	7337.31
894.657	7251.89
894.973	7269.74
895.289	7251.21
895.604	7248.04
895.92	7137.54
896.235	7127.37
896.55	7161.72
896.865	7150.19
897.181	7143.64
897.496	7141.61
897.811	7042.4
898.126	7053.92
898.441	7057.54
898.756	7007.82
899.071	6966.92
899.386	6969.18
899.7	6910.2
900.015	6901.16
900.33	6781.39
900.644	6771.22
900.959	6906.58
901.273	6749.07
901.588	6738.9
901.902	6781.39
902.216	6753.59
902.531	6658.23
902.845	6671.79
903.159	6660.71
903.473	6595.18
903.787	6561.73
904.101	6551.79
904.415	6559.7
904.729	6516.76
905.042	6469.31
905.356	6478.57
905.67	6461.17
905.984	6438.12
906.297	6423.66
906.611	6427.5
906.924	6338.24
907.237	6375.3
907.551	6313.83
907.864	6264.79
908.177	6264.11
908.491	6222.08
908.804	6249.43
909.117	6167.17
909.43	6113.16
909.743	6122.65
910.056	6142.54
910.368	6080.16
910.681	6070.22
910.994	6053.73
911.307	6048.08
911.619	5982.99
911.932	6005.14
912.244	5924.24
912.557	5937.12
912.869	5929.89
913.181	5874.97
913.494	5863.22
913.806	5832.26
914.118	5837.23
914.43	5778.25
914.742	5757.46
915.054	5759.95
915.366	5697.12
915.678	5724.69
915.99	5644.92
916.302	5629.78
916.613	5585.71
916.925	5602.89
917.236	5562.44
917.548	5551.59
917.859	5545.94
918.171	5524.93
918.482	5524.47
918.794	5455.1
919.105	5479.28
919.416	5425.72
919.727	5426.62
920.038	5399.73
920.349	5371.94
920.66	5362.67
920.971	5305.5
921.282	5334.65
921.593	5280.19
921.903	5240.19
922.214	5219.62
922.525	5242.67
922.835	5180.75
923.146	5211.26
923.456	5178.95
923.767	5092.39
924.077	5099.63
924.387	5076.35
924.697	5049.91
925.008	5009.68
925.318	5066.18
925.628	5057.14
925.938	4968.1
926.248	4978.73
926.558	4984.37
926.867	4928.33
927.177	4942.34
927.487	4902.34
927.796	4863.93
928.106	4866.19
928.416	4840.88
928.725	4816.92
929.034	4780.31
929.344	4794.1
929.653	4774.89
929.962	4736.92
930.271	4692.4
930.581	4675
930.89	4643.59
931.199	4664.83
931.508	4635.01
931.817	4597.49
932.125	4614.89
932.434	4610.6
932.743	4563.59
933.051	4561.56
933.36	4565.4
933.669	4526.99
933.977	4485.63
934.286	4525.4
934.594	4472.52
934.902	4430.94
935.21	4421.68
935.519	4405.86
935.827	4411.73
936.135	4376.25
936.443	4363.37
936.751	4353.43
937.059	4356.59
937.367	4282.47
937.674	4308.46
937.982	4306.43
938.29	4249.25
938.597	4270.72
938.905	4214
939.213	4239.54
939.52	4159.54
939.827	4177.62
940.135	4194.34
940.442	4165.87
940.749	4118.86
941.056	4137.17
941.363	4077.05
941.67	4085.87
941.977	4020.11
942.284	4020.11
942.591	4007.45
942.898	4014.68
943.205	4004.06
943.511	3927.23
943.818	3965.42
944.125	3957.06
944.431	3918.41
944.738	3893.78
945.044	3855.14
945.35	3859.21
945.657	3847
945.963	3822.15
946.269	3823.73
946.575	3813.11
946.881	3805.65
947.187	3808.81
947.493	3771.75
947.799	3767.46
948.105	3718.65
948.41	3732.88
948.716	3704.41
949.022	3662.38
949.327	3643.17
949.633	3657.86
949.938	3641.81
950.244	3632.32
950.549	3563.4
950.854	3586.45
951.16	3561.36
951.465	3588.03
951.77	3515.71
952.075	3507.35
952.38	3493.57
952.685	3508.26
952.99	3486.33
953.294	3467.13
953.599	3451.53
953.904	3431.42
954.209	3422.16
954.513	3393.23
954.818	3422.16
955.122	3389.84
955.426	3383.29
955.731	3358.88
956.035	3326.79
956.339	3331.08
956.643	3288.37
956.948	3260.58
957.252	3281.37
957.556	3263.06
957.86	3262.84
958.163	3266.68
958.467	3237.3
958.771	3208.83
959.075	3215.38
959.378	3183.52
959.682	3196.62
959.985	3161.37
960.289	3133.8
960.592	3149.17
960.896	3131.54
961.199	3102.84
961.502	3133.35
961.805	3109.4
962.108	3086.57
962.411	3094.71
962.714	3033.01
963.017	3072.33
963.32	3053.13
963.623	3009.96
963.926	2988.04
964.228	2988.49
964.531	2993.92
964.833	2958.89
965.136	2974.48
965.438	2934.94
965.741	2935.39
966.043	2902.62
966.345	2902.62
966.648	2894.71
966.95	2844.77
967.252	2808.61
967.554	2855.17
967.856	2825.56
968.158	2842.51
968.46	2763.87
968.761	2805.45
969.063	2803.87
969.365	2748.95
969.666	2755.96
969.968	2762.51
970.269	2714.6
970.571	2726.13
970.872	2720.03
971.174	2701.27
971.475	2694.49
971.776	2686.58
972.077	2686.36
972.378	2634.61
972.679	2632.35
972.98	2634.38
973.281	2602.06
973.582	2617.43
973.883	2613.82
974.183	2597.32
974.484	2569.3
974.785	2541.95
975.085	2565
975.386	2575.17
975.686	2551.22
975.986	2546.47
976.287	2534.95
976.587	2517.77
976.887	2494.95
977.187	2481.39
977.487	2495.85
977.787	2505.57
978.087	2433.93
978.387	2464.67
978.687	2481.39
978.987	2423.76
979.286	2385.57
979.586	2417.21
979.885	2385.12
980.185	2380.15
980.484	2376.31
980.784	2389.41
981.083	2372.69
981.382	2356.2
981.682	2350.55
981.981	2309.19
982.28	2304.9
982.579	2298.34
982.878	2291.56
983.177	2306.48
983.475	2280.26
983.774	2264.22
984.073	2242.53
984.372	2219.93
984.67	2252.24
984.969	2237.33
985.267	2228.51
985.566	2210.44
985.864	2192.58
986.162	2182.19
986.461	2186.48
986.759	2168.63
987.057	2135.41
987.355	2162.53
987.653	2163.43
987.951	2156.65
988.249	2131.12
988.547	2116.88
988.844	2071.23
989.142	2074.39
989.44	2085.92
989.737	2080.72
990.035	2063.32
990.332	2042.76
990.63	2045.02
990.927	2043.66
991.224	2020.16
991.521	2017.45
991.819	2001.85
992.116	2012.93
992.413	1968.86
992.71	1952.82
993.006	2006.37
993.303	1970.22
993.6	1979.03
993.897	1955.75
994.193	1966.83
994.49	1911.01
994.787	1932.03
995.083	1940.39
995.379	1902.87
995.676	1912.59
995.972	1887.73
996.268	1889.31
996.565	1880.5
996.861	1837.11
997.157	1882.99
997.453	1855.64
997.749	1827.4
998.044	1850.45
998.34	1809.54
998.636	1801.63
998.932	1813.61
999.227	1771.58
999.523	1817.23
999.818	1767.28
1000.114	1749.21
1000.409	1757.79
1000.704	1728.19
1001	1741.3
1001.295	1735.87
1001.59	1750.79
1001.885	1712.14
1002.18	1708.53
1002.475	1683.9
1002.77	1696.78
1003.065	1701.3
1003.359	1685.93
1003.654	1653.84
1003.949	1626.72
1004.243	1646.38
1004.538	1644.35
1004.832	1603.67
1005.127	1579.27
1005.421	1603.45
1005.715	1587.4
1006.009	1590.79
1006.304	1576.78
1006.598	1577.68
1006.892	1566.39
1007.186	1542.88
1007.48	1559.15
1007.773	1539.27
1008.067	1525.48
1008.361	1496.33
1008.655	1522.09
1008.948	1506.05
1009.242	1520.96
1009.535	1453.17
1009.829	1473.73
1010.122	1482.55
1010.415	1470.34
1010.708	1427.18
1011.001	1439.16
1011.295	1442.32
1011.588	1421.76
1011.881	1431.7
1012.173	1421.53
1012.466	1427.63
1012.759	1404.36
1013.052	1428.08
1013.344	1389.44
1013.637	1402.1
1013.93	1363.23
1014.222	1380.4
1014.514	1359.39
1014.807	1366.39
1015.099	1342.89
1015.391	1344.24
1015.683	1336.33
1015.976	1322.32
1016.268	1320.06
1016.56	1304.02
1016.851	1306.28
1017.143	1295.88
1017.435	1285.49
1017.727	1298.6
1018.018	1296.34
1018.31	1251.82
1018.602	1269.22
1018.893	1229.45
1019.185	1237.35
1019.476	1232.83
1019.767	1224.25
1020.058	1209.56
1020.35	1236
1020.641	1196.45
1020.932	1214.76
1021.223	1202.78
1021.514	1186.06
1021.804	1202.1
1022.095	1168.66
1022.386	1159.16
1022.677	1148.77
1022.967	1134.31
1023.258	1141.09
1023.548	1138.37
1023.839	1160.29
1024.129	1117.36
1024.419	1103.35
1024.709	1119.39
1025	1084.36
1025.29	1092.95
1025.58	1071.71
1025.87	1075.55
1026.16	1048.88
1026.449	1084.14
1026.739	1083.46
1027.029	1064.25
1027.319	1017.25
1027.608	1009.11
1027.898	1036
1028.187	1041.43
1028.477	994.65
1028.766	1058.38
1029.055	1001.2
1029.344	1022.9
1029.634	1016.57
1029.923	999.39
1030.212	972.5
1030.501	965.72
1030.79	978.38
1031.078	942.22
1031.367	939.28
1031.656	966.85
1031.945	946.29
1032.233	939.51
1032.522	930.02
1032.81	944.03
1033.099	922.79
1033.387	907.19
1033.675	931.15
1033.963	900.64
1034.251	904.71
1034.54	895.22
1034.828	890.02
1035.116	894.76
1035.403	898.15
1035.691	868.55
1035.979	858.16
1036.267	878.27
1036.554	889.79
1036.842	868.55
1037.129	869.45
1037.417	867.42
1037.704	830.13
1037.992	853.18
1038.279	838.04
1038.566	823.81
1038.853	823.81
1039.14	823.81
