Data from hue_36_FLMS001491_00042.txt Node
Date: Tue Feb 07 17:29:51 GMT 2017
User: dcchb
Spectrometer: FLMS00149
Trigger mode: 0
Integration Time (sec): 2.000000E-2
Scans to average: 10
Electric dark correction enabled: true
Nonlinearity correction enabled: false
Boxcar width: 0
XAxis mode: Wavelengths
Number of Pixels in Spectrum: 2048
>>>>>Begin Spectral Data<<<<<
341.393	-13.12
341.776	-13.12
342.16	-13.12
342.543	-69.84
342.927	-62.61
343.31	-65.32
343.693	-46.34
344.077	-56.06
344.46	-62.39
344.843	-58.32
345.226	-42.72
345.61	-15.38
345.993	-19.9
346.376	-16.51
346.759	5.18
347.142	6.54
347.525	40.44
347.908	49.02
348.291	87.67
348.674	94.67
349.057	99.42
349.44	132.41
349.823	166.76
350.206	159.98
350.588	200.66
350.971	216.48
351.354	220.32
351.737	256.93
352.119	265.06
352.502	261.67
352.884	295.57
353.267	277.94
353.65	302.35
354.032	298.06
354.414	293.54
354.797	286.76
355.179	325.85
355.562	329.92
355.944	336.93
356.326	349.58
356.709	343.93
357.091	360.43
357.473	364.72
357.855	350.03
358.238	351.16
358.62	359.52
359.002	349.58
359.384	342.35
359.766	338.06
360.148	352.07
360.53	346.19
360.912	343.03
361.294	338.51
361.676	355.23
362.057	331.5
362.439	315.91
362.821	351.62
363.203	343.03
363.584	348.9
363.966	336.7
364.348	313.88
364.729	326.76
365.111	336.93
365.493	338.73
365.874	342.58
366.256	328.11
366.637	309.58
367.019	323.14
367.4	322.46
367.781	325.85
368.163	320.43
368.544	336.7
368.925	310.49
369.306	335.57
369.688	312.07
370.069	298.06
370.45	332.63
370.831	319.75
371.212	305.74
371.593	324.5
371.974	313.88
372.355	312.97
372.736	330.82
373.117	323.37
373.498	313.2
373.879	312.52
374.26	321.56
374.641	323.14
375.021	328.11
375.402	327.43
375.783	324.05
376.163	347.77
376.544	328.79
376.925	319.53
377.305	318.4
377.686	308.68
378.066	327.66
378.447	315.46
378.827	329.47
379.208	321.11
379.588	333.31
379.968	343.25
380.349	330.6
380.729	350.49
381.109	333.76
381.489	356.36
381.87	377.83
382.25	330.82
382.63	343.25
383.01	336.02
383.39	367.43
383.77	350.94
384.15	354.1
384.53	335.8
384.91	351.39
385.29	360.88
385.67	365.4
386.049	355.68
386.429	357.26
386.809	349.36
387.189	359.98
387.568	352.52
387.948	361.56
388.328	378.28
388.707	364.04
389.087	366.3
389.466	361.78
389.846	355.91
390.225	386.87
390.605	376.02
390.984	373.99
391.363	395
391.743	379.86
392.122	378.51
392.501	383.03
392.881	382.57
393.26	361.33
393.639	372.18
394.018	391.84
394.397	371.95
394.776	377.15
395.155	389.58
395.534	385.96
395.913	391.84
396.292	384.83
396.671	404.5
397.05	371.05
397.429	389.58
397.808	387.77
398.186	392.52
398.565	393.2
398.944	413.53
399.323	402.46
399.701	387.09
400.08	386.42
400.458	393.42
400.837	431.61
401.215	414.21
401.594	384.83
401.972	410.14
402.351	400.43
402.729	417.6
403.107	411.05
403.486	401.11
403.864	402.91
404.242	399.98
404.62	428.9
404.999	419.18
405.377	410.14
405.755	415.34
406.133	430.03
406.511	437.04
406.889	417.83
407.267	428.68
407.645	435
408.023	446.08
408.401	457.15
408.779	449.47
409.156	451.05
409.534	424.38
409.912	442.69
410.29	439.75
410.667	451.95
411.045	460.09
411.422	449.92
411.8	470.03
412.178	500.31
412.555	452.4
412.933	481.33
413.31	452.63
413.687	484.94
414.065	479.3
414.442	463.93
414.819	483.14
415.197	481.78
415.574	486.98
415.951	503.48
416.328	497.6
416.705	486.53
417.082	481.56
417.46	507.32
417.837	487.66
418.214	492.85
418.591	529.01
418.967	498.28
419.344	490.82
419.721	498.05
420.098	514.1
420.475	515.45
420.852	529.69
421.228	535.34
421.605	540.99
421.982	528.11
422.358	519.75
422.735	532.18
423.111	556.13
423.488	535.11
423.864	567.43
424.241	543.93
424.617	558.39
424.994	570.59
425.37	555
425.746	561.78
426.123	556.36
426.499	562
426.875	562.46
427.251	594.32
427.627	561.33
428.003	590.7
428.379	586.86
428.756	611.95
429.132	601.78
429.507	580.99
429.883	608.78
430.259	627.77
430.635	608.33
431.011	601.1
431.387	628.9
431.763	644.71
432.138	609.91
432.514	626.64
432.89	648.56
433.265	641.55
433.641	636.35
434.016	652.62
434.392	667.54
434.767	680.65
435.143	656.24
435.518	676.8
435.894	676.58
436.269	683.81
436.644	707.76
437.02	696.24
437.395	686.52
437.77	716.58
438.145	707.99
438.52	700.98
438.895	724.49
439.271	694.43
439.646	724.03
440.021	713.19
440.395	730.81
440.77	739.63
441.145	745.28
441.52	726.07
441.895	752.06
442.27	765.39
442.645	743.47
443.019	778.04
443.394	763.58
443.769	768.33
444.143	772.17
444.518	788.89
444.892	784.6
445.267	808.55
445.641	793.86
446.016	783.69
446.39	801.55
446.764	799.29
447.139	814.43
447.513	810.59
447.887	803.35
448.262	793.41
448.636	821.66
449.01	822.11
449.384	853.97
449.758	852.84
450.132	856.91
450.506	843.35
450.88	849.68
451.254	859.17
451.628	846.29
452.002	863.47
452.376	857.59
452.75	884.71
453.123	867.99
453.497	903.46
453.871	908.66
454.244	895.56
454.618	893.52
454.992	929
455.365	925.84
455.739	943.01
456.112	958.38
456.486	949.57
456.859	983.46
457.232	978.49
457.606	978.27
457.979	995.89
458.352	1014.42
458.725	1012.84
459.099	1034.31
459.472	1026.63
459.845	1065.72
460.218	1074.31
460.591	1063.91
460.964	1074.99
461.337	1104.82
461.71	1113.18
462.083	1099.84
462.456	1114.31
462.829	1131.93
463.201	1147.3
463.574	1153.63
463.947	1172.84
464.32	1193.4
464.692	1211.25
465.065	1230.24
465.438	1248.31
465.81	1247.41
466.183	1238.82
466.555	1269.11
466.928	1280.86
467.3	1300.52
467.672	1330.35
468.045	1362.44
468.417	1347.3
468.789	1371.7
469.161	1399.27
469.534	1413.28
469.906	1426.16
470.278	1459.61
470.65	1502.09
471.022	1492.83
471.394	1550
471.766	1549.1
472.138	1539.38
472.51	1591.13
472.882	1655.54
473.253	1644.01
473.625	1691.69
473.997	1711.81
474.369	1758.36
474.74	1779.6
475.112	1815.76
475.484	1871.12
475.855	1945.25
476.227	1923.55
476.598	1971.91
476.97	2014.85
477.341	2044.23
477.713	2110.44
478.084	2078.12
478.455	2222.3
478.827	2234.96
479.198	2282.86
479.569	2356.31
479.94	2444.89
480.311	2506.81
480.682	2583.65
481.053	2619.13
481.424	2650.31
481.795	2712.68
482.166	2776.41
482.537	2844.43
482.908	2950.42
483.279	2994.94
483.65	3072.9
484.021	3198.09
484.391	3255.04
484.762	3333.01
485.133	3389.05
485.503	3469.5
485.874	3571.42
486.244	3649.38
486.615	3756.5
486.985	3855.7
487.356	3949.94
487.726	4015.25
488.097	4070.39
488.467	4188.8
488.837	4309.7
489.207	4391.28
489.578	4485.29
489.948	4559.87
490.318	4653.2
490.688	4712.63
491.058	4899.97
491.428	4931.38
491.798	5014.09
492.168	5230.36
492.538	5227.87
492.908	5363.46
493.278	5467.86
493.648	5548.31
494.017	5615.21
494.387	5749.21
494.757	5834.63
495.126	5935.87
495.496	6015.42
495.866	6096.1
496.235	6146.04
496.605	6329.31
496.974	6366.82
497.344	6481.85
497.713	6554.16
498.082	6576.08
498.452	6765.46
498.821	6782.86
499.19	6847.26
499.559	6981.5
499.928	7083.42
500.298	7154.37
500.667	7210.87
501.036	7260.13
501.405	7359.79
501.774	7383.97
502.143	7501.48
502.512	7573.57
502.88	7634.14
503.249	7719.1
503.618	7778.54
503.987	7848.82
504.356	7960.68
504.724	7991.64
505.093	8114.35
505.462	8152.31
505.83	8317.51
506.199	8259.43
506.567	8409.26
506.936	8425.75
507.304	8563.15
507.672	8581.68
508.041	8663.49
508.409	8677.72
508.777	8826.87
509.145	8916.14
509.514	8932.63
509.882	9044.04
510.25	9058.96
510.618	9143.47
510.986	9098.05
511.354	9216.47
511.722	9347.99
512.09	9437.25
512.458	9458.72
512.826	9517.02
513.193	9630.47
513.561	9638.83
513.929	9692.61
514.297	9785.72
514.664	9787.3
515.032	9949.1
515.4	10017.12
515.767	9980.74
516.135	10079.04
516.502	10053.51
516.869	10239.26
517.237	10260.73
517.604	10238.13
517.972	10400.16
518.339	10407.62
518.706	10429.09
519.073	10458.47
519.44	10653.27
519.808	10640.61
520.175	10663.21
520.542	10770.55
520.909	10827.05
521.276	10906.82
521.643	10935.74
522.009	11021.17
522.376	11070.88
522.743	11216.87
523.11	11273.81
523.477	11330.08
523.843	11297.54
524.21	11452.79
524.577	11567.59
524.943	11594.03
525.31	11714.25
525.676	11807.59
526.043	11920.8
526.409	11867.92
526.776	12039.44
527.142	12116.5
527.508	12118.99
527.874	12323.5
528.241	12269.27
528.607	12342.71
528.973	12495.48
529.339	12486.21
529.705	12599.43
530.071	12642.82
530.437	12735.24
530.803	12775.92
531.169	12822.47
531.535	12872.87
531.901	12891.85
532.267	12995.12
532.632	13075.8
532.998	13091.39
533.364	13165.74
533.73	13216.14
534.095	13388.33
534.461	13394.66
534.826	13435.34
535.192	13485.96
535.557	13503.36
535.923	13571.61
536.288	13624.71
536.653	13667.2
537.019	13622.68
537.384	13695.67
537.749	13850.24
538.114	13916.68
538.479	13901.32
538.845	13985.15
539.21	13997.36
539.575	14079.62
539.94	14179.95
540.305	14206.84
540.67	14163.46
541.034	14240.97
541.399	14352.15
541.764	14451.13
542.129	14457.68
542.494	14474.18
542.858	14599.15
543.223	14599.6
543.587	14638.7
543.952	14671.24
544.316	14798.01
544.681	14747.62
545.045	14890.22
545.41	14899.71
545.774	14983.77
546.138	15042.3
546.503	15106.71
546.867	15142.19
547.231	15285.46
547.595	15285.91
547.959	15274.39
548.324	15344.67
548.688	15405.23
549.052	15448.39
549.416	15432.35
549.779	15533.59
550.143	15506.92
550.507	15834.37
550.871	15669.18
551.235	15731.32
551.599	15830.76
551.962	15880.7
552.326	15908.95
552.689	16001.15
553.053	16020.81
553.417	16093.35
553.78	16286.56
554.143	16190.75
554.507	16326.56
554.87	16266.22
555.234	16490.17
555.597	16370.63
555.96	16454.24
556.323	16514.58
556.686	16567.01
557.05	16635.25
557.413	16675.93
557.776	16730.62
558.139	16879.99
558.502	16800.9
558.865	16916.83
559.228	17106.43
559.59	17083.15
559.953	17104.39
560.316	17286.54
560.679	17225.97
561.041	17422.13
561.404	17403.14
561.767	17534.89
562.129	17480.43
562.492	17646.3
562.854	17692.85
563.217	17631.61
563.579	17759.97
563.941	17851.04
564.304	17914.77
564.666	18040.64
565.028	18076.8
565.39	18199.51
565.753	18195.89
566.115	18322.67
566.477	18353.4
566.839	18382.55
567.201	18465.26
567.563	18466.84
567.925	18639.72
568.287	18611.02
568.648	18708.87
569.01	18931.24
569.372	18933.5
569.734	18903.44
570.095	18995.42
570.457	19065.47
570.819	19141.63
571.18	19193.15
571.542	19355.41
571.903	19278.8
572.265	19450.32
572.626	19544.56
572.987	19490.09
573.349	19663.42
573.71	19716.08
574.071	19890.31
574.432	19914.49
574.794	20118.1
575.155	20103.86
575.516	20205.78
575.877	20331.88
576.238	20369.62
576.599	20582.04
576.96	20697.52
577.32	20810.29
577.681	20916.95
578.042	20961.02
578.403	21065.87
578.763	21245.75
579.124	21393.32
579.485	21599.87
579.845	21786.98
580.206	21797.6
580.566	21988.56
580.927	22133.19
581.287	22223.58
581.648	22297.7
582.008	22546.74
582.368	22602.33
582.728	22845.49
583.089	23057.46
583.449	23133.39
583.809	23385.81
584.169	23626.71
584.529	23758.01
584.889	24105.34
585.249	24034.83
585.609	24204.77
585.969	24672.56
586.329	24701.71
586.688	24928.6
587.048	25131.98
587.408	25304.18
587.768	25431.63
588.127	25633.66
588.487	25858.06
588.846	26290.14
589.206	26314.32
589.565	26663.92
589.925	26861.88
590.284	27043.57
590.643	27203.11
591.003	27625.7
591.362	27816.43
591.721	27860.5
592.08	28199.02
592.44	28428.39
592.799	28715.39
593.158	28773.24
593.517	28963.74
593.876	29414.13
594.235	29503.39
594.593	29712.2
594.952	29949.03
595.311	30133.2
595.67	30509.24
596.029	30767.31
596.387	31017.02
596.746	31193.74
597.104	31418.59
597.463	31505.37
597.822	31715.08
598.18	32004.57
598.538	32129.08
598.897	32482.07
599.255	32319.81
599.613	33052.22
599.972	33050.42
600.33	33339.9
600.688	33311.65
601.046	33606.33
601.404	33945.76
601.762	33935.14
602.12	34390.04
602.478	34427.33
602.836	34701.9
603.194	34619.64
603.552	35009.69
603.91	34933.3
604.268	35414.65
604.625	35245.16
604.983	35560.86
605.341	35519.05
605.698	35816.45
606.056	36164.46
606.413	36216.66
606.771	36433.15
607.128	36707.72
607.485	36561.28
607.843	36633.15
608.2	37046.47
608.557	37242.17
608.914	37202.4
609.272	37457.98
609.629	37636.96
609.986	37860.91
610.343	37889.16
610.7	38144.07
611.057	38217.96
611.414	38249.83
611.771	38403.27
612.127	38622.02
612.484	38800.1
612.841	38990.15
613.198	38952.86
613.554	39125.51
613.911	39313.75
614.267	39453.41
614.624	39437.14
614.98	39575.67
615.337	39871.93
615.693	39956.45
616.05	39955.55
616.406	40309.43
616.762	40098.37
617.118	40120.51
617.475	40421.52
617.831	40466.04
618.187	40564.57
618.543	40550.11
618.899	40764.79
619.255	40846.14
619.611	40982.86
619.967	41175.17
620.323	41190.77
620.678	41254.04
621.034	41194.61
621.39	41155.74
621.746	41332.46
622.101	41708.27
622.457	41553.7
622.812	41639.12
623.168	41800.24
623.523	41807.93
623.879	42006.11
624.234	41695.84
624.589	41856.74
624.945	41920.47
625.3	41990.97
625.655	42117.3
626.01	42115.94
626.365	42258.31
626.72	42252.66
627.075	42201.59
627.43	42205.43
627.785	42228.71
628.14	42281.81
628.495	42310.06
628.85	42395.48
629.205	42131.76
629.559	42486.55
629.914	42273.22
630.269	42420.11
630.623	42263.28
630.978	42263.73
631.332	42427.34
631.687	42620.56
632.041	42286.11
632.396	42400.9
632.75	42492.43
633.104	42282.04
633.459	42272.77
633.813	42302.15
634.167	42374.46
634.521	42314.35
634.875	42484.74
635.229	42330.85
635.583	42219.67
635.937	42398.87
636.291	42325.2
636.645	42266.67
636.999	42172.21
637.352	42384.41
637.706	42077.52
638.06	42287.91
638.413	42100.35
638.767	42074.59
639.121	42217.41
639.474	41940.13
639.828	42074.36
640.181	42232.1
640.534	42075.72
640.888	42005.89
641.241	41903.52
641.594	42047.92
641.947	42140.8
642.301	41916.85
642.654	41938.09
643.007	41959.11
643.36	42029.62
643.713	41861.26
644.066	42148.48
644.419	41882.5
644.771	41572.23
645.124	41383.08
645.477	41136.08
645.83	40861.06
646.182	40807.05
646.535	40617.22
646.888	40691.57
647.24	40577.45
647.593	40812.92
647.945	40705.36
648.298	40586.26
648.65	40340.62
649.002	40299.27
649.355	40449.54
649.707	40492.03
650.059	40714.4
650.411	41235.29
650.763	41194.61
651.115	41545.11
651.467	41414.72
651.819	41344.66
652.171	41296.53
652.523	41259.92
652.875	41150.09
653.227	41102.63
653.578	41325
653.93	41454.72
654.282	41182.41
654.633	41026.48
654.985	41063.09
655.337	41180.15
655.688	41200.71
656.039	41361.16
656.391	40946.48
656.742	41030.77
657.094	41134.27
657.445	41217.21
657.796	41119.36
658.147	41069.19
658.498	41019.02
658.849	41084.78
659.2	41076.19
659.551	40932.47
659.902	41109.64
660.253	41078.23
660.604	41037.55
660.955	40911.23
661.306	40990.77
661.656	41063.99
662.007	40892.02
662.358	40940.83
662.708	40932.69
663.059	40892.7
663.409	40552.14
663.76	41030.32
664.11	41063.09
664.461	40946.03
664.811	41016.99
665.161	40974.5
665.511	40836.65
665.862	40930.66
666.212	40982.41
666.562	41137.44
666.912	40831.91
667.262	40876.65
667.612	40907.61
667.962	40926.82
668.312	40784
668.662	40970.43
669.011	40660.61
669.361	40774.96
669.711	40760.5
670.06	40708.52
670.41	40642.99
670.76	40614.06
671.109	40727.73
671.459	40646.83
671.808	40463.78
672.157	40953.94
672.507	40507.4
672.856	40521.63
673.205	40616.09
673.554	40628.3
673.904	40420.17
674.253	40854.05
674.602	40642.53
674.951	40073.73
675.3	39942.89
675.649	40595.75
675.998	40533.38
676.346	40438.92
676.695	40654.96
677.044	40378.81
677.393	40455.42
677.741	40521.18
678.09	40344.91
678.438	40227.85
678.787	40453.16
679.135	40304.01
679.484	40023.34
679.832	40234.86
680.181	39997.13
680.529	40101.76
680.877	39913.51
681.225	39871.48
681.573	40226.72
681.922	39944.25
682.27	39855.21
682.618	39772.95
682.966	39633.52
683.314	39835.32
683.661	39579.74
684.009	39507.65
684.357	39298.16
684.705	39309.91
685.053	39302.91
685.4	39432.85
685.748	39002.58
686.095	39175.45
686.443	39054.33
686.79	39021.33
687.138	39086.87
687.485	39069.47
687.832	38923.03
688.18	39037.15
688.527	38695.69
688.874	38627.9
689.221	38624.06
689.568	38567.79
689.915	38479.65
690.262	38497.73
690.609	38461.35
690.956	38238.3
691.303	38159.43
691.65	38058.19
691.997	38121.02
692.344	37819.78
692.69	37906.11
693.037	37669.28
693.383	37555.83
693.73	37639.45
694.077	37377.99
694.423	37311.55
694.769	37254.83
695.116	37117.65
695.462	37109.97
695.808	37080.37
696.155	37032.46
696.501	36856.64
696.847	36875.17
697.193	36597.22
697.539	36814.61
697.885	36526.94
698.231	36409.88
698.577	36418.24
698.923	36448.75
699.269	36084.69
699.614	36005.82
699.96	35947.06
700.306	36031.58
700.651	35927.18
700.997	35634.08
701.342	35668.88
701.688	35796.56
702.033	35460.3
702.379	35438.83
702.724	35470.92
703.069	35522.89
703.415	35068.22
703.76	35133.98
704.105	35143.02
704.45	35140.53
704.795	34859.41
705.14	34704.38
705.485	34651.28
705.83	34598.85
706.175	34567.44
706.52	34509.59
706.865	34404.05
707.209	34265.75
707.554	34264.17
707.899	34274.79
708.243	34096.94
708.588	34017.62
708.932	33727.01
709.277	33780.11
709.621	33938.98
709.966	33635.03
710.31	33789.83
710.654	33358.2
710.998	33484.53
711.342	33678.65
711.687	33406.57
712.031	33194.82
712.375	33067.59
712.719	33201.37
713.063	33082.05
713.407	33212.22
713.75	32942.17
714.094	33073.01
714.438	32945.33
714.782	32856.07
715.125	32684.55
715.469	32770.88
715.812	32552.8
716.156	32531.11
716.499	32500.6
716.843	32461.28
717.186	32185.58
717.53	32477.32
717.873	32340.83
718.216	32381.73
718.559	32212.7
718.902	31924.8
719.246	32074.4
719.589	31906.27
719.932	31854.29
720.275	31882.76
720.617	31789.88
720.96	31686.16
721.303	31509.21
721.646	31681.64
721.989	31455.43
722.331	31605.03
722.674	31567.07
723.016	31465.15
723.359	31498.14
723.701	31524.58
724.044	31361.2
724.386	31182.89
724.729	31276.9
725.071	31164.82
725.413	31186.96
725.755	31118.49
726.097	31044.59
726.439	30989.91
726.782	30840.98
727.124	31082.78
727.465	30784.04
727.807	30769.57
728.149	30747.2
728.491	30701.78
728.833	30592.63
729.175	30534.78
729.516	30480.99
729.858	30501.56
730.199	30449.35
730.541	30438.96
730.882	30364.39
731.224	30474.89
731.565	30180.66
731.906	30269.47
732.248	30323.48
732.589	30052.08
732.93	30028.35
733.271	30052.53
733.612	30012.98
733.953	29985.41
734.294	29964.17
734.635	29930.95
734.976	29853.21
735.317	29657.29
735.658	29643.95
735.999	29657.29
736.339	29810.73
736.68	29770.73
737.021	29558.08
737.361	29463.62
737.702	29580.9
738.042	29622.03
738.383	29391.76
738.723	29570.73
739.063	29376.39
739.404	29406.9
739.744	29248.71
740.084	29256.17
740.424	29227.24
740.764	29207.35
741.104	29252.55
741.444	28991.54
741.784	28951.99
742.124	29012.1
742.464	29062.72
742.804	28941.82
743.143	28880.81
743.483	28934.37
743.823	28729.63
744.162	28755.84
744.502	28747.7
744.841	28624.54
745.181	28830.19
745.52	28705.22
745.86	28654.37
746.199	28634.26
746.538	28428.16
746.877	28581.83
747.216	28613.92
747.556	28546.35
747.895	28401.5
748.234	28304.78
748.573	28286.93
748.911	28230.2
749.25	28216.87
749.589	27980.04
749.928	28107.27
750.267	28211.67
750.605	28110.89
750.944	28073.6
751.283	27896.2
751.621	27967.61
751.96	27730.56
752.298	27800.84
752.636	27713.61
752.975	27711.57
753.313	27521.3
753.651	27683.33
753.989	27470.68
754.327	27420.73
754.666	27252.38
755.004	27413.95
755.342	27298.48
755.679	27335.54
756.017	27146.62
756.355	27355.42
756.693	27143.68
757.031	27238.37
757.368	26985.72
757.706	27020.29
758.044	26959.73
758.381	26890.13
758.719	26858.26
759.056	26809.9
759.394	26712.73
759.731	26529.23
760.068	26654.43
760.405	26437.93
760.743	26327.88
761.08	26422.12
761.417	26235.91
761.754	26049.92
762.091	26176.47
762.428	26003.82
762.765	25825.3
763.102	26068.68
763.438	25719.54
763.775	25717.5
764.112	25756.14
764.449	25861.23
764.785	25518.18
765.122	25449.94
765.458	25291.98
765.795	25312.31
766.131	25230.96
766.467	25131.98
766.804	25047.91
767.14	24965.43
767.476	24964.98
767.812	24872.78
768.148	24828.26
768.485	24639.11
768.821	24451.55
769.157	24516.63
769.492	24480.7
769.828	24441.83
770.164	24213.81
770.5	24227.15
770.836	24158.67
771.171	23948.73
771.507	24018.79
771.842	23840.26
772.178	23818.79
772.513	23717.78
772.849	23669.42
773.184	23471.91
773.519	23595.3
773.855	23430.56
774.19	23337.9
774.525	23337.68
774.86	23166.38
775.195	23113.5
775.53	23005.48
775.865	22913.51
776.2	22708.32
776.535	22544.93
776.87	22730.24
777.205	22544.93
777.539	22428.55
777.874	22569.11
778.209	22319.85
778.543	22216.35
778.878	22157.82
779.212	22151.27
779.547	22020.2
779.881	22020.42
780.215	21863.14
780.55	21887.77
780.884	21734.78
781.218	21669.92
781.552	21681.68
781.886	21556.26
782.22	21400.1
782.554	21442.59
782.888	21222.25
783.222	21033.11
783.556	21046.21
783.889	21003.5
784.223	20863.62
784.557	20695.03
784.89	20841.02
785.224	20733
785.557	20571.42
785.891	20562.61
786.224	20504.08
786.558	20491.42
786.891	20279
787.224	20190.87
787.557	20128.27
787.891	20080.14
788.224	20143.41
788.557	20055.05
788.89	20057.09
789.223	19930.08
789.556	19734.83
789.888	19691.9
790.221	19762.86
790.554	19607.38
790.887	19596.98
791.219	19528.29
791.552	19450.55
791.884	19375.97
792.217	19279.93
792.549	19224.11
792.882	19080.16
793.214	18949.77
793.546	18997.9
793.879	18942.54
794.211	18856.44
794.543	18819.15
794.875	18715.43
795.207	18810.56
795.539	18632.49
795.871	18590.01
796.203	18490.12
796.535	18321.09
796.867	18339.39
797.198	18328.32
797.53	18363.12
797.862	18176.91
798.193	18241.54
798.525	18109.57
798.856	18137.59
799.188	17791.83
799.519	17877.93
799.85	17761.55
800.182	17832.29
800.513	17698.05
800.844	17681.33
801.175	17659.63
801.506	17624.83
801.837	17541.67
802.168	17565.63
802.499	17439.98
802.83	17397.72
803.161	17267.78
803.491	17395.46
803.822	17332.19
804.153	17266.42
804.483	17029.82
804.814	17014
805.145	17156.14
805.475	16966.55
805.805	16898.3
806.136	16896.49
806.466	16865.76
806.796	16870.05
807.126	16737.4
807.457	16719.55
807.787	16706.21
808.117	16584.41
808.447	16451.3
808.777	16563.84
809.107	16475.26
809.436	16334.7
809.766	16426.9
810.096	16243.17
810.426	16238.88
810.755	16234.14
811.085	16205.89
811.414	16223.06
811.744	16024.2
812.073	15990.3
812.403	15962.28
812.732	15878.21
813.061	15933.35
813.39	15890.64
813.719	15875.05
814.049	15883.86
814.378	15845.67
814.707	15747.37
815.036	15736.97
815.365	15598.22
815.693	15530.88
816.022	15474.16
816.351	15395.29
816.68	15408.17
817.008	15515.74
817.337	15358.68
817.665	15228.29
817.994	15240.72
818.322	15283.65
818.651	15235.97
818.979	15135.41
819.307	15173.6
819.636	15140.15
819.964	15047.5
820.292	15122.98
820.62	15058.57
820.948	14972.93
821.276	15101.51
821.604	14967.73
821.932	15023.32
822.259	15019.93
822.587	14925.24
822.915	14938.58
823.243	15002.98
823.57	14839.6
823.898	15057.22
824.225	14831.01
824.553	14868.07
824.88	14847.28
825.207	14891.35
825.535	14923.66
825.862	14898.35
826.189	14892.48
826.516	14930.67
826.843	14977.9
827.17	15028.74
827.497	14915.07
827.824	14848.41
828.151	14890.22
828.478	14941.06
828.805	15001.85
829.131	14857.45
829.458	14777.45
829.785	14810.22
830.111	14834.4
830.438	14911.23
830.764	14798.69
831.09	14871.91
831.417	14796.88
831.743	14916.88
832.069	14896.32
832.395	14761.18
832.722	14809.77
833.048	14770.9
833.374	14797.34
833.7	14668.07
834.026	14755.98
834.351	14761.18
834.677	14728.19
835.003	14791.01
835.329	14770.67
835.654	14694.29
835.98	14629.66
836.306	14653.61
836.631	14553.05
836.956	14654.29
837.282	14529.55
837.607	14642.54
837.932	14493.16
838.258	14570.22
838.583	14478.93
838.908	14447.97
839.233	14445.93
839.558	14408.87
839.883	14401.64
840.208	14287.97
840.533	14271.48
840.858	14294.3
841.182	14241.65
841.507	14219.95
841.832	14178.82
842.156	14104.47
842.481	14167.97
842.805	14144.92
843.13	14000.3
843.454	14123.23
843.778	13917.36
844.103	13967.53
844.427	13878.49
844.751	13941.09
845.075	13897.02
845.399	13864.25
845.723	13771.6
846.047	13861.99
846.371	13695.67
846.695	13662.23
847.019	13577.48
847.343	13545.39
847.666	13366.64
847.99	13453.19
848.313	13365.96
848.637	13301.11
848.96	13378.62
849.284	13242.12
849.607	13210.26
849.931	13131.62
850.254	13031.51
850.577	12973.43
850.9	12842.13
851.223	12881.46
851.546	12837.61
851.869	12732.76
852.192	12793.55
852.515	12716.49
852.838	12607.34
853.161	12637.85
853.483	12575.25
853.806	12532.76
854.129	12473.78
854.451	12442.14
854.774	12396.72
855.096	12313.56
855.419	12338.42
855.741	12253.45
856.063	12163.51
856.385	12174.81
856.708	12079.44
857.03	12093.23
857.352	12097.97
857.674	11990.86
857.996	11939.11
858.318	11905.44
858.64	11936.85
858.961	11854.82
859.283	11862.72
859.605	11808.26
859.926	11815.72
860.248	11794.93
860.57	11684.2
860.891	11728.72
861.212	11603.97
861.534	11628.61
861.855	11631.09
862.176	11608.27
862.498	11580.7
862.819	11584.54
863.14	11561.49
863.461	11472
863.782	11484.66
864.103	11388.61
864.424	11421.38
864.745	11361.72
865.065	11332.34
865.386	11307.94
865.707	11416.18
866.027	11344.77
866.348	11305.9
866.668	11349.74
866.989	11262.97
867.309	11218.9
867.63	11220.93
867.95	11186.58
868.27	11157.66
868.59	11122.18
868.91	11107.72
869.23	11105.23
869.55	11063.42
869.87	11087.38
870.19	11088.06
870.51	11119.24
870.83	11090.09
871.15	11011.22
871.469	11010.09
871.789	11014.61
872.109	11061.39
872.428	10912.92
872.748	10931.22
873.067	10866.14
873.386	10956.99
873.706	10901.62
874.025	10876.31
874.344	10806.48
874.663	10801.74
874.982	10764.22
875.301	10799.25
875.62	10801.51
875.939	10712.47
876.258	10742.08
876.577	10640.84
876.896	10681.51
877.214	10710.89
877.533	10674.96
877.852	10609.65
878.17	10643.55
878.489	10683.55
878.807	10606.03
879.125	10501.18
879.444	10589.31
879.762	10486.49
880.08	10528.75
880.398	10490.56
880.716	10472.03
881.034	10410.11
881.352	10458.69
881.67	10382.31
881.988	10402.65
882.306	10353.84
882.624	10349.09
882.941	10315.65
883.259	10259.15
883.577	10226.16
883.894	10175.54
884.212	10190.23
884.529	10204.92
884.846	10192.94
885.164	10130.57
885.481	10093.96
885.798	10146.84
886.115	10021.19
886.432	10010.12
886.75	10014.19
887.067	9978.25
887.383	10021.42
887.7	9962.89
888.017	9942.78
888.334	9982.1
888.651	9987.07
888.967	9875.88
889.284	9847.64
889.6	9807.19
889.917	9676.57
890.233	9760.18
890.55	9672.73
890.866	9682.67
891.182	9632.27
891.498	9629.34
891.815	9562.67
892.131	9565.61
892.447	9569.9
892.763	9474.76
893.079	9506.4
893.395	9472.28
893.71	9404.48
894.026	9409.68
894.342	9392.96
894.657	9255.34
894.973	9355.67
895.289	9237.03
895.604	9325.39
895.92	9223.02
896.235	9212.4
896.55	9190.93
896.865	9199.52
897.181	9132.85
897.496	9099.41
897.811	9081.78
898.126	9016.47
898.441	8998.85
898.756	8993.2
899.071	8895.57
899.386	8958.85
899.7	8831.39
900.015	8812.64
900.33	8813.54
900.644	8758.63
900.959	8794.1
901.273	8727.44
901.588	8673.88
901.902	8664.62
902.216	8612.41
902.531	8610.61
902.845	8562.02
903.159	8539.87
903.473	8461.68
903.787	8456.03
904.101	8438.86
904.415	8414.68
904.729	8346.43
905.042	8312.54
905.356	8314.34
905.67	8245.87
905.984	8305.3
906.297	8229.37
906.611	8150.96
906.924	8173.33
907.237	8135.82
907.551	8121.58
907.864	8095.37
908.177	8012.88
908.491	8062.15
908.804	8014.24
909.117	7922.49
909.43	7880.23
909.743	7889.27
910.056	7823.51
910.368	7825.77
910.681	7752.55
910.994	7725.88
911.307	7657.86
911.619	7599.33
911.932	7689.28
912.244	7582.84
912.557	7530.18
912.869	7523.63
913.181	7543.52
913.494	7516.4
913.806	7464.87
914.118	7461.71
914.43	7388.04
914.742	7330.87
915.054	7371.32
915.366	7326.35
915.678	7277.08
915.99	7243.86
916.302	7207.48
916.613	7190.76
916.925	7139.46
917.236	7148.72
917.548	7138.78
917.859	7061.72
918.171	7039.8
918.482	6989.86
918.794	6971.33
919.105	6952.35
919.416	6917.09
919.727	6895.17
920.038	6834.38
920.349	6814.72
920.66	6798.68
920.971	6797.77
921.282	6735.85
921.593	6714.39
921.903	6706.93
922.214	6717.1
922.525	6607.5
922.835	6584.45
923.146	6568.63
923.456	6509.87
923.767	6495.41
924.077	6513.94
924.387	6494.5
924.697	6424
925.008	6390.1
925.318	6389.87
925.628	6395.52
925.938	6314.85
926.248	6273.95
926.558	6287.28
926.867	6207.96
927.177	6228.07
927.487	6213.16
927.796	6137
928.106	6078.47
928.416	6104.23
928.725	6121.63
929.034	6041.41
929.344	6009.32
929.653	6029.43
929.962	6011.58
930.271	5987.85
930.581	5925.03
930.89	5849.55
931.199	5850.91
931.508	5862.66
931.817	5818.36
932.125	5851.13
932.434	5808.87
932.743	5728.2
933.051	5710.57
933.36	5703.79
933.669	5691.14
933.977	5640.06
934.286	5648.42
934.594	5631.7
934.902	5602.32
935.21	5507.86
935.519	5484.81
935.827	5486.62
936.135	5516.9
936.443	5455.44
936.751	5402.56
937.059	5432.16
937.367	5363.69
937.674	5384.25
937.982	5335.21
938.29	5337.02
938.597	5341.09
938.905	5229.68
939.213	5315.78
939.52	5239.62
939.827	5205.95
940.135	5174.99
940.442	5152.62
940.749	5138.61
941.056	5144.71
941.363	5088.21
941.67	5116.69
941.977	5077.59
942.284	5058.61
942.591	5042.79
942.898	5000.76
943.205	4972.74
943.511	4934.77
943.818	4938.61
944.125	4897.26
944.431	4940.87
944.738	4870.37
945.044	4864.72
945.35	4860.88
945.657	4805.74
945.963	4754.44
946.269	4759.18
946.575	4733.42
946.881	4713.08
947.187	4734.78
947.493	4706.53
947.799	4683.03
948.105	4678.28
948.41	4610.49
948.716	4613.65
949.022	4624.95
949.327	4609.13
949.633	4495.01
949.938	4511.73
950.244	4512.18
950.549	4509.7
950.854	4438.51
951.16	4470.38
951.465	4394.22
951.77	4417.27
952.075	4415.01
952.38	4384.28
952.685	4378.4
952.99	4326.88
953.294	4319.19
953.599	4304.05
953.904	4225.19
954.209	4241.68
954.513	4200.1
954.818	4234.22
955.122	4209.14
955.426	4176.6
955.731	4164.17
956.035	4140.22
956.339	4141.35
956.643	4125.08
956.948	4117.39
957.252	4112.42
957.556	4065.19
957.86	4057.28
958.163	4031.52
958.467	4031.74
958.771	4004.4
959.075	3981.58
959.378	3929.6
959.682	3958.53
959.985	3951.75
960.289	3928.92
960.592	3882.6
960.896	3867.45
961.199	3868.13
961.502	3826.1
961.805	3831.98
962.108	3774.58
962.411	3826.55
962.714	3796.95
963.017	3760.11
963.32	3760.34
963.623	3725.54
963.926	3731.19
964.228	3696.16
964.531	3671.53
964.833	3695.48
965.136	3596.95
965.438	3620.91
965.741	3618.87
966.043	3563.06
966.345	3584.07
966.648	3557.63
966.95	3528.93
967.252	3563.06
967.554	3541.14
967.856	3537.97
968.158	3512.44
968.46	3516.73
968.761	3433.34
969.063	3475.37
969.365	3416.85
969.666	3431.08
969.968	3414.59
970.269	3408.94
970.571	3351.54
970.872	3350.63
971.174	3311.99
971.475	3341.14
971.776	3344.08
972.077	3292.78
972.378	3302.95
972.679	3293.68
972.98	3266.79
973.281	3253.23
973.582	3222.95
973.883	3191.77
974.183	3209.84
974.484	3164.42
974.785	3150.86
975.085	3170.3
975.386	3150.64
975.686	3134.14
975.986	3092.11
976.287	3102.05
976.587	3085.1
976.887	3074.26
977.187	3042.84
977.487	3065.22
977.787	3054.37
978.087	3052.79
978.387	3016.4
978.687	3008.72
978.987	2965.78
979.286	2930.08
979.586	2982.51
979.885	2970.08
980.185	2927.37
980.484	2951.55
980.784	2914.49
981.083	2914.71
981.382	2884.43
981.682	2865.9
981.981	2878.55
982.28	2838.56
982.579	2829.97
982.878	2821.61
983.177	2789.52
983.475	2806.69
983.774	2743.19
984.073	2768.05
984.372	2747.26
984.67	2708.84
984.969	2735.96
985.267	2703.87
985.566	2677.43
985.864	2732.34
986.162	2676.3
986.461	2672.91
986.759	2670.88
987.057	2633.14
987.355	2639.69
987.653	2578.22
987.951	2586.13
988.249	2625.91
988.547	2583.19
988.844	2585.68
989.142	2574.83
989.44	2555.62
989.737	2537.77
990.035	2515.63
990.332	2524.67
990.63	2519.69
990.927	2500.26
991.224	2513.59
991.521	2481.05
991.819	2477.89
992.116	2447.83
992.413	2439.47
992.71	2422.3
993.006	2396.08
993.303	2406.02
993.6	2399.47
993.897	2363.77
994.193	2365.8
994.49	2338.68
994.787	2337.55
995.083	2302.07
995.379	2325.57
995.676	2331.9
995.972	2340.04
996.268	2261.4
996.565	2287.61
996.861	2271.11
997.157	2248.74
997.453	2229.31
997.749	2239.48
998.044	2216.88
998.34	2202.87
998.636	2179.82
998.932	2204.9
999.227	2205.35
999.523	2148.63
999.818	2147.05
1000.114	2171.68
1000.409	2136.43
1000.704	2086.03
1001	2095.75
1001.295	2106.82
1001.59	2073.83
1001.885	2090.55
1002.18	2072.7
1002.475	2020.05
1002.77	2023.66
1003.065	2034.96
1003.359	2042.87
1003.654	2020.95
1003.949	2001.97
1004.243	1985.24
1004.538	1969.65
1004.832	1964.68
1005.127	1940.95
1005.421	1927.17
1005.715	1906.38
1006.009	1920.61
1006.304	1912.93
1006.598	1928.52
1006.892	1889.88
1007.186	1867.73
1007.48	1871.35
1007.773	1836.77
1008.067	1861.41
1008.361	1840.84
1008.655	1834.97
1008.948	1816.66
1009.242	1812.14
1009.535	1789.32
1009.829	1800.62
1010.122	1775.53
1010.415	1778.7
1010.708	1748.64
1011.001	1768.53
1011.295	1721.07
1011.588	1730.34
1011.881	1742.54
1012.173	1706.83
1012.466	1682.43
1012.759	1684.46
1013.052	1679.26
1013.344	1657.12
1013.637	1666.61
1013.93	1653.28
1014.222	1638.36
1014.514	1606.05
1014.807	1646.95
1015.099	1624.12
1015.391	1573.5
1015.683	1578.25
1015.976	1598.36
1016.268	1574.63
1016.56	1549.55
1016.851	1551.13
1017.143	1549.55
1017.435	1533.05
1017.727	1548.87
1018.018	1536.67
1018.31	1526.27
1018.602	1491.47
1018.893	1492.6
1019.185	1491.02
1019.476	1473.62
1019.767	1486.27
1020.058	1457.12
1020.35	1448.08
1020.641	1425.49
1020.932	1418.03
1021.223	1404.92
1021.514	1383.9
1021.804	1412.6
1022.095	1389.55
1022.386	1388.65
1022.677	1359.95
1022.967	1371.7
1023.258	1337.35
1023.548	1354.53
1023.839	1309.78
1024.129	1333.96
1024.419	1317.92
1024.709	1312.72
1025	1297.8
1025.29	1310.69
1025.58	1313.62
1025.87	1288.99
1026.16	1288.31
1026.449	1254.87
1026.739	1250.12
1027.029	1254.64
1027.319	1245.6
1027.608	1215.32
1027.898	1225.49
1028.187	1210.12
1028.477	1220.97
1028.766	1220.29
1029.055	1179.16
1029.344	1186.85
1029.634	1178.26
1029.923	1142.33
1030.212	1168.09
1030.501	1133.06
1030.79	1142.78
1031.078	1138.94
1031.367	1124.7
1031.656	1127.87
1031.945	1106.17
1032.233	1111.82
1032.522	1101.43
1032.81	1086.74
1033.099	1086.28
1033.387	1089.67
1033.675	1058.04
1033.963	1071.82
1034.251	1041.77
1034.54	1057.13
1034.828	1049.45
1035.116	1032.28
1035.403	1049
1035.691	1031.37
1035.979	1047.42
1036.267	1018.72
1036.554	988.89
1036.842	993.63
1037.129	1001.32
1037.417	985.27
1037.704	974.88
1037.992	994.54
1038.279	950.47
1038.566	975.33
1038.853	975.33
1039.14	975.33
