Data from hue_36_FLMS001491_00047.txt Node
Date: Tue Feb 07 17:29:52 GMT 2017
User: dcchb
Spectrometer: FLMS00149
Trigger mode: 0
Integration Time (sec): 2.000000E-2
Scans to average: 10
Electric dark correction enabled: true
Nonlinearity correction enabled: false
Boxcar width: 0
XAxis mode: Wavelengths
Number of Pixels in Spectrum: 2048
>>>>>Begin Spectral Data<<<<<
341.393	-15.64
341.776	-15.64
342.16	-15.64
342.543	-56.09
342.927	-52.7
343.31	-55.18
343.693	-61.96
344.077	-59.25
344.46	-85.01
344.843	-45.92
345.226	-47.72
345.61	-29.19
345.993	-21.51
346.376	-2.98
346.759	6.96
347.142	37.02
347.525	45.61
347.908	57.13
348.291	59.84
348.674	88.32
349.057	113.85
349.44	130.58
349.823	133.97
350.206	170.12
350.588	205.6
350.971	211.93
351.354	224.81
351.737	223.91
352.119	251.93
352.502	248.09
352.884	276.33
353.267	293.28
353.65	304.58
354.032	307.75
354.414	301.19
354.797	328.76
355.179	328.76
355.562	347.97
355.944	312.72
356.326	331.93
356.709	347.97
357.091	347.52
357.473	369.67
357.855	323.56
358.238	329.21
358.62	327.18
359.002	345.03
359.384	337.58
359.766	365.37
360.148	343.45
360.53	347.07
360.912	336.22
361.294	338.71
361.676	330.8
362.057	339.61
362.439	343.45
362.821	307.29
363.203	331.7
363.584	350.23
363.966	336.22
364.348	325.37
364.729	323.79
365.111	334.19
365.493	326.5
365.874	325.37
366.256	303.45
366.637	334.41
367.019	331.93
367.4	313.17
367.781	318.14
368.163	312.27
368.544	295.09
368.925	303
369.306	315.88
369.688	324.02
370.069	312.94
370.45	318.59
370.831	317.24
371.212	324.69
371.593	303.68
371.974	317.01
372.355	309.78
372.736	309.33
373.117	324.02
373.498	316.79
373.879	326.73
374.26	291.02
374.641	316.56
375.021	325.37
375.402	320.4
375.783	319.05
376.163	322.44
376.544	315.88
376.925	331.02
377.305	348.42
377.686	335.99
378.066	321.53
378.447	331.02
378.827	314.3
379.208	306.16
379.588	337.8
379.968	329.67
380.349	336.67
380.729	328.76
381.109	343.45
381.489	335.77
381.87	335.77
382.25	347.97
382.63	341.42
383.01	363.34
383.39	349.1
383.77	351.36
384.15	353.39
384.53	362.43
384.91	360.4
385.29	338.48
385.67	353.39
386.049	358.37
386.429	334.19
386.809	359.27
387.189	341.42
387.568	359.95
387.948	340.97
388.328	359.5
388.707	361.08
389.087	358.59
389.466	361.08
389.846	357.24
390.225	353.85
390.605	366.28
390.984	372.83
391.363	366.73
391.743	366.5
392.122	364.47
392.501	388.42
392.881	353.85
393.26	371.25
393.639	377.12
394.018	358.14
394.397	375.54
394.776	371.93
395.155	374.41
395.534	386.39
395.913	377.12
396.292	378.25
396.671	391.59
397.05	387.29
397.429	404.24
397.808	392.72
398.186	383.22
398.565	397.69
398.944	392.26
399.323	388.65
399.701	411.25
400.08	416.22
400.458	384.13
400.837	395.65
401.215	400.17
401.594	411.47
401.972	402.88
402.351	397.24
402.729	414.41
403.107	394.98
403.486	423.22
403.864	408.76
404.242	411.7
404.62	435.2
404.999	427.07
405.377	425.71
405.755	430.23
406.133	439.72
406.511	426.84
406.889	436.1
407.267	404.69
407.645	417.35
408.023	440.85
408.401	431.36
408.779	427.29
409.156	431.58
409.534	443.79
409.912	448.31
410.29	447.18
410.667	423.9
411.045	473.17
411.422	453.28
411.8	473.17
412.178	457.8
412.555	471.58
412.933	450.57
413.31	500.28
413.687	453.05
414.065	470.68
414.442	480.62
414.819	481.75
415.197	481.98
415.574	491.24
415.951	493.28
416.328	506.16
416.705	486.5
417.082	491.47
417.46	492.15
417.837	520.62
418.214	494.86
418.591	515.65
418.967	505.03
419.344	525.82
419.721	496.22
420.098	524.46
420.475	519.04
420.852	534.63
421.228	547.06
421.605	524.46
421.982	520.4
422.358	533.73
422.735	544.58
423.111	521.98
423.488	524.92
423.864	531.47
424.241	550
424.617	535.99
424.994	565.82
425.37	542.54
425.746	555.2
426.123	550
426.499	557.23
426.875	566.95
427.251	573.05
427.627	565.37
428.003	599.04
428.379	564.69
428.756	569.21
429.132	609.89
429.507	613.5
429.883	604.46
430.259	619.6
430.635	610.11
431.011	606.04
431.387	623.67
431.763	625.93
432.138	631.13
432.514	621.64
432.89	644.91
433.265	642.43
433.641	656.21
434.016	647.17
434.392	665.02
434.767	666.15
435.143	670.45
435.518	655.99
435.894	663.67
436.269	677.23
436.644	688.3
437.02	695.08
437.395	699.83
437.77	720.16
438.145	720.16
438.52	712.26
438.895	712.26
439.271	702.31
439.646	738.7
440.021	717
440.395	705.48
440.77	730.33
441.145	747.28
441.52	735.53
441.895	737.57
442.27	738.24
442.645	769.88
443.019	798.35
443.394	794.51
443.769	770.33
444.143	777.34
444.518	787.06
444.892	761.07
445.267	795.42
445.641	791.12
446.016	775.98
446.39	791.8
446.764	814.4
447.139	816.21
447.513	793.61
447.887	817.56
448.262	811.24
448.636	820.05
449.01	826.6
449.384	818.69
449.758	840.61
450.132	845.81
450.506	822.76
450.88	855.75
451.254	863.21
451.628	862.31
452.002	898.69
452.376	884.45
452.75	867.28
453.123	878.58
453.497	894.62
453.871	884.68
454.244	909.54
454.618	917.22
454.992	940.05
455.365	936.66
455.739	945.7
456.112	956.99
456.486	966.94
456.859	964.45
457.232	980.5
457.606	1000.61
457.979	979.82
458.352	1025.92
458.725	1023.43
459.099	1011.46
459.472	1051.68
459.845	1043.09
460.218	1071.79
460.591	1094.39
460.964	1080.83
461.337	1106.37
461.71	1148.4
462.083	1136.2
462.456	1153.37
462.829	1131.45
463.201	1156.09
463.574	1160.83
463.947	1174.39
464.32	1203.54
464.692	1184.33
465.065	1233.82
465.438	1225.91
465.81	1237.44
466.183	1301.39
466.555	1294.39
466.928	1325.57
467.3	1302.3
467.672	1342.07
468.045	1356.31
468.417	1377.1
468.789	1407.38
469.161	1381.16
469.534	1410.54
469.906	1448.51
470.278	1485.12
470.65	1466.36
471.022	1506.36
471.394	1545
471.766	1570.99
472.138	1598.79
472.51	1626.81
472.882	1644.43
473.253	1684.43
473.625	1700.7
473.997	1724.66
474.369	1760.36
474.74	1758.56
475.112	1824.32
475.484	1862.73
475.855	1930.3
476.227	1954.93
476.598	2013.01
476.97	1996.29
477.341	2078.77
477.713	2122.16
478.084	2178.21
478.455	2222.95
478.827	2279.22
479.198	2325.55
479.569	2373.68
479.94	2432.44
480.311	2501.59
480.682	2570.06
481.053	2624.52
481.424	2682.82
481.795	2719.43
482.166	2794.01
482.537	2856.61
482.908	2947.9
483.279	3003.27
483.65	3125.75
484.021	3233.54
484.391	3259.31
484.762	3330.94
485.133	3364.16
485.503	3506.53
485.874	3565.06
486.244	3671.27
486.615	3767.77
486.985	3796.02
487.356	3920.98
487.726	3967.31
488.097	4132.5
488.467	4159.4
488.837	4300.86
489.207	4405.94
489.578	4497.24
489.948	4556.67
490.318	4651.81
490.688	4758.7
491.058	4842.32
491.428	4977.23
491.798	5049.32
492.168	5223.55
492.538	5260.84
492.908	5352.81
493.278	5451.79
493.648	5584.67
494.017	5650.2
494.387	5729.07
494.757	5812.01
495.126	5962.96
495.496	6004.32
495.866	6062.62
496.235	6195.5
496.605	6297.65
496.974	6384.2
497.344	6463.29
497.713	6581.93
498.082	6667.58
498.452	6829.38
498.821	6851.75
499.19	6837.07
499.559	6969.04
499.928	7080.22
500.298	7117.96
500.667	7255.36
501.036	7254.46
501.405	7364.06
501.774	7436.15
502.143	7485.18
502.512	7592.07
502.88	7721.11
503.249	7667.78
503.618	7840.43
503.987	7917.94
504.356	7971.27
504.724	8110.25
505.093	8088.78
505.462	8114.55
505.83	8247.65
506.199	8350.7
506.567	8424.37
506.936	8414.43
507.304	8603.35
507.672	8656.23
508.041	8704.81
508.409	8773.06
508.777	8864.81
509.145	8976.9
509.514	8952.94
509.882	9034.52
510.25	9096.67
510.618	9199.72
510.986	9216.44
511.354	9257.79
511.722	9330.33
512.09	9464.12
512.458	9438.35
512.826	9596.77
513.193	9613.49
513.561	9632.02
513.929	9731.45
514.297	9792.69
514.664	9920.6
515.032	9877.89
515.4	10018
515.767	10018
516.135	10108.17
516.502	10152.46
516.869	10260.03
517.237	10367.37
517.604	10290.08
517.972	10457.08
518.339	10450.08
518.706	10441.04
519.073	10463.41
519.44	10568.27
519.808	10715.83
520.175	10698.21
520.542	10880.12
520.909	10866.56
521.276	10974.58
521.643	11030.18
522.009	11112.21
522.376	11154.01
522.743	11163.96
523.11	11261.36
523.477	11428.36
523.843	11429.71
524.21	11559.43
524.577	11604.17
524.943	11695.92
525.31	11753.77
525.676	11857.27
526.043	11919.87
526.409	11998.51
526.776	12059.08
527.142	12104.27
527.508	12202.57
527.874	12304.94
528.241	12351.27
528.607	12393.08
528.973	12573.19
529.339	12572.28
529.705	12612.73
530.071	12797.36
530.437	12809.34
530.803	12871.71
531.169	12884.82
531.535	12889.79
531.901	12956.23
532.267	13048.65
532.632	13127.97
532.998	13194.41
533.364	13275.77
533.73	13242.77
534.095	13393.5
534.461	13461.3
534.826	13539.94
535.192	13573.61
535.557	13680.95
535.923	13690.22
536.288	13725.7
536.653	13813.38
537.019	13773.15
537.384	13820.39
537.749	13937.44
538.114	13996.65
538.479	14031.68
538.845	14044.11
539.21	14061.51
539.575	14265.12
539.94	14289.07
540.305	14339.92
540.67	14306.7
541.034	14421.95
541.399	14439.35
541.764	14539.46
542.129	14507.15
542.494	14612
542.858	14679.35
543.223	14649.52
543.587	14786.24
543.952	14819
544.316	14823.07
544.681	14848.15
545.045	14976.29
545.41	14949.17
545.774	15090.63
546.138	15168.82
546.503	15151.2
546.867	15174.47
547.231	15311.19
547.595	15308.93
547.959	15461.47
548.324	15389.16
548.688	15455.6
549.052	15613.33
549.416	15630.06
549.779	15584.86
550.143	15707.12
550.507	15780.56
550.871	15787.57
551.235	15919.77
551.599	16067.33
551.962	15958.18
552.326	16033.66
552.689	16158.4
553.053	16056.71
553.417	16162.47
553.78	16385.52
554.143	16280.89
554.507	16419.64
554.87	16459.19
555.234	16658.28
555.597	16490.15
555.96	16578.28
556.323	16647.66
556.686	16652.18
557.05	16838.16
557.413	16723.81
557.776	16864.82
558.139	16969.45
558.502	16990.47
558.865	17050.81
559.228	17207.64
559.59	17166.06
559.953	17186.85
560.316	17322.67
560.679	17438.6
561.041	17469.1
561.404	17521.53
561.767	17747.29
562.129	17550.91
562.492	17750.23
562.854	17704.12
563.217	17819.83
563.579	17837.91
563.941	17951.12
564.304	17948.41
564.666	18112.02
565.028	18198.12
565.39	18191.12
565.753	18327.16
566.115	18412.58
566.477	18412.81
566.839	18412.58
567.201	18664.1
567.563	18660.71
567.925	18803.76
568.287	18752.01
568.648	18784.77
569.01	19008.72
569.372	19053.24
569.734	19032.9
570.095	19171.66
570.457	19303.18
570.819	19227.02
571.18	19285.55
571.542	19437.86
571.903	19595.83
572.265	19467.47
572.626	19630.63
572.987	19703.39
573.349	19794.92
573.71	19935.93
574.071	19968.7
574.432	20120.56
574.794	20280.78
575.155	20290.05
575.516	20337.05
575.877	20396.71
576.238	20571.62
576.599	20740.66
576.96	20869.47
577.32	20892.97
577.681	20953.76
578.042	21154.2
578.403	21205.05
578.763	21303.8
579.124	21523.23
579.485	21624.93
579.845	21811.14
580.206	21924.35
580.566	22066.72
580.927	22321.4
581.287	22358.24
581.648	22404.34
582.008	22771.11
582.368	22709.87
582.728	22927.04
583.089	23096.98
583.449	23264.2
583.809	23468.27
584.169	23853.57
584.529	23754.59
584.889	24235.03
585.249	24247.23
585.609	24400.67
585.969	24739.42
586.329	24781.68
586.688	25013.54
587.048	25202.01
587.408	25418.72
587.768	25579.85
588.127	25827.98
588.487	25964.92
588.846	26471.35
589.206	26453.27
589.565	26656.66
589.925	27024.11
590.284	27262.29
590.643	27406.69
591.003	27738.21
591.362	27978.88
591.721	28112.21
592.08	28299.55
592.44	28563.5
592.799	28931.17
593.158	28989.7
593.517	29212.75
593.876	29480.99
594.235	29600.99
594.593	29869.23
594.952	30156
595.311	30373.4
595.67	30501.08
596.029	30906.04
596.387	31110.1
596.746	31418.79
597.104	31363.2
597.463	31619.47
597.822	32030.53
598.18	32178.77
598.538	32217.87
598.897	32638.42
599.255	32638.65
599.613	33254.45
599.972	33172.64
600.33	33409.7
600.688	33496.25
601.046	33781.44
601.404	34066.86
601.762	34189.34
602.12	34428.43
602.478	34592.04
602.836	34782.77
603.194	34771.7
603.552	35138.24
603.91	35210.33
604.268	35442.87
604.625	35401.96
604.983	35791.56
605.341	35766.47
605.698	36050.08
606.056	36299.57
606.413	36265.9
606.771	36643.74
607.128	36733.91
607.485	36783.17
607.843	36912.21
608.2	37252.54
608.557	37470.38
608.914	37434.68
609.272	37672.87
609.629	37829.02
609.986	38042.8
610.343	37954.44
610.7	38372.96
611.057	38450.47
611.414	38601.88
611.771	38594.88
612.127	38842.55
612.484	38917.35
612.841	39222.2
613.198	38979.5
613.554	39196.44
613.911	39545.81
614.267	39592.81
614.624	39773.83
614.98	39893.37
615.337	39890.43
615.693	39966.59
616.05	39932.92
616.406	40488.84
616.762	40262.18
617.118	40389.63
617.475	40351.44
617.831	40664.65
618.187	40821.26
618.543	40881.14
618.899	41136.28
619.255	41130.18
619.611	41047.69
619.967	41216.95
620.323	41481.13
620.678	41468.47
621.034	41339.66
621.39	41368.36
621.746	41510.96
622.101	41922.25
622.457	41713.21
622.812	41904.62
623.168	41942.81
623.523	42039.08
623.879	42044.95
624.234	41941.23
624.589	42137.83
624.945	42155.69
625.3	42302.35
625.655	42151.62
626.01	42319.07
626.365	42244.95
626.72	42325.17
627.075	42449.01
627.43	42431.84
627.785	42342.8
628.14	42510.48
628.495	42680.64
628.85	42422.35
629.205	42382.57
629.559	42663.02
629.914	42498.5
630.269	42616.01
630.623	42469.12
630.978	42438.16
631.332	42743.92
631.687	42767.65
632.041	42633.41
632.396	42657.37
632.75	42526.07
633.104	42480.87
633.459	42404.72
633.813	42425.51
634.167	42583.47
634.521	42545.51
634.875	42674.09
635.229	42628.89
635.583	42387.77
635.937	42501.21
636.291	42422.8
636.645	42367.43
636.999	42389.58
637.352	42630.48
637.706	42311.61
638.06	42479.74
638.413	42297.38
638.767	42296.25
639.121	42398.62
639.474	42131.28
639.828	42193.42
640.181	42245.63
640.534	42203.14
640.888	42178.28
641.241	42026.2
641.594	42286.76
641.947	42283.37
642.301	42168.79
642.654	42310.03
643.007	42231.62
643.36	42152.3
643.713	42174.22
644.066	42256.7
644.419	42006.31
644.771	41780.78
645.124	41441.13
645.477	41408.13
645.83	41094.92
646.182	41126.79
646.535	40834.82
646.888	40936.28
647.24	40774.03
647.593	40926.34
647.945	40979.22
648.298	40606.57
648.65	40554.37
649.002	40437.76
649.355	40876.4
649.707	40538.1
650.059	40932.67
650.411	41253.11
650.763	41460.11
651.115	41670.27
651.467	41626.43
651.819	41486.78
652.171	41431.86
652.523	41346.22
652.875	41290.17
653.227	41205.65
653.578	41416.72
653.93	41337.18
654.282	41316.84
654.633	41265.54
654.985	41120.68
655.337	41431.18
655.688	41320.68
656.039	41464.63
656.391	41251.08
656.742	41148.03
657.094	41198.2
657.445	41300.79
657.796	41212.66
658.147	41258.53
658.498	41099.22
658.849	41196.39
659.2	41137.18
659.551	41106.9
659.902	41180.8
660.253	41284.07
660.604	41241.13
660.955	41007.24
661.306	41341.02
661.656	41195.48
662.007	41223.05
662.358	41244.97
662.708	41176.95
663.059	41170.17
663.409	40870.52
663.76	41284.97
664.11	41133.34
664.461	41280.91
664.811	41034.81
665.161	41215.82
665.511	41063.96
665.862	40978.32
666.212	41124.53
666.562	41212.21
666.912	40969.73
667.262	41025.09
667.612	40991.42
667.962	41033.23
668.312	41039.1
668.662	41155.26
669.011	40992.1
669.361	40886.79
669.711	40981.93
670.06	40862.16
670.41	40763.86
670.76	40696.06
671.109	41063.28
671.459	40937.86
671.808	40737.42
672.157	40877.3
672.507	40686.35
672.856	40766.8
673.205	40655.84
673.554	40912.1
673.904	40789.17
674.253	40924.31
674.602	40861.93
674.951	40340.82
675.3	40113.71
675.649	40698.1
675.998	40631.88
676.346	40675.95
676.695	40680.24
677.044	40463.75
677.393	40684.09
677.741	40746.91
678.09	40559.57
678.438	40348.73
678.787	40579.46
679.135	40510.76
679.484	40180.14
679.832	40317.09
680.181	40089.3
680.529	40326.81
680.877	40261.27
681.225	40089.75
681.573	40186.02
681.922	40024.89
682.27	39991.9
682.618	39901.06
682.966	39802.3
683.314	39970.88
683.661	39797.56
684.009	39728.4
684.357	39607.5
684.705	39450.9
685.053	39636.2
685.4	39473.27
685.748	39402.99
686.095	39371.8
686.443	39278.92
686.79	39173.39
687.138	39408.41
687.485	39188.53
687.832	39102.21
688.18	39220.17
688.527	38893.85
688.874	38839.39
689.221	38762.78
689.568	38655.44
689.915	38680.52
690.262	38596.46
690.609	38649.34
690.956	38483.92
691.303	38351.72
691.65	38273.3
691.997	38184.49
692.344	38142.91
692.69	38193.08
693.037	38051.16
693.383	37707.21
693.73	37841.45
694.077	37582.47
694.423	37619.99
694.769	37514.68
695.116	37368.24
695.462	37358.07
695.808	37264.51
696.155	37295.02
696.501	37104.52
696.847	37010.28
697.193	36822.49
697.539	36848.71
697.885	36695.72
698.231	36625.44
698.577	36632.44
698.923	36417.98
699.269	36266.35
699.614	36144.54
699.96	36174.15
700.306	36220.93
700.651	35912.46
700.997	35811.67
701.342	35896.19
701.688	35935.06
702.033	35634.05
702.379	35490.32
702.724	35568.06
703.069	35589.08
703.415	35241.52
703.76	35342.53
704.105	35393.15
704.45	35217.11
704.795	34890.79
705.14	34891.02
705.485	34876.55
705.83	34710.68
706.175	34831.58
706.52	34746.61
706.865	34615.09
707.209	34412.16
707.554	34375.1
707.899	34363.8
708.243	34186.63
708.588	34185.5
708.932	33867.09
709.277	33945.96
709.621	34038.61
709.966	33884.94
710.31	33868.22
710.654	33555.69
710.998	33664.61
711.342	33674.33
711.687	33605.85
712.031	33450.6
712.375	33319.31
712.719	33384.62
713.063	33235.24
713.407	33410.6
713.75	33072.99
714.094	33070.27
714.438	32901.69
714.782	33032.99
715.125	32869.83
715.469	32773.56
715.812	32760.9
716.156	32510.74
716.499	32670.51
716.843	32648.14
717.186	32397.52
717.53	32580.34
717.873	32557.97
718.216	32442.04
718.559	32243.18
718.902	32124.54
719.246	32235.27
719.589	32094.93
719.932	31965.67
720.275	31987.37
720.617	31896.52
720.96	31918.89
721.303	31796.18
721.646	31894.49
721.989	31584.44
722.331	31827.82
722.674	31650.2
723.016	31681.38
723.359	31618.79
723.701	31614.95
724.044	31415.4
724.386	31331.11
724.729	31404.78
725.071	31293.15
725.413	31335.18
725.755	31274.16
726.097	31179.02
726.439	30978.8
726.782	31080.27
727.124	31058.35
727.465	31010.22
727.807	30864.68
728.149	30974.28
728.491	30798.24
728.833	30781.75
729.175	30569.55
729.516	30659.72
729.858	30602.32
730.199	30646.38
730.541	30466.95
730.882	30622.43
731.224	30556.67
731.565	30280.29
731.906	30348.09
732.248	30403
732.589	30164.59
732.93	30162.55
733.271	30178.37
733.612	30242.78
733.953	30221.08
734.294	30065.38
734.635	30045.04
734.976	30004.14
735.317	29846.18
735.658	29751.72
735.999	29755.79
736.339	29807.08
736.68	29850.92
737.021	29768.21
737.361	29546.98
737.702	29769.34
738.042	29693.19
738.383	29562.57
738.723	29598.73
739.063	29447.09
739.404	29707.88
739.744	29436.25
740.084	29388.34
740.424	29435.57
740.764	29346.76
741.104	29304.72
741.444	29125.07
741.784	29165.07
742.124	29269.24
742.464	29206.65
742.804	29067.89
743.143	29081.9
743.483	29146.31
743.823	28865.19
744.162	28897.28
744.502	28960.1
744.841	28851.18
745.181	28924.85
745.52	28853.66
745.86	28888.24
746.199	28778.86
746.538	28646.89
746.877	28658.64
747.216	28713.33
747.556	28613.67
747.895	28655.93
748.234	28507.46
748.573	28468.14
748.911	28378.65
749.25	28242.15
749.589	28202.61
749.928	28311.53
750.267	28264.3
750.605	28234.7
750.944	28099.56
751.283	27996.06
751.621	28104.08
751.96	27875.16
752.298	27977.3
752.636	27876.51
752.975	27772.79
753.313	27671.32
753.651	27836.74
753.989	27599.68
754.327	27653.24
754.666	27528.05
755.004	27526.01
755.342	27601.27
755.679	27503.42
756.017	27255.06
756.355	27481.27
756.693	27203.08
757.031	27206.47
757.368	27065.91
757.706	27106.36
758.044	27105.91
758.381	27126.25
758.719	26952.47
759.056	26875.86
759.394	26717.45
759.731	26698.92
760.068	26749.08
760.405	26601.29
760.743	26491.24
761.08	26484.46
761.417	26361.07
761.754	26355.65
762.091	26273.84
762.428	26099.84
762.765	25981.87
763.102	26126.73
763.438	25975.32
763.775	25793.18
764.112	25879.05
764.449	25830.24
764.785	25663.69
765.122	25646.06
765.458	25467.76
765.795	25300.08
766.131	25386.86
766.467	25195
766.804	25246.75
767.14	25057.15
767.476	25060.54
767.812	25060.32
768.148	24928.12
768.485	24743.71
768.821	24620.78
769.157	24539.65
769.492	24510.73
769.828	24531.06
770.164	24269.83
770.5	24437.73
770.836	24364.97
771.171	24093.79
771.507	24061.02
771.842	23906
772.178	23952.77
772.513	23827.58
772.849	23804.76
773.184	23740.8
773.519	23686.57
773.855	23512.56
774.19	23457.65
774.525	23300.14
774.86	23385.11
775.195	23262.17
775.53	23170.42
775.865	23069.86
776.2	22955.29
776.535	22854.5
776.87	22766.82
777.205	22695.41
777.539	22534.28
777.874	22649.76
778.209	22353.72
778.543	22306.72
778.878	22159.83
779.212	22300.39
779.547	22162.76
779.881	22167.96
780.215	21958.93
780.55	21977.01
780.884	21828.31
781.218	21804.58
781.552	21745.83
781.886	21617.69
782.22	21527.75
782.554	21517.58
782.888	21199.17
783.222	21183.58
783.556	21083.92
783.889	21136.35
784.223	20984.26
784.557	20933.42
784.89	20918.28
785.224	20788.79
785.557	20562.81
785.891	20645.74
786.224	20609.81
786.558	20579.53
786.891	20457.27
787.224	20185.42
787.557	20206.88
787.891	20227
788.224	20091.63
788.557	20152.65
788.89	20109.26
789.223	20093.21
789.556	19863.84
789.888	19809.38
790.221	19767.8
790.554	19630.18
790.887	19590.4
791.219	19583.4
791.552	19528.26
791.884	19445.55
792.217	19353.57
792.549	19262.73
792.882	19117.42
793.214	19136.86
793.546	19122.84
793.879	19008.05
794.211	18955.62
794.543	18981.38
794.875	18855.96
795.207	18868.16
795.539	18772.8
795.871	18721.5
796.203	18593.82
796.535	18528.28
796.867	18486.48
797.198	18389.53
797.53	18351.34
797.862	18307.05
798.193	18276.54
798.525	18213.49
798.856	18196.54
799.188	17996.32
799.519	18035.19
799.85	17786.16
800.182	17870
800.513	17906.38
800.844	17690.79
801.175	17790
801.506	17719.94
801.837	17552.26
802.168	17698.48
802.499	17581.87
802.83	17441.31
803.161	17403.34
803.491	17401.76
803.822	17357.47
804.153	17246.74
804.483	17068.21
804.814	17086.06
805.145	17071.37
805.475	17028.89
805.805	17059.62
806.136	17072.96
806.466	17000.87
806.796	16994.77
807.126	16806.52
807.457	16797.26
807.787	16676.81
808.117	16644.27
808.447	16582.8
808.777	16640.88
809.107	16523.36
809.436	16413.54
809.766	16341.67
810.096	16324.95
810.426	16315.23
810.755	16294.67
811.085	16248.12
811.414	16215.12
811.744	16093.77
812.073	16089.93
812.403	16088.35
812.732	16049.03
813.061	16009.93
813.39	15849.48
813.719	15867.79
814.049	15976.94
814.378	15958.86
814.707	15730.62
815.036	15698.98
815.365	15658.08
815.693	15605.42
816.022	15597.74
816.351	15460.79
816.68	15511.87
817.008	15480
817.337	15354.81
817.665	15319.33
817.994	15309.61
818.322	15267.13
818.651	15197.3
818.979	15212.21
819.307	15297.41
819.636	15303.96
819.964	15099.9
820.292	15178.99
820.62	15151.65
820.948	15007.25
821.276	15142.38
821.604	14959.79
821.932	15086.11
822.259	15107.13
822.587	15025.1
822.915	15005.89
823.243	15067.81
823.57	14959.56
823.898	15108.49
824.225	14945.1
824.553	14930.19
824.88	15001.37
825.207	15009.51
825.535	14970.19
825.862	15038.43
826.189	14896.29
826.516	15024.42
826.843	14978.32
827.17	15038.21
827.497	14951.65
827.824	15010.41
828.151	14996.4
828.478	14931.77
828.805	15095.61
829.131	14950.07
829.458	14897.42
829.785	14847.93
830.111	14900.81
830.438	15078.21
830.764	15021.71
831.09	14974.25
831.417	14886.35
831.743	14969.28
832.069	14951.65
832.395	14906.23
832.722	15018.32
833.048	14781.26
833.374	14801.83
833.7	14762.28
834.026	14750.98
834.351	14779
834.677	14768.16
835.003	14836.4
835.329	14867.82
835.654	14680.02
835.98	14713.7
836.306	14692
836.631	14650.19
836.956	14636.63
837.282	14687.71
837.607	14582.4
837.932	14557.77
838.258	14538.78
838.583	14466.92
838.908	14559.8
839.233	14459.92
839.558	14467.6
839.883	14386.92
840.208	14390.31
840.533	14226.25
840.858	14359.81
841.182	14382.63
841.507	14309.64
841.832	14282.75
842.156	14188.74
842.481	14135.63
842.805	14230.77
843.13	14102.64
843.454	14068.97
843.778	14000.72
844.103	14076.88
844.427	14018.57
844.751	14058.57
845.075	13929.53
845.399	13812.48
845.723	13775.41
846.047	13821.97
846.371	13720.27
846.695	13713.95
847.019	13620.39
847.343	13595.31
847.666	13414.07
847.99	13514.4
848.313	13448.87
848.637	13366.39
848.96	13310.79
849.284	13296.56
849.607	13197.12
849.931	13235.09
850.254	13169.33
850.577	13005.27
850.9	12875.78
851.223	12944.02
851.546	12877.81
851.869	12803.91
852.192	12811.15
852.515	12738.83
852.838	12683.92
853.161	12651.15
853.483	12625.39
853.806	12551.27
854.129	12517.82
854.451	12480.99
854.774	12466.07
855.096	12415
855.419	12323.02
855.741	12328.22
856.063	12247.77
856.385	12160.32
856.708	12189.02
857.03	12066.08
857.352	12082.35
857.674	12104.5
857.996	12052.3
858.318	12006.42
858.64	11966.42
858.961	11941.11
859.283	11877.84
859.605	11877.61
859.926	11838.74
860.248	11810.95
860.57	11824.51
860.891	11735.24
861.212	11628.35
861.534	11698.18
861.855	11609.14
862.176	11634
862.498	11613.66
862.819	11592.65
863.14	11577.28
863.461	11526.66
863.782	11467.45
864.103	11525.3
864.424	11443.27
864.745	11464.29
865.065	11500.22
865.386	11408.7
865.707	11389.04
866.027	11388.81
866.348	11405.31
866.668	11359.21
866.989	11342.48
867.309	11241.92
867.63	11245.76
867.95	11213.45
868.27	11164.64
868.59	11239.89
868.91	11194.47
869.23	11205.99
869.55	11053.9
869.87	11145.43
870.19	11072.66
870.51	11110.17
870.83	11122.6
871.15	11023.62
871.469	10998.54
871.789	11034.92
872.109	11056.84
872.428	10955.6
872.748	11039.67
873.067	10927.58
873.386	11040.57
873.706	10957.18
874.025	10904.53
874.344	10883.74
874.663	10865.89
874.982	10838.09
875.301	10803.06
875.62	10803.52
875.939	10800.35
876.258	10805.55
876.577	10744.53
876.896	10774.36
877.214	10676.51
877.533	10663.18
877.852	10698.43
878.17	10660.92
878.489	10645.33
878.807	10639.45
879.125	10630.19
879.444	10542.73
879.762	10583.18
880.08	10532.34
880.398	10595.61
880.716	10600.36
881.034	10470.87
881.352	10461.83
881.67	10487.14
881.988	10468.61
882.306	10386.58
882.624	10398.55
882.941	10310.65
883.259	10262.29
883.577	10279.91
883.894	10293.47
884.212	10293.47
884.529	10218.67
884.846	10192.01
885.164	10204.44
885.481	10177.32
885.798	10230.2
886.115	10114.27
886.432	10149.07
886.75	10047.15
887.067	10069.3
887.383	10090.31
887.7	10024.78
888.017	9952.92
888.334	10004.44
888.651	9972.12
888.967	9877.44
889.284	9861.39
889.6	9835.41
889.917	9767.38
890.233	9753.6
890.55	9719.93
890.866	9741.4
891.182	9712.47
891.498	9682.87
891.815	9605.13
892.131	9616.2
892.447	9555.41
892.763	9522.87
893.079	9584.34
893.395	9492.14
893.71	9514.96
894.026	9498.01
894.342	9449.43
894.657	9368.3
894.973	9354.29
895.289	9372.59
895.604	9330.33
895.92	9281.75
896.235	9242.2
896.55	9148.19
896.865	9145.03
897.181	9139.15
897.496	9193.39
897.811	9105.71
898.126	9063
898.441	8976.67
898.756	9012.15
899.071	8991.59
899.386	9011.02
899.7	8898.93
900.015	8842.66
900.33	8859.16
900.644	8828.2
900.959	8796.34
901.273	8775.77
901.588	8701.2
901.902	8649.45
902.216	8695.1
902.531	8654.87
902.845	8585.49
903.159	8567.87
903.473	8473.18
903.787	8512.73
904.101	8412.17
904.415	8453.75
904.729	8363.35
905.042	8374.43
905.356	8356.8
905.67	8290.59
905.984	8307.31
906.297	8270.7
906.611	8243.36
906.924	8203.58
907.237	8239.06
907.551	8152.51
907.864	8125.39
908.177	8076.58
908.491	7990.48
908.804	8030.25
909.117	7962.23
909.43	7940.09
909.743	7893.08
910.056	7880.88
910.368	7836.81
910.681	7788.91
910.994	7781.45
911.307	7750.04
911.619	7656.71
911.932	7721.79
912.244	7616.48
912.557	7612.64
912.869	7615.58
913.181	7526.54
913.494	7495.81
913.806	7489.93
914.118	7478.86
914.43	7395.7
914.742	7438.18
915.054	7356.6
915.366	7353.89
915.678	7351.18
915.99	7330.61
916.302	7237.73
916.613	7221.46
916.925	7202.25
917.236	7193.44
917.548	7117.06
917.859	7149.37
918.171	7123.16
918.482	7057.85
918.794	7023.28
919.105	6980.11
919.416	6918.19
919.727	6951.41
920.038	6892.21
920.349	6885.2
920.66	6781.47
920.971	6884.3
921.282	6812.43
921.593	6701.25
921.903	6713
922.214	6683.62
922.525	6664.19
922.835	6620.8
923.146	6554.14
923.456	6556.4
923.767	6542.84
924.077	6538.32
924.387	6520.24
924.697	6401.37
925.008	6434.14
925.318	6376.51
925.628	6404.99
925.938	6335.16
926.248	6306.01
926.558	6288.83
926.867	6281.37
927.177	6236.86
927.487	6168.16
927.796	6209.06
928.106	6212.45
928.416	6161.15
928.725	6174.94
929.034	6083.64
929.344	6034.38
929.653	6029.86
929.962	6007.48
930.271	5953.25
930.581	5943.3
930.89	5926.81
931.199	5849.07
931.508	5868.5
931.817	5898.11
932.125	5867.6
932.434	5770.88
932.743	5750.99
933.051	5702.18
933.36	5699.47
933.669	5669.64
933.977	5697.21
934.286	5677.32
934.594	5633.03
934.902	5600.94
935.21	5566.36
935.519	5560.49
935.827	5558
936.135	5520.26
936.443	5483.88
936.751	5441.17
937.059	5440.72
937.367	5418.57
937.674	5420.83
937.982	5405.47
938.29	5344.9
938.597	5364.34
938.905	5295.86
939.213	5259.25
939.52	5225.58
939.827	5289.54
940.135	5231.68
940.442	5218.13
940.749	5225.36
941.056	5209.54
941.363	5111.01
941.67	5076.21
941.977	5071.46
942.284	5059.71
942.591	5083.89
942.898	5027.85
943.205	5014.97
943.511	4982.88
943.818	4975.42
944.125	4907.85
944.431	4917.57
944.738	4906.27
945.044	4868.3
945.35	4860.62
945.657	4858.13
945.963	4791.24
946.269	4735.88
946.575	4797.8
946.881	4727.74
947.187	4713.05
947.493	4701.53
947.799	4677.57
948.105	4639.61
948.41	4633.73
948.716	4646.62
949.022	4609.55
949.327	4618.37
949.633	4564.36
949.938	4540.63
950.244	4540.4
950.549	4522.1
950.854	4481.42
951.16	4492.49
951.465	4453.85
951.77	4407.53
952.075	4400.52
952.38	4422.89
952.685	4370.01
952.99	4352.61
953.294	4341.54
953.599	4320.3
953.904	4270.58
954.209	4280.75
954.513	4311.03
954.818	4240.75
955.122	4230.58
955.426	4198.72
955.731	4158.49
956.035	4111.26
956.339	4176.8
956.643	4130.02
956.948	4115.56
957.252	4112.39
957.556	4091.38
957.86	4063.81
958.163	4040.3
958.467	4030.13
958.771	4003.02
959.075	3992.62
959.378	3977.03
959.682	3944.49
959.985	3963.47
960.289	3895.67
960.592	3936.58
960.896	3896.8
961.199	3883.25
961.502	3868.1
961.805	3853.19
962.108	3788.78
962.411	3826.07
962.714	3760.99
963.017	3774.77
963.32	3759.63
963.623	3735.45
963.926	3768.9
964.228	3712.4
964.531	3717.83
964.833	3696.58
965.136	3660.43
965.438	3629.69
965.741	3635.57
966.043	3598.06
966.345	3575
966.648	3586.3
966.95	3563.48
967.252	3556.93
967.554	3549.69
967.856	3541.11
968.158	3480.54
968.46	3482.35
968.761	3479.87
969.063	3446.42
969.365	3443.26
969.666	3406.2
969.968	3390.83
970.269	3397.83
970.571	3383.15
970.872	3374.78
971.174	3391.28
971.475	3357.84
971.776	3326.2
972.077	3314.45
972.378	3332.07
972.679	3265.18
972.98	3242.13
973.281	3310.38
973.582	3221.57
973.883	3227.22
974.183	3214.11
974.484	3184.96
974.785	3153.1
975.085	3202.81
975.386	3186.31
975.686	3152.87
975.986	3138.86
976.287	3120.55
976.587	3074
976.887	3119.42
977.187	3069.48
977.487	3052.08
977.787	3071.52
978.087	3057.28
978.387	2963.5
978.687	3018.41
978.987	2956.04
979.286	2989.03
979.586	2951.07
979.885	2934.34
980.185	2963.5
980.484	2938.86
980.784	2964.63
981.083	2887.79
981.382	2884.63
981.682	2844.4
981.981	2886.44
982.28	2867.68
982.579	2835.59
982.878	2812.54
983.177	2800.79
983.475	2825.87
983.774	2782.48
984.073	2740.22
984.372	2746.33
984.67	2744.07
984.969	2758.98
985.267	2748.36
985.566	2696.16
985.864	2645.76
986.162	2705.2
986.461	2698.87
986.759	2679.21
987.057	2633.79
987.355	2653.67
987.653	2600.57
987.951	2610.74
988.249	2600.34
988.547	2591.3
988.844	2575.71
989.142	2585.2
989.44	2570.74
989.737	2539.33
990.035	2545.88
990.332	2521.93
990.63	2498.65
990.927	2493.68
991.224	2490.06
991.521	2444.19
991.819	2472.66
992.116	2450.29
992.413	2441.93
992.71	2431.08
993.006	2429.05
993.303	2430.4
993.6	2409.16
993.897	2374.36
994.193	2363.96
994.49	2383.4
994.787	2300.24
995.083	2358.77
995.379	2328.48
995.676	2328.94
995.972	2326.68
996.268	2291.87
996.565	2259.56
996.861	2285.77
997.157	2258.2
997.453	2264.76
997.749	2228.15
998.044	2229.96
998.34	2215.49
998.636	2216.17
998.932	2181.82
999.227	2184.98
999.523	2170.97
999.818	2188.83
1000.114	2171.65
1000.409	2109.96
1000.704	2121.26
1001	2148.38
1001.295	2109.51
1001.59	2107.02
1001.885	2083.07
1002.18	2063.18
1002.475	2067.93
1002.77	2054.37
1003.065	2064.99
1003.359	2047.81
1003.654	1983.63
1003.949	2011.66
1004.243	1991.32
1004.538	1994.03
1004.832	1977.53
1005.127	1978.21
1005.421	1957.87
1005.715	1944.31
1006.009	1950.87
1006.304	1920.81
1006.598	1926.23
1006.892	1890.76
1007.186	1874.26
1007.48	1883.75
1007.773	1865.9
1008.067	1862.51
1008.361	1860.25
1008.655	1821.83
1008.948	1823.64
1009.242	1799.68
1009.535	1819.34
1009.829	1801.94
1010.122	1799.23
1010.415	1772.34
1010.708	1765.56
1011.001	1758.33
1011.295	1754.94
1011.588	1729.4
1011.881	1768.72
1012.173	1695.73
1012.466	1712
1012.759	1679.69
1013.052	1688.27
1013.344	1689.63
1013.637	1694.15
1013.93	1649.86
1014.222	1641.72
1014.514	1634.94
1014.807	1605.57
1015.099	1598.56
1015.391	1630.88
1015.683	1599.24
1015.976	1582.29
1016.268	1568.05
1016.56	1579.8
1016.851	1568.5
1017.143	1542.97
1017.435	1558.33
1017.727	1560.59
1018.018	1522.86
1018.31	1531.89
1018.602	1516.53
1018.893	1488.28
1019.185	1485.34
1019.476	1460.26
1019.767	1507.26
1020.058	1469.98
1020.35	1436.53
1020.641	1433.37
1020.932	1432.91
1021.223	1434.27
1021.514	1448.51
1021.804	1387.27
1022.095	1393.14
1022.386	1370.09
1022.677	1376.42
1022.967	1381.84
1023.258	1356.76
1023.548	1331
1023.839	1333.71
1024.129	1317.89
1024.419	1323.31
1024.709	1318.34
1025	1304.78
1025.29	1311.11
1025.58	1277.89
1025.87	1258.68
1026.16	1243.99
1026.449	1278.34
1026.739	1250.55
1027.029	1251.45
1027.319	1247.16
1027.608	1248.51
1027.898	1224.78
1028.187	1203.77
1028.477	1181.62
1028.766	1209.87
1029.055	1220.04
1029.344	1191.11
1029.634	1171.45
1029.923	1166.93
1030.212	1150.21
1030.501	1147.72
1030.79	1140.04
1031.078	1121.96
1031.367	1148.63
1031.656	1126.93
1031.945	1117.22
1032.233	1090.32
1032.522	1108.18
1032.81	1104.79
1033.099	1082.64
1033.387	1081.51
1033.675	1081.74
1033.963	1093.26
1034.251	1097.56
1034.54	1079.48
1034.828	1028.86
1035.116	1018.91
1035.403	1042.42
1035.691	1030.66
1035.979	1023.43
1036.267	1000.61
1036.554	1031.79
1036.842	1011.91
1037.129	1001.97
1037.417	962.19
1037.704	969.2
1037.992	985.92
1038.279	949.54
1038.566	950.67
1038.853	950.67
1039.14	950.67
