Data from hue_26_FLMS001491_00074.txt Node
Date: Tue Feb 07 17:14:30 GMT 2017
User: dcchb
Spectrometer: FLMS00149
Trigger mode: 0
Integration Time (sec): 2.000000E-2
Scans to average: 10
Electric dark correction enabled: true
Nonlinearity correction enabled: false
Boxcar width: 0
XAxis mode: Wavelengths
Number of Pixels in Spectrum: 2048
>>>>>Begin Spectral Data<<<<<
341.393	-13.14
341.776	-13.14
342.16	-13.14
342.543	-84.32
342.927	-76.41
343.31	-65.79
343.693	-79.12
344.077	-70.76
344.46	-45.68
344.843	-67.37
345.226	-53.59
345.61	-18.33
345.993	-32.34
346.376	9.24
346.759	11.95
347.142	8.56
347.525	50.14
347.908	56.69
348.291	82.91
348.674	98.5
349.057	115
349.44	119.97
349.823	129.01
350.206	169.23
350.588	184.15
350.971	216.46
351.354	225.28
351.737	248.33
352.119	265.73
352.502	264.82
352.884	269.8
353.267	286.29
353.65	273.18
354.032	299.17
354.414	306.86
354.797	329.68
355.179	326.06
355.562	330.81
355.944	333.07
356.326	340.98
356.709	333.07
357.091	351.37
357.473	342.34
357.855	337.82
358.238	350.7
358.62	359.06
359.002	357.7
359.384	347.08
359.766	360.41
360.148	347.31
360.53	362.67
360.912	332.17
361.294	339.4
361.676	334.43
362.057	339.4
362.439	317.93
362.821	319.51
363.203	317.48
363.584	334.43
363.966	342.34
364.348	324.03
364.729	322
365.111	339.62
365.493	321.77
365.874	307.99
366.256	321.32
366.637	318.61
367.019	311.6
367.4	296.24
367.781	316.57
368.163	305.73
368.544	318.38
368.925	303.69
369.306	301.88
369.688	315.44
370.069	310.47
370.45	319.74
370.831	309.12
371.212	313.86
371.593	337.14
371.974	328.1
372.355	312.73
372.736	325.84
373.117	301.88
373.498	324.71
373.879	333.3
374.26	303.01
374.641	314.99
375.021	306.18
375.402	323.35
375.783	313.18
376.163	342.56
376.544	322.9
376.925	318.38
377.305	333.07
377.686	325.39
378.066	327.19
378.447	338.27
378.827	333.52
379.208	317.03
379.588	326.74
379.968	345.27
380.349	330.58
380.729	352.05
381.109	340.53
381.489	340.53
381.87	325.39
382.25	350.7
382.63	351.15
383.01	345.73
383.39	361.32
383.77	342.79
384.15	354.99
384.53	355.22
384.91	340.08
385.29	367.42
385.67	360.41
386.049	357.02
386.429	341.21
386.809	358.83
387.189	368.1
387.568	340.3
387.948	366.06
388.328	347.76
388.707	369
389.087	363.58
389.466	362
389.846	332.39
390.225	359.06
390.605	362.45
390.984	359.74
391.363	354.54
391.743	368.78
392.122	362.45
392.501	360.19
392.881	353.86
393.26	391.15
393.639	367.42
394.018	391.83
394.397	372.84
394.776	383.01
395.155	363.8
395.534	380.07
395.913	374.43
396.292	390.7
396.671	393.86
397.05	393.63
397.429	388.66
397.808	399.96
398.186	392.96
398.565	381.66
398.944	384.37
399.323	386.85
399.701	390.7
400.08	392.05
400.458	388.44
400.837	393.18
401.215	411.03
401.594	399.06
401.972	419.62
402.351	416.46
402.729	405.84
403.107	411.71
403.486	427.31
403.864	433.63
404.242	417.36
404.62	429.79
404.999	427.98
405.377	424.37
405.755	407.64
406.133	420.3
406.511	395.44
406.889	432.05
407.267	432.95
407.645	446.06
408.023	452.62
408.401	437.7
408.779	440.64
409.156	460.52
409.534	446.74
409.912	435.21
410.29	459.17
410.667	458.49
411.045	446.74
411.422	471.82
411.8	453.07
412.178	451.94
412.555	474.08
412.933	459.62
413.31	461.43
413.687	483.12
414.065	477.93
414.442	489.68
414.819	471.15
415.197	484.7
415.574	495.1
415.951	499.17
416.328	486.29
416.705	490.35
417.082	496.46
417.46	509.34
417.837	523.12
418.214	510.01
418.591	543.46
418.967	510.01
419.344	520.64
419.721	524.48
420.098	524.93
420.475	531.03
420.852	529.45
421.228	515.21
421.605	546.62
421.982	522.67
422.358	526.51
422.735	542.33
423.111	571.71
423.488	562.89
423.864	558.38
424.241	557.92
424.617	560.41
424.994	570.35
425.37	576.45
425.746	587.75
426.123	573.06
426.499	582.33
426.875	585.72
427.251	576
427.627	596.11
428.003	572.39
428.379	573.74
428.756	587.3
429.132	594.98
429.507	585.72
429.883	623.23
430.259	620.75
430.635	628.43
431.011	591.14
431.387	644.02
431.763	632.27
432.138	659.39
432.514	641.31
432.89	639.05
433.265	653.97
433.641	654.19
434.016	666.62
434.392	683.12
434.767	684.93
435.143	693.74
435.518	686.06
435.894	691.03
436.269	678.82
436.644	693.51
437.02	718.14
437.395	714.3
437.77	705.04
438.145	728.09
438.52	686.73
438.895	746.17
439.271	733.29
439.646	733.06
440.021	716.79
440.395	732.83
440.77	747.75
441.145	777.13
441.52	770.8
441.895	764.7
442.27	771.7
442.645	784.58
443.019	813.74
443.394	778.03
443.769	804.92
444.143	806.28
444.518	790.23
444.892	790.46
445.267	773.51
445.641	803.11
446.016	809.44
446.39	809.22
446.764	830.46
447.139	802.44
447.513	797.24
447.887	835.2
448.262	821.87
448.636	839.05
449.01	855.09
449.384	842.44
449.758	856.67
450.132	842.89
450.506	868.42
450.88	880.85
451.254	857.8
451.628	890.12
452.002	903.22
452.376	902.55
452.75	875.65
453.123	907.29
453.497	920.63
453.871	902.55
454.244	937.12
454.618	931.25
454.992	931.92
455.365	951.36
455.739	971.25
456.112	973.96
456.486	973.73
456.859	986.16
457.232	1000.4
457.606	1004.69
457.979	1024.8
458.352	1032.94
458.725	1026.39
459.099	1049.44
459.472	1067.29
459.845	1084.91
460.218	1091.02
460.591	1081.3
460.964	1097.57
461.337	1126.95
461.71	1124.69
462.083	1141.64
462.456	1130.56
462.829	1144.8
463.201	1168.53
463.574	1168.75
463.947	1188.64
464.32	1213.27
464.692	1204.01
465.065	1225.02
465.438	1250.56
465.81	1302.54
466.183	1288.07
466.555	1309.54
466.928	1289.66
467.3	1323.78
467.672	1323.55
468.045	1347.28
468.417	1347.51
468.789	1389.99
469.161	1386.83
469.534	1417.79
469.906	1446.04
470.278	1458.01
470.65	1469.09
471.022	1469.76
471.394	1518.58
471.766	1510.89
472.138	1554.96
472.51	1571.68
472.882	1587.95
473.253	1619.82
473.625	1641.51
473.997	1690.55
474.369	1708.4
474.74	1722.41
475.112	1759.02
475.484	1802.64
475.855	1814.84
476.227	1825.91
476.598	1870.66
476.97	1919.7
477.341	1963.31
477.713	2002.63
478.084	1991.56
478.455	2042.4
478.827	2082.63
479.198	2126.92
479.569	2170.99
479.94	2219.57
480.311	2215.96
480.682	2256.64
481.053	2334.83
481.424	2372.79
481.795	2415.28
482.166	2431.77
482.537	2505.44
482.908	2580.47
483.279	2577.08
483.65	2637.64
484.021	2704.99
484.391	2737.3
484.762	2738.43
485.133	2787.92
485.503	2843.51
485.874	2920.8
486.244	2978.2
486.615	3022.04
486.985	3010.29
487.356	3082.83
487.726	3158.31
488.097	3207.8
488.467	3220.9
488.837	3302.03
489.207	3412.09
489.578	3410.73
489.948	3464.97
490.318	3509.03
490.688	3553.78
491.058	3606.2
491.428	3647.79
491.798	3710.16
492.168	3770.72
492.538	3849.81
492.908	3877.16
493.278	3918.51
493.648	3950.83
494.017	3997.61
494.387	4043.93
494.757	4103.59
495.126	4150.15
495.496	4165.29
495.866	4242.57
496.235	4240.99
496.605	4308.56
496.974	4362.57
497.344	4346.3
497.713	4381.55
498.082	4387.65
498.452	4452.74
498.821	4548.55
499.19	4517.82
499.559	4607.99
499.928	4587.65
500.298	4621.55
500.667	4732.28
501.036	4699.51
501.405	4752.62
501.774	4720.3
502.143	4803.91
502.512	4867.19
502.88	4814.53
503.249	4872.61
503.618	4942.21
503.987	4921.88
504.356	4951.48
504.724	4983.12
505.093	5027.64
505.462	5034.19
505.83	5097.24
506.199	5126.62
506.567	5189.44
506.936	5171.36
507.304	5259.27
507.672	5248.2
508.041	5287.52
508.409	5355.76
508.777	5333.84
509.145	5342.2
509.514	5384.01
509.882	5397.8
510.25	5426.95
510.618	5470.56
510.986	5488.19
511.354	5525.48
511.722	5541.75
512.09	5605.25
512.458	5587.17
512.826	5631.91
513.193	5666.94
513.561	5642.08
513.929	5696.55
514.297	5751.46
514.664	5744.91
515.032	5770.44
515.4	5879.14
515.767	5816.09
516.135	5878.01
516.502	5823.1
516.869	5884.56
517.237	5909.65
517.604	5954.17
517.972	5998.01
518.339	5960.94
518.706	6033.71
519.073	6055.18
519.44	6017.21
519.808	6117.78
520.175	6122.07
520.542	6206.36
520.909	6185.12
521.276	6191.45
521.643	6225.8
522.009	6300.6
522.376	6291.11
522.743	6308.05
523.11	6374.95
523.477	6402.52
523.843	6452.23
524.21	6525.68
524.577	6536.07
524.943	6533.59
525.31	6559.57
525.676	6687.03
526.043	6649.97
526.409	6706.69
526.776	6741.26
527.142	6750.53
527.508	6800.7
527.874	6830.75
528.241	6891.77
528.607	6842.28
528.973	6938.77
529.339	7000.47
529.705	7090.18
530.071	7103.51
530.437	7076.85
530.803	7142.16
531.169	7174.47
531.535	7122.04
531.901	7173.79
532.267	7256.28
532.632	7285.66
532.998	7316.16
533.364	7364.98
533.73	7402.49
534.095	7430.28
534.461	7451.53
534.826	7501.92
535.192	7498.53
535.557	7548.02
535.923	7591.86
536.288	7579.43
536.653	7585.54
537.019	7620.34
537.384	7727.23
537.749	7725.87
538.114	7717.28
538.479	7755.02
538.845	7800.67
539.21	7842.7
539.575	7797.51
539.94	7871.18
540.305	7950.27
540.67	7887.45
541.034	7961.57
541.399	7966.32
541.764	8001.12
542.129	8047.22
542.494	8061.68
542.858	8124.28
543.223	8096.71
543.587	8118.18
543.952	8187.1
544.316	8188.91
544.681	8222.81
545.045	8299.64
545.41	8305.97
545.774	8369.02
546.138	8327.89
546.503	8385.29
546.867	8457.15
547.231	8576.47
547.595	8587.99
547.959	8531.5
548.324	8574.89
548.688	8575.79
549.052	8635.45
549.416	8620.31
549.779	8700.31
550.143	8717.03
550.507	8780.53
550.871	8803.36
551.235	8766.29
551.599	8878.61
551.962	8885.84
552.326	8909.79
552.689	8962.9
553.053	8919.74
553.417	8998.83
553.78	9064.14
554.143	9020.75
554.507	9070.02
554.87	9071.6
555.234	9134.42
555.597	9131.94
555.96	9106.17
556.323	9215.55
556.686	9224.81
557.05	9226.17
557.413	9356.56
557.776	9391.36
558.139	9399.95
558.502	9399.05
558.865	9440.4
559.228	9458.93
559.59	9521.3
559.953	9483.56
560.316	9648.08
560.679	9614.63
561.041	9611.7
561.404	9680.85
561.767	9735.08
562.129	9710.9
562.492	9781.41
562.854	9763.33
563.217	9749.32
563.579	9840.84
563.941	9847.4
564.304	9952.7
564.666	10068.86
565.028	10002.87
565.39	10059.59
565.753	10078.8
566.115	10066.15
566.477	10118.8
566.839	10210.78
567.201	10218.91
567.563	10256.88
567.925	10307.95
568.287	10325.12
568.648	10376.2
569.01	10390.21
569.372	10457.55
569.734	10448.06
570.095	10534.84
570.457	10618
570.819	10645.12
571.18	10650.77
571.542	10704.78
571.903	10791.33
572.265	10786.35
572.626	10932.57
572.987	10926.01
573.349	10977.31
573.71	10959.91
574.071	11020.02
574.432	11073.35
574.794	11201.26
575.155	11219.34
575.516	11263.4
575.877	11271.31
576.238	11385.66
576.599	11503.17
576.96	11553.34
577.32	11591.31
577.681	11780.23
578.042	11883.73
578.403	11923.95
578.763	12054.57
579.124	12131.63
579.485	12265.64
579.845	12399.19
580.206	12428.8
580.566	12598.28
580.927	12643.93
581.287	12813.65
581.648	12893.19
582.008	13098.61
582.368	13196.46
582.728	13354.42
583.089	13494.53
583.449	13712.15
583.809	13958.25
584.169	14098.36
584.529	14195.76
584.889	14449.08
585.249	14595.97
585.609	14717.1
585.969	14993.25
586.329	15133.36
586.688	15506.68
587.048	15628.94
587.408	15849.72
587.768	16098.98
588.127	16293.33
588.487	16530.38
588.846	16870.49
589.206	17073.42
589.565	17327.43
589.925	17722.22
590.284	17920.18
590.643	18110.23
591.003	18477
591.362	18777.56
591.721	19032.01
592.08	19232.69
592.44	19598.33
592.799	19882.16
593.158	20146.56
593.517	20448.7
593.876	20771.18
594.235	20977.27
594.593	21383.14
594.952	21549.24
595.311	21896.12
595.67	22279.16
596.029	22644.12
596.387	22982.19
596.746	23240.26
597.104	23427.83
597.463	23799.57
597.822	24173.35
598.18	24397.07
598.538	24666.67
598.897	25076.15
599.255	25275.92
599.613	25792.29
599.972	25910.48
600.33	26301.43
600.688	26493.51
601.046	26897.12
601.404	27340.72
601.762	27354.51
602.12	27841.27
602.478	28218.44
602.836	28343.18
603.194	28406.68
603.552	28926.22
603.91	29064.97
604.268	29462.93
604.625	29688.68
604.983	29974.55
605.341	30258.61
605.698	30637.36
606.056	30889.56
606.413	30941.98
606.771	31380.39
607.128	31699.03
607.485	31812.02
607.843	32067.6
608.2	32369.52
608.557	32647.7
608.914	32726.12
609.272	33189.16
609.629	33344.86
609.986	33570.39
610.343	33750.72
610.7	34136.48
611.057	34203.14
611.414	34473.87
611.771	34608.1
612.127	35004.48
612.484	35160.4
612.841	35417.8
613.198	35433.62
613.554	35476.78
613.911	36055.97
614.267	36124.9
614.624	36297.1
614.98	36365.8
615.337	36768.5
615.693	36886.69
616.05	36883.07
616.406	37248.03
616.762	37376.39
617.118	37379.33
617.475	37552.88
617.831	37884.4
618.187	37998.97
618.543	38116.48
618.899	38379.3
619.255	38495.46
619.611	38549.92
619.967	38815.45
620.323	39008.89
620.678	38966.63
621.034	39003.69
621.39	39148.09
621.746	39222.22
622.101	39755.31
622.457	39453.62
622.812	39647.74
623.168	39919.6
623.523	39834.86
623.879	40038.24
624.234	39789.89
624.589	40101.52
624.945	40252.7
625.3	40463.09
625.655	40490.43
626.01	40525.23
626.365	40686.13
626.72	40737.66
627.075	40722.97
627.43	40887.26
627.785	40781.95
628.14	41017.88
628.495	41059.01
628.85	41037.08
629.205	41074.82
629.559	41187.14
629.914	41028.27
630.269	41236.63
630.623	41198.89
630.978	41182.62
631.332	41204.76
631.687	41442.27
632.041	41249.73
632.396	41267.81
632.75	41304.2
633.104	41437.53
633.459	41309.17
633.813	41229.4
634.167	41349.84
634.521	41309.39
634.875	41412.22
635.229	41409.73
635.583	41353.23
635.937	41217.87
636.291	41271.88
636.645	41366.12
636.999	41309.85
637.352	41351.2
637.706	41293.35
638.06	41471.2
638.413	41360.92
638.767	41214.71
639.121	41386
639.474	41113.92
639.828	41221.03
640.181	41329.51
640.534	41316.85
640.888	41119.34
641.241	40991.44
641.594	41188.95
641.947	41369.96
642.301	41236.4
642.654	41225.55
643.007	41151.88
643.36	41333.8
643.713	41202.28
644.066	41315.72
644.419	41056.97
644.771	40940.36
645.124	40542.63
645.477	40448.4
645.83	40311
646.182	40251.57
646.535	40026.72
646.888	40129.99
647.24	39984.01
647.593	40322.75
647.945	40164.57
648.298	39925.02
648.65	39900.62
649.002	39685.93
649.355	39956.21
649.707	39939.71
650.059	40226.03
650.411	40585.35
650.763	40713.03
651.115	40960.7
651.467	40917.31
651.819	40943.08
652.171	40795.28
652.523	40662.86
652.875	40770.43
653.227	40694.95
653.578	40986.92
653.93	40823.98
654.282	40529.3
654.633	40626.25
654.985	40692.46
655.337	40602.97
655.688	40714.38
656.039	40784.89
656.391	40519.81
656.742	40615.18
657.094	40541.5
657.445	40728.84
657.796	40537.89
658.147	40583.09
658.498	40549.19
658.849	40537.21
659.2	40515.97
659.551	40408.17
659.902	40657.66
660.253	40444.33
660.604	40535.63
660.955	40373.83
661.306	40618.34
661.656	40471.22
662.007	40632.12
662.358	40502.64
662.708	40433.94
663.059	40358.01
663.409	40371.11
663.76	40468.96
664.11	40491.34
664.461	40581.96
664.811	40426.48
665.161	40473.48
665.511	40378.35
665.862	40386.48
666.212	40531.34
666.562	40406.14
666.912	40292.25
667.262	40297.44
667.612	40431.45
667.962	40390.77
668.312	40438
668.662	40524.33
669.011	40386.93
669.361	40567.49
669.711	40418.34
670.06	40179.93
670.41	40161.18
670.76	40152.59
671.109	40376.09
671.459	40209.99
671.808	40113.95
672.157	40246.15
672.507	40021.29
672.856	40042.76
673.205	40035.08
673.554	40186.03
673.904	40072.36
674.253	40241.63
674.602	40181.06
674.951	39410.46
675.3	39325.72
675.649	39987.39
675.998	40022.65
676.346	39938.81
676.695	40144.9
677.044	39773.84
677.393	40056.77
677.741	39978.36
678.09	39840.51
678.438	39585.6
678.787	39779.94
679.135	39814.29
679.484	39563.23
679.832	39790.11
680.181	39612.04
680.529	39688.87
680.877	39561.64
681.225	39570.46
681.573	39771.58
681.922	39478.03
682.27	39349.67
682.618	39378.82
682.966	39396.9
683.314	39256.34
683.661	39226.96
684.009	38961.66
684.357	38941.32
684.705	38826.07
685.053	38858.84
685.4	38811.15
685.748	38698.16
686.095	38661.55
686.443	38595.79
686.79	38463.37
687.138	38656.58
687.485	38580.2
687.832	38360.55
688.18	38561.9
688.527	38201.45
688.874	38249.14
689.221	38085.52
689.568	38057.5
689.915	38031.51
690.262	38052.08
690.609	37916.71
690.956	37681.24
691.303	37792.65
691.65	37597.85
691.997	37556.27
692.344	37433.79
692.69	37331.42
693.037	37394.47
693.383	37073.57
693.73	37275.83
694.077	37000.58
694.423	36928.72
694.769	36881.49
695.116	36799.46
695.462	36780.47
695.808	36682.4
696.155	36825.44
696.501	36416.64
696.847	36500.48
697.193	36232.69
697.539	36376.42
697.885	36068.85
698.231	36010.32
698.577	36058.91
698.923	35911.57
699.269	35778.47
699.614	35599.49
699.96	35673.38
700.306	35503.22
700.651	35435.65
700.997	35262.1
701.342	35212.83
701.688	35227.07
702.033	35089.67
702.379	35114.53
702.724	35058.71
703.069	34973.74
703.415	34670.7
703.76	34793.63
704.105	34685.39
704.45	34640.87
704.795	34394.55
705.14	34293.99
705.485	34314.32
705.83	34198.17
706.175	34290.14
706.52	34035.91
706.865	33971.28
707.209	33882.47
707.554	33818.52
707.899	33856.93
708.243	33633.89
708.588	33678.86
708.932	33493.78
709.277	33416.04
709.621	33418.3
709.966	33178.76
710.31	33233.45
710.654	32964.53
710.998	33055.15
711.342	32969.95
711.687	33006.34
712.031	32812.89
712.375	32604.54
712.719	32807.47
713.063	32750.3
713.407	32649.06
713.75	32587.14
714.094	32497.87
714.438	32369.06
714.782	32427.82
715.125	32176.53
715.469	32394.37
715.812	32099.69
716.156	32163.42
716.499	32081.39
716.843	32178.33
717.186	31901.96
717.53	32030.99
717.873	31959.13
718.216	31919.81
718.559	31739.7
718.902	31611.57
719.246	31611.8
719.589	31441.63
719.932	31449.54
720.275	31430.78
720.617	31453.16
720.96	31274.18
721.303	31349.66
721.646	31335.64
721.989	31012.94
722.331	31258.81
722.674	31059.72
723.016	31091.36
723.359	31027.18
723.701	31196.67
724.044	30829.9
724.386	30664.7
724.729	30909.44
725.071	30764.36
725.413	30849.1
725.755	30752.61
726.097	30727.75
726.439	30538.6
726.782	30379.29
727.124	30627.42
727.465	30411.83
727.807	30347.65
728.149	30390.59
728.491	30456.35
728.833	30306.97
729.175	30262.45
729.516	30231.72
729.858	30156.69
730.199	30231.95
730.541	30075.11
730.882	30027.66
731.224	30022.46
731.565	29861.33
731.906	29982.69
732.248	29793.99
732.589	29812.3
732.93	29780.21
733.271	29631.06
733.612	29735.46
733.953	29611.62
734.294	29544.73
734.635	29450.72
734.976	29655.69
735.317	29373.44
735.658	29334.12
735.999	29306.32
736.339	29333.21
736.68	29309.94
737.021	29203.5
737.361	29242.59
737.702	29209.6
738.042	29130.51
738.383	28976.84
738.723	29158.08
739.063	28994.24
739.404	29020.68
739.744	28992.2
740.084	28918.53
740.424	28918.31
740.764	28786.56
741.104	28959.89
741.444	28786.33
741.784	28805.77
742.124	28814.36
742.464	28740.46
742.804	28772.77
743.143	28530.07
743.483	28554.48
743.823	28531.42
744.162	28507.24
744.502	28528.94
744.841	28385.21
745.181	28542.72
745.52	28275.39
745.86	28347.93
746.199	28312.22
746.538	28220.7
746.877	28299.57
747.216	28315.84
747.556	28131.21
747.895	28133.92
748.234	28038.33
748.573	28000.59
748.911	27884.66
749.25	27992.91
749.589	27746.36
749.928	27789.07
750.267	27912.68
750.605	27799.24
750.944	27659.81
751.283	27660.94
751.621	27626.82
751.96	27560.83
752.298	27482.64
752.636	27628.17
752.975	27425.01
753.313	27389.99
753.651	27478.8
753.989	27370.33
754.327	27223.44
754.666	27154.29
755.004	27335.07
755.342	27199.71
755.679	27151.57
756.017	26990.67
756.355	27047.85
756.693	26892.82
757.031	26966.49
757.368	26801.98
757.706	26798.82
758.044	26706.84
758.381	26756.1
758.719	26612.38
759.056	26642.44
759.394	26498.03
759.731	26471.59
760.068	26374.19
760.405	26279.51
760.743	26133.75
761.08	26233.86
761.417	26069.12
761.754	25979.85
762.091	25963.36
762.428	25815.56
762.765	25818.5
763.102	25910.93
763.438	25729.69
763.775	25531.73
764.112	25543.71
764.449	25529.7
764.785	25381.68
765.122	25282.7
765.458	25222.81
765.795	25177.16
766.131	25050.61
766.467	24989.15
766.804	24948.69
767.14	24806.1
767.476	24772.2
767.812	24833.22
768.148	24762.71
768.485	24557.07
768.821	24374.02
769.157	24416.96
769.492	24285.43
769.828	24406.79
770.164	24085.89
770.5	24124.76
770.836	24076.85
771.171	24041.37
771.507	23929.74
771.842	23714.15
772.178	23672.34
772.513	23682.96
772.849	23594.15
773.184	23466.02
773.519	23437.1
773.855	23359.58
774.19	23333.6
774.525	23209.98
774.86	23060.83
775.195	23140.61
775.53	22890.9
775.865	22974.06
776.2	22699.26
776.535	22638.7
776.87	22518.02
777.205	22484.8
777.539	22432.38
777.874	22432.83
778.209	22178.6
778.543	22079.39
778.878	22063.57
779.212	21968.21
779.547	21931.6
779.881	21870.81
780.215	21842.11
780.55	21766.63
780.884	21628.1
781.218	21669.23
781.552	21583.81
781.886	21415.91
782.22	21315.34
782.554	21321.22
782.888	21110.6
783.222	20978.63
783.556	20968.46
783.889	20948.8
784.223	20782.48
784.557	20745.19
784.89	20739.31
785.224	20626.77
785.557	20543.16
785.891	20464.74
786.224	20450.73
786.558	20401.7
786.891	20180.46
787.224	20163.51
787.557	20129.84
787.891	20059.33
788.224	20067.01
788.557	19957.87
788.89	19885.55
789.223	19941.59
789.556	19690.53
789.888	19686.91
790.221	19602.17
790.554	19526.92
790.887	19447.14
791.219	19402.63
791.552	19350.2
791.884	19336.19
792.217	19273.14
792.549	19103.65
792.882	18986.37
793.214	18989.3
793.546	18904.33
793.879	18791.12
794.211	18705.69
794.543	18822.08
794.875	18656.2
795.207	18796.09
795.539	18573.04
795.871	18567.62
796.203	18425.7
796.535	18309.55
796.867	18270.23
797.198	18203.79
797.53	18280.4
797.862	18172.83
798.193	18180.74
798.525	17982.78
798.856	17994.75
799.188	17878.82
799.519	17726.51
799.85	17705.27
800.182	17650.81
800.513	17733.97
800.844	17491.26
801.175	17610.58
801.506	17619.4
801.837	17455.11
802.168	17425.05
802.499	17266.18
802.83	17291.95
803.161	17322.68
803.491	17255.56
803.822	17201.1
804.153	17176.7
804.483	16963.37
804.814	16922.92
805.145	16880.88
805.475	16952.97
805.805	16766.54
806.136	16852.64
806.466	16807.89
806.796	16740.1
807.126	16611.06
807.457	16507.56
807.787	16537.84
808.117	16560.44
808.447	16409.71
808.777	16467.79
809.107	16377.17
809.436	16358.41
809.766	16323.16
810.096	16270.5
810.426	16201.13
810.755	16224.18
811.085	16134.01
811.414	16031.41
811.744	16025.31
812.073	16070.06
812.403	15947.58
812.732	15888.14
813.061	15824.87
813.39	15806.11
813.719	15681.14
814.049	15783.51
814.378	15740.57
814.707	15681.82
815.036	15606.79
815.365	15557.3
815.693	15366.35
816.022	15403.63
816.351	15422.39
816.68	15323.86
817.008	15391.43
817.337	15275.28
817.665	15237.76
817.994	15238.22
818.322	15173.58
818.651	15111.89
818.979	15083.19
819.307	15122.74
819.636	15099.24
819.964	14921.16
820.292	15060.82
820.62	14958
820.948	15002.29
821.276	15021.05
821.604	14926.36
821.932	14968.62
822.259	14994.15
822.587	14938.34
822.915	14865.8
823.243	14945.12
823.57	14858.34
823.898	14852.69
824.225	14800.71
824.553	14895.85
824.88	14851.11
825.207	14933.59
825.535	14818.34
825.862	14890.43
826.189	14757.32
826.516	14832.12
826.843	14894.27
827.17	14860.15
827.497	14798.45
827.824	14940.6
828.151	14896.3
828.478	14917.77
828.805	14885.23
829.131	14907.6
829.458	14715.97
829.785	14720.04
830.111	14875.51
830.438	14856.98
830.764	14787.61
831.09	14896.53
831.417	14706.03
831.743	14871.67
832.069	14824.89
832.395	14733.37
832.722	14742.18
833.048	14753.26
833.374	14734.27
833.7	14714.16
834.026	14727.27
834.351	14679.81
834.677	14726.36
835.003	14694.27
835.329	14714.84
835.654	14637.1
835.98	14543.77
836.306	14625.8
836.631	14635.07
836.956	14600.72
837.282	14580.15
837.607	14463.09
837.932	14478.24
838.258	14471.91
838.583	14418.8
838.908	14437.33
839.233	14377.45
839.558	14362.53
839.883	14264
840.208	14222.87
840.533	14287.73
840.858	14257.9
841.182	14249.54
841.507	14332.7
841.832	14184.23
842.156	14177.45
842.481	14073.73
842.805	14043.9
843.13	13973.16
843.454	14029.21
843.778	13942.66
844.103	13936.55
844.427	13876.44
844.751	13948.98
845.075	13802.77
845.399	13802.09
845.723	13650.91
846.047	13728.42
846.371	13569.11
846.695	13507.41
847.019	13546.28
847.343	13480.97
847.666	13363.69
847.99	13338.83
848.313	13353.97
848.637	13305.38
848.96	13254.54
849.284	13190.13
849.607	13144.26
849.931	13080.76
850.254	13016.35
850.577	12880.99
850.9	12774.1
851.223	12821.1
851.546	12715.34
851.869	12723.93
852.192	12709.47
852.515	12523.94
852.838	12561.9
853.161	12620.66
853.483	12432.19
853.806	12438.51
854.129	12412.07
854.451	12379.08
854.774	12326.65
855.096	12332.08
855.419	12246.66
855.741	12223.15
856.063	12245.98
856.385	12128.01
856.708	12101.35
857.03	12015.02
857.352	12025.87
857.674	12009.15
857.996	11932.31
858.318	11852.99
858.64	11892.09
858.961	11835.82
859.283	11823.16
859.605	11742.49
859.926	11731.19
860.248	11713.11
860.57	11625.65
860.891	11713.34
861.212	11616.84
861.534	11532.32
861.855	11570.29
862.176	11536.62
862.498	11556.96
862.819	11508.6
863.14	11558.09
863.461	11480.8
863.782	11366.45
864.103	11459.33
864.424	11389.73
864.745	11372.1
865.065	11284.87
865.386	11304.99
865.707	11321.93
866.027	11271.99
866.348	11191.32
866.668	11345.89
866.989	11239.45
867.309	11159.9
867.63	11201.49
867.95	11150.86
868.27	11080.58
868.59	11026.12
868.91	11069.51
869.23	11002.62
869.55	10980.02
869.87	11084.88
870.19	11011.21
870.51	11028.83
870.83	11001.72
871.15	10979.12
871.469	10971.89
871.789	11013.92
872.109	10966.24
872.428	10869.29
872.748	10885.34
873.067	10855.73
873.386	10889.63
873.706	10888.05
874.025	10855.05
874.344	10793.36
874.663	10794.26
874.982	10755.62
875.301	10726.47
875.62	10643.08
875.939	10701.84
876.258	10672.23
876.577	10598.34
876.896	10647.6
877.214	10579.35
877.533	10548.62
877.852	10637.21
878.17	10559.92
878.489	10581.16
878.807	10579.35
879.125	10491
879.444	10508.4
879.762	10468.4
880.08	10495.97
880.398	10424.33
880.716	10434.73
881.034	10354.05
881.352	10454.61
881.67	10384.78
881.988	10423.43
882.306	10374.61
882.624	10299.81
882.941	10273.83
883.259	10257.56
883.577	10222.3
883.894	10168.52
884.212	10154.28
884.529	10184.34
884.846	10104.34
885.164	10139.14
885.481	10107.5
885.798	10062.31
886.115	9964.91
886.432	9976.88
886.75	9915.19
887.067	9902.76
887.383	9914.51
887.7	9872.25
888.017	9930.78
888.334	9853.95
888.651	9843.33
888.967	9851.01
889.284	9770.34
889.6	9757.68
889.917	9688.53
890.233	9740.05
890.55	9650.34
890.866	9630.68
891.182	9594.75
891.498	9617.12
891.815	9533.05
892.131	9517.01
892.447	9520.85
892.763	9470.23
893.079	9505.71
893.395	9472.04
893.71	9356.56
894.026	9350.69
894.342	9423.23
894.657	9235.66
894.973	9275.89
895.289	9249.67
895.604	9270.46
895.92	9228.66
896.235	9257.36
896.55	9100.3
896.865	9112.05
897.181	9086.96
897.496	9089
897.811	9044.93
898.126	8979.17
898.441	8957.48
898.756	8885.84
899.071	8907.08
899.386	8880.87
899.7	8777.37
900.015	8791.83
900.33	8715
900.644	8783.47
900.959	8738.05
901.273	8654.89
901.588	8722.45
901.902	8624.38
902.216	8621.89
902.531	8565.4
902.845	8513.65
903.159	8471.39
903.473	8444.95
903.787	8451.05
904.101	8292.41
904.415	8358.85
904.729	8357.72
905.042	8298.96
905.356	8291.05
905.67	8242.24
905.984	8265.07
906.297	8256.93
906.611	8149.59
906.924	8149.14
907.237	8096.26
907.551	8065.3
907.864	8036.14
908.177	8064.62
908.491	7997.73
908.804	7931.06
909.117	7931.74
909.43	7831.18
909.743	7878.86
910.056	7784.85
910.368	7779.2
910.681	7754.8
910.994	7756.83
911.307	7623.27
911.619	7626.44
911.932	7646.32
912.244	7547.12
912.557	7554.12
912.869	7529.49
913.181	7475.03
913.494	7493.33
913.806	7418.08
914.118	7424.41
914.43	7304.64
914.742	7314.36
915.054	7272.77
915.366	7263.06
915.678	7208.37
915.99	7214.92
916.302	7200.69
916.613	7134.7
916.925	7099.67
917.236	7101.48
917.548	7019.9
917.859	7027.36
918.171	7043.18
918.482	6971.77
918.794	6909.17
919.105	6933.57
919.416	6875.95
919.727	6828.27
920.038	6855.84
920.349	6788.95
920.66	6744.65
920.971	6755.73
921.282	6717.99
921.593	6642.51
921.903	6673.24
922.214	6597.54
922.525	6557.09
922.835	6591.21
923.146	6561.38
923.456	6488.16
923.767	6453.81
924.077	6532.68
924.387	6440.25
924.697	6398.67
925.008	6337.66
925.318	6332.91
925.628	6413.81
925.938	6346.92
926.248	6274.38
926.558	6277.55
926.867	6219.7
927.177	6211.79
927.487	6149.19
927.796	6126.36
928.106	6090.43
928.416	6113.48
928.725	6080.72
929.034	6065.35
929.344	6044.78
929.653	6000.27
929.962	5944
930.271	5949.19
930.581	5854.06
930.89	5878.69
931.199	5843.66
931.508	5833.26
931.817	5841.17
932.125	5747.62
932.434	5822.19
932.743	5744
933.051	5702.42
933.36	5659.48
933.669	5701.52
933.977	5630.56
934.286	5640.28
934.594	5616.1
934.902	5520.28
935.21	5539.94
935.519	5520.96
935.827	5489.54
936.135	5454.52
936.443	5412.94
936.751	5429.43
937.059	5405.93
937.367	5397.8
937.674	5398.7
937.982	5328.65
938.29	5260.62
938.597	5290
938.905	5266.73
939.213	5235.99
939.52	5197.8
939.827	5192.83
940.135	5166.16
940.442	5191.93
940.749	5130.01
941.056	5163.23
941.363	5084.36
941.67	5026.05
941.977	5038.26
942.284	4986.96
942.591	5013.4
942.898	4989.45
943.205	4997.13
943.511	4918.94
943.818	4969.33
944.125	4876.23
944.431	4931.14
944.738	4898.15
945.044	4859.96
945.35	4817.47
945.657	4784.7
945.963	4780.41
946.269	4720.07
946.575	4734.31
946.881	4701.32
947.187	4706.97
947.493	4705.16
947.799	4638.95
948.105	4610.25
948.41	4586.29
948.716	4581.55
949.022	4574.77
949.327	4603.01
949.633	4531.6
949.938	4527.76
950.244	4479.63
950.549	4437.37
950.854	4464.94
951.16	4447.99
951.465	4404.83
951.77	4427.65
952.075	4428.33
952.38	4333.64
952.685	4372.96
952.99	4310.82
953.294	4318.05
953.599	4284.83
953.904	4245.96
954.209	4226.3
954.513	4236.02
954.818	4192.63
955.122	4187.66
955.426	4183.59
955.731	4150.37
956.035	4148.34
956.339	4092.97
956.643	4108.56
956.948	4093.2
957.252	4042.35
957.556	4041.67
957.86	4013.65
958.163	4010.04
958.467	3998.06
958.771	3979.08
959.075	3950.15
959.378	3950.83
959.682	3946.31
959.985	3895.46
960.289	3906.54
960.592	3864.28
960.896	3850.04
961.199	3825.18
961.502	3858.18
961.805	3784.73
962.108	3770.95
962.411	3768.91
962.714	3741.12
963.017	3710.16
963.32	3728.69
963.623	3676.94
963.926	3654.79
964.228	3669.71
964.531	3686.88
964.833	3658.63
965.136	3622.02
965.438	3601.23
965.741	3607.56
966.043	3595.36
966.345	3570.05
966.648	3565.75
966.95	3514.23
967.252	3517.17
967.554	3479.65
967.856	3497.96
968.158	3476.49
968.46	3478.75
968.761	3462.25
969.063	3429.49
969.365	3443.95
969.666	3363.95
969.968	3381.35
970.269	3336.16
970.571	3389.71
970.872	3347.23
971.174	3334.8
971.475	3281.24
971.776	3297.06
972.077	3269.94
972.378	3285.08
972.679	3276.5
972.98	3268.81
973.281	3211.19
973.582	3210.73
973.883	3255.25
974.183	3204.41
974.484	3182.49
974.785	3159.89
975.085	3154.01
975.386	3119.21
975.686	3088.48
975.986	3112.43
976.287	3086.44
976.587	3038.54
976.887	3089.16
977.187	3043.73
977.487	3068.37
977.787	3024.3
978.087	2971.42
978.387	3051.42
978.687	2991.98
978.987	2989.27
979.286	2968.03
979.586	2940.91
979.885	2944.53
980.185	2896.62
980.484	2917.18
980.784	2915.83
981.083	2852.33
981.382	2853
981.682	2880.8
981.981	2833.57
982.28	2816.39
982.579	2795.6
982.878	2825.66
983.177	2793.12
983.475	2769.62
983.774	2748.37
984.073	2747.7
984.372	2740.69
984.67	2734.14
984.969	2715.83
985.267	2709.96
985.566	2677.87
985.864	2667.02
986.162	2690.75
986.461	2664.08
986.759	2617.08
987.057	2644.42
987.355	2635.83
987.653	2608.49
987.951	2574.14
988.249	2606.91
988.547	2591.54
988.844	2548.83
989.142	2537.31
989.44	2539.57
989.737	2521.04
990.035	2497.08
990.332	2526.68
990.63	2491.66
990.927	2495.95
991.224	2468.61
991.521	2478.55
991.819	2435.84
992.116	2419.34
992.413	2435.84
992.71	2423.41
993.006	2411.21
993.303	2410.3
993.6	2378.21
993.897	2349.74
994.193	2375.28
994.49	2322.62
994.787	2363.07
995.083	2316.3
995.379	2321.49
995.676	2293.92
995.972	2297.99
996.268	2283.3
996.565	2284.43
996.861	2255.73
997.157	2252.34
997.453	2257.09
997.749	2227.26
998.044	2195.39
998.34	2185
998.636	2195.39
998.932	2172.57
999.227	2132.35
999.523	2146.13
999.818	2174.38
1000.114	2161.95
1000.409	2128.05
1000.704	2107.03
1001	2100.93
1001.295	2060.93
1001.59	2107.03
1001.885	2041.5
1002.18	2069.3
1002.475	2037.88
1002.77	2053.25
1003.065	2042.63
1003.359	2025.23
1003.654	2013.93
1003.949	2002.18
1004.243	1990.2
1004.538	1932.8
1004.832	1967.38
1005.127	1956.53
1005.421	1916.31
1005.715	1924.44
1006.009	1925.57
1006.304	1912.01
1006.598	1878.34
1006.892	1885.8
1007.186	1893.03
1007.48	1864.56
1007.773	1850.77
1008.067	1876.76
1008.361	1851.22
1008.655	1843.54
1008.948	1827.95
1009.242	1822.52
1009.535	1780.94
1009.829	1769.64
1010.122	1742.07
1010.415	1773.94
1010.708	1768.06
1011.001	1787.5
1011.295	1720.38
1011.588	1690.77
1011.881	1719.25
1012.173	1690.1
1012.466	1718.34
1012.759	1682.19
1013.052	1689.64
1013.344	1653.49
1013.637	1667.95
1013.93	1640.61
1014.222	1655.52
1014.514	1639.93
1014.807	1625.69
1015.099	1617.78
1015.391	1612.81
1015.683	1603.55
1015.976	1577.33
1016.268	1556.77
1016.56	1558.57
1016.851	1560.61
1017.143	1529.88
1017.435	1552.93
1017.727	1505.02
1018.018	1507.95
1018.31	1502.98
1018.602	1498.01
1018.893	1493.94
1019.185	1460.5
1019.476	1468.18
1019.767	1443.1
1020.058	1438.13
1020.35	1463.89
1020.641	1420.5
1020.932	1417.56
1021.223	1432.93
1021.514	1373.49
1021.804	1418.47
1022.095	1390.44
1022.386	1381.18
1022.677	1341.18
1022.967	1357.68
1023.258	1356.55
1023.548	1339.15
1023.839	1323.78
1024.129	1322.2
1024.419	1325.13
1024.709	1293.05
1025	1309.32
1025.29	1286.49
1025.58	1281.52
1025.87	1256.66
1026.16	1260.05
1026.449	1279.49
1026.739	1249.2
1027.029	1238.58
1027.319	1242.88
1027.608	1236.55
1027.898	1211.47
1028.187	1179.83
1028.477	1195.19
1028.766	1214.63
1029.055	1167.62
1029.344	1183.67
1029.634	1190.9
1029.923	1131.24
1030.212	1166.27
1030.501	1159.04
1030.79	1159.49
1031.078	1134.63
1031.367	1139.38
1031.656	1128.08
1031.945	1103.67
1032.233	1110.9
1032.522	1090.56
1032.81	1105.48
1033.099	1071.13
1033.387	1092.37
1033.675	1070.45
1033.963	1062.32
1034.251	1070.45
1034.54	1057.57
1034.828	1046.27
1035.116	1034.75
1035.403	1004.92
1035.691	1007.85
1035.979	1041.3
1036.267	1013.73
1036.554	985.26
1036.842	985.26
1037.129	1002.43
1037.417	990.91
1037.704	977.57
1037.992	995.65
1038.279	967.63
1038.566	943.45
1038.853	943.45
1039.14	943.45
