Data from hue_34_FLMS001491_00065.txt Node
Date: Tue Feb 07 17:25:58 GMT 2017
User: dcchb
Spectrometer: FLMS00149
Trigger mode: 0
Integration Time (sec): 2.000000E-2
Scans to average: 10
Electric dark correction enabled: true
Nonlinearity correction enabled: false
Boxcar width: 0
XAxis mode: Wavelengths
Number of Pixels in Spectrum: 2048
>>>>>Begin Spectral Data<<<<<
341.393	-31.86
341.776	-31.86
342.16	-31.86
342.543	-63.05
342.927	-55.59
343.31	-80.68
343.693	-58.76
344.077	-64.41
344.46	-46.1
344.843	-52.65
345.226	-25.76
345.61	-24.41
345.993	-15.59
346.376	-15.14
346.759	5.42
347.142	32.99
347.525	34.8
347.908	53.11
348.291	64.41
348.674	91.52
349.057	101.24
349.44	120
349.823	149.37
350.206	172.42
350.588	203.38
350.971	217.85
351.354	225.98
351.737	245.42
352.119	247
352.502	257.85
352.884	289.48
353.267	290.84
353.65	317.51
354.032	293.33
354.414	327.22
354.797	325.19
355.179	331.29
355.562	315.25
355.944	316.15
356.326	356.83
356.709	342.36
357.091	359.54
357.473	343.27
357.855	354.79
358.238	347.56
358.62	370.39
359.002	326.09
359.384	341.46
359.766	337.39
360.148	359.31
360.53	336.49
360.912	331.97
361.294	359.09
361.676	338.97
362.057	338.97
362.439	350.05
362.821	326.55
363.203	327.22
363.584	339.88
363.966	320.67
364.348	333.55
364.729	349.14
365.111	325.87
365.493	345.75
365.874	315.02
366.256	335.13
366.637	343.27
367.019	326.77
367.4	331.06
367.781	322.93
368.163	317.28
368.544	327
368.925	315.92
369.306	321.35
369.688	318.41
370.069	311.63
370.45	312.99
370.831	301.91
371.212	323.38
371.593	310.5
371.974	348.69
372.355	325.42
372.736	318.18
373.117	328.35
373.498	325.19
373.879	310.95
374.26	321.57
374.641	321.57
375.021	325.19
375.402	323.61
375.783	338.52
376.163	336.26
376.544	343.04
376.925	332.19
377.305	338.3
377.686	348.01
378.066	336.26
378.447	350.05
378.827	344.62
379.208	334.68
379.588	359.31
379.968	329.71
380.349	344.62
380.729	353.66
381.109	343.49
381.489	342.59
381.87	341.91
382.25	352.99
382.63	354.79
383.01	337.17
383.39	352.76
383.77	350.5
384.15	365.41
384.53	370.39
384.91	365.64
385.29	362.48
385.67	338.3
386.049	356.6
386.429	360.67
386.809	363.38
387.189	360.44
387.568	361.35
387.948	378.07
388.328	368.35
388.707	357.5
389.087	355.92
389.466	375.36
389.846	356.83
390.225	352.53
390.605	350.27
390.984	360.67
391.363	355.92
391.743	389.37
392.122	378.07
392.501	355.47
392.881	411.29
393.26	383.94
393.639	395.7
394.018	399.09
394.397	385.07
394.776	355.7
395.155	400.22
395.534	409.71
395.913	381.23
396.292	416.94
396.671	399.76
397.05	388.46
397.429	390.5
397.808	386.66
398.186	405.64
398.565	367.22
398.944	402.02
399.323	414.68
399.701	404.74
400.08	431.85
400.458	422.36
400.837	409.93
401.215	423.27
401.594	382.81
401.972	410.84
402.351	422.59
402.729	408.35
403.107	408.35
403.486	411.51
403.864	419.65
404.242	432.76
404.62	438.41
404.999	420.78
405.377	414
405.755	415.58
406.133	443.38
406.511	451.06
406.889	432.76
407.267	442.93
407.645	444.73
408.023	435.69
408.401	445.64
408.779	448.35
409.156	447.67
409.534	463.26
409.912	433.66
410.29	451.51
410.667	472.53
411.045	453.1
411.422	467.56
411.8	477.95
412.178	475.47
412.555	474.11
412.933	461.23
413.31	474.79
413.687	505.07
414.065	475.69
414.442	491.29
414.819	489.03
415.197	490.83
415.574	498.97
415.951	515.24
416.328	497.39
416.705	494.45
417.082	506.65
417.46	515.92
417.837	526.54
418.214	500.1
418.591	520.44
418.967	506.43
419.344	519.31
419.721	540.32
420.098	512.98
420.475	519.53
420.852	514.11
421.228	538.74
421.605	556.14
421.982	557.5
422.358	550.49
422.735	558.86
423.111	558.4
423.488	555.24
423.864	552.75
424.241	569.93
424.617	571.06
424.994	569.02
425.37	559.53
425.746	583.04
426.123	588.91
426.499	584.62
426.875	590.27
427.251	602.7
427.627	597.27
428.003	609.25
428.379	619.87
428.756	630.27
429.132	639.98
429.507	611.96
429.883	589.82
430.259	629.59
430.635	621.45
431.011	625.07
431.387	615.58
431.763	658.29
432.138	670.94
432.514	666.42
432.89	669.81
433.265	673.88
433.641	662.58
434.016	664.16
434.392	669.36
434.767	714.33
435.143	705.52
435.518	697.61
435.894	710.04
436.269	721.79
436.644	710.94
437.02	710.04
437.395	729.02
437.77	717.04
438.145	725.18
438.52	738.06
438.895	742.58
439.271	761.11
439.646	761.56
440.021	776.25
440.395	737.83
440.77	769.47
441.145	772.18
441.52	779.41
441.895	791.17
442.27	795.23
442.645	798.62
443.019	802.92
443.394	812.41
443.769	799.75
444.143	831.39
444.518	815.8
444.892	817.38
445.267	813.99
445.641	831.62
446.016	824.61
446.39	846.31
446.764	835.68
447.139	846.76
447.513	837.27
447.887	850.6
448.262	839.07
448.636	856.25
449.01	863.48
449.384	886.76
449.758	888.56
450.132	901.67
450.506	877.27
450.88	860.77
451.254	877.72
451.628	904.38
452.002	907.32
452.376	917.94
452.75	918.17
453.123	940.09
453.497	957.49
453.871	951.84
454.244	963.14
454.618	970.6
454.992	976.25
455.365	968.11
455.739	1008.34
456.112	1020.09
456.486	1002.01
456.859	1014.21
457.232	1034.32
457.606	1026.19
457.979	1053.31
458.352	1070.48
458.725	1073.87
459.099	1075.9
459.472	1094.66
459.845	1098.28
460.218	1124.04
460.591	1115
460.964	1134.21
461.337	1159.07
461.71	1182.12
462.083	1207.43
462.456	1169.23
462.829	1180.99
463.201	1207.65
463.574	1239.29
463.947	1238.61
464.32	1269.57
464.692	1259.18
465.065	1273.19
465.438	1268.89
465.81	1296.92
466.183	1333.07
466.555	1374.43
466.928	1360.19
467.3	1360.42
467.672	1356.57
468.045	1386.18
468.417	1432.05
468.789	1416.46
469.161	1460.53
469.534	1496.23
469.906	1538.26
470.278	1552.95
470.65	1562.67
471.022	1543.69
471.394	1597.92
471.766	1636.57
472.138	1667.07
472.51	1665.04
472.882	1710.69
473.253	1752.04
473.625	1754.3
473.997	1811.25
474.369	1829.33
474.74	1845.15
475.112	1894.19
475.484	1904.81
475.855	1973.51
476.227	2025.94
476.598	2057.12
476.97	2104.58
477.341	2143.45
477.713	2211.02
478.084	2198.59
478.455	2321.52
478.827	2326.72
479.198	2401.29
479.569	2432.7
479.94	2525.81
480.311	2566.26
480.682	2654.17
481.053	2690.1
481.424	2735.75
481.795	2787.95
482.166	2881.96
482.537	2876.76
482.908	3043.08
483.279	3088.05
483.65	3156.53
484.021	3207.6
484.391	3301.83
484.762	3358.56
485.133	3347.71
485.503	3467.93
485.874	3588.83
486.244	3605.78
486.615	3711.09
486.985	3791.09
487.356	3897.52
487.726	3961.03
488.097	4104.07
488.467	4128.25
488.837	4240.79
489.207	4325.99
489.578	4428.81
489.948	4483.95
490.318	4601.69
490.688	4671.06
491.058	4746.32
491.428	4836.93
491.798	4910.15
492.168	5047.55
492.538	5101.33
492.908	5251.84
493.278	5304.27
493.648	5370.93
494.017	5450.48
494.387	5512.17
494.757	5628.33
495.126	5737.48
495.496	5724.37
495.866	5808.66
496.235	5919.62
496.605	6053.85
496.974	6106.96
497.344	6218.59
497.713	6252.94
498.082	6308.99
498.452	6369.1
498.821	6479.83
499.19	6509.89
499.559	6649.99
499.928	6643.44
500.298	6719.6
500.667	6815.19
501.036	6828.75
501.405	6986.93
501.774	6951.91
502.143	7111.45
502.512	7109.42
502.88	7284.1
503.249	7260.37
503.618	7294.5
503.987	7353.03
504.356	7419.01
504.724	7497.66
505.093	7487.71
505.462	7568.84
505.83	7695.39
506.199	7746.69
506.567	7828.04
506.936	7885.44
507.304	7901.94
507.672	8002.28
508.041	8028.72
508.409	8104.19
508.777	8095.83
509.145	8216.28
509.514	8255.83
509.882	8329.95
510.25	8359.78
510.618	8436.84
510.986	8455.82
511.354	8494.92
511.722	8638.64
512.09	8662.6
512.458	8730.62
512.826	8716.83
513.193	8802.48
513.561	8883.61
513.929	8915.7
514.297	8892.87
514.664	9021.01
515.032	9061.68
515.4	9138.97
515.767	9249.25
516.135	9268
516.502	9194.56
516.869	9371.96
517.237	9437.04
517.604	9371.73
517.972	9377.83
518.339	9532.63
518.706	9553.42
519.073	9575.57
519.44	9638.62
519.808	9677.71
520.175	9742.79
520.542	9849.01
520.909	9941.89
521.276	9858.5
521.643	9969.68
522.009	9992.51
522.376	10138.94
522.743	10166.06
523.11	10235.66
523.477	10365.6
523.843	10396.11
524.21	10540.06
524.577	10575.09
524.943	10618.25
525.31	10607.18
525.676	10679.04
526.043	10776.21
526.409	10805.82
526.776	10968.3
527.142	11026.83
527.508	10940.96
527.874	11094.85
528.241	11154.96
528.607	11179.59
528.973	11306.14
529.339	11314.5
529.705	11406.71
530.071	11520.6
530.437	11502.75
530.803	11540.26
531.169	11684.21
531.535	11677.21
531.901	11707.71
532.267	11813.25
532.632	11823.19
532.998	11885.56
533.364	11901.38
533.73	12034.03
534.095	12050.53
534.461	12105.67
534.826	12195.84
535.192	12342.5
535.557	12288.49
535.923	12292.11
536.288	12388.15
536.653	12400.58
537.019	12417.53
537.384	12466.56
537.749	12602.83
538.114	12610.97
538.479	12631.31
538.845	12740.23
539.21	12741.81
539.575	12785.65
539.94	12797.63
540.305	12948.59
540.67	12945.2
541.034	12968.92
541.399	13041.01
541.764	13115.36
542.129	13158.52
542.494	13172.08
542.858	13260.67
543.223	13219.54
543.587	13376.15
543.952	13356.48
544.316	13385.86
544.681	13388.57
545.045	13538.85
545.41	13595.35
545.774	13621.56
546.138	13667.44
546.503	13735.46
546.867	13725.29
547.231	13756.25
547.595	13813.2
547.959	13944.94
548.324	13922.12
548.688	13995.56
549.052	14026.75
549.416	14118.72
549.779	14046.41
550.143	14136.8
550.507	14259.06
550.871	14244.37
551.235	14234.65
551.599	14404.82
551.962	14424.03
552.326	14458.38
552.689	14540.41
553.053	14544.48
553.417	14450.02
553.78	14734.75
554.143	14678.71
554.507	14760.74
554.87	14714.87
555.234	14979.72
555.597	14791.02
555.96	14950.57
556.323	14971.36
556.686	14897.01
557.05	15117.79
557.413	15166.15
557.776	15233.72
558.139	15319.15
558.502	15274.4
558.865	15254.29
559.228	15417.22
559.59	15521.63
559.953	15518.91
560.316	15685.01
560.679	15691.34
561.041	15691.56
561.404	15799.13
561.767	15920.49
562.129	15859.92
562.492	15979.01
562.854	16006.81
563.217	15994.61
563.579	16028.51
563.941	16125
564.304	16192.79
564.666	16304.88
565.028	16334.94
565.39	16354.82
565.753	16463.3
566.115	16464.43
566.477	16595.95
566.839	16623.07
567.201	16735.38
567.563	16691.09
567.925	16856.28
568.287	16865.32
568.648	16951.64
569.01	16951.42
569.372	17093.56
569.734	17025.09
570.095	17245.42
570.457	17226.67
570.819	17340.56
571.18	17372.2
571.542	17475.47
571.903	17537.84
572.265	17704.17
572.626	17691.96
572.987	17793.66
573.349	17806.31
573.71	17948.23
574.071	18035.91
574.432	18069.81
574.794	18305.28
575.155	18227.09
575.516	18331.95
575.877	18439.74
576.238	18588.66
576.599	18737.36
576.96	18799.73
577.32	18906.62
577.681	19062.78
578.042	19173.96
578.403	19229.55
578.763	19379.83
579.124	19462.31
579.485	19672.03
579.845	19882.64
580.206	19879.48
580.566	19956.54
580.927	20208.28
581.287	20382.29
581.648	20535.51
582.008	20709.96
582.368	20873.58
582.728	20964.42
583.089	21156.96
583.449	21297.07
583.809	21540.45
584.169	21742.71
584.529	21846.21
584.889	22145.18
585.249	22200.77
585.609	22488.9
585.969	22765.96
586.329	22940.19
586.688	23048.21
587.048	23353.96
587.408	23554.63
587.768	23675.99
588.127	24028.75
588.487	24079.14
588.846	24527.04
589.206	24542.41
589.565	24831.89
589.925	25156.85
590.284	25247.7
590.643	25631.42
591.003	25894.01
591.362	26172.87
591.721	26388.68
592.08	26565.63
592.44	26908.67
592.799	27061.89
593.158	27314.31
593.517	27600.18
593.876	27758.59
594.235	27935.54
594.593	28372.36
594.952	28634.73
595.311	28682.86
595.67	29002.63
596.029	29422.05
596.387	29547.92
596.746	29837.41
597.104	29961.47
597.463	30128.7
597.822	30587.44
598.18	30687.78
598.538	30946.53
598.897	31283.7
599.255	31275.11
599.613	31843.91
599.972	31834.64
600.33	32233.28
600.688	32341.07
601.046	32533.16
601.404	32834.84
601.762	32954.39
602.12	33248.62
602.478	33551.89
602.836	33595.73
603.194	33554.6
603.552	33872.33
603.91	34020.8
604.268	34311.41
604.625	34473.67
604.983	34750.5
605.341	34776.03
605.698	35139.19
606.056	35404.72
606.413	35458.28
606.771	35625.05
607.128	35950.02
607.485	35898.04
607.843	36104.81
608.2	36447.4
608.557	36588.87
608.914	36680.84
609.272	36969.42
609.629	37148.85
609.986	37435.4
610.343	37322.18
610.7	37711.55
611.057	37732.79
611.414	37958.32
611.771	37913.35
612.127	38328.26
612.484	38387.47
612.841	38512.66
613.198	38537.74
613.554	38726.44
613.911	39087.56
614.267	39044.62
614.624	39239.19
614.98	39217.73
615.337	39623.36
615.693	39595.12
616.05	39615
616.406	39761.44
616.762	39768.67
617.118	39878.27
617.475	39960.53
617.831	40108.1
618.187	40233.29
618.543	40505.15
618.899	40627.63
619.255	40595.77
619.611	40706.05
619.967	40931.58
620.323	41040.95
620.678	41031.69
621.034	40901.3
621.39	41002.31
621.746	41147.84
622.101	41629.41
622.457	41317.56
622.812	41425.8
623.168	41474.84
623.523	41748.73
623.879	41795.51
624.234	41468.51
624.589	41838.9
624.945	41836.41
625.3	41895.62
625.655	41908.5
626.01	42091.32
626.365	41988.95
626.72	42119.34
627.075	42109.18
627.43	42124.32
627.785	42009.52
628.14	42200.92
628.495	42344.42
628.85	42273.24
629.205	42109.4
629.559	42299.9
629.914	42179.23
630.269	42197.53
630.623	42166.57
630.978	42082.06
631.332	42280.47
631.687	42340.13
632.041	42258.32
632.396	42464.19
632.75	42202.96
633.104	42337.42
633.459	42308.04
633.813	42140.81
634.167	42240.47
634.521	42305.1
634.875	42343.07
635.229	42114.37
635.583	42066.69
635.937	42242.51
636.291	42132.23
636.645	42229.62
636.999	42218.78
637.352	42308.27
637.706	42060.36
638.06	42285.44
638.413	42145.78
638.767	42093.36
639.121	42188.5
639.474	41866.02
639.828	42012.91
640.181	42024.88
640.534	42119.34
640.888	42002.06
641.241	41813.36
641.594	41996.41
641.947	41984.21
642.301	41823.76
642.654	42004.09
643.007	41971.78
643.36	41876.64
643.713	41815.17
644.066	42066.92
644.419	41720.71
644.771	41522.3
645.124	41205.47
645.477	40984.46
645.83	40783.33
646.182	40759.38
646.535	40555.77
646.888	40622.43
647.24	40516.9
647.593	40758.25
647.945	40507.86
648.298	40569.1
648.65	40351.03
649.002	40281.43
649.355	40537.24
649.707	40529.78
650.059	40677.8
650.411	41066.94
650.763	41134.51
651.115	41422.19
651.467	41385.58
651.819	41337.44
652.171	41299.71
652.523	41141.97
652.875	41215.19
653.227	41085.47
653.578	41393.26
653.93	41282.53
654.282	40997.57
654.633	40987.85
654.985	41069.88
655.337	41062.42
655.688	41269.65
656.039	41222.64
656.391	40924.12
656.742	41127.05
657.094	41022.42
657.445	41189.65
657.796	41121.18
658.147	41013.61
658.498	40917.34
658.849	41046.6
659.2	41051.58
659.551	40869.89
659.902	41058.81
660.253	40845.03
660.604	41044.57
660.955	40737.01
661.306	41033.05
661.656	40864.01
662.007	40806.38
662.358	40736.1
662.708	40979.94
663.059	40828.98
663.409	40637.35
663.76	40881.18
664.11	40842.77
664.461	40948.75
664.811	40851.36
665.161	40744.47
665.511	40565.71
665.862	40739.49
666.212	40885.03
666.562	40787.18
666.912	40790.79
667.262	40661.08
667.612	40686.84
667.962	40853.16
668.312	40628.31
668.662	40780.4
669.011	40733.39
669.361	40673.51
669.711	40585.37
670.06	40605.94
670.41	40424.93
670.76	40549.44
671.109	40711.92
671.459	40668.08
671.808	40436.22
672.157	40525.04
672.507	40337.92
672.856	40325.95
673.205	40527.52
673.554	40546.96
673.904	40225.38
674.253	40577.92
674.602	40402.33
674.951	39913.3
675.3	39616.59
675.649	40289.56
675.998	40212.95
676.346	40316.68
676.695	40423.34
677.044	40136.8
677.393	40121.2
677.741	40206.4
678.09	40192.84
678.438	40214.76
678.787	40178.15
679.135	40214.54
679.484	39954.43
679.832	40048.44
680.181	39757.82
680.529	39931.61
680.877	39794.89
681.225	39795.79
681.573	39914.2
681.922	39789.46
682.27	39560.54
682.618	39712.18
682.966	39639.64
683.314	39671.95
683.661	39556.02
684.009	39247.33
684.357	39288.91
684.705	39273.32
685.053	39387.66
685.4	39195.35
685.748	38975.25
686.095	39071.06
686.443	38879.2
686.79	38863.61
687.138	38968.47
687.485	39020.89
687.832	38709.26
688.18	38735.48
688.527	38557.63
688.874	38591.53
689.221	38466.56
689.568	38408.48
689.915	38260.91
690.262	38275.15
690.609	38207.58
690.956	38098.66
691.303	38202.61
691.65	37831.32
691.997	37790.87
692.344	37633.59
692.69	37705
693.037	37754.49
693.383	37328.96
693.73	37466.81
694.077	37377.77
694.423	37257.33
694.769	37168.74
695.116	37009.42
695.462	37033.38
695.808	36976.88
696.155	36973.04
696.501	36758.13
696.847	36614.63
697.193	36416.22
697.539	36573.28
697.885	36397.46
698.231	36247.86
698.577	36274.75
698.923	36163.34
699.269	36025.95
699.614	35979.17
699.96	35893.29
700.306	35939.17
700.651	35714.09
700.997	35614.88
701.342	35446.3
701.688	35420.31
702.033	35199.75
702.379	35299.64
702.724	35187.78
703.069	35259.86
703.415	34886.09
703.76	34859.42
704.105	34832.53
704.45	34764.51
704.795	34641.35
705.14	34525.19
705.485	34551.63
705.83	34311.64
706.175	34497.4
706.52	34294.69
706.865	34205.2
707.209	34129.27
707.554	34002.95
707.899	34051.53
708.243	33851.99
708.588	33889.73
708.932	33574.48
709.277	33685.89
709.621	33820.35
709.966	33541.04
710.31	33616.97
710.654	33115.51
710.998	33217.66
711.342	33310.99
711.687	33258.56
712.031	33086.59
712.375	33022.63
712.719	32961.39
713.063	33070.32
713.407	33021.73
713.75	32722.53
714.094	32860.83
714.438	32724.79
714.782	32798.01
715.125	32507.85
715.469	32602.53
715.812	32441.86
716.156	32279.15
716.499	32324.35
716.843	32316.21
717.186	32044.13
717.53	32251.81
717.873	32225.37
718.216	32058.14
718.559	31890.91
718.902	31788.99
719.246	31736.34
719.589	31859.05
719.932	31629.9
720.275	31744.93
720.617	31647.53
720.96	31492.05
721.303	31462.9
721.646	31514.88
721.989	31275.11
722.331	31459.96
722.674	31448.66
723.016	31476.01
723.359	31331.15
723.701	31393.98
724.044	31157.37
724.386	31046.42
724.729	31043.25
725.071	30950.82
725.413	30970.03
725.755	30913.99
726.097	30801.22
726.439	30597.39
726.782	30746.76
727.124	30737.95
727.465	30725.07
727.807	30737.72
728.149	30593.55
728.491	30495.92
728.833	30491.85
729.175	30426.54
729.516	30315.14
729.858	30229.94
730.199	30467.67
730.541	30275.59
730.882	30214.35
731.224	30277.62
731.565	30139.32
731.906	30025.88
732.248	30084.63
732.589	29911.98
732.93	29803.06
733.271	29816.17
733.612	29920.12
733.953	30000.79
734.294	29780.91
734.635	29690.97
734.976	29700.24
735.317	29486.68
735.658	29610.75
735.999	29585.21
736.339	29529.62
736.68	29545.21
737.021	29365.56
737.361	29396.06
737.702	29455.5
738.042	29401.03
738.383	29356.29
738.723	29298.44
739.063	29204.43
739.404	29238.1
739.744	29144.54
740.084	28991.33
740.424	29034.26
740.764	28977.77
741.104	29160.82
741.444	28901.16
741.784	28747.72
742.124	28834.04
742.464	28914.04
742.804	28853.03
743.143	28614.61
743.483	28775.97
743.823	28640.6
744.162	28698
744.502	28660.94
744.841	28572.13
745.181	28680.6
745.52	28455.97
745.86	28465.69
746.199	28343.89
746.538	28353.6
746.877	28461.4
747.216	28413.49
747.556	28262.53
747.895	28222.99
748.234	28038.58
748.573	28155.19
748.911	28026.61
749.25	28071.13
749.589	27886.72
749.928	28007.63
750.267	28010.56
750.605	27867.52
750.944	27875.2
751.283	27725.82
751.621	27670.01
751.96	27683.57
752.298	27616.22
752.636	27559.28
752.975	27474.31
753.313	27458.94
753.651	27433.4
753.989	27373.97
754.327	27370.35
754.666	27199.28
755.004	27241.09
755.342	27174.65
755.679	27163.35
756.017	27035
756.355	27028.67
756.693	26883.36
757.031	26984.6
757.368	26852.18
757.706	26792.97
758.044	26692.86
758.381	26799.3
758.719	26568.34
759.056	26565.18
759.394	26470.26
759.731	26402.24
760.068	26354.56
760.405	26242.02
760.743	26106.88
761.08	26214.23
761.417	26088.81
761.754	25827.57
762.091	26014.68
762.428	25741.24
762.765	25729.04
763.102	25713
763.438	25717.74
763.775	25471.87
764.112	25554.81
764.449	25534.92
764.785	25331.54
765.122	25257.64
765.458	25215.38
765.795	25019.91
766.131	25032.11
766.467	24901.27
766.804	24860.36
767.14	24759.8
767.476	24740.14
767.812	24644.78
768.148	24671.22
768.485	24555.06
768.821	24443.2
769.157	24268.74
769.492	24284.79
769.828	24294.5
770.164	24069.88
770.5	24026.71
770.836	23994.4
771.171	23874.63
771.507	23838.47
771.842	23598.7
772.178	23670.56
772.513	23542.21
772.849	23466.05
773.184	23314.42
773.519	23333.17
773.855	23201.65
774.19	23277.58
774.525	23026.97
774.86	23092.5
775.195	22894.77
775.53	22828.33
775.865	22809.12
776.2	22551.72
776.535	22435.34
776.87	22370.49
777.205	22380.88
777.539	22283.26
777.874	22275.12
778.209	22173.43
778.543	22111.51
778.878	21964.85
779.212	21974.34
779.547	21875.81
779.881	21778.18
780.215	21572.54
780.55	21638.75
780.884	21504.75
781.218	21536.61
781.552	21520.11
781.886	21364.18
782.22	21227.69
782.554	21182.27
782.888	20996.28
783.222	20937.3
783.556	20916.96
783.889	20807.36
784.223	20706.57
784.557	20554.94
784.89	20694.37
785.224	20521.04
785.557	20478.11
785.891	20406.24
786.224	20406.92
786.558	20262.29
786.891	20161.05
787.224	20033.37
787.557	20055.07
787.891	20057.1
788.224	19907.73
788.557	19949.53
788.89	19885.8
789.223	19796.54
789.556	19681.06
789.888	19574.85
790.221	19557.45
790.554	19459.15
790.887	19410.56
791.219	19283.56
791.552	19279.27
791.884	19124.02
792.217	19076.11
792.549	19063.68
792.882	18992.04
793.214	18855.78
793.546	18934.42
793.879	18759.51
794.211	18585.05
794.543	18711.15
794.875	18560.19
795.207	18662.56
795.539	18509.8
795.871	18485.16
796.203	18255.79
796.535	18254.89
796.867	18201.56
797.198	18112.52
797.53	18190.71
797.862	17992.75
798.193	18106.87
798.525	17875.69
798.856	17970.15
799.188	17822.36
799.519	17740.1
799.85	17630.27
800.182	17679.99
800.513	17689.25
800.844	17449.48
801.175	17594.79
801.506	17546.66
801.837	17413.33
802.168	17325.65
802.499	17238.64
802.83	17252.65
803.161	17162.03
803.491	17148.93
803.822	17129.95
804.153	17068.25
804.483	16930.18
804.814	16903.06
805.145	16918.88
805.475	16885.66
805.805	16734.02
806.136	16818.99
806.466	16832.33
806.796	16753.01
807.126	16540.58
807.457	16531.99
807.787	16436.86
808.117	16394.15
808.447	16392.11
808.777	16427.36
809.107	16237.77
809.436	16265.56
809.766	16235.28
810.096	16202.74
810.426	16148.28
810.755	16085.68
811.085	16106.92
811.414	16022.86
811.744	15920.94
812.073	15923.65
812.403	15901.28
812.732	15795.97
813.061	15754.16
813.39	15732.47
813.719	15681.85
814.049	15753.71
814.378	15645.69
814.707	15590.32
815.036	15508.07
815.365	15528.18
815.693	15353.04
816.022	15405.7
816.351	15346.04
816.68	15320.28
817.008	15259.26
817.337	15177.68
817.665	15140.17
817.994	15190.11
818.322	15222.2
818.651	15105.37
818.979	15011.81
819.307	15098.59
819.636	15087.51
819.964	14891.59
820.292	14955.54
820.62	14970.68
820.948	14888.42
821.276	14927.97
821.604	14888.65
821.932	14985.59
822.259	14883.45
822.587	14843.45
822.915	14852.94
823.243	14887.52
823.57	14774.75
823.898	14809.78
824.225	14760.29
824.553	14808.88
824.88	14803
825.207	14849.78
825.535	14846.39
825.862	14798.71
826.189	14769.56
826.516	14818.37
826.843	14871.25
827.17	14873.73
827.497	14785.37
827.824	14807.07
828.151	14910.34
828.478	14720.06
828.805	14883.45
829.131	14740.86
829.458	14786.28
829.785	14706.96
830.111	14739.73
830.438	14768.43
830.764	14722.78
831.09	14759.16
831.417	14749.22
831.743	14736.11
832.069	14728.2
832.395	14659.5
832.722	14727.3
833.048	14614.53
833.374	14743.34
833.7	14588.99
834.026	14648.43
834.351	14610.46
834.677	14647.75
835.003	14659.05
835.329	14549.67
835.654	14643.46
835.98	14617.02
836.306	14528.43
836.631	14418.38
836.956	14525.49
837.282	14504.7
837.607	14403.01
837.932	14393.29
838.258	14383.8
838.583	14426.06
838.908	14335.22
839.233	14281.88
839.558	14241.66
839.883	14274.65
840.208	14238.95
840.533	14235.33
840.858	14137.48
841.182	14113.08
841.507	14146.97
841.832	14077.82
842.156	14111.04
842.481	14040.08
842.805	14043.7
843.13	13965.28
843.454	13960.76
843.778	13944.04
844.103	13817.26
844.427	13846.19
844.751	13821.56
845.075	13777.04
845.399	13655.01
845.723	13609.13
846.047	13705.18
846.371	13517.61
846.695	13485.3
847.019	13441
847.343	13518.74
847.666	13322.14
847.99	13312.42
848.313	13337.73
848.637	13158.3
848.96	13209.6
849.284	13101.8
849.607	13036.27
849.931	13035.36
850.254	12949.94
850.577	12989.71
850.9	12797.18
851.223	12806.67
851.546	12789.04
851.869	12708.82
852.192	12727.8
852.515	12601.7
852.838	12547.01
853.161	12533
853.483	12400.13
853.806	12409.62
854.129	12349.73
854.451	12349.73
854.774	12208.49
855.096	12173.47
855.419	12181.6
855.741	12141.83
856.063	12166.23
856.385	12023.64
856.708	12025.9
857.03	11998.55
857.352	11918.33
857.674	11930.53
857.996	11930.08
858.318	11779.58
858.64	11819.35
858.961	11801.05
859.283	11679.01
859.605	11654.61
859.926	11690.09
860.248	11731.67
860.57	11552.69
860.891	11622.29
861.212	11590.88
861.534	11491.45
861.855	11476.76
862.176	11545.91
862.498	11541.84
862.819	11431.79
863.14	11395.41
863.461	11430.89
863.782	11355.41
864.103	11365.12
864.424	11350.21
864.745	11311.34
865.065	11260.04
865.386	11219.59
865.707	11207.39
866.027	11271.79
866.348	11207.61
866.668	11152.48
866.989	11151.57
867.309	11092.36
867.63	11136.2
867.95	11074.51
868.27	11067.05
868.59	11040.84
868.91	11058.24
869.23	10994.29
869.55	10970.33
869.87	11019.6
870.19	11039.26
870.51	10956.77
870.83	10940.28
871.15	10919.03
871.469	10913.84
871.789	10952.71
872.109	10922.88
872.428	10773.95
872.748	10834.52
873.067	10848.53
873.386	10824.8
873.706	10735.76
874.025	10709.77
874.344	10705.26
874.663	10745.03
874.982	10700.96
875.301	10700.28
875.62	10650.57
875.939	10610.79
876.258	10603.56
876.577	10618.48
876.896	10520.18
877.214	10540.06
877.533	10611.7
877.852	10540.06
878.17	10566.05
878.489	10526.28
878.807	10505.26
879.125	10507.97
879.444	10487.63
879.762	10435.21
880.08	10481.31
880.398	10432.04
880.716	10391.82
881.034	10296.23
881.352	10350.24
881.67	10295.55
881.988	10267.98
882.306	10253.29
882.624	10202.67
882.941	10227.3
883.259	10148.43
883.577	10167.87
883.894	10155.89
884.212	10112.05
884.529	10119.06
884.846	10117.25
885.164	10070.47
885.481	9979.4
885.798	10054.42
886.115	9959.29
886.432	9942.56
886.75	10005.16
887.067	9895.33
887.383	9884.94
887.7	9896.24
888.017	9789.8
888.334	9897.59
888.651	9865.05
888.967	9831.38
889.284	9746.86
889.6	9722
889.917	9608.79
890.233	9718.16
890.55	9646.75
890.866	9637.71
891.182	9623.48
891.498	9580.77
891.815	9577.38
892.131	9535.57
892.447	9466.87
892.763	9450.6
893.079	9423.48
893.395	9389.36
893.71	9351.62
894.026	9375.35
894.342	9301.22
894.657	9215.12
894.973	9222.13
895.289	9210.61
895.604	9221.9
895.92	9151.4
896.235	9096.48
896.55	9079.76
896.865	9086.99
897.181	9054.45
897.496	9058.97
897.811	9003.61
898.126	8946.88
898.441	8901.46
898.756	8852.42
899.071	8833.44
899.386	8830.05
899.7	8729.04
900.015	8710.28
900.33	8668.47
900.644	8642.94
900.959	8725.87
901.273	8593.67
901.588	8553.45
901.902	8558.42
902.216	8566.33
902.531	8526.78
902.845	8459.21
903.159	8396.39
903.473	8396.84
903.787	8314.13
904.101	8373.11
904.415	8265.55
904.729	8301.48
905.042	8277.75
905.356	8234.59
905.67	8241.82
905.984	8125.89
906.297	8150.29
906.611	8142.61
906.924	8068.26
907.237	8100.8
907.551	8018.09
907.864	7989.62
908.177	7930.41
908.491	7915.72
908.804	7873.47
909.117	7897.87
909.43	7779.68
909.743	7792.56
910.056	7789.63
910.368	7755.95
910.681	7715.96
910.994	7682.28
911.307	7619.01
911.619	7645
911.932	7532.01
912.244	7537.2
912.557	7551.89
912.869	7487.26
913.181	7504.21
913.494	7443.65
913.806	7305.34
914.118	7432.8
914.43	7341.95
914.742	7348.96
915.054	7265.35
915.366	7300.37
915.678	7216.53
915.99	7174.05
916.302	7066.48
916.613	7107.16
916.925	7054.5
917.236	7079.36
917.548	6975.86
917.859	7049.08
918.171	6956.65
918.482	6962.08
918.794	6947.39
919.105	6868.52
919.416	6828.75
919.727	6836.43
920.038	6768.18
920.349	6761.18
920.66	6802.76
920.971	6695.42
921.282	6679.15
921.593	6684.8
921.903	6638.24
922.214	6621.75
922.525	6559.38
922.835	6515.53
923.146	6539.26
923.456	6494.29
923.767	6493.16
924.077	6397.35
924.387	6436.21
924.697	6379.04
925.008	6347.18
925.318	6277.58
925.628	6318.93
925.938	6293.17
926.248	6182.89
926.558	6180.85
926.867	6193.74
927.177	6104.02
927.487	6145.15
927.796	6083.46
928.106	6133.85
928.416	6049.56
928.725	6036.68
929.034	5990.35
929.344	6024.02
929.653	6016.34
929.962	5906.51
930.271	5885.04
930.581	5883.46
930.89	5876.91
931.199	5823.35
931.508	5826.97
931.817	5790.13
932.125	5754.88
932.434	5760.3
932.743	5683.24
933.051	5654.31
933.36	5632.62
933.669	5603.02
933.977	5608.21
934.286	5605.28
934.594	5606.63
934.902	5531.15
935.21	5507.43
935.519	5493.41
935.827	5439.18
936.135	5460.42
936.443	5393.76
936.751	5376.36
937.059	5412.06
937.367	5335
937.674	5379.07
937.982	5316.7
938.29	5276.7
938.597	5309.24
938.905	5250.26
939.213	5262.46
939.52	5191.05
939.827	5200.99
940.135	5132.29
940.442	5141.79
940.749	5113.54
941.056	5111.05
941.363	5041.68
941.67	5005.29
941.977	5006.65
942.284	4995.8
942.591	5013.43
942.898	4972.52
943.205	4968.68
943.511	4968.91
943.818	4918.74
944.125	4843.71
944.431	4794
944.738	4810.72
945.044	4795.35
945.35	4792.87
945.657	4740.67
945.963	4754.45
946.269	4705.64
946.575	4732.53
946.881	4676.94
947.187	4707.22
947.493	4704.74
947.799	4651.18
948.105	4590.39
948.41	4608.92
948.716	4582.48
949.022	4528.92
949.327	4583.83
949.633	4500.9
949.938	4516.49
950.244	4483.72
950.549	4442.37
950.854	4408.25
951.16	4402.14
951.465	4372.77
951.77	4328.93
952.075	4325.08
952.38	4344.74
952.685	4360.79
952.99	4280.57
953.294	4282.37
953.599	4260.45
953.904	4247.8
954.209	4181.36
954.513	4212.77
954.818	4135.26
955.122	4233.11
955.426	4180.23
955.731	4125.09
956.035	4124.86
956.339	4101.81
956.643	4145.65
956.948	4078.76
957.252	4050.74
957.556	4049.39
957.86	3995.6
958.163	4005.32
958.467	3963.96
958.771	3973
959.075	3928.03
959.378	3956.28
959.682	3895.72
959.985	3834.02
960.289	3865.66
960.592	3824.76
960.896	3882.16
961.199	3815.27
961.502	3833.57
961.805	3779.56
962.108	3802.39
962.411	3771.88
962.714	3742.05
963.017	3716.74
963.32	3703.18
963.623	3735.95
963.926	3706.57
964.228	3689.85
964.531	3629.28
964.833	3654.37
965.136	3607.14
965.438	3630.64
965.741	3577.31
966.043	3597.19
966.345	3543.86
966.648	3543.41
966.95	3545.44
967.252	3487.37
967.554	3479.91
967.856	3482.62
968.158	3452.79
968.46	3425.45
968.761	3464.54
969.063	3425.67
969.365	3385.67
969.666	3385.45
969.968	3349.06
970.269	3323.98
970.571	3280.59
970.872	3351.1
971.174	3323.3
971.475	3323.98
971.776	3275.85
972.077	3258.22
972.378	3233.59
972.679	3258.22
972.98	3252.34
973.281	3194.49
973.582	3201.05
973.883	3175.06
974.183	3165.34
974.484	3159.69
974.785	3155.85
975.085	3133.25
975.386	3099.13
975.686	3109.07
975.986	3091.44
976.287	3080.6
976.587	3055.96
976.887	3065.46
977.187	3050.32
977.487	3022.97
977.787	2989.07
978.087	2942.75
978.387	2963.31
978.687	2990.2
978.987	2975.29
979.286	2946.36
979.586	2949.08
979.885	2929.41
980.185	2914.05
980.484	2893.94
980.784	2854.39
981.083	2842.64
981.382	2819.59
981.682	2836.54
981.981	2836.54
982.28	2814.62
982.579	2791.57
982.878	2803.54
983.177	2778.91
983.475	2752.7
983.774	2753.37
984.073	2760.15
984.372	2732.13
984.67	2715.41
984.969	2706.82
985.267	2694.39
985.566	2680.16
985.864	2648.74
986.162	2640.83
986.461	2674.96
986.759	2622.08
987.057	2588.41
987.355	2577.56
987.653	2606.94
987.951	2578.69
988.249	2608.97
988.547	2546.6
988.844	2535.53
989.142	2551.57
989.44	2549.09
989.737	2520.61
990.035	2491.23
990.332	2498.92
990.63	2497.34
990.927	2477.45
991.224	2440.16
991.521	2460.05
991.819	2424.12
992.116	2409.43
992.413	2431.35
992.71	2417.79
993.006	2383.44
993.303	2372.37
993.6	2359.71
993.897	2375.3
994.193	2370.33
994.49	2328.75
994.787	2322.42
995.083	2303.89
995.379	2302.54
995.676	2298.24
995.972	2268.64
996.268	2234.97
996.565	2264.57
996.861	2261.64
997.157	2255.53
997.453	2216.21
997.749	2209.21
998.044	2174.18
998.34	2157.68
998.636	2164.01
998.932	2171.92
999.227	2183.45
999.523	2143.45
999.818	2153.84
1000.114	2112.26
1000.409	2114.75
1000.704	2103.22
1001	2117.23
1001.295	2084.92
1001.59	2076.33
1001.885	2079.49
1002.18	2081.53
1002.475	2041.53
1002.77	2044.01
1003.065	1997.46
1003.359	2020.06
1003.654	2007.4
1003.949	1987.29
1004.243	2000.85
1004.538	1967.41
1004.832	1970.8
1005.127	1928.08
1005.421	1910.91
1005.715	1952.49
1006.009	1898.93
1006.304	1887.86
1006.598	1884.92
1006.892	1868.65
1007.186	1865.71
1007.48	1871.59
1007.773	1844.02
1008.067	1825.71
1008.361	1803.57
1008.655	1809.44
1008.948	1841.31
1009.242	1798.6
1009.535	1789.33
1009.829	1772.38
1010.122	1762.21
1010.415	1767.41
1010.708	1766.96
1011.001	1766.96
1011.295	1722.67
1011.588	1716.57
1011.881	1703.01
1012.173	1706.4
1012.466	1682.44
1012.759	1652.39
1013.052	1677.02
1013.344	1659.62
1013.637	1653.29
1013.93	1627.3
1014.222	1666.17
1014.514	1638.6
1014.807	1616.91
1015.099	1592.5
1015.391	1592.05
1015.683	1599.96
1015.976	1562.22
1016.268	1553.63
1016.56	1561.77
1016.851	1579.85
1017.143	1559.73
1017.435	1535.1
1017.727	1522.67
1018.018	1505.27
1018.31	1492.62
1018.602	1478.38
1018.893	1480.87
1019.185	1465.72
1019.476	1446.29
1019.767	1451.49
1020.058	1452.17
1020.35	1434.99
1020.641	1425.73
1020.932	1442
1021.223	1418.27
1021.514	1376.69
1021.804	1355.44
1022.095	1370.13
1022.386	1364.94
1022.677	1377.14
1022.967	1367.87
1023.258	1327.87
1023.548	1324.48
1023.839	1330.59
1024.129	1333.07
1024.419	1310.93
1024.709	1295.79
1025	1289.46
1025.29	1284.49
1025.58	1258.5
1025.87	1249.23
1026.16	1246.07
1026.449	1273.64
1026.739	1258.72
1027.029	1231.15
1027.319	1245.39
1027.608	1225.28
1027.898	1204.26
1028.187	1222.79
1028.477	1206.52
1028.766	1193.64
1029.055	1173.3
1029.344	1190.03
1029.634	1185.96
1029.923	1152.29
1030.212	1131.04
1030.501	1126.07
1030.79	1137.15
1031.078	1155.22
1031.367	1135.56
1031.656	1127.43
1031.945	1111.61
1032.233	1081.1
1032.522	1098.28
1032.81	1083.59
1033.099	1077.03
1033.387	1077.49
1033.675	1056.92
1033.963	1075.23
1034.251	1066.86
1034.54	1038.62
1034.828	1051.95
1035.116	1052.85
1035.403	1014.89
1035.691	1016.7
1035.979	1017.83
1036.267	1011.72
1036.554	995
1036.842	1015.34
1037.129	985.06
1037.417	984.15
1037.704	992.52
1037.992	964.72
1038.279	946.64
1038.566	949.81
1038.853	949.81
1039.14	949.81
