Data from hue_110_FLMS001491_00004.txt Node
Date: Tue Feb 07 17:00:49 GMT 2017
User: dcchb
Spectrometer: FLMS00149
Trigger mode: 0
Integration Time (sec): 2.000000E-2
Scans to average: 10
Electric dark correction enabled: true
Nonlinearity correction enabled: false
Boxcar width: 0
XAxis mode: Wavelengths
Number of Pixels in Spectrum: 2048
>>>>>Begin Spectral Data<<<<<
341.393	-10.45
341.776	-10.45
342.16	-10.45
342.543	-61.07
342.927	-62.65
343.31	-67.4
343.693	-60.62
344.077	-45.71
344.46	-60.85
344.843	-43.9
345.226	-41.86
345.61	-32.82
345.993	-20.85
346.376	6.27
346.759	1.75
347.142	30.68
347.525	34.07
347.908	53.05
348.291	76.1
348.674	79.49
349.057	92.6
349.44	131.01
349.823	131.69
350.206	169.43
350.588	206.49
350.971	208.3
351.354	216.43
351.737	243.1
352.119	246.72
352.502	255.53
352.884	285.36
353.267	272.03
353.65	310.22
354.032	295.53
354.414	306.38
354.797	321.97
355.179	316.09
355.562	331.69
355.944	326.94
356.326	344.57
356.709	335.98
357.091	328.75
357.473	326.49
357.855	352.7
358.238	336.43
358.62	353.38
359.002	317.68
359.384	337.79
359.766	329.43
360.148	341.18
360.53	332.59
360.912	335.53
361.294	342.76
361.676	333.49
362.057	330.78
362.439	328.75
362.821	329.43
363.203	325.81
363.584	332.36
363.966	319.03
364.348	321.74
364.729	328.52
365.111	325.13
365.493	300.95
365.874	323.55
366.256	310.9
366.637	302.31
367.019	319.26
367.4	326.49
367.781	308.64
368.163	338.47
368.544	319.03
368.925	316.09
369.306	329.2
369.688	342.76
370.069	332.59
370.45	332.36
370.831	305.47
371.212	311.35
371.593	324.45
371.974	299.14
372.355	313.61
372.736	327.62
373.117	337.34
373.498	320.16
373.879	326.26
374.26	322.19
374.641	308.41
375.021	327.62
375.402	303.44
375.783	313.83
376.163	322.65
376.544	338.24
376.925	344.57
377.305	336.88
377.686	352.7
378.066	336.88
378.447	313.38
378.827	327.17
379.208	336.43
379.588	342.08
379.968	323.32
380.349	339.82
380.729	336.21
381.109	345.7
381.489	342.76
381.87	327.39
382.25	333.95
382.63	360.84
383.01	342.99
383.39	354.74
383.77	343.66
384.15	328.97
384.53	364.68
384.91	351.57
385.29	345.25
385.67	367.62
386.049	346.15
386.429	343.44
386.809	341.63
387.189	358.13
387.568	357.45
387.948	364
388.328	354.06
388.707	349.99
389.087	352.02
389.466	357.22
389.846	351.35
390.225	355.41
390.605	385.92
390.984	378.24
391.363	368.52
391.743	388.18
392.122	386.37
392.501	363.78
392.881	369.2
393.26	363.55
393.639	377.79
394.018	378.46
394.397	388.63
394.776	377.33
395.155	373.04
395.534	370.33
395.913	393.15
396.292	397
396.671	397.22
397.05	399.26
397.429	410.55
397.808	385.47
398.186	392.25
398.565	414.17
398.944	417.33
399.323	415.53
399.701	411.23
400.08	421.18
400.458	404
400.837	400.61
401.215	394.96
401.594	420.95
401.972	409.88
402.351	405.58
402.729	408.29
403.107	419.37
403.486	412.59
403.864	414.17
404.242	438.8
404.62	432.02
404.999	424.57
405.377	429.99
405.755	413.49
406.133	430.21
406.511	435.41
406.889	456.43
407.267	451.23
407.645	436.77
408.023	452.59
408.401	447.62
408.779	436.32
409.156	454.85
409.534	449.2
409.912	461.63
410.29	443.55
410.667	466.6
411.045	455.52
411.422	454.62
411.8	480.61
412.178	464.11
412.555	474.51
412.933	470.89
413.31	474.51
413.687	514.05
414.065	505.24
414.442	514.51
414.819	494.85
415.197	513.38
415.574	507.27
415.951	505.69
416.328	516.77
416.705	511.12
417.082	503.89
417.46	540.95
417.837	514.51
418.214	490.78
418.591	520.16
418.967	539.36
419.344	535.75
419.721	528.07
420.098	558.57
420.475	527.39
420.852	547.27
421.228	584.56
421.605	548.63
421.982	552.92
422.358	579.82
422.735	574.62
423.111	566.93
423.488	570.32
423.864	572.13
424.241	586.14
424.617	593.6
424.994	576.43
425.37	575.3
425.746	585.01
426.123	587.72
426.499	593.37
426.875	613.71
427.251	596.09
427.627	604.9
428.003	616.2
428.379	611.23
428.756	636.08
429.132	649.19
429.507	614.39
429.883	639.93
430.259	657.33
430.635	636.08
431.011	662.75
431.387	667.04
431.763	679.7
432.138	692.13
432.514	665.46
432.89	656.88
433.265	692.58
433.641	746.59
434.016	735.74
434.392	710.43
434.767	723.54
435.143	705.24
435.518	743.65
435.894	735.52
436.269	744.56
436.644	751.34
437.02	770.54
437.395	756.53
437.77	771.45
438.145	785.69
438.52	783.2
438.895	780.49
439.271	769.41
439.646	800.15
440.021	791.11
440.395	803.99
440.77	806.93
441.145	804.22
441.52	826.14
441.895	826.81
442.27	851.67
442.645	837.21
443.019	837.89
443.394	839.47
443.769	855.74
444.143	827.72
444.518	870.43
444.892	878.11
445.267	888.28
445.641	889.19
446.016	858.45
446.39	904.55
446.764	908.85
447.139	895.74
447.513	907.94
447.887	906.81
448.262	936.64
448.636	930.31
449.01	938.22
449.384	927.38
449.758	954.04
450.132	948.62
450.506	984.32
450.88	969.64
451.254	990.88
451.628	976.64
452.002	986.58
452.376	1013.48
452.75	1024.32
453.123	1013.02
453.497	1052.57
453.871	1036.07
454.244	1052.35
454.618	1059.35
454.992	1084.43
455.365	1069.07
455.739	1107.94
456.112	1096.64
456.486	1132.8
456.859	1140.48
457.232	1137.77
457.606	1158.56
457.979	1147.26
458.352	1216.63
458.725	1172.34
459.099	1219.57
459.472	1216.41
459.845	1241.04
460.218	1258.89
460.591	1236.52
460.964	1265.67
461.337	1313.13
461.71	1314.03
462.083	1321.94
462.456	1348.61
462.829	1354.48
463.201	1369.4
463.574	1393.81
463.947	1400.81
464.32	1475.16
464.692	1458.89
465.065	1466.12
465.438	1473.8
465.81	1518.55
466.183	1522.16
466.555	1525.55
466.928	1566.23
467.3	1603.97
467.672	1602.84
468.045	1649.62
468.417	1663.63
468.789	1679.67
469.161	1708.15
469.534	1740.01
469.906	1751.08
470.278	1820.69
470.65	1817.97
471.022	1883.96
471.394	1915.37
471.766	1930.29
472.138	1948.14
472.51	2042.83
472.882	2074.47
473.253	2083.28
473.625	2131.86
473.997	2203.28
474.369	2192.43
474.74	2255.93
475.112	2354.46
475.484	2367.34
475.855	2480.78
476.227	2496.38
476.598	2519.65
476.97	2601.91
477.341	2655.01
477.713	2728.01
478.084	2764.62
478.455	2879.87
478.827	2918.51
479.198	3046.64
479.569	3109.69
479.94	3191.5
480.311	3278.05
480.682	3314.21
481.053	3462.9
481.424	3524.82
481.795	3601.66
482.166	3697.47
482.537	3770.92
482.908	3885.27
483.279	4018.14
483.65	4094.3
484.021	4241.87
484.391	4317.57
484.762	4372.26
485.133	4498.36
485.503	4588.3
485.874	4768.63
486.244	4837.78
486.615	5010.21
486.985	5100.6
487.356	5219.24
487.726	5325.23
488.097	5514.83
488.467	5510.31
488.837	5750.07
489.207	5922.73
489.578	6061.25
489.948	6084.76
490.318	6277.74
490.688	6355.26
491.058	6532.88
491.428	6706.89
491.798	6794.12
492.168	6966.09
492.538	7070.72
492.908	7198.85
493.278	7371.28
493.648	7423.93
494.017	7649.91
494.387	7758.38
494.757	7893.3
495.126	8066.4
495.496	8114.98
495.866	8263.23
496.235	8424.35
496.605	8553.84
496.974	8622.54
497.344	8778.24
497.713	8848.52
498.082	8995.64
498.452	9119.03
498.821	9204.9
499.19	9350.88
499.559	9377.1
499.928	9570.77
500.298	9624.32
500.667	9816.18
501.036	9814.15
501.405	9981.83
501.774	9955.61
502.143	10157.87
502.512	10263.4
502.88	10371.42
503.249	10392.21
503.618	10560.12
503.987	10668.82
504.356	10641.02
504.724	10850.28
505.093	10824.97
505.462	11004.4
505.83	11098.86
506.199	11172.76
506.567	11294.56
506.936	11284.84
507.304	11469.02
507.672	11563.93
508.041	11517.15
508.409	11715.34
508.777	11809.12
509.145	11820.88
509.514	11865.39
509.882	12056.8
510.25	12017.93
510.618	12127.08
510.986	12147.42
511.354	12203.24
511.722	12319.39
512.09	12420.86
512.458	12382.22
512.826	12523.91
513.193	12567.07
513.561	12574.08
513.929	12745.82
514.297	12837.35
514.664	12877.35
515.032	12804.35
515.4	12983.78
515.767	13007.51
516.135	12976.78
516.502	12980.85
516.869	13240.5
517.237	13213.16
517.604	13157.11
517.972	13255.19
518.339	13371.34
518.706	13334.73
519.073	13425.35
519.44	13464.9
519.808	13569.98
520.175	13423.32
520.542	13586.48
520.909	13727.27
521.276	13645.91
521.643	13739.02
522.009	13788.96
522.376	13848.17
522.743	13875.74
523.11	13983.53
523.477	13991.44
523.843	14057.43
524.21	14147.14
524.577	14245.22
524.943	14183.75
525.31	14237.31
525.676	14344.88
526.043	14416.51
526.409	14402.28
526.776	14453.8
527.142	14499.22
527.508	14524.31
527.874	14578.77
528.241	14605.89
528.607	14524.31
528.973	14626.9
529.339	14600.46
529.705	14681.82
530.071	14696.28
530.437	14794.81
530.803	14793.9
531.169	14687.69
531.535	14734.02
531.901	14740.8
532.267	14724.08
532.632	14756.39
532.998	14788.48
533.364	14802.04
533.73	14723.4
534.095	14898.99
534.461	14742.15
534.826	14762.04
535.192	14771.53
535.557	14823.51
535.923	14812.89
536.288	14762.04
536.653	14756.17
537.019	14687.24
537.384	14696.05
537.749	14700.35
538.114	14715.26
538.479	14674.81
538.845	14708.26
539.21	14611.08
539.575	14603.18
539.94	14608.15
540.305	14576.06
540.67	14533.57
541.034	14527.7
541.399	14549.84
541.764	14437.53
542.129	14528.6
542.494	14406.12
542.858	14421.03
543.223	14450.64
543.587	14439.79
543.952	14403.86
544.316	14245.44
544.681	14330.41
545.045	14322.73
545.41	14346.68
545.774	14278.66
546.138	14220.59
546.503	14240.02
546.867	14160.7
547.231	14190.53
547.595	14135.84
547.959	14131.78
548.324	14105.11
548.688	14083.19
549.052	14087.26
549.416	14053.81
549.779	13976.75
550.143	13972.46
550.507	14051.1
550.871	13887.71
551.235	13907.15
551.599	13931.1
551.962	13890.65
552.326	13849.07
552.689	13849.07
553.053	13745.8
553.417	13717.55
553.78	13839.81
554.143	13769.98
554.507	13817.43
554.87	13769.52
555.234	13805.46
555.597	13694.27
555.96	13706.25
556.323	13767.27
556.686	13631.45
557.05	13832.57
557.413	13730.88
557.776	13729.53
558.139	13753.71
558.502	13731.11
558.865	13650.66
559.228	13691.56
559.59	13743.54
559.953	13694.27
560.316	13749.41
560.679	13747.6
561.041	13814.95
561.404	13795.74
561.767	13862.86
562.129	13768.4
562.492	13858.11
562.854	13812.69
563.217	13745.8
563.579	13785.12
563.941	13840.48
564.304	13820.82
564.666	13870.77
565.028	13915.74
565.39	13890.43
565.753	13903.31
566.115	13959.58
566.477	13992.57
566.839	13929.75
567.201	14004.32
567.563	13957.77
567.925	14040.03
568.287	14028.95
568.648	14007.26
569.01	14047.48
569.372	14099.69
569.734	14064.21
570.095	14145.11
570.457	14145.56
570.819	14082.29
571.18	14136.07
571.542	14189.17
571.903	14179.23
572.265	14263.98
572.626	14265.11
572.987	14194.15
573.349	14329.51
573.71	14341.71
574.071	14259
574.432	14343.97
574.794	14411.99
575.155	14370.19
575.516	14258.1
575.877	14384.2
576.238	14301.71
576.599	14396.63
576.96	14341.04
577.32	14410.19
577.681	14412.67
578.042	14362.5
578.403	14373.12
578.763	14333.58
579.124	14332.67
579.485	14410.64
579.845	14468.04
580.206	14375.16
580.566	14497.64
580.927	14336.29
581.287	14437.53
581.648	14379.45
582.008	14492.44
582.368	14377.87
582.728	14429.62
583.089	14432.11
583.449	14323.63
583.809	14369.96
584.169	14436.4
584.529	14349.17
584.889	14379.45
585.249	14330.87
585.609	14231.21
585.969	14351.43
586.329	14338.1
586.688	14285.67
587.048	14341.71
587.408	14279.34
587.768	14214.03
588.127	14262.17
588.487	14251.55
588.846	14303.07
589.206	14329.51
589.565	14273.24
589.925	14349.62
590.284	14260.36
590.643	14176.75
591.003	14210.42
591.362	14242.73
591.721	14233.69
592.08	14204.54
592.44	14257.42
592.799	14245.9
593.158	14203.19
593.517	14235.95
593.876	14122.96
594.235	14091.32
594.593	14084.77
594.952	14158.89
595.311	14023.98
595.67	14107.82
596.029	14169.97
596.387	14188.27
596.746	14197.54
597.104	14061.49
597.463	14132.91
597.822	14134.26
598.18	14132.91
598.538	14074.83
598.897	14185.79
599.255	13979.69
599.613	14219.68
599.972	14180.36
600.33	14206.35
600.688	14139.68
601.046	14215.16
601.404	14219
601.762	14155.96
602.12	14117.76
602.478	14175.16
602.836	14232.56
603.194	14151.89
603.552	14189.4
603.91	14077.54
604.268	14119.57
604.625	14135.84
604.983	14159.57
605.341	14132.23
605.698	14140.14
606.056	14230.98
606.413	14168.84
606.771	14246.35
607.128	14178.55
607.485	14208.16
607.843	14109.85
608.2	14223.07
608.557	14219.23
608.914	14164.54
609.272	14253.13
609.629	14263.07
609.986	14352.79
610.343	14226.91
610.7	14328.38
611.057	14284.99
611.414	14169.29
611.771	14273.01
612.127	14318.44
612.484	14374.93
612.841	14405.67
613.198	14329.96
613.554	14304.88
613.911	14419.9
614.267	14348.94
614.624	14458.32
614.98	14418.1
615.337	14471.43
615.693	14492.22
616.05	14350.07
616.406	14467.13
616.762	14449.73
617.118	14534.02
617.475	14514.36
617.831	14555.72
618.187	14509.39
618.543	14572.89
618.899	14640.01
619.255	14525.89
619.611	14563.4
619.967	14596.17
620.323	14739.89
620.678	14571.99
621.034	14494.25
621.39	14617.86
621.746	14523.63
622.101	14715.94
622.457	14582.38
622.812	14618.77
623.168	14553.69
623.523	14634.59
623.879	14655.6
624.234	14534.48
624.589	14584.42
624.945	14651.76
625.3	14591.88
625.655	14630.75
626.01	14604.08
626.365	14618.99
626.72	14636.62
627.075	14588.26
627.43	14577.19
627.785	14587.58
628.14	14540.35
628.495	14524.31
628.85	14597.3
629.205	14570.86
629.559	14614.7
629.914	14469.85
630.269	14450.41
630.623	14445.44
630.978	14461.03
631.332	14539.45
631.687	14501.48
632.041	14453.57
632.396	14461.94
632.75	14454.93
633.104	14410.86
633.459	14391.2
633.813	14374.48
634.167	14353.01
634.521	14439.34
634.875	14370.64
635.229	14409.73
635.583	14253.35
635.937	14300.58
636.291	14292.45
636.645	14268.72
636.999	14235.73
637.352	14296.06
637.706	14162.28
638.06	14239.8
638.413	14090.65
638.767	14195.95
639.121	14208.38
639.474	14130.19
639.828	14092
640.181	14012.46
640.534	14092.68
640.888	14103.75
641.241	14052.68
641.594	14062.85
641.947	14112.11
642.301	13964.55
642.654	14056.75
643.007	14128.16
643.36	14113.7
643.713	14062.4
644.066	14051.33
644.419	13994.6
644.771	13898.56
645.124	13681.39
645.477	13702.86
645.83	13631.22
646.182	13600.72
646.535	13560.49
646.888	13627.83
647.24	13490.89
647.593	13572.92
647.945	13432.13
648.298	13455.86
648.65	13437.78
649.002	13428.74
649.355	13496.54
649.707	13518.01
650.059	13528.63
650.411	13752.58
650.763	13744.89
651.115	13887.94
651.467	13776.53
651.819	13742.86
652.171	13795.06
652.523	13823.08
652.875	13725.01
653.227	13671.22
653.578	13807.26
653.93	13800.94
654.282	13720.26
654.633	13719.13
654.985	13786.25
655.337	13775.17
655.688	13829.18
656.039	13923.42
656.391	13749.64
656.742	13785.12
657.094	13738.79
657.445	13801.39
657.796	13848.17
658.147	13768.4
658.498	13703.54
658.849	13825.12
659.2	13703.09
659.551	13772.01
659.902	13895.4
660.253	13843.65
660.604	13814.95
660.955	13767.27
661.306	13798.9
661.656	13807.04
662.007	13744.89
662.358	13812.01
662.708	13785.57
663.059	13862.4
663.409	13798.68
663.76	13867.83
664.11	13879.13
664.461	13874.61
664.811	13872.8
665.161	13887.26
665.511	13754.38
665.862	13809.52
666.212	13886.81
666.562	13824.66
666.912	13801.39
667.262	13765.23
667.612	13903.08
667.962	13917.77
668.312	13847.26
668.662	13867.38
669.011	13856.3
669.361	13826.7
669.711	13834.38
670.06	13828.73
670.41	13753.48
670.76	13839.58
671.109	13790.54
671.459	13785.8
671.808	13767.72
672.157	13807.94
672.507	13774.04
672.856	13781.73
673.205	13732.01
673.554	13792.58
673.904	13709.41
674.253	13734.95
674.602	13703.99
674.951	13582.41
675.3	13448.4
675.649	13672.13
675.998	13550.1
676.346	13700.37
676.695	13710.32
677.044	13566.37
677.393	13667.38
677.741	13596.87
678.09	13520.49
678.438	13598
678.787	13609.76
679.135	13542.86
679.484	13489.31
679.832	13510.32
680.181	13446.82
680.529	13490.66
680.877	13344.68
681.225	13359.59
681.573	13436.88
681.922	13367.5
682.27	13293.61
682.618	13269.65
682.966	13359.14
683.314	13283.44
683.661	13266.26
684.009	13210.22
684.357	13162.31
684.705	13154.85
685.053	13208.18
685.4	13084.35
685.748	13120.73
686.095	13085.93
686.443	12957.12
686.79	13000.05
687.138	12975.2
687.485	12957.79
687.832	12943.56
688.18	12882.32
688.527	12808.42
688.874	12797.8
689.221	12785.14
689.568	12723.45
689.915	12653.17
690.262	12713.73
690.609	12628.09
690.956	12597.8
691.303	12629.44
691.65	12454.53
691.997	12551.03
692.344	12346.06
692.69	12383.57
693.037	12369.56
693.383	12261.99
693.73	12371.82
694.077	12266.97
694.423	12300.19
694.769	12219.28
695.116	12239.4
695.462	12047.54
695.808	12122.34
696.155	12048.67
696.501	12007.09
696.847	11979.74
697.193	11898.39
697.539	11832.85
697.885	11814.32
698.231	11732.97
698.577	11745.85
698.923	11737.71
699.269	11657.49
699.614	11626.98
699.96	11498.85
700.306	11432.86
700.651	11545.18
700.997	11461.34
701.342	11401.23
701.688	11370.49
702.033	11342.7
702.379	11352.19
702.724	11236.71
703.069	11179.76
703.415	11195.36
703.76	11149.93
704.105	11142.93
704.45	11094.12
704.795	11052.08
705.14	10997.39
705.485	10938.86
705.83	10911.75
706.175	10910.17
706.52	10956.27
706.865	10854.35
707.209	10911.75
707.554	10792.65
707.899	10841.69
708.243	10762.15
708.588	10776.16
708.932	10678.08
709.277	10680.57
709.621	10533.68
709.966	10577.07
710.31	10630.17
710.654	10507.46
710.998	10429.95
711.342	10411.42
711.687	10488.03
712.031	10391.99
712.375	10439.67
712.719	10386.11
713.063	10403.06
713.407	10308.6
713.75	10327.36
714.094	10296.85
714.438	10227.47
714.782	10312.67
715.125	10221.6
715.469	10255.04
715.812	10168.26
716.156	10136.4
716.499	10192.67
716.843	10104.76
717.186	10119.23
717.53	10031.54
717.873	10148.15
718.216	10066.57
718.559	10043.75
718.902	9930.53
719.246	9975.27
719.589	9987.93
719.932	9945.22
720.275	9939.8
720.617	9912.23
720.96	9896.63
721.303	9893.47
721.646	9919.68
721.989	9889.63
722.331	9940.7
722.674	9856.18
723.016	9853.24
723.359	9833.58
723.701	9834.04
724.044	9765.11
724.386	9754.49
724.729	9854.6
725.071	9867.48
725.413	9725.34
725.755	9794.71
726.097	9745.22
726.439	9669.97
726.782	9742.51
727.124	9735.51
727.465	9703.42
727.807	9755.39
728.149	9693.93
728.491	9636.98
728.833	9701.16
729.175	9667.71
729.516	9719.24
729.858	9623.87
730.199	9660.48
730.541	9652.8
730.882	9575.74
731.224	9700.93
731.565	9642.18
731.906	9613.25
732.248	9635.17
732.589	9596.3
732.93	9556.08
733.271	9616.19
733.612	9596.3
733.953	9599.92
734.294	9589.52
734.635	9524.89
734.976	9612.8
735.317	9590.88
735.658	9555.85
735.999	9522.86
736.339	9522.4
736.68	9631.78
737.021	9596.53
737.361	9594.72
737.702	9663.42
738.042	9594.27
738.383	9580.48
738.723	9672.23
739.063	9561.95
739.404	9657.09
739.744	9614.83
740.084	9583.19
740.424	9653.25
740.764	9579.35
741.104	9716.75
741.444	9655.73
741.784	9626.81
742.124	9766.01
742.464	9739.57
742.804	9764.66
743.143	9803.75
743.483	9763.75
743.823	9821.38
744.162	9829.74
744.502	9864.54
744.841	9860.02
745.181	9967.59
745.52	9921.94
745.86	10014.37
746.199	10010.3
746.538	10069.51
746.877	10104.76
747.216	10175.95
747.556	10255.49
747.895	10270.63
748.234	10294.59
748.573	10311.31
748.911	10420.23
749.25	10435.38
749.589	10429.05
749.928	10533.23
750.267	10611.64
750.605	10642.15
750.944	10752.43
751.283	10834.69
751.621	10961.69
751.96	10942.93
752.298	11100.44
752.636	11228.12
752.975	11252.53
753.313	11317.39
753.651	11525.29
753.989	11548.34
754.327	11685.06
754.666	11669.92
755.004	11874.66
755.342	12066.52
755.679	12117.82
756.017	12262.45
756.355	12397.36
756.693	12491.14
757.031	12697.24
757.368	12687.97
757.706	12916.21
758.044	12976.55
758.381	13184.68
758.719	13240.05
759.056	13493.83
759.394	13678.91
759.731	13827.38
760.068	13847.04
760.405	13983.3
760.743	14110.76
761.08	14345.1
761.417	14477.53
761.754	14565.66
762.091	14777.41
762.428	14983.05
762.765	15062.6
763.102	15254.23
763.438	15249.26
763.775	15443.61
764.112	15584.17
764.449	15849.92
764.785	15896.93
765.122	16126.3
765.458	16135.56
765.795	16268.44
766.131	16416.46
766.467	16511.83
766.804	16571.94
767.14	16752.72
767.476	16946.16
767.812	16974.64
768.148	17221.64
768.485	17298.92
768.821	17325.36
769.157	17512.93
769.492	17632.7
769.828	17647.16
770.164	17611.01
770.5	17726.94
770.836	17914.05
771.171	17947.95
771.507	18062.29
771.842	18072.24
772.178	18100.26
772.513	18280.82
772.849	18296.41
773.184	18222.29
773.519	18431.1
773.855	18430.42
774.19	18524.43
774.525	18600.13
774.86	18671.54
775.195	18667.93
775.53	18662.73
775.865	18676.29
776.2	18606.46
776.535	18569.62
776.87	18691.66
777.205	18738.89
777.539	18807.13
777.874	18820.01
778.209	18785.21
778.543	18777.98
778.878	18760.58
779.212	18740.24
779.547	18797.19
779.881	18892.33
780.215	18848.26
780.55	18944.08
780.884	18844.87
781.218	18735.04
781.552	18913.57
781.886	18813.46
782.22	18745.44
782.554	18808.71
782.888	18659.11
783.222	18719.23
783.556	18719
783.889	18679.23
784.223	18543.64
784.557	18675.16
784.89	18725.55
785.224	18607.82
785.557	18451.66
785.891	18575.95
786.224	18450.76
786.558	18567.82
786.891	18464.32
787.224	18413.7
787.557	18428.84
787.891	18385.45
788.224	18382.29
788.557	18367.6
788.89	18394.71
789.223	18391.1
789.556	18301.84
789.888	18192.01
790.221	18041.73
790.554	18017.1
790.887	18175.51
791.219	18057.1
791.552	17990.66
791.884	17973.71
792.217	18025.01
792.549	17841.73
792.882	17808.06
793.214	17699.37
793.546	17773.26
793.879	17703.43
794.211	17635.64
794.543	17702.98
794.875	17595.64
795.207	17699.59
795.539	17603.77
795.871	17614.62
796.203	17427.96
796.535	17358.81
796.867	17428.41
797.198	17320.39
797.53	17334.63
797.862	17188.19
798.193	17258.92
798.525	17133.05
798.856	17189.32
799.188	16960.18
799.519	17005.6
799.85	16970.12
800.182	17036.11
800.513	16963.34
800.844	16803.8
801.175	16879.27
801.506	16853.29
801.837	16837.24
802.168	16779.39
802.499	16660.07
802.83	16599.51
803.161	16561.32
803.491	16407.2
803.822	16521.54
804.153	16532.84
804.483	16392.73
804.814	16315.22
805.145	16320.64
805.475	16404.03
805.805	16239.97
806.136	16275.9
806.466	16266.18
806.796	16120.2
807.126	16103.02
807.457	16168.56
807.787	16029.13
808.117	15934.89
808.447	15954.78
808.777	16016.92
809.107	15954.33
809.436	15877.04
809.766	15848.79
810.096	15870.26
810.426	15747.55
810.755	15824.84
811.085	15678.85
811.414	15687.21
811.744	15548.01
812.073	15638.63
812.403	15572.64
812.732	15463.04
813.061	15541.91
813.39	15404.28
813.719	15352.31
814.049	15461.68
814.378	15429.82
814.707	15358.64
815.036	15252.65
815.365	15270.5
815.693	15148.47
816.022	15199.09
816.351	15057.63
816.68	15037.74
817.008	15111.86
817.337	14985.31
817.665	14866.22
817.994	14969.95
818.322	14925.88
818.651	14953
818.979	14846.78
819.307	14857.86
819.636	14862.15
819.964	14714.13
820.292	14843.85
820.62	14856.73
820.948	14777.41
821.276	14795.71
821.604	14738.31
821.932	14907.57
822.259	14661.48
822.587	14759.1
822.915	14668.48
823.243	14704.87
823.57	14696.96
823.898	14682.95
824.225	14697.41
824.553	14716.39
824.88	14690.86
825.207	14737.64
825.535	14658.32
825.862	14759.33
826.189	14664.64
826.516	14834.13
826.843	14800.01
827.17	14856.28
827.497	14839.78
827.824	14743.51
828.151	14813.57
828.478	14747.8
828.805	14858.31
829.131	14720.46
829.458	14720.01
829.785	14696.05
830.111	14699.67
830.438	14826.22
830.764	14768.59
831.09	14788.71
831.417	14617.19
831.743	14759.78
832.069	14625.77
832.395	14690.18
832.722	14754.58
833.048	14582.38
833.374	14672.78
833.7	14611.99
834.026	14588.94
834.351	14651.76
834.677	14578.77
835.003	14645.43
835.329	14543.52
835.654	14559.79
835.98	14514.82
836.306	14549.62
836.631	14453.57
836.956	14555.04
837.282	14441.6
837.607	14387.81
837.932	14392.11
838.258	14450.19
838.583	14364.09
838.908	14373.12
839.233	14312.56
839.558	14270.98
839.883	14272.34
840.208	14235.95
840.533	14232.11
840.858	14226.69
841.182	14212.23
841.507	14233.92
841.832	14162.06
842.156	14090.42
842.481	14049.97
842.805	14092.68
843.13	14024.89
843.454	14046.35
843.778	13900.59
844.103	13908.73
844.427	13843.65
844.751	13875.06
845.075	13805
845.399	13824.21
845.723	13714.61
846.047	13755.97
846.371	13644.1
846.695	13648.4
847.019	13453.6
847.343	13419.93
847.666	13392.13
847.99	13318.92
848.313	13367.95
848.637	13228.52
848.96	13237.56
849.284	13231.91
849.607	13134.51
849.931	13092.71
850.254	13076.66
850.577	12916.67
850.9	12834.41
851.223	12815.88
851.546	12679.61
851.869	12681.42
852.192	12761.42
852.515	12682.1
852.838	12619.27
853.161	12581.53
853.483	12570.23
853.806	12466.28
854.129	12463.34
854.451	12381.99
854.774	12313.29
855.096	12263.12
855.419	12277.13
855.741	12208.89
856.063	12123.47
856.385	12134.77
856.708	12111.26
857.03	12100.19
857.352	11987.2
857.674	11960.31
857.996	11909.46
858.318	11934.54
858.64	11838.05
858.961	11847.09
859.283	11782.91
859.605	11750.37
859.926	11723.25
860.248	11743.82
860.57	11736.81
860.891	11610.26
861.212	11655
861.534	11639.64
861.855	11566.87
862.176	11558.51
862.498	11582.01
862.819	11588.34
863.14	11492.52
863.461	11480.32
863.782	11495.69
864.103	11477.83
864.424	11458.85
864.745	11346.54
865.065	11336.59
865.386	11339.08
865.707	11273.09
866.027	11331.62
866.348	11271.74
866.668	11304.51
866.989	11208.69
867.309	11199.42
867.63	11210.5
867.95	11233.55
868.27	11124.85
868.59	11151.29
868.91	11148.58
869.23	11090.05
869.55	11038.98
869.87	11055.7
870.19	11016.6
870.51	11115.58
870.83	11108.35
871.15	11000.11
871.469	10978.41
871.789	10989.03
872.109	11006.89
872.428	10882.37
872.748	10972.99
873.067	10932.54
873.386	10851.18
873.706	10930.05
874.025	10833.1
874.344	10851.18
874.663	10863.39
874.982	10783.39
875.301	10696.61
875.62	10744.97
875.939	10687.57
876.258	10725.09
876.577	10751.98
876.896	10659.32
877.214	10612.32
877.533	10713.11
877.852	10641.25
878.17	10596.5
878.489	10614.13
878.807	10605.31
879.125	10554.69
879.444	10639.89
879.762	10488.03
880.08	10501.59
880.398	10453.45
880.716	10468.37
881.034	10354.93
881.352	10507.24
881.67	10429.27
881.988	10352.21
882.306	10335.04
882.624	10305.66
882.941	10259.11
883.259	10310.63
883.577	10277.41
883.894	10235.38
884.212	10266.57
884.529	10239.67
884.846	10149.28
885.164	10190.41
885.481	10178.66
885.798	10144.54
886.115	10035.61
886.432	10103.63
886.75	10040.58
887.067	10091.2
887.383	9962.85
887.7	10039.23
888.017	9991.77
888.334	9994.71
888.651	9902.73
888.967	9871.77
889.284	9841.49
889.6	9754.94
889.917	9780.48
890.233	9749.29
890.55	9732.34
890.866	9690.31
891.182	9702.97
891.498	9627.49
891.815	9569.64
892.131	9537.09
892.447	9520.6
892.763	9535.29
893.079	9425.01
893.395	9453.71
893.71	9433.37
894.026	9375.52
894.342	9420.03
894.657	9284.67
894.973	9282.86
895.289	9314.27
895.604	9309.08
895.92	9203.09
896.235	9178.91
896.55	9190.21
896.865	9120.61
897.181	9097.56
897.496	9139.14
897.811	9077.9
898.126	9038.58
898.441	8947.05
898.756	8970.1
899.071	8880.61
899.386	8871.8
899.7	8821.41
900.015	8820.05
900.33	8680.39
900.644	8687.4
900.959	8761.07
901.273	8658.47
901.588	8625.25
901.902	8665.93
902.216	8610.79
902.531	8537.12
902.845	8547.74
903.159	8495.77
903.473	8438.59
903.787	8409.89
904.101	8395.2
904.415	8396.11
904.729	8333.96
905.042	8339.39
905.356	8183.68
905.67	8222.78
905.984	8217.35
906.297	8198.82
906.611	8236.11
906.924	8134.87
907.237	8104.36
907.551	8095.78
907.864	8054.65
908.177	8086.28
908.491	8023.01
908.804	7991.82
909.117	7927.19
909.43	7855.1
909.743	7848.55
910.056	7820.98
910.368	7756.12
910.681	7692.85
910.994	7716.12
911.307	7649.91
911.619	7601.1
911.932	7599.52
912.244	7481.33
912.557	7567.2
912.869	7478.16
913.181	7478.84
913.494	7479.75
913.806	7447.21
914.118	7405.85
914.43	7360.43
914.742	7368.56
915.054	7300.09
915.366	7299.19
915.678	7255.35
915.99	7230.49
916.302	7174.67
916.613	7122.92
916.925	7113.43
917.236	7099.87
917.548	7046.31
917.859	7042.02
918.171	6987.33
918.482	7043.83
918.794	6923.6
919.105	6922.25
919.416	6911.4
919.727	6858.75
920.038	6852.42
920.349	6827.11
920.66	6776.04
920.971	6783.72
921.282	6751.86
921.593	6691.74
921.903	6642.93
922.214	6663.05
922.525	6592.09
922.835	6545.76
923.146	6493.11
923.456	6507.79
923.767	6523.16
924.077	6510.73
924.387	6452.88
924.697	6458.98
925.008	6381.24
925.318	6335.82
925.628	6388.48
925.938	6333.34
926.248	6289.04
926.558	6293.79
926.867	6248.14
927.177	6240.01
927.487	6181.93
927.796	6136.73
928.106	6112.1
928.416	6135.15
928.725	6119.78
929.034	6052.89
929.344	6019.45
929.653	6009.28
929.962	5950.52
930.271	6007.7
930.581	5969.96
930.89	5914.36
931.199	5897.87
931.508	5842.05
931.817	5838.66
932.125	5817.19
932.434	5838.43
932.743	5735.84
933.051	5763.18
933.36	5730.64
933.669	5691.32
933.977	5645.22
934.286	5650.64
934.594	5631.21
934.902	5619.68
935.21	5608.61
935.519	5575.62
935.827	5522.06
936.135	5529.29
936.443	5445.9
936.751	5427.37
937.059	5450.2
937.367	5476.41
937.674	5420.37
937.982	5400.48
938.29	5376.07
938.597	5331.1
938.905	5281.39
939.213	5248.17
939.52	5245.23
939.827	5216.3
940.135	5249.3
940.442	5174.72
940.749	5236.42
941.056	5171.33
941.363	5116.65
941.67	5114.61
941.977	5109.87
942.284	5082.3
942.591	5045.69
942.898	5012.47
943.205	5028.06
943.511	5012.02
943.818	4997.33
944.125	4897.22
944.431	4929.76
944.738	4929.98
945.044	4885.24
945.35	4878.23
945.657	4805.47
945.963	4824.22
946.269	4774.51
946.575	4723.44
946.881	4767.5
947.187	4739.71
947.493	4738.12
947.799	4704.68
948.105	4660.39
948.41	4629.2
948.716	4691.35
949.022	4621.74
949.327	4628.75
949.633	4540.62
949.938	4541.74
950.244	4514.85
950.549	4508.07
950.854	4471.01
951.16	4467.17
951.465	4423.33
951.77	4428.98
952.075	4415.65
952.38	4391.92
952.685	4374.07
952.99	4366.61
953.294	4343.11
953.599	4295.2
953.904	4297.68
954.209	4247.29
954.513	4272.83
954.818	4211.58
955.122	4236.22
955.426	4207.06
955.731	4180.85
956.035	4195.54
956.339	4177.23
956.643	4122.32
956.948	4084.36
957.252	4092.04
957.556	4108.99
957.86	4045.71
958.163	4066.05
958.467	4039.61
958.771	4054.98
959.075	4013.17
959.378	4005.49
959.682	4028.54
959.985	3953.74
960.289	3926.39
960.592	3918.26
960.896	3901.31
961.199	3873.51
961.502	3869.9
961.805	3850.01
962.108	3841.42
962.411	3827.19
962.714	3778.83
963.017	3779.28
963.32	3761.88
963.623	3746.29
963.926	3746.51
964.228	3704.48
964.531	3723.91
964.833	3699.06
965.136	3662.9
965.438	3634.88
965.741	3632.84
966.043	3632.16
966.345	3618.15
966.648	3583.35
966.95	3569.12
967.252	3584.48
967.554	3548.32
967.856	3523.01
968.158	3489.12
968.46	3497.93
968.761	3519.85
969.063	3522.79
969.365	3467.2
969.666	3460.42
969.968	3430.59
970.269	3368.44
970.571	3393.07
970.872	3391.49
971.174	3333.87
971.475	3339.52
971.776	3313.75
972.077	3327.77
972.378	3329.8
972.679	3286.64
972.98	3296.13
973.281	3231.27
973.582	3286.41
973.883	3202.8
974.183	3193.76
974.484	3250.93
974.785	3169.13
975.085	3220.88
975.386	3190.37
975.686	3130.48
975.986	3143.82
976.287	3141.78
976.587	3086.42
976.887	3133.19
977.187	3109.92
977.487	3078.96
977.787	3044.61
978.087	3054.55
978.387	2999.19
978.687	3013.88
978.987	3002.58
979.286	2992.41
979.586	2995.12
979.885	2937.72
980.185	2937.49
980.484	2923.03
980.784	2957.15
981.083	2936.59
981.382	2903.6
981.682	2899.75
981.981	2839.19
982.28	2902.24
982.579	2851.62
982.878	2813.2
983.177	2796.93
983.475	2798.74
983.774	2780.21
984.073	2781.11
984.372	2763.26
984.67	2744.96
984.969	2723.71
985.267	2740.66
985.566	2685.97
985.864	2729.82
986.162	2681.68
986.461	2701.12
986.759	2664.51
987.057	2631.96
987.355	2614.56
987.653	2642.13
987.951	2631.29
988.249	2582.02
988.547	2612.08
988.844	2595.13
989.142	2605.3
989.44	2528.01
989.737	2568.01
990.035	2524.17
990.332	2548.58
990.63	2534.57
990.927	2505.87
991.224	2539.99
991.521	2481.69
991.819	2471.29
992.116	2461.12
992.413	2435.81
992.71	2421.8
993.006	2429.48
993.303	2436.72
993.6	2428.35
993.897	2411.41
994.193	2415.47
994.49	2398.75
994.787	2333.89
995.083	2368.02
995.379	2329.83
995.676	2328.7
995.972	2314.91
996.268	2296.38
996.565	2292.54
996.861	2267.23
997.157	2280.11
997.453	2236.49
997.749	2193.33
998.044	2246.66
998.34	2221.13
998.636	2209.38
998.932	2206.67
999.227	2168.25
999.523	2197.4
999.818	2169.83
1000.114	2170.06
1000.409	2125.99
1000.704	2099.78
1001	2142.49
1001.295	2090.06
1001.59	2094.35
1001.885	2073.79
1002.18	2094.58
1002.475	2062.94
1002.77	2088.48
1003.065	2033.79
1003.359	2035.37
1003.654	2014.35
1003.949	2016.61
1004.243	1997.41
1004.538	1988.59
1004.832	1964.19
1005.127	1979.33
1005.421	1946.33
1005.715	1929.38
1006.009	1945.43
1006.304	1907.01
1006.598	1935.71
1006.892	1881.02
1007.186	1871.08
1007.48	1895.94
1007.773	1878.54
1008.067	1878.76
1008.361	1850.29
1008.655	1835.83
1008.948	1803.51
1009.242	1786.34
1009.535	1817.07
1009.829	1799.67
1010.122	1776.17
1010.415	1773.91
1010.708	1744.53
1011.001	1764.87
1011.295	1747.69
1011.588	1715.6
1011.881	1717.19
1012.173	1717.41
1012.466	1699.33
1012.759	1681.71
1013.052	1677.19
1013.344	1647.13
1013.637	1677.87
1013.93	1648.71
1014.222	1652.1
1014.514	1640.13
1014.807	1619.79
1015.099	1580.69
1015.391	1585.21
1015.683	1623.63
1015.976	1587.47
1016.268	1578.89
1016.56	1595.16
1016.851	1526.01
1017.143	1542.5
1017.435	1562.39
1017.727	1540.69
1018.018	1514.48
1018.31	1493.92
1018.602	1514.48
1018.893	1510.86
1019.185	1487.59
1019.476	1500.02
1019.767	1465.44
1020.058	1451.88
1020.35	1449.85
1020.641	1421.83
1020.932	1465.89
1021.223	1404.2
1021.514	1391.55
1021.804	1391.77
1022.095	1417.08
1022.386	1360.81
1022.677	1377.53
1022.967	1321.94
1023.258	1353.13
1023.548	1348.38
1023.839	1342.51
1024.129	1318.55
1024.419	1326.46
1024.709	1301.38
1025	1313.36
1025.29	1283.98
1025.58	1280.81
1025.87	1277.65
1026.16	1250.76
1026.449	1257.76
1026.739	1241.04
1027.029	1247.14
1027.319	1244.2
1027.608	1237.43
1027.898	1194.49
1028.187	1227.48
1028.477	1225
1028.766	1198.56
1029.055	1177.99
1029.344	1191.1
1029.634	1167.82
1029.923	1151.33
1030.212	1165.34
1030.501	1164.88
1030.79	1157.65
1031.078	1144.77
1031.367	1139.57
1031.656	1126.69
1031.945	1114.72
1032.233	1109.07
1032.522	1097.09
1032.81	1108.16
1033.099	1089.63
1033.387	1087.37
1033.675	1090.99
1033.963	1079.69
1034.251	1072.23
1034.54	1034.04
1034.828	1067.26
1035.116	1023.19
1035.403	1034.27
1035.691	1025.91
1035.979	1016.87
1036.267	1006.92
1036.554	1011.44
1036.842	992.23
1037.129	991.56
1037.417	965.57
1037.704	991.56
1037.992	974.61
1038.279	949.75
1038.566	980.93
1038.853	980.93
1039.14	980.93
