Data from hue_22_FLMS001491_00029.txt Node
Date: Tue Feb 07 17:09:53 GMT 2017
User: dcchb
Spectrometer: FLMS00149
Trigger mode: 0
Integration Time (sec): 2.000000E-2
Scans to average: 10
Electric dark correction enabled: true
Nonlinearity correction enabled: false
Boxcar width: 0
XAxis mode: Wavelengths
Number of Pixels in Spectrum: 2048
>>>>>Begin Spectral Data<<<<<
341.393	-19.49
341.776	-19.49
342.16	-19.49
342.543	-58.59
342.927	-64.91
343.31	-93.16
343.693	-64.69
344.077	-44.58
344.46	-50
344.843	-48.64
345.226	-40.51
345.61	-25.82
345.993	-18.14
346.376	8.98
346.759	5.82
347.142	27.29
347.525	22.99
347.908	62.09
348.291	68.64
348.674	77.91
349.057	111.8
349.44	146.61
349.823	155.87
350.206	164.01
350.588	192.48
350.971	226.15
351.354	239.94
351.737	243.55
352.119	250.56
352.502	280.61
352.884	266.83
353.267	279.94
353.65	277.45
354.032	284
354.414	300.73
354.797	320.16
355.179	330.33
355.562	323.78
355.944	332.14
356.326	331.46
356.709	349.54
357.091	348.63
357.473	338.01
357.855	354.51
358.238	360.39
358.62	357.67
359.002	325.58
359.384	340.5
359.766	336.21
360.148	326.26
360.53	357
360.912	353.83
361.294	342.31
361.676	352.48
362.057	356.09
362.439	360.61
362.821	340.27
363.203	355.41
363.584	339.14
363.966	338.01
364.348	317.45
364.729	307.51
365.111	306.83
365.493	343.21
365.874	317.9
366.256	333.04
366.637	321.74
367.019	308.86
367.4	329.88
367.781	323.1
368.163	320.16
368.544	321.52
368.925	321.52
369.306	323.55
369.688	320.61
370.069	299.6
370.45	324
370.831	323.78
371.212	323.1
371.593	339.6
371.974	326.49
372.355	312.25
372.736	324
373.117	309.54
373.498	303.21
373.879	300.05
374.26	300.95
374.641	336.66
375.021	337.79
375.402	330.78
375.783	325.36
376.163	333.49
376.544	324.45
376.925	327.84
377.305	326.49
377.686	327.84
378.066	329.43
378.447	342.31
378.827	348.86
379.208	333.04
379.588	337.11
379.968	342.31
380.349	333.04
380.729	324.91
381.109	331.46
381.489	330.1
381.87	328.07
382.25	316.32
382.63	344.34
383.01	350.67
383.39	349.54
383.77	343.89
384.15	361.06
384.53	354.96
384.91	344.34
385.29	381.18
385.67	334.62
386.049	352.7
386.429	353.15
386.809	371.91
387.189	358.13
387.568	336.21
387.948	363.55
388.328	370.78
388.707	372.82
389.087	352.93
389.466	344.79
389.846	344.12
390.225	360.16
390.605	375.3
390.984	370.33
391.363	380.5
391.743	377.56
392.122	371.01
392.501	366.04
392.881	393.15
393.26	377.79
393.639	398.35
394.018	383.21
394.397	371.69
394.776	383.66
395.155	396.54
395.534	377.79
395.913	376.66
396.292	397.9
396.671	389.09
397.05	385.47
397.429	389.31
397.808	378.46
398.186	410.1
398.565	400.38
398.944	403.32
399.323	402.64
399.701	418.01
400.08	419.37
400.458	405.58
400.837	407.62
401.215	402.42
401.594	399.93
401.972	407.84
402.351	380.95
402.729	405.58
403.107	418.69
403.486	443.1
403.864	411.46
404.242	415.53
404.62	411.68
404.999	453.26
405.377	432.25
405.755	436.09
406.133	447.16
406.511	429.99
406.889	428.63
407.267	433.83
407.645	425.92
408.023	432.93
408.401	420.95
408.779	446.71
409.156	453.26
409.534	442.64
409.912	445.36
410.29	458.01
410.667	451.23
411.045	461.17
411.422	441.06
411.8	468.86
412.178	464.56
412.555	480.83
412.933	468.41
413.31	466.6
413.687	481.29
414.065	472.25
414.442	503.66
414.819	491.23
415.197	498.69
415.574	480.61
415.951	488.97
416.328	492.81
416.705	493.26
417.082	485.81
417.46	510.21
417.837	497.56
418.214	506.6
418.591	494.17
418.967	511.12
419.344	529.2
419.721	517.67
420.098	517.44
420.475	536.2
420.852	526.94
421.228	528.29
421.605	529.42
421.982	524.22
422.358	539.82
422.735	557.22
423.111	536.43
423.488	564.67
423.864	558.12
424.241	552.25
424.617	553.15
424.994	554.51
425.37	568.06
425.746	551.12
426.123	579.59
426.499	580.72
426.875	577.78
427.251	592.02
427.627	608.74
428.003	583.88
428.379	602.41
428.756	616.2
429.132	598.57
429.507	620.04
429.883	606.48
430.259	616.88
430.635	607.16
431.011	614.39
431.387	634.5
431.763	615.97
432.138	657.1
432.514	660.72
432.89	635.18
433.265	676.08
433.641	681.96
434.016	698
434.392	687.61
434.767	691.45
435.143	691.45
435.518	674.95
435.894	701.85
436.269	692.13
436.644	676.08
437.02	694.39
437.395	716.08
437.77	737.1
438.145	715.18
438.52	726.48
438.895	738.68
439.271	744.56
439.646	728.51
440.021	745.46
440.395	772.13
440.77	752.92
441.145	764.9
441.52	751.56
441.895	786.36
442.27	760.6
442.645	779.81
443.019	798.11
443.394	775.74
443.769	799.92
444.143	783.65
444.518	798.79
444.892	794.72
445.267	817.78
445.641	818.45
446.016	800.37
446.39	810.32
446.764	805.35
447.139	839.47
447.513	814.39
447.887	847.15
448.262	846.02
448.636	829.75
449.01	844.67
449.384	832.46
449.758	856.19
450.132	858.68
450.506	870.2
450.88	883.31
451.254	879.92
451.628	896.42
452.002	906.36
452.376	899.35
452.75	905.68
453.123	905.46
453.497	914.5
453.871	917.21
454.244	936.64
454.618	960.6
454.992	975.74
455.365	963.31
455.739	989.75
456.112	993.14
456.486	979.58
456.859	986.13
457.232	995.85
457.606	997.88
457.979	1027.94
458.352	1041.72
458.725	1074.49
459.099	1060.71
459.472	1060.71
459.845	1081.5
460.218	1087.37
460.591	1093.25
460.964	1096.64
461.337	1123.98
461.71	1127.37
462.083	1168.05
462.456	1147.48
462.829	1163.3
463.201	1186.13
463.574	1171.44
463.947	1183.42
464.32	1212.34
464.692	1217.54
465.065	1224.77
465.438	1236.52
465.81	1275.62
466.183	1281.49
466.555	1320.81
466.928	1315.39
467.3	1301.38
467.672	1333.24
468.045	1339.34
468.417	1367.59
468.789	1377.53
469.161	1389.96
469.534	1380.7
469.906	1429.28
470.278	1439.45
470.65	1467.02
471.022	1508.83
471.394	1505.89
471.766	1543.86
472.138	1550.41
472.51	1544.31
472.882	1590.41
473.253	1627.7
473.625	1651.65
473.997	1666.57
474.369	1681.93
474.74	1739.33
475.112	1751.31
475.484	1779.33
475.855	1813
476.227	1795.6
476.598	1868.59
476.97	1892.78
477.341	1923.96
477.713	1941.59
478.084	1938.65
478.455	2027.23
478.827	2058.65
479.198	2142.26
479.569	2098.42
479.94	2191.52
480.311	2206.44
480.682	2276.04
481.053	2283.27
481.424	2321.24
481.795	2363.5
482.166	2408.24
482.537	2450.95
482.908	2489.82
483.279	2505.41
483.65	2565.07
484.021	2602.81
484.391	2672.42
484.762	2687.1
485.133	2713.32
485.503	2767.78
485.874	2863.82
486.244	2873.77
486.615	2910.38
486.985	2969.36
487.356	3051.84
487.726	3050.94
488.097	3104.04
488.467	3131.61
488.837	3277.6
489.207	3297.03
489.578	3299.29
489.948	3354.21
490.318	3425.16
490.688	3478.27
491.058	3494.31
491.428	3542.9
491.798	3578.38
492.168	3677.13
492.538	3709
492.908	3766.17
493.278	3766.85
493.648	3801.43
494.017	3858.37
494.387	3928.88
494.757	3920.97
495.126	3949.9
495.496	3993.51
495.866	4024.24
496.235	4101.98
496.605	4099.04
496.974	4135.65
497.344	4174.75
497.713	4184.69
498.082	4243.22
498.452	4262.2
498.821	4281.41
499.19	4344.69
499.559	4395.08
499.928	4441.63
500.298	4442.54
500.667	4531.58
501.036	4470.11
501.405	4552.82
501.774	4568.64
502.143	4568.86
502.512	4562.76
502.88	4641.4
503.249	4633.27
503.618	4662.87
503.987	4697.9
504.356	4740.84
504.724	4766.6
505.093	4785.58
505.462	4799.82
505.83	4872.81
506.199	4863.54
506.567	4922.98
506.936	4903.77
507.304	4978.57
507.672	5014.95
508.041	5028.74
508.409	5054.95
508.777	5104.89
509.145	5080.04
509.514	5154.61
509.882	5150.99
510.25	5129.53
510.618	5168.17
510.986	5185.8
511.354	5226.7
511.722	5278.67
512.09	5311.44
512.458	5329.07
512.826	5366.81
513.193	5376.98
513.561	5370.88
513.929	5434.38
514.297	5480.7
514.664	5466.69
515.032	5486.58
515.4	5506.92
515.767	5517.76
516.135	5603.19
516.502	5571.77
516.869	5591.66
517.237	5615.84
517.604	5670.08
517.972	5666.24
518.339	5706.23
518.706	5713.24
519.073	5756.63
519.44	5716.4
519.808	5839.56
520.175	5816.74
520.542	5877.08
520.909	5872.33
521.276	5881.37
521.643	5944.42
522.009	5974.7
522.376	5988.26
522.743	6047.69
523.11	6073.68
523.477	6130.86
523.843	6128.6
524.21	6208.14
524.577	6220.57
524.943	6200.23
525.31	6251.98
525.676	6293.34
526.043	6348.7
526.409	6376.72
526.776	6403.62
527.142	6430.06
527.508	6456.04
527.874	6489.94
528.241	6588.7
528.607	6591.63
528.973	6662.59
529.339	6571.52
529.705	6689.49
530.071	6756.6
530.437	6716.83
530.803	6818.97
531.169	6820.1
531.535	6824.85
531.901	6886.09
532.267	6820.33
532.632	6955.47
532.998	6953.21
533.364	6969.7
533.73	7045.63
534.095	7112.3
534.461	7087.21
534.826	7137.83
535.192	7147.33
535.557	7221.22
535.923	7223.26
536.288	7268.9
536.653	7314.1
537.019	7267.1
537.384	7351.61
537.749	7336.93
538.114	7342.58
538.479	7375.34
538.845	7401.56
539.21	7429.13
539.575	7486.75
539.94	7499.18
540.305	7542.57
540.67	7574.43
541.034	7557.94
541.399	7602.68
541.764	7622.12
542.129	7698.27
542.494	7679.29
542.858	7714.99
543.223	7754.09
543.587	7819.62
543.952	7879.96
544.316	7894.88
544.681	7940.75
545.045	7953.18
545.41	7989.79
545.774	8029.79
546.138	7988.89
546.503	8040.18
546.867	8069.79
547.231	8154.98
547.595	8127.41
547.959	8185.94
548.324	8203.57
548.688	8204.93
549.052	8264.58
549.416	8202.67
549.779	8220.97
550.143	8313.62
550.507	8336.22
550.871	8400.4
551.235	8429.33
551.599	8437.91
551.962	8442.66
552.326	8470.46
552.689	8539.83
553.053	8508.19
553.417	8570.57
553.78	8643.78
554.143	8590
554.507	8648.53
554.87	8686.04
555.234	8749.77
555.597	8723.78
555.96	8732.37
556.323	8749.77
556.686	8841.52
557.05	8914.96
557.413	8920.84
557.776	8894.85
558.139	8997.45
558.502	8973.49
558.865	9013.49
559.228	9043.77
559.59	9081.29
559.953	9044
560.316	9194.28
560.679	9140.27
561.041	9209.64
561.404	9358.57
561.767	9353.37
562.129	9302.3
562.492	9367.15
562.854	9360.38
563.217	9348.17
563.579	9430.43
563.941	9476.53
564.304	9499.35
564.666	9571.9
565.028	9602.85
565.39	9515.4
565.753	9577.09
566.115	9665
566.477	9737.31
566.839	9745.9
567.201	9796.97
567.563	9841.27
567.925	9915.84
568.287	9854.6
568.648	9891.43
569.01	10030.19
569.372	10095.72
569.734	10042.84
570.095	10106.8
570.457	10149.28
570.819	10115.61
571.18	10239
571.542	10201.71
571.903	10312.44
572.265	10369.16
572.626	10339.56
572.987	10375.94
573.349	10421.14
573.71	10526.45
574.071	10581.13
574.432	10572.32
574.794	10725.76
575.155	10722.83
575.516	10719.21
575.877	10900.45
576.238	10942.71
576.599	10986.77
576.96	11096.15
577.32	11173.21
577.681	11266.99
578.042	11329.59
578.403	11395.12
578.763	11455.46
579.124	11537.04
579.485	11676.92
579.845	11753.53
580.206	11942.68
580.566	12012.28
580.927	12061.77
581.287	12327.3
581.648	12356
582.008	12532.5
582.368	12673.28
582.728	12796.44
583.089	12903.79
583.449	13118.24
583.809	13146.04
584.169	13412.25
584.529	13600.94
584.889	13890.2
585.249	13943.98
585.609	14009.97
585.969	14300.81
586.329	14540.13
586.688	14678.88
587.048	14961.81
587.408	15096.72
587.768	15353.44
588.127	15581.23
588.487	15819.19
588.846	16133.76
589.206	16340.76
589.565	16592.73
589.925	16969.21
590.284	17130.11
590.643	17399.03
591.003	17629.99
591.362	18010.09
591.721	18296.19
592.08	18514.26
592.44	18825.21
592.799	19136.39
593.158	19393.56
593.517	19707
593.876	20031.28
594.235	20238.06
594.593	20685.95
594.952	20901.31
595.311	21130.91
595.67	21591.92
596.029	21999.14
596.387	22258.12
596.746	22530.65
597.104	22773.36
597.463	23077.98
597.822	23463.06
598.18	23744.63
598.538	24232.53
598.897	24478.85
599.255	24649.24
599.613	25262.56
599.972	25346.4
600.33	25701.19
600.688	25988.86
601.046	26391.79
601.404	26759.47
601.762	26914.49
602.12	27385.21
602.478	27680.12
602.836	27941.36
603.194	28161.69
603.552	28484.39
603.91	28568.68
604.268	29109.69
604.625	29370.47
604.983	29692.27
605.341	29759.16
605.698	30133.84
606.056	30526.6
606.413	30737.89
606.771	31061.5
607.128	31378.78
607.485	31436.86
607.843	31834.36
608.2	32231.64
608.557	32404.97
608.914	32605.64
609.272	33071.39
609.629	33277.71
609.986	33524.03
610.343	33585.5
610.7	34043.79
611.057	34230.91
611.414	34339.15
611.771	34546.83
612.127	34917.67
612.484	34995.41
612.841	35244.67
613.198	35438.56
613.554	35553.36
613.911	36049.62
614.267	36189.5
614.624	36284.87
614.98	36521.7
615.337	36806.89
615.693	36980.67
616.05	37104.5
616.406	37360.77
616.762	37499.3
617.118	37772.96
617.475	37819.06
617.831	38013.86
618.187	38288.43
618.543	38432.38
618.899	38716.67
619.255	38709.21
619.611	38923.67
619.967	39109.2
620.323	39306.03
620.678	39375.63
621.034	39285.01
621.39	39463.54
621.746	39441.17
622.101	40108.49
622.457	39797.09
622.812	40022.62
623.168	40218.55
623.523	40278.88
623.879	40633.23
624.234	40386.45
624.589	40572.21
624.945	40717.97
625.3	40929.49
625.655	40928.81
626.01	40955.48
626.365	41015.81
626.72	41136.49
627.075	41101.24
627.43	41207.45
627.785	41165.19
628.14	41295.81
628.495	41505.74
628.85	41496.71
629.205	41333.32
629.559	41661.67
629.914	41485.86
630.269	41644.95
630.623	41632.52
630.978	41646.53
631.332	41846.98
631.687	41830.71
632.041	41769.01
632.396	41916.13
632.75	41862.12
633.104	42002.23
633.459	41781.44
633.813	41921.33
634.167	41910.25
634.521	42048.78
634.875	42099.85
635.229	41925.17
635.583	41936.24
635.937	41954.32
636.291	41945.06
636.645	42018.5
636.999	41967.65
637.352	42025.96
637.706	41895.34
638.06	42017.14
638.413	41919.97
638.767	41887.43
639.121	42034.09
639.474	41883.36
639.828	41899.41
640.181	42053.08
640.534	41960.65
640.888	41922.91
641.241	41745.29
641.594	41875.45
641.947	41985.96
642.301	41877.03
642.654	41954.09
643.007	41909.35
643.36	41914.77
643.713	41770.6
644.066	41915.23
644.419	41745.74
644.771	41378.06
645.124	41147.34
645.477	41047.68
645.83	41000.22
646.182	40936.49
646.535	40733.56
646.888	40779.21
647.24	40806.1
647.593	41004.29
647.945	40639.33
648.298	40639.78
648.65	40632.55
649.002	40532.66
649.355	40630.51
649.707	40638.65
650.059	40783.73
650.411	41257.62
650.763	41389.36
651.115	41593.65
651.467	41494.45
651.819	41442.92
652.171	41395.01
652.523	41355.47
652.875	41425.29
653.227	41218.07
653.578	41564.95
653.93	41384.84
654.282	41255.36
654.633	41192.08
654.985	41374
655.337	41357.5
655.688	41240.22
656.039	41428.01
656.391	41289.48
656.742	41277.95
657.094	41324.28
657.445	41357.73
657.796	41327.44
658.147	41316.6
658.498	41186.21
658.849	41234.11
659.2	41293.77
659.551	41115.02
659.902	41351.4
660.253	41170.16
660.604	41226.88
660.955	41052.2
661.306	41313.89
661.656	41271.4
662.007	41107.79
662.358	41116.15
662.708	41089.94
663.059	41113.44
663.409	40993.89
663.76	41331.51
664.11	41189.14
664.461	41214
664.811	41178.75
665.161	41136.49
665.511	40984.4
665.862	41047.9
666.212	41204.96
666.562	41154.79
666.912	41166.09
667.262	41039.09
667.612	41082.93
667.962	41056.72
668.312	40927.91
668.662	41191.63
669.011	41119.31
669.361	41002.03
669.711	40928.58
670.06	40928.36
670.41	40831.64
670.76	40880.9
671.109	41035.93
671.459	40977.17
671.808	41013.33
672.157	41131.52
672.507	40645.65
672.856	40846.1
673.205	40812.88
673.554	40897.17
673.904	40737.18
674.253	40998.19
674.602	40822.6
674.951	40306.23
675.3	40149.4
675.649	40711.64
675.998	40622.6
676.346	40738.99
676.695	40806.78
677.044	40463.96
677.393	40618.08
677.741	40640.91
678.09	40612.21
678.438	40337.19
678.787	40543.96
679.135	40534.02
679.484	40306.23
679.832	40517.52
680.181	40149.17
680.529	40431.87
680.877	40283.18
681.225	40044.31
681.573	40443.63
681.922	40135.39
682.27	40165.67
682.618	40026.69
682.966	39947.82
683.314	39885.22
683.661	39933.36
684.009	39695.4
684.357	39785.34
684.705	39658.11
685.053	39723.42
685.4	39740.82
685.748	39472.8
686.095	39550.32
686.443	39296.76
686.79	39329.08
687.138	39354.61
687.485	39379.47
687.832	39126.82
688.18	39215.64
688.527	39017.45
688.874	39065.58
689.221	38860.39
689.568	38845.93
689.915	38777
690.262	38722.32
690.609	38607.29
690.956	38538.82
691.303	38482.32
691.65	38206.17
691.997	38400.29
692.344	38116.91
692.69	38010.7
693.037	38198.49
693.383	37843.47
693.73	37916.23
694.077	37755.56
694.423	37735
694.769	37545.17
695.116	37447.09
695.462	37554.89
695.808	37259.75
696.155	37428.56
696.501	37119.19
696.847	37242.35
697.193	36899.99
697.539	36955.13
697.885	36777.06
698.231	36570.73
698.577	36758.75
698.923	36584.74
699.269	36467.91
699.614	36260.91
699.96	36184.08
700.306	36282.15
700.651	35924.65
700.997	35953.35
701.342	35956.06
701.688	35910.41
702.033	35608.95
702.379	35699.34
702.724	35493.93
703.069	35745.67
703.415	35296.87
703.76	35322.86
704.105	35278.11
704.45	35289.19
704.795	35065.01
705.14	35122.64
705.485	35088.96
705.83	34825.47
706.175	34781.63
706.52	34832.7
706.865	34623.89
707.209	34583.67
707.554	34471.58
707.899	34581.18
708.243	34419.38
708.588	34226.16
708.932	34074.3
709.277	34138.03
709.621	34137.35
709.966	33957.47
710.31	33984.81
710.654	33632.28
710.998	33710.92
711.342	33716.35
711.687	33639.51
712.031	33469.35
712.375	33409.91
712.719	33420.99
713.063	33344.15
713.407	33435.45
713.75	33275.23
714.094	33274.1
714.438	33074.33
714.782	33135.34
715.125	32804.5
715.469	33016.25
715.812	32809.25
716.156	32695.13
716.499	32774
716.843	32848.57
717.186	32552.08
717.53	32738.74
717.873	32605.64
718.216	32614
718.559	32528.13
718.902	32212.43
719.246	32364.29
719.589	32231.64
719.932	32094.01
720.275	32032.32
720.617	32079.1
720.96	31985.77
721.303	31960.01
721.646	32039.78
721.989	31851.76
722.331	31983.96
722.674	31714.82
723.016	31691.54
723.359	31621.94
723.701	31624.42
724.044	31501.94
724.386	31367.71
724.729	31548.27
725.071	31435.05
725.413	31269.86
725.755	31369.51
726.097	31257.88
726.439	31107.83
726.782	31207.03
727.124	31245.68
727.465	31066.7
727.807	30926.81
728.149	31062.4
728.491	30960.26
728.833	30938.34
729.175	30778.34
729.516	30648.4
729.858	30785.12
730.199	30813.6
730.541	30708.51
730.882	30636.88
731.224	30565.47
731.565	30429.2
731.906	30520.04
732.248	30476.66
732.589	30373.83
732.93	30238.92
733.271	30157.12
733.612	30348.07
733.953	30248.87
734.294	30201.86
734.635	30082.32
734.976	30175.87
735.317	30092.26
735.658	30017.91
735.999	29909.89
736.339	29930.23
736.68	30064.92
737.021	29757.81
737.361	29708.99
737.702	29939.5
738.042	29903.79
738.383	29786.28
738.723	29741.08
739.063	29596.91
739.404	29648.66
739.744	29641.42
740.084	29446.17
740.424	29288.21
740.764	29365.05
741.104	29589.22
741.444	29404.82
741.784	29335.22
742.124	29383.13
742.464	29294.31
742.804	29162.34
743.143	29147.88
743.483	29170.93
743.823	29010.48
744.162	29080.76
744.502	29040.31
744.841	28920.99
745.181	28976.13
745.52	28914.44
745.86	28903.14
746.199	28824.5
746.538	28637.38
746.877	28836.02
747.216	28727.1
747.556	28685.52
747.895	28673.31
748.234	28558.06
748.573	28587.89
748.911	28674.9
749.25	28590.38
749.589	28410.04
749.928	28477.61
750.267	28461.34
750.605	28385.86
750.944	28251.86
751.283	28173.67
751.621	28298.63
751.96	28083.72
752.298	28102.71
752.636	28043.73
752.975	27903.62
753.313	27843.51
753.651	28012.09
753.989	27860.45
754.327	27725.99
754.666	27625.21
755.004	27591.31
755.342	27681.93
755.679	27593.34
756.017	27479.9
756.355	27591.31
756.693	27397.42
757.031	27423.18
757.368	27264.09
757.706	27255.5
758.044	27158.78
758.381	27139.34
758.719	27104.99
759.056	27112.45
759.394	27017.54
759.731	26871.1
760.068	26742.74
760.405	26626.81
760.743	26577.1
761.08	26621.16
761.417	26563.54
761.754	26450.77
762.091	26392.47
762.428	26324.45
762.765	26100.73
763.102	26253.49
763.438	26009.43
763.775	25920.39
764.112	26028.41
764.449	25962.88
764.785	25740.28
765.122	25727.18
765.458	25670.68
765.795	25543.68
766.131	25493.51
766.467	25478.37
766.804	25368.54
767.14	25237.02
767.476	25148.21
767.812	25021.43
768.148	25132.16
768.485	25037.48
768.821	24760.42
769.157	24758.39
769.492	24674.55
769.828	24629.35
770.164	24413.54
770.5	24288.34
770.836	24367.66
771.171	24169.25
771.507	24210.83
771.842	24059.42
772.178	24094.9
772.513	23937.62
772.849	24001.35
773.184	23759.77
773.519	23823.5
773.855	23626.67
774.19	23460.34
774.525	23512.77
774.86	23520
775.195	23491.3
775.53	23314.13
775.865	23286.56
776.2	23073.91
776.535	22911.88
776.87	22933.13
777.205	22866.69
777.539	22734.71
777.874	22686.13
778.209	22640.7
778.543	22543.31
778.878	22328.17
779.212	22282.3
779.547	22148.74
779.881	22281.17
780.215	22064.22
780.55	22135.63
780.884	21892.93
781.218	21790.56
781.552	21982.42
781.886	21763.21
782.22	21682.09
782.554	21562.09
782.888	21331.59
783.222	21378.59
783.556	21324.81
783.889	21211.14
784.223	21136.56
784.557	20981.31
784.89	21003.23
785.224	20886.85
785.557	20872.16
785.891	20764.37
786.224	20771.83
786.558	20622.68
786.891	20559.85
787.224	20477.15
787.557	20435.79
787.891	20423.81
788.224	20280.54
788.557	20268.56
788.89	20201.9
789.223	20290.03
789.556	20042.35
789.888	20075.35
790.221	19849.37
790.554	19767.33
790.887	19755.36
791.219	19636.26
791.552	19622.25
791.884	19547.9
792.217	19437.17
792.549	19519.66
792.882	19279.21
793.214	19169.83
793.546	19256.61
793.879	19172.77
794.211	19011.2
794.543	19140.23
794.875	18970.52
795.207	19111.76
795.539	18946.34
795.871	18872.67
796.203	18803.52
796.535	18639
796.867	18578.66
797.198	18662.5
797.53	18596.06
797.862	18349.97
798.193	18444.2
798.525	18237.88
798.856	18308.16
799.188	18060.03
799.519	18099.13
799.85	18017.1
800.182	18019.58
800.513	18012.35
800.844	17859.36
801.175	17923.77
801.506	17881.06
801.837	17807.16
802.168	17656.2
802.499	17584.34
802.83	17557
803.161	17534.62
803.491	17430.9
803.822	17472.48
804.153	17328.08
804.483	17285.82
804.814	17205.37
805.145	17207.63
805.475	17197.68
805.805	17117.01
806.136	17114.3
806.466	17019.61
806.796	17064.81
807.126	16836.11
807.457	16852.16
807.787	16825.26
808.117	16691.93
808.447	16679.28
808.777	16738.71
809.107	16610.81
809.436	16587.98
809.766	16561.99
810.096	16487.87
810.426	16455.1
810.755	16546.63
811.085	16330.36
811.414	16351.15
811.744	16212.4
812.073	16264.83
812.403	16234.77
812.732	16066.41
813.061	15992.07
813.39	16035.45
813.719	15982.8
814.049	16092.4
814.378	15962.24
814.707	15884.05
815.036	15870.26
815.365	15819.64
815.693	15647.67
816.022	15710.04
816.351	15665.29
816.68	15589.14
817.008	15672.75
817.337	15496.03
817.665	15411.06
817.994	15503.72
818.322	15430.27
818.651	15378.07
818.979	15347.11
819.307	15374.45
819.636	15364.74
819.964	15187.79
820.292	15351.18
820.62	15238.41
820.948	15266.89
821.276	15161.13
821.604	15202.71
821.932	15225.98
822.259	15200.67
822.587	15149.6
822.915	15136.72
823.243	15167.23
823.57	15157.74
823.898	15072.32
824.225	15043.84
824.553	15028.93
824.88	15034.12
825.207	15138.98
825.535	15079.55
825.862	15112.77
826.189	14991.41
826.516	15033.9
826.843	15153.67
827.17	15103.05
827.497	15195.7
827.824	15101.24
828.151	15060.34
828.478	15091.75
828.805	15200.45
829.131	15077.74
829.458	15084.97
829.785	14950.28
830.111	14985.09
830.438	15157.96
830.764	15097.4
831.09	14967.46
831.417	14963.17
831.743	15003.39
832.069	15011.3
832.395	14924.52
832.722	14979.89
833.048	14942.83
833.374	14994.58
833.7	14914.81
834.026	14905.99
834.351	14960.45
834.677	14863.73
835.003	14898.99
835.329	14833.68
835.654	14861.93
835.98	14844.52
836.306	14854.02
836.631	14740.8
836.956	14883.39
837.282	14801.81
837.607	14692.21
837.932	14754.58
838.258	14681.14
838.583	14737.18
838.908	14638.2
839.233	14593.91
839.558	14609.95
839.883	14508.49
840.208	14536.74
840.533	14503.52
840.858	14433.01
841.182	14512.78
841.507	14379.9
841.832	14365.22
842.156	14411.99
842.481	14392.11
842.805	14259.91
843.13	14291.32
843.454	14249.51
843.778	14215.16
844.103	14149.63
844.427	14085.67
844.751	14147.59
845.075	14088.16
845.399	14053.81
845.723	13908.05
846.047	13959.12
846.371	13784.89
846.695	13857.88
847.019	13837.32
847.343	13699.7
847.666	13648.17
847.99	13589.64
848.313	13574.28
848.637	13375.64
848.96	13415.64
849.284	13374.96
849.607	13315.75
849.931	13328.41
850.254	13178.81
850.577	13123.89
850.9	13044.12
851.223	12975.2
851.546	12911.47
851.869	12850
852.192	12950.11
852.515	12810.23
852.838	12752.6
853.161	12777.23
853.483	12640.06
853.806	12687.52
854.129	12591.02
854.451	12520.07
854.774	12519.84
855.096	12445.72
855.419	12386.74
855.741	12436.23
856.063	12244.59
856.385	12279.39
856.708	12235.33
857.03	12293.41
857.352	12221.54
857.674	12180.64
857.996	12073.3
858.318	12127.31
858.64	12089.57
858.961	11990.81
859.283	11979.06
859.605	11960.31
859.926	11916.24
860.248	11883.7
860.57	11901.78
860.891	11871.27
861.212	11827.43
861.534	11799.18
861.855	11825.17
862.176	11728.67
862.498	11699.52
862.819	11690.03
863.14	11696.81
863.461	11616.59
863.782	11614.33
864.103	11581.56
864.424	11544.5
864.745	11696.36
865.065	11501.11
865.386	11491.39
865.707	11401.45
866.027	11492.3
866.348	11435.58
866.668	11394.45
866.989	11433.32
867.309	11332.53
867.63	11338.18
867.95	11329.14
868.27	11244.17
868.59	11323.49
868.91	11280.55
869.23	11241.91
869.55	11208.91
869.87	11292.75
870.19	11272.19
870.51	11258.63
870.83	11255.01
871.15	11120.1
871.469	11078.75
871.789	11180.44
872.109	11167.11
872.428	11066.55
872.748	11116.71
873.067	11076.94
873.386	11041.24
873.706	11012.76
874.025	10919.2
874.344	10859.77
874.663	10921.01
874.982	10920.56
875.301	10848.25
875.62	10897.96
875.939	10849.6
876.258	10885.08
876.577	10802.6
876.896	10852.54
877.214	10796.95
877.533	10785.2
877.852	10718.53
878.17	10793.11
878.489	10723.73
878.807	10755.82
879.125	10755.37
879.444	10675.37
879.762	10604.41
880.08	10696.39
880.398	10594.47
880.716	10578.65
881.034	10584.98
881.352	10557.63
881.67	10504.98
881.988	10533
882.306	10553.56
882.624	10429.5
882.941	10467.92
883.259	10351.08
883.577	10374.36
883.894	10333.91
884.212	10298.43
884.529	10381.82
884.846	10329.84
885.164	10289.62
885.481	10229.28
885.798	10235.38
886.115	10173.91
886.432	10146.12
886.75	10117.19
887.067	10169.39
887.383	10125.33
887.7	10120.36
888.017	10074.48
888.334	9992.68
888.651	10003.75
888.967	10020.02
889.284	9972.56
889.6	9902.06
889.917	9847.37
890.233	9836.52
890.55	9843.3
890.866	9806.92
891.182	9760.36
891.498	9760.36
891.815	9736.64
892.131	9729.63
892.447	9622.52
892.763	9630.88
893.079	9589.75
893.395	9528.28
893.71	9509.52
894.026	9502.07
894.342	9546.36
894.657	9440.6
894.973	9451.9
895.289	9404.22
895.604	9432.92
895.92	9349.08
896.235	9252.36
896.55	9302.3
896.865	9251.23
897.181	9262.07
897.496	9241.73
897.811	9175.07
898.126	9139.82
898.441	9138.91
898.756	9073.83
899.071	9044.68
899.386	9043.77
899.7	9011.68
900.015	8920.16
900.33	8815.76
900.644	8832.03
900.959	8892.37
901.273	8822.31
901.588	8802.65
901.902	8799.71
902.216	8660.73
902.531	8719.26
902.845	8639.94
903.159	8578.25
903.473	8611.69
903.787	8581.19
904.101	8514.75
904.415	8502.77
904.729	8455.54
905.042	8424.35
905.356	8383.23
905.67	8397.46
905.984	8336.22
906.297	8375.99
906.611	8272.95
906.924	8277.01
907.237	8211.03
907.551	8233.63
907.864	8181.2
908.177	8149.11
908.491	8218.03
908.804	8081.54
909.117	7996.8
909.43	7994.08
909.743	7932.62
910.056	7944.82
910.368	7868.66
910.681	7891.71
910.994	7839.06
911.307	7859.62
911.619	7717.71
911.932	7772.85
912.244	7685.39
912.557	7704.83
912.869	7640.42
913.181	7597.03
913.494	7613.08
913.806	7622.34
914.118	7503.02
914.43	7460.54
914.742	7441.1
915.054	7483.14
915.366	7477.49
915.678	7384.38
915.99	7395
916.302	7259.64
916.613	7312.97
916.925	7287.44
917.236	7252.41
917.548	7140.77
917.859	7143.71
918.171	7141.9
918.482	7097.61
918.794	7050.38
919.105	7100.55
919.416	7021.45
919.727	7002.7
920.038	7003.38
920.349	6899.65
920.66	6925.86
920.971	6889.71
921.282	6838.86
921.593	6781.23
921.903	6774
922.214	6770.61
922.525	6719.54
922.835	6684.97
923.146	6655.59
923.456	6609.04
923.767	6600.45
924.077	6556.61
924.387	6520.9
924.697	6434.12
925.008	6442.94
925.318	6489.04
925.628	6475.48
925.938	6376.05
926.248	6362.94
926.558	6363.84
926.867	6319.33
927.177	6337.18
927.487	6276.84
927.796	6187.13
928.106	6187.58
928.416	6182.83
928.725	6204.98
929.034	6103.74
929.344	6130.63
929.653	6105.55
929.962	6065.09
930.271	5997.3
930.581	6009.73
930.89	5946.45
931.199	5964.08
931.508	5935.15
931.817	5909.62
932.125	5925.89
932.434	5883.4
932.743	5831.2
933.051	5861.48
933.36	5796.4
933.669	5698.55
933.977	5754.37
934.286	5675.95
934.594	5709.4
934.902	5649.96
935.21	5606.12
935.519	5592.34
935.827	5598.21
936.135	5572.9
936.443	5479.12
936.751	5496.52
937.059	5490.42
937.367	5472.79
937.674	5455.39
937.982	5430.54
938.29	5402.74
938.597	5413.36
938.905	5321.61
939.213	5323.87
939.52	5303.08
939.827	5306.7
940.135	5256.53
940.442	5230.77
940.749	5228.73
941.056	5240.26
941.363	5113.03
941.67	5142.41
941.977	5098.79
942.284	5103.99
942.591	5095.63
942.898	5059.02
943.205	5045.46
943.511	5021.73
943.818	5048.17
944.125	4967.04
944.431	4959.81
944.738	4937.89
945.044	4922.75
945.35	4893.83
945.657	4869.42
945.963	4845.24
946.269	4802.98
946.575	4805.24
946.881	4771.34
947.187	4746.03
947.493	4751.68
947.799	4700.38
948.105	4665.81
948.41	4697.22
948.716	4693.15
949.022	4666.04
949.327	4604.34
949.633	4602.76
949.938	4649.09
950.244	4555.98
950.549	4563.89
950.854	4524.8
951.16	4470.33
951.465	4485.7
951.77	4458.13
952.075	4412.48
952.38	4386.49
952.685	4403.67
952.99	4392.6
953.294	4365.48
953.599	4329.1
953.904	4344.24
954.209	4301.98
954.513	4293.16
954.818	4273.05
955.122	4238.7
955.426	4213.17
955.731	4234.18
956.035	4165.94
956.339	4195.09
956.643	4155.54
956.948	4117.35
957.252	4146.28
957.556	4140.85
957.86	4105.82
958.163	4073.96
958.467	4042.1
958.771	4010.69
959.075	4007.3
959.378	4014.08
959.682	4001.19
959.985	3982.89
960.289	3971.82
960.592	3921.65
960.896	3889.78
961.199	3903.34
961.502	3907.41
961.805	3825.38
962.108	3867.86
962.411	3798.71
962.714	3821.31
963.017	3824.93
963.32	3761.2
963.623	3784.02
963.926	3757.13
964.228	3726.63
964.531	3699.51
964.833	3731.82
965.136	3635.33
965.438	3652.95
965.741	3639.85
966.043	3589.91
966.345	3620.64
966.648	3621.09
966.95	3624.93
967.252	3595.33
967.554	3544.26
967.856	3502.45
968.158	3473.98
968.46	3507.42
968.761	3522.34
969.063	3491.15
969.365	3437.14
969.666	3470.13
969.968	3438.5
970.269	3407.54
970.571	3388.33
970.872	3385.39
971.174	3397.82
971.475	3380.19
971.776	3341.32
972.077	3332.29
972.378	3298.61
972.679	3307.65
972.98	3259.29
973.281	3294.55
973.582	3250.71
973.883	3239.18
974.183	3243.7
974.484	3229.24
974.785	3208.22
975.085	3197.37
975.386	3197.15
975.686	3157.37
975.986	3145.4
976.287	3112.86
976.587	3164.83
976.887	3124.61
977.187	3142.01
977.487	3106.53
977.787	3070.37
978.087	3051.61
978.387	3040.99
978.687	3030.82
978.987	3000.32
979.286	2973.2
979.586	3007.55
979.885	2968
980.185	2942.24
980.484	2969.58
980.784	2931.17
981.083	2943.82
981.382	2901.34
981.682	2925.29
981.981	2916.93
982.28	2903.14
982.579	2820.66
982.878	2837.61
983.177	2859.76
983.475	2856.37
983.774	2791.06
984.073	2784.5
984.372	2768.23
984.67	2736.59
984.969	2778.63
985.267	2766.65
985.566	2744.5
985.864	2698.63
986.162	2718.29
986.461	2703.83
986.759	2651.4
987.057	2650.27
987.355	2670.38
987.653	2659.53
987.951	2630.38
988.249	2637.16
988.547	2619.76
988.844	2626.32
989.142	2611.63
989.44	2597.16
989.737	2543.15
990.035	2555.81
990.332	2516.04
990.63	2545.64
990.927	2496.6
991.224	2493.21
991.521	2489.82
991.819	2508.58
992.116	2475.13
992.413	2475.36
992.71	2414.34
993.006	2430.16
993.303	2417.73
993.6	2403.72
993.897	2389.03
994.193	2399.43
994.49	2370.5
994.787	2360.33
995.083	2365.98
995.379	2361.01
995.676	2316.49
995.972	2291.41
996.268	2340.67
996.565	2284.4
996.861	2293.89
997.157	2298.87
997.453	2231.75
997.749	2283.5
998.044	2258.19
998.34	2265.42
998.636	2244.86
998.932	2193.78
999.227	2197.63
999.523	2194.91
999.818	2162.82
1000.114	2175.48
1000.409	2151.75
1000.704	2143.39
1001	2154.24
1001.295	2145.65
1001.59	2095.26
1001.885	2094.35
1002.18	2108.81
1002.475	2065.88
1002.77	2051.87
1003.065	2047.8
1003.359	2032.21
1003.654	2056.16
1003.949	2066.56
1004.243	2025.2
1004.538	1998.54
1004.832	2011.42
1005.127	1981.59
1005.421	1992.89
1005.715	1929.84
1006.009	1957.18
1006.304	1948.14
1006.598	1899.55
1006.892	1913.34
1007.186	1907.24
1007.48	1889.61
1007.773	1878.54
1008.067	1866.34
1008.361	1868.14
1008.655	1848.26
1008.948	1854.81
1009.242	1879.22
1009.535	1821.82
1009.829	1820.23
1010.122	1767.81
1010.415	1779.11
1010.708	1758.32
1011.001	1766
1011.295	1751.31
1011.588	1756.06
1011.881	1719.45
1012.173	1723.97
1012.466	1725.55
1012.759	1707.02
1013.052	1705.21
1013.344	1706.57
1013.637	1709.05
1013.93	1664.98
1014.222	1654.14
1014.514	1650.3
1014.807	1630.86
1015.099	1648.26
1015.391	1635.38
1015.683	1631.77
1015.976	1591.99
1016.268	1625.89
1016.56	1584.31
1016.851	1561.71
1017.143	1557.42
1017.435	1556.51
1017.727	1562.16
1018.018	1542.05
1018.31	1530.3
1018.602	1525.55
1018.893	1484.42
1019.185	1500.7
1019.476	1494.37
1019.767	1490.07
1020.058	1450.07
1020.35	1448.94
1020.641	1453.92
1020.932	1432.22
1021.223	1407.59
1021.514	1434.93
1021.804	1410.08
1022.095	1408.72
1022.386	1420.7
1022.677	1387.93
1022.967	1389.74
1023.258	1346.35
1023.548	1366.46
1023.839	1342.51
1024.129	1360.36
1024.419	1356.29
1024.709	1336.41
1025	1324.2
1025.29	1314.03
1025.58	1307.71
1025.87	1302.96
1026.16	1270.19
1026.449	1287.59
1026.739	1260.25
1027.029	1245.56
1027.319	1234.49
1027.608	1248.5
1027.898	1263.64
1028.187	1220.7
1028.477	1219.12
1028.766	1227.26
1029.055	1187.71
1029.344	1188.16
1029.634	1193.36
1029.923	1171.66
1030.212	1157.65
1030.501	1152.91
1030.79	1125.11
1031.078	1158.11
1031.367	1134.83
1031.656	1135.05
1031.945	1119.24
1032.233	1154.72
1032.522	1123.08
1032.81	1122.85
1033.099	1096.19
1033.387	1108.84
1033.675	1081.72
1033.963	1057.54
1034.251	1039.01
1034.54	1046.47
1034.828	1074.27
1035.116	1038.79
1035.403	1039.92
1035.691	1033.36
1035.979	1018.67
1036.267	1030.2
1036.554	1033.81
1036.842	1018.9
1037.129	1003.31
1037.417	990.2
1037.704	983.42
1037.992	973.93
1038.279	956.3
1038.566	986.13
1038.853	986.13
1039.14	986.13
