Data from hue_32_FLMS001491_00002.txt Node
Date: Tue Feb 07 17:22:49 GMT 2017
User: dcchb
Spectrometer: FLMS00149
Trigger mode: 0
Integration Time (sec): 2.000000E-2
Scans to average: 10
Electric dark correction enabled: true
Nonlinearity correction enabled: false
Boxcar width: 0
XAxis mode: Wavelengths
Number of Pixels in Spectrum: 2048
>>>>>Begin Spectral Data<<<<<
341.393	-10.03
341.776	-10.03
342.16	-10.03
342.543	-55.68
342.927	-74.89
343.31	-74.66
343.693	-71.27
344.077	-77.6
344.46	-44.15
344.843	-52.06
345.226	-48.45
345.61	-30.59
345.993	-14.32
346.376	-17.94
346.759	24.77
347.142	39.69
347.525	39.91
347.908	46.92
348.291	70.42
348.674	92.79
349.057	116.52
349.44	116.07
349.823	149.06
350.206	158.1
350.588	201.04
350.971	220.02
351.354	217.99
351.737	241.94
352.119	268.61
352.502	266.12
352.884	284.43
353.267	302.96
353.65	302.05
354.032	302.28
354.414	318.78
354.797	309.74
355.179	319.68
355.562	329.17
355.944	339.34
356.326	334.82
356.709	370.08
357.091	327.14
357.473	341.15
357.855	346.12
358.238	338.21
358.62	314.03
359.002	343.86
359.384	338.44
359.766	363.52
360.148	359
360.53	353.58
360.912	338.66
361.294	331.66
361.676	352
362.057	352.67
362.439	334.14
362.821	319.45
363.203	347.48
363.584	340.92
363.966	338.89
364.348	338.21
364.729	320.13
365.111	324.65
365.493	323.07
365.874	332.11
366.256	316.74
366.637	290.76
367.019	315.39
367.4	325.33
367.781	310.64
368.163	317.42
368.544	303.86
368.925	320.58
369.306	319.91
369.688	320.58
370.069	299.34
370.45	313.58
370.831	315.61
371.212	342.05
371.593	318.32
371.974	331.21
372.355	318.1
372.736	310.64
373.117	333.47
373.498	330.53
373.879	328.27
374.26	316.97
374.641	324.65
375.021	339.12
375.402	329.4
375.783	332.56
376.163	346.12
376.544	335.5
376.925	344.54
377.305	329.4
377.686	345.89
378.066	344.76
378.447	329.4
378.827	322.17
379.208	324.88
379.588	336.86
379.968	295.73
380.349	330.98
380.729	363.3
381.109	328.04
381.489	341.6
381.87	361.71
382.25	333.01
382.63	348.61
383.01	355.61
383.39	322.17
383.77	351.32
384.15	373.01
384.53	360.81
384.91	354.93
385.29	359
385.67	354.26
386.049	362.84
386.429	366.23
386.809	355.61
387.189	369.85
387.568	370.08
387.948	347.7
388.328	371.66
388.707	383.41
389.087	358.1
389.466	384.76
389.846	377.53
390.225	380.24
390.605	381.83
390.984	373.01
391.363	377.53
391.743	367.82
392.122	391.32
392.501	377.08
392.881	380.7
393.26	370.08
393.639	374.59
394.018	379.34
394.397	379.79
394.776	382.28
395.155	390.41
395.534	370.3
395.913	391.54
396.292	390.64
396.671	384.54
397.05	403.75
397.429	378.66
397.808	416.63
398.186	399.9
398.565	386.8
398.944	397.87
399.323	390.87
399.701	384.54
400.08	412.56
400.458	410.53
400.837	393.13
401.215	400.13
401.594	412.11
401.972	406.91
402.351	403.52
402.729	422.73
403.107	414.37
403.486	425.44
403.864	423.86
404.242	433.58
404.62	425.89
404.999	421.83
405.377	431.54
405.755	437.19
406.133	434.25
406.511	426.8
406.889	450.07
407.267	430.41
407.645	424.76
408.023	458.21
408.401	453.46
408.779	453.91
409.156	441.49
409.534	446.68
409.912	463.86
410.29	469.28
410.667	480.13
411.045	450.75
411.422	483.29
411.8	473.35
412.178	479.68
412.555	472.9
412.933	485.78
413.31	481.48
413.687	497.3
414.065	474.48
414.442	485.1
414.819	495.95
415.197	502.73
415.574	494.14
415.951	502.27
416.328	520.58
416.705	504.31
417.082	506.79
417.46	511.99
417.837	534.59
418.214	531.88
418.591	521.71
418.967	533.69
419.344	544.08
419.721	511.99
420.098	506.57
420.475	535.95
420.852	545.44
421.228	548.38
421.605	541.37
421.982	546.79
422.358	547.7
422.735	561.71
423.111	561.26
423.488	569.17
423.864	556.74
424.241	582.95
424.617	567.81
424.994	560.13
425.37	576.62
425.746	599.22
426.123	594.7
426.499	569.17
426.875	595.38
427.251	587.92
427.627	634.93
428.003	599
428.379	616.4
428.756	608.26
429.132	609.16
429.507	634.7
429.883	624.53
430.259	642.61
430.635	644.64
431.011	616.4
431.387	630.86
431.763	662.72
432.138	645.32
432.514	673.8
432.89	689.16
433.265	684.42
433.641	678.77
434.016	699.33
434.392	703.4
434.767	701.14
435.143	705.66
435.518	711.76
435.894	704.3
436.269	710.86
436.644	727.58
437.02	714.02
437.395	727.35
437.77	758.99
438.145	758.77
438.52	746.56
438.895	772.78
439.271	756.51
439.646	767.8
440.021	780.01
440.395	763.74
440.77	773.23
441.145	801.02
441.52	801.93
441.895	801.7
442.27	793.79
442.645	784.53
443.019	820.91
443.394	831.53
443.769	819.55
444.143	803.06
444.518	807.8
444.892	807.58
445.267	870.17
445.641	815.94
446.016	839.89
446.39	832.89
446.764	854.81
447.139	858.88
447.513	862.27
447.887	857.29
448.262	841.48
448.636	833.34
449.01	880.8
449.384	888.71
449.758	873.79
450.132	885.77
450.506	898.87
450.88	909.5
451.254	923.51
451.628	935.26
452.002	932.55
452.376	921.25
452.75	939.78
453.123	951.98
453.497	958.76
453.871	962.6
454.244	979.55
454.618	991.3
454.992	965.77
455.365	983.84
455.739	1012.77
456.112	1011.19
456.486	1040.11
456.859	1025.43
457.232	1055.71
457.606	1053.67
457.979	1058.19
458.352	1082.82
458.725	1085.76
459.099	1080.56
459.472	1110.62
459.845	1149.49
460.218	1134.35
460.591	1134.35
460.964	1127.12
461.337	1176.83
461.71	1208.92
462.083	1207.79
462.456	1207.57
462.829	1244.63
463.201	1233.33
463.574	1215.02
463.947	1248.02
464.32	1253.44
464.692	1285.98
465.065	1288.92
465.438	1309.49
465.81	1352.2
466.183	1361.91
466.555	1363.04
466.928	1391.97
467.3	1401.69
467.672	1412.08
468.045	1444.85
468.417	1456.15
468.789	1465.41
469.161	1491.63
469.534	1520.78
469.906	1553.32
470.278	1550.83
470.65	1564.17
471.022	1618.4
471.394	1637.16
471.766	1665.18
472.138	1674.22
472.51	1733.88
472.882	1750.38
473.253	1787.66
473.625	1819.08
473.997	1837.38
474.369	1837.83
474.74	1888.45
475.112	1895.91
475.484	1942.01
475.855	1988.34
476.227	2017.04
476.598	2067.43
476.97	2115.11
477.341	2139.75
477.713	2216.81
478.084	2241.89
478.455	2300.87
478.827	2338.84
479.198	2407.08
479.569	2436.46
479.94	2509.45
480.311	2589
480.682	2597.36
481.053	2727.3
481.424	2766.4
481.795	2793.29
482.166	2862.89
482.537	2930.91
482.908	3032.38
483.279	3021.98
483.65	3120.51
484.021	3214.29
484.391	3272.6
484.762	3299.94
485.133	3382.65
485.503	3470.33
485.874	3599.59
486.244	3617.22
486.615	3696.32
486.985	3776.99
487.356	3868.51
487.726	3936.53
488.097	3998.23
488.467	4084.1
488.837	4191.9
489.207	4298.56
489.578	4364.77
489.948	4421.27
490.318	4522.73
490.688	4619.45
491.058	4672.33
491.428	4791.65
491.798	4852.89
492.168	4993.46
492.538	5072.55
492.908	5180.34
493.278	5230.74
493.648	5248.82
494.017	5356.16
494.387	5487.23
494.757	5524.74
495.126	5604.97
495.496	5681.12
495.866	5735.13
496.235	5815.13
496.605	5923.83
496.974	5982.58
497.344	6031.17
497.713	6103.26
498.082	6228.68
498.452	6270.48
498.821	6329.01
499.19	6420.31
499.559	6487.43
499.928	6506.64
500.298	6602.45
500.667	6749.34
501.036	6737.59
501.405	6844.93
501.774	6860.3
502.143	6973.74
502.512	6983.01
502.88	7081.08
503.249	7132.16
503.618	7155.89
503.987	7188.65
504.356	7319.95
504.724	7374.18
505.093	7394.75
505.462	7466.84
505.83	7495.31
506.199	7622.54
506.567	7761.29
506.936	7719.26
507.304	7827.51
507.672	7840.16
508.041	7926.94
508.409	8029.53
508.777	8090.78
509.145	8099.59
509.514	8139.59
509.882	8172.58
510.25	8197.44
510.618	8295.52
510.986	8331.22
511.354	8452.8
511.722	8527.37
512.09	8575.96
512.458	8566.24
512.826	8664.55
513.193	8679.01
513.561	8702.51
513.929	8811.89
514.297	8836.75
514.664	8961.26
515.032	8970.3
515.4	9099.11
515.767	9152.89
516.135	9134.82
516.502	9101.6
516.869	9227.92
517.237	9318.99
517.604	9227.02
517.972	9375.94
518.339	9432.21
518.706	9376.39
519.073	9515.15
519.44	9605.99
519.808	9627.68
520.175	9634.69
520.542	9756.49
520.909	9696.16
521.276	9799.88
521.643	9835.81
522.009	9897.06
522.376	10022.25
522.743	10034.23
523.11	10201.91
523.477	10189.7
523.843	10270.38
524.21	10348.57
524.577	10462.24
524.943	10545.63
525.31	10456.82
525.676	10561.67
526.043	10657.49
526.409	10655.68
526.776	10855
527.142	10785.17
527.508	10904.71
527.874	10966.41
528.241	11031.72
528.607	11151.71
528.973	11167.31
529.339	11141.09
529.705	11268.09
530.071	11409.56
530.437	11425.15
530.803	11474.42
531.169	11472.38
531.535	11537.92
531.901	11612.94
532.267	11693.85
532.632	11713.05
532.998	11791.24
533.364	11821.75
533.73	11890.22
534.095	12022.42
534.461	11993.72
534.826	12018.13
535.192	12101.52
535.557	12092.25
535.923	12176.54
536.288	12248.41
536.653	12287.28
537.019	12240.27
537.384	12407.27
537.749	12440.94
538.114	12501.73
538.479	12408.4
538.845	12643.88
539.21	12514.39
539.575	12646.59
539.94	12607.27
540.305	12844.32
540.67	12791.22
541.034	12896.98
541.399	12942.85
541.764	12945.56
542.129	12998.22
542.494	13125.67
542.858	13126.35
543.223	13073.47
543.587	13225.33
543.952	13181.72
544.316	13291.77
544.681	13288.38
545.045	13349.62
545.41	13453.35
545.774	13509.62
546.138	13567.69
546.503	13550.97
546.867	13522.27
547.231	13714.36
547.595	13753.68
547.959	13774.92
548.324	13795.26
548.688	13855.37
549.052	13924.52
549.416	13989.15
549.779	14021.47
550.143	14066.44
550.507	14216.72
550.871	14183.05
551.235	14207.68
551.599	14255.13
551.962	14289.93
552.326	14314.57
552.689	14389.82
553.053	14319.31
553.417	14418.75
553.78	14597.72
554.143	14520.44
554.507	14634.11
554.87	14660.32
555.234	14769.47
555.597	14675.01
555.96	14795.01
556.323	14921.1
556.686	14892.63
557.05	14964.04
557.413	15024.6
557.776	15064.6
558.139	15182.34
558.502	15147.31
558.865	15234.09
559.228	15385.05
559.59	15395.22
559.953	15376.91
560.316	15433.86
560.679	15534.87
561.041	15582.33
561.404	15625.95
561.767	15775.77
562.129	15690.8
562.492	15917.91
562.854	15918.82
563.217	15913.62
563.579	15951.81
563.941	16058.7
564.304	16033.17
564.666	16152.48
565.028	16123.79
565.39	16201.98
565.753	16344.57
566.115	16393.16
566.477	16352.71
566.839	16404.46
567.201	16551.57
567.563	16582.3
567.925	16617.78
568.287	16639.93
568.648	16740.72
569.01	16812.35
569.372	16931.9
569.734	17020.48
570.095	17067.94
570.457	17138.9
570.819	17205.11
571.18	17256.41
571.542	17379.8
571.903	17286.47
572.265	17483.07
572.626	17575.05
572.987	17609.4
573.349	17686.46
573.71	17840.35
574.071	17793.8
574.432	17919.67
574.794	18145.2
575.155	18091.87
575.516	18155.37
575.877	18276.5
576.238	18346.33
576.599	18638.3
576.96	18541.12
577.32	18648.92
577.681	18798.07
578.042	19009.81
578.403	19102.24
578.763	19172.52
579.124	19324.6
579.485	19550.14
579.845	19654.54
580.206	19740.64
580.566	19926.17
580.927	20077.35
581.287	20214.98
581.648	20454.07
582.008	20634.85
582.368	20849.54
582.728	20970.44
583.089	21086.14
583.449	21289.98
583.809	21507.37
584.169	21593.02
584.529	21776.29
584.889	22216.05
585.249	22292.89
585.609	22495.82
585.969	22670.96
586.329	22835.47
586.688	23235.24
587.048	23335.57
587.408	23611.05
587.768	23761.78
588.127	23964.26
588.487	24219.39
588.846	24625.03
589.206	24749.32
589.565	24933.5
589.925	25285.8
590.284	25551.79
590.643	25779.8
591.003	26135.5
591.362	26319
591.721	26623.85
592.08	26968.47
592.44	27088.02
592.799	27459.53
593.158	27560.55
593.517	27854.55
593.876	28142.23
594.235	28426.96
594.593	28733.17
594.952	28939.04
595.311	29102.88
595.67	29548.97
596.029	29856.31
596.387	30109.41
596.746	30424.43
597.104	30341.26
597.463	30802.72
597.822	31173.78
598.18	31217.4
598.538	31486.32
598.897	31827.78
599.255	31878.17
599.613	32520.42
599.972	32526.97
600.33	32720.18
600.688	33029.56
601.046	33267.29
601.404	33605.81
601.762	33720.84
602.12	33931.68
602.478	34150.88
602.836	34459.57
603.194	34421.84
603.552	34611.43
603.91	34848.49
604.268	35226.11
604.625	35181.82
604.983	35629.71
605.341	35718.75
605.698	35920.33
606.056	36330.94
606.413	36338.62
606.771	36460.43
607.128	36768.67
607.485	36795.78
607.843	37128.43
608.2	37303.79
608.557	37538.14
608.914	37455.2
609.272	37873.95
609.629	38014.96
609.986	38241.62
610.343	38244.79
610.7	38597.54
611.057	38760.7
611.414	38720.71
611.771	38950.08
612.127	39201.82
612.484	39231.88
612.841	39550.74
613.198	39620.57
613.554	39553.23
613.911	39942.14
614.267	40063.27
614.624	40030.95
614.98	40224.17
615.337	40545.52
615.693	40380.32
616.05	40644.27
616.406	40899.86
616.762	40838.62
617.118	40849.69
617.475	41149.12
617.831	41312.28
618.187	41332.39
618.543	41429.79
618.899	41782.55
619.255	41769.21
619.611	41832.94
619.967	41975.76
620.323	42186.83
620.678	41993.39
621.034	42010.34
621.39	42161.07
621.746	42235.64
622.101	42712.69
622.457	42425.47
622.812	42670.88
623.168	42697.55
623.523	42722.86
623.879	42857.77
624.234	42674.05
624.589	42773.03
624.945	42992.91
625.3	43145.22
625.655	42955.62
626.01	43136.86
626.365	43307.7
626.72	43194.94
627.075	43215.73
627.43	43253.02
627.785	43213.47
628.14	43362.39
628.495	43401.71
628.85	43439.45
629.205	43192.9
629.559	43583.85
629.914	43436.06
630.269	43514.7
630.623	43435.16
630.978	43326.46
631.332	43618.66
631.687	43619.79
632.041	43421.6
632.396	43653.91
632.75	43496.17
633.104	43552.44
633.459	43463.18
633.813	43453.91
634.167	43674.47
634.521	43529.39
634.875	43525.32
635.229	43427.47
635.583	43452.78
635.937	43566.45
636.291	43327.59
636.645	43409.85
636.999	43441.48
637.352	43327.14
637.706	43251.89
638.06	43479.45
638.413	43278.33
638.767	43265.9
639.121	43336.18
639.474	43032.68
639.828	43248.72
640.181	43294.6
640.534	43270.42
640.888	43204.43
641.241	43126.01
641.594	43214.37
641.947	43256.63
642.301	43105.9
642.654	43217.31
643.007	43148.84
643.36	43133.02
643.713	43092.12
644.066	43226.35
644.419	42930.31
644.771	42777.77
645.124	42362.19
645.477	42305.47
645.83	42004.23
646.182	41997
646.535	41840.62
646.888	41934.18
647.24	41774.86
647.593	41916.55
647.945	41894.86
648.298	41679.27
648.65	41706.39
649.002	41566.28
649.355	41734.41
649.707	41772.15
650.059	41902.77
650.411	42418.01
650.763	42446.03
651.115	42732.35
651.467	42671.79
651.819	42716.31
652.171	42585.69
652.523	42428.86
652.875	42490.55
653.227	42301.85
653.578	42513.83
653.93	42412.81
654.282	42376.43
654.633	42312.02
654.985	42288.29
655.337	42406.03
655.688	42406.94
656.039	42469.08
656.391	42114.97
656.742	42103.67
657.094	42356.32
657.445	42366.48
657.796	42307.73
658.147	42151.35
658.498	42182.76
658.849	42245.81
659.2	42163.55
659.551	42036.32
659.902	42203.78
660.253	42147.73
660.604	42242.19
660.955	42008.3
661.306	42300.72
661.656	42062.99
662.007	42007.4
662.358	42031.58
662.708	42149.99
663.059	42058.24
663.409	41884.01
663.76	42206.72
664.11	42060.73
664.461	42234.74
664.811	42169.43
665.161	42140.05
665.511	41870.23
665.862	42104.8
666.212	42119.26
666.562	41961.75
666.912	42019.6
667.262	41888.98
667.612	42118.58
667.962	42064.35
668.312	41992.26
668.662	42112.03
669.011	41942.09
669.361	41894.63
669.711	41961.75
670.06	41873.39
670.41	41822.32
670.76	41780.74
671.109	41984.12
671.459	41881.07
671.808	41679.95
672.157	41846.95
672.507	41599.5
672.856	41446.74
673.205	41594.08
673.554	41779.61
673.904	41738.93
674.253	41841.75
674.602	41778.48
674.951	41242.9
675.3	40956.58
675.649	41625.94
675.998	41648.76
676.346	41563.79
676.695	41809.21
677.044	41426.17
677.393	41550.24
677.741	41526.51
678.09	41491.71
678.438	41347.3
678.787	41493.97
679.135	41454.64
679.484	41046.07
679.832	41267.3
680.181	41072.28
680.529	41262.56
680.877	41206.74
681.225	41027.31
681.573	41257.81
681.922	41108.89
682.27	40817.6
682.618	40887.2
682.966	40823.93
683.314	40809.46
683.661	40771.72
684.009	40677.04
684.357	40581.67
684.705	40389.14
685.053	40727.88
685.4	40492.64
685.748	40338.74
686.095	40391.17
686.443	40355.01
686.79	40224.39
687.138	40216.03
687.485	40227.33
687.832	40039.54
688.18	40093.78
688.527	39898.53
688.874	39964.74
689.221	39725.2
689.568	39627.57
689.915	39577.18
690.262	39563.17
690.609	39575.6
690.956	39184.87
691.303	39279.56
691.65	39121.15
691.997	39217.87
692.344	39000.25
692.69	38876.86
693.037	39042.96
693.383	38668.05
693.73	38800.7
694.077	38526.59
694.423	38495.63
694.769	38489.07
695.116	38339.47
695.462	38252.02
695.808	38230.55
696.155	38246.82
696.501	37850.45
696.847	37817.9
697.193	37685.93
697.539	37822.42
697.885	37628.08
698.231	37474.64
698.577	37518.48
698.923	37393.96
699.269	37318.93
699.614	37141.54
699.96	36986.51
700.306	36923.92
700.651	36938.15
700.997	36686.41
701.342	36673.08
701.688	36684.83
702.033	36538.39
702.379	36375.23
702.724	36409.35
703.069	36384.5
703.415	35989.03
703.76	36121.45
704.105	36195.8
704.45	35893.66
704.795	35798.3
705.14	35619.32
705.485	35628.36
705.83	35640.79
706.175	35568.02
706.52	35471.07
706.865	35484.41
707.209	35438.98
707.554	35196.96
707.899	35173.23
708.243	35114.92
708.588	35058.88
708.932	34911.99
709.277	34733.69
709.621	34942.95
709.966	34658.89
710.31	34655.95
710.654	34398.33
710.998	34429.52
711.342	34385.9
711.687	34380.25
712.031	34145.91
712.375	34141.39
712.719	34198.56
713.063	34150.43
713.407	34199.47
713.75	33996.54
714.094	33944.79
714.438	33838.57
714.782	33744.79
715.125	33768.74
715.469	33788.18
715.812	33588.64
716.156	33339.83
716.499	33466.15
716.843	33395.42
717.186	33229.1
717.53	33361.75
717.873	33430
718.216	33264.13
718.559	33036.56
718.902	32808.32
719.246	33045.37
719.589	32855.32
719.932	32836.57
720.275	32741.2
720.617	32659.85
720.96	32595.89
721.303	32633.63
721.646	32582.56
721.989	32355
722.331	32475.45
722.674	32356.8
723.016	32346.86
723.359	32251.95
723.701	32372.4
724.044	32104.61
724.386	31983.03
724.729	32050.15
725.071	31947.1
725.413	32019.64
725.755	31941.9
726.097	31921.11
726.439	31640.89
726.782	31753.66
727.124	31825.97
727.465	31604.73
727.807	31616.26
728.149	31616.94
728.491	31616.94
728.833	31538.07
729.175	31443.61
729.516	31507.34
729.858	31384.85
730.199	31442.03
730.541	31220.79
730.882	31206.1
731.224	31338.53
731.565	31068.93
731.906	31087.46
732.248	31128.14
732.589	30945.77
732.93	31002.04
733.271	30878.43
733.612	30960.68
733.953	30936.95
734.294	30819.67
734.635	30748.26
734.976	30749.39
735.317	30440.7
735.658	30637.08
735.999	30554.14
736.339	30487.25
736.68	30567.93
737.021	30411.09
737.361	30300.59
737.702	30451.32
738.042	30369.74
738.383	30350.53
738.723	30339.46
739.063	30197.09
739.404	30331.1
739.744	30125.9
740.084	29938.79
740.424	30075.96
740.764	30078.45
741.104	30139.69
741.444	29960.71
741.784	29845.91
742.124	29961.61
742.464	29773.6
742.804	29752.13
743.143	29826.48
743.483	29674.16
743.823	29666.93
744.162	29622.64
744.502	29567.27
744.841	29483.43
745.181	29513.72
745.52	29503.09
745.86	29469.65
746.199	29462.42
746.538	29393.94
746.877	29367.73
747.216	29336.77
747.556	29227.85
747.895	29326.83
748.234	29217.23
748.573	29070.56
748.911	29063.11
749.25	28994.63
749.589	28917.57
749.928	28876.44
750.267	28930.45
750.605	28868.76
750.944	28751.7
751.283	28832.38
751.621	28785.15
751.96	28556.23
752.298	28619.73
752.636	28577.69
752.975	28472.84
753.313	28333.86
753.651	28455.89
753.989	28255.67
754.327	28200.98
754.666	28169.12
755.004	28145.84
755.342	28183.35
755.679	28103.36
756.017	27977.48
756.355	28052.28
756.693	27946.98
757.031	27965.06
757.368	27737.94
757.706	27840.09
758.044	27646.65
758.381	27641.22
758.719	27529.13
759.056	27572.98
759.394	27442.58
759.731	27274.45
760.068	27316.71
760.405	27130.28
760.743	27025.87
761.08	27024.06
761.417	26864.07
761.754	26824.97
762.091	26888.93
762.428	26813.67
762.765	26552.44
763.102	26667.46
763.438	26577.97
763.775	26315.61
764.112	26447.58
764.449	26530.07
764.785	26221.37
765.122	26157.65
765.458	26123.3
765.795	26069.29
766.131	25947.71
766.467	25867.26
766.804	25849.86
767.14	25601.28
767.476	25719.01
767.812	25552.69
768.148	25645.79
768.485	25406.48
768.821	25235.86
769.157	25186.82
769.492	25182.53
769.828	25071.57
770.164	25031.57
770.5	24981.86
770.836	24946.83
771.171	24653.73
771.507	24730.79
771.842	24577.8
772.178	24537.8
772.513	24361.99
772.849	24285.83
773.184	24247.19
773.519	24245.38
773.855	24207.87
774.19	24041.54
774.525	23917.7
774.86	23928.78
775.195	23844.49
775.53	23724.26
775.865	23580.99
776.2	23541.9
776.535	23301.22
776.87	23284.95
777.205	23173.32
777.539	23066.65
777.874	23201.11
778.209	22875.25
778.543	22960.67
778.878	22742.59
779.212	22743.95
779.547	22619.21
779.881	22656.95
780.215	22499.66
780.55	22478.42
780.884	22472.54
781.218	22390.96
781.552	22358.2
781.886	22150.75
782.22	22039.34
782.554	21894.48
782.888	21721.83
783.222	21582.85
783.556	21655.17
783.889	21555.96
784.223	21495.85
784.557	21341.95
784.89	21397.32
785.224	21308.51
785.557	21115.97
785.891	21139.47
786.224	21135.4
786.558	21052.7
786.891	20948.29
787.224	20749.88
787.557	20795.98
787.891	20741.29
788.224	20770.44
788.557	20641.86
788.89	20507.85
789.223	20491.13
789.556	20298.59
789.888	20298.14
790.221	20251.59
790.554	20053.17
790.887	19985.15
791.219	19998.03
791.552	19977.02
791.884	19826.29
792.217	19889.11
792.549	19793.07
792.882	19656.35
793.214	19485.73
793.546	19586.74
793.879	19457.93
794.211	19278.05
794.543	19322.35
794.875	19243.25
795.207	19329.12
795.539	19219.52
795.871	19128.9
796.203	18967.33
796.535	18924.62
796.867	18822.7
797.198	18950.38
797.53	18765.52
797.862	18663.83
798.193	18692.98
798.525	18662.48
798.856	18589.03
799.188	18432.65
799.519	18340.22
799.85	18313.11
800.182	18271.07
800.513	18321.92
800.844	18146.1
801.175	18193.34
801.506	18118.08
801.837	18020.23
802.168	17985.88
802.499	17989.05
802.83	17842.84
803.161	17788.37
803.491	17779.56
803.822	17721.71
804.153	17765.1
804.483	17545.89
804.814	17481.94
805.145	17485.78
805.475	17436.97
805.805	17387.03
806.136	17420.25
806.466	17385.67
806.796	17387.93
807.126	17061.39
807.457	17165.34
807.787	17166.24
808.117	17042.86
808.447	16970.32
808.777	16930.09
809.107	16900.04
809.436	16940.49
809.766	16848.06
810.096	16748.18
810.426	16683.77
810.755	16756.31
811.085	16673.83
811.414	16637.44
811.744	16511.12
812.073	16496.88
812.403	16463.66
812.732	16345.7
813.061	16395.42
813.39	16281.97
813.719	16259.6
814.049	16276.1
814.378	16215.53
814.707	16092.37
815.036	16149.32
815.365	16026.16
815.693	15963.11
816.022	15959.95
816.351	15897.8
816.68	15899.61
817.008	15858.26
817.337	15712.95
817.665	15651.48
817.994	15690.35
818.322	15724.93
818.651	15583.01
818.979	15440.64
819.307	15510.69
819.636	15494.88
819.964	15411.94
820.292	15465.5
820.62	15499.17
820.948	15403.58
821.276	15479.28
821.604	15337.82
821.932	15516.34
822.259	15498.94
822.587	15406.06
822.915	15320.64
823.243	15437.7
823.57	15347.76
823.898	15432.96
824.225	15304.82
824.553	15289.91
824.88	15403.35
825.207	15319.51
825.535	15290.13
825.862	15338.04
826.189	15236.35
826.516	15316.57
826.843	15348.66
827.17	15393.63
827.497	15303.02
827.824	15349.34
828.151	15356.12
828.478	15192.96
828.805	15399.74
829.131	15320.42
829.458	15282
829.785	15207.2
830.111	15279.06
830.438	15312.28
830.764	15313.41
831.09	15353.86
831.417	15213.53
831.743	15312.06
832.069	15238.61
832.395	15185.73
832.722	15319.51
833.048	15158.16
833.374	15277.25
833.7	15084.94
834.026	15243.58
834.351	15133.98
834.677	15167.88
835.003	15091.72
835.329	15212.62
835.654	15103.02
835.98	14977.37
836.306	15030.48
836.631	15010.59
836.956	15016.02
837.282	15022.12
837.607	14985.74
837.932	14903.93
838.258	14924.95
838.583	14870.26
838.908	14806.76
839.233	14859.19
839.558	14806.98
839.883	14748.68
840.208	14760.66
840.533	14687.66
840.858	14697.83
841.182	14681.56
841.507	14615.58
841.832	14552.53
842.156	14572.19
842.481	14567.67
842.805	14458.52
843.13	14497.61
843.454	14478.18
843.778	14430.04
844.103	14379.88
844.427	14373.55
844.751	14336.71
845.075	14248.13
845.399	14282.03
845.723	14135.81
846.047	14091.3
846.371	14012.88
846.695	13982.82
847.019	13991.64
847.343	13938.98
847.666	13779.89
847.99	13780.57
848.313	13722.94
848.637	13580.8
848.96	13664.41
849.284	13495.15
849.607	13561.14
849.931	13478.43
850.254	13366.8
850.577	13340.13
850.9	13249.28
851.223	13193.47
851.546	13189.85
851.869	13122.51
852.192	13179
852.515	13019.46
852.838	12918.22
853.161	12956.41
853.483	12890.2
853.806	12872.12
854.129	12841.84
854.451	12769.52
854.774	12739.02
855.096	12636.87
855.419	12629.19
855.741	12553.94
856.063	12569.53
856.385	12518
856.708	12407.95
857.03	12461.73
857.352	12442.98
857.674	12337.67
857.996	12273.49
858.318	12272.81
858.64	12224
858.961	12167.96
859.283	12119.37
859.605	12068.75
859.926	12231.01
860.248	12082.99
860.57	12001.86
860.891	12039.82
861.212	11986.72
861.534	11883.9
861.855	11906.72
862.176	11905.82
862.498	11894.52
862.819	11956.44
863.14	11792.15
863.461	11882.09
863.782	11793.5
864.103	11781.07
864.424	11808.87
864.745	11728.65
865.065	11641.87
865.386	11549.67
865.707	11650.46
866.027	11728.19
866.348	11577.69
866.668	11595.77
866.989	11572.72
867.309	11503.57
867.63	11565.71
867.95	11518.26
868.27	11463.57
868.59	11434.19
868.91	11422.67
869.23	11356.9
869.55	11320.97
869.87	11393.51
870.19	11357.13
870.51	11368.43
870.83	11371.14
871.15	11304.25
871.469	11265.61
871.789	11308.77
872.109	11234.42
872.428	11169.11
872.748	11233.97
873.067	11177.02
873.386	11157.59
873.706	11215.44
874.025	11043.24
874.344	11083.47
874.663	11076.91
874.982	11063.81
875.301	11057.93
875.62	11080.3
875.939	10995.56
876.258	11032.85
876.577	10934.54
876.896	10961.21
877.214	10980.19
877.533	10968.21
877.852	10975.22
878.17	10896.8
878.489	10889.35
878.807	10901.32
879.125	10918.72
879.444	10855.9
879.762	10895.67
880.08	10843.02
880.398	10814.32
880.716	10744.94
881.034	10716.47
881.352	10778.84
881.67	10668.34
881.988	10697.26
882.306	10630.37
882.624	10596.02
882.941	10605.74
883.259	10553.08
883.577	10516.93
883.894	10533.42
884.212	10460.43
884.529	10470.83
884.846	10456.14
885.164	10398.51
885.481	10439.19
885.798	10313.54
886.115	10276.93
886.432	10256.82
886.75	10336.59
887.067	10256.59
887.383	10290.72
887.7	10309.02
888.017	10183.6
888.334	10150.83
888.651	10250.27
888.967	10162.13
889.284	10105.19
889.6	10047.56
889.917	10017.05
890.233	9990.61
890.55	9951.74
890.866	9950.84
891.182	9865.42
891.498	9883.5
891.815	9899.77
892.131	9861.8
892.447	9759.66
892.763	9787.45
893.079	9694.58
893.395	9686.67
893.71	9681.02
894.026	9646.67
894.342	9638.98
894.657	9521.47
894.973	9628.36
895.289	9518.08
895.604	9510.17
895.92	9446.22
896.235	9384.08
896.55	9391.98
896.865	9378.2
897.181	9401.02
897.496	9354.25
897.811	9309.73
898.126	9305.43
898.441	9237.19
898.756	9213.23
899.071	9154.48
899.386	9113.8
899.7	9172.33
900.015	9098.43
900.33	9012.33
900.644	8969.4
900.959	9034.71
901.273	8971.2
901.588	8893.24
901.902	8824.77
902.216	8867.7
902.531	8847.14
902.845	8764.43
903.159	8724.43
903.473	8651.67
903.787	8661.61
904.101	8655.73
904.415	8646.24
904.729	8630.42
905.042	8521.5
905.356	8547.04
905.67	8474.95
905.984	8451.22
906.297	8478.34
906.611	8360.6
906.924	8393.82
907.237	8364.67
907.551	8291.22
907.864	8327.38
908.177	8225.24
908.491	8203.32
908.804	8193.37
909.117	8120.83
909.43	8061.62
909.743	8058.69
910.056	8031.79
910.368	8062.75
910.681	7971.46
910.994	7938.24
911.307	7915.19
911.619	7832.93
911.932	7869.54
912.244	7841.74
912.557	7853.27
912.869	7725.14
913.181	7732.14
913.494	7691.01
913.806	7650.79
914.118	7597.23
914.43	7595.42
914.742	7554.97
915.054	7547.51
915.366	7475.2
915.678	7421.87
915.99	7440.17
916.302	7375.31
916.613	7347.52
916.925	7347.97
917.236	7329.67
917.548	7294.64
917.859	7288.76
918.171	7221.65
918.482	7147.07
918.794	7160.86
919.105	7128.99
919.416	7069.11
919.727	7010.58
920.038	7063.91
920.349	7052.39
920.66	6929.68
920.971	7004.25
921.282	6908.89
921.593	6890.13
921.903	6858.94
922.214	6863.92
922.525	6794.09
922.835	6799.96
923.146	6701.21
923.456	6746.18
923.767	6684.49
924.077	6688.1
924.387	6639.74
924.697	6567.43
925.008	6604.94
925.318	6540.53
925.628	6544.38
925.938	6500.08
926.248	6430.25
926.558	6384.61
926.867	6399.3
927.177	6370.82
927.487	6356.36
927.796	6293.99
928.106	6242.69
928.416	6280.65
928.725	6230.94
929.034	6226.42
929.344	6199.3
929.653	6133.31
929.962	6126.31
930.271	6119.98
930.581	6092.64
930.89	6077.95
931.199	5968.35
931.508	6012.41
931.817	6033.2
932.125	6004.96
932.434	5938.29
932.743	5913.88
933.051	5889.03
933.36	5826.88
933.669	5831.17
933.977	5808.8
934.286	5834.56
934.594	5745.75
934.902	5763.61
935.21	5673.21
935.519	5675.02
935.827	5685.19
936.135	5666.66
936.443	5573.1
936.751	5558.87
937.059	5551.63
937.367	5513.89
937.674	5537.4
937.982	5489.71
938.29	5458.08
938.597	5468.25
938.905	5472.31
939.213	5374.69
939.52	5346.22
939.827	5337.4
940.135	5289.49
940.442	5289.72
940.749	5276.84
941.056	5270.74
941.363	5215.15
941.67	5223.28
941.977	5175.37
942.284	5170.17
942.591	5136.28
942.898	5152.1
943.205	5115.94
943.511	5100.57
943.818	5063.51
944.125	5019.44
944.431	5019.22
944.738	5045.66
945.044	4962.72
945.35	4933.12
945.657	4931.54
945.963	4880.92
946.269	4873.91
946.575	4854.7
946.881	4830.75
947.187	4826
947.493	4812.44
947.799	4775.61
948.105	4779
948.41	4756.63
948.716	4733.35
949.022	4728.15
949.327	4668.95
949.633	4640.02
949.938	4641.15
950.244	4670.98
950.549	4604.54
950.854	4574.94
951.16	4551.21
951.465	4531.55
951.77	4560.93
952.075	4483.19
952.38	4487.25
952.685	4543.98
952.99	4419.69
953.294	4437.76
953.599	4404.32
953.904	4403.42
954.209	4352.12
954.513	4320.25
954.818	4293.59
955.122	4332.68
955.426	4305.56
955.731	4244.1
956.035	4258.33
956.339	4240.48
956.643	4207.49
956.948	4178.11
957.252	4147.83
957.556	4169.98
957.86	4071.22
958.163	4146.47
958.467	4113.25
958.771	4106.25
959.075	4069.86
959.378	4042.52
959.682	4028.51
959.985	4061.5
960.289	4020.6
960.592	4005.23
960.896	3973.82
961.199	3991.22
961.502	3941.05
961.805	3926.14
962.108	3886.14
962.411	3899.7
962.714	3892.02
963.017	3858.8
963.32	3802.75
963.623	3812.02
963.926	3821.28
964.228	3807.72
964.531	3755.52
964.833	3736.31
965.136	3755.07
965.438	3705.81
965.741	3674.17
966.043	3668.75
966.345	3669.42
966.648	3630.78
966.95	3634.85
967.252	3637.56
967.554	3586.71
967.856	3583.55
968.158	3550.1
968.46	3585.13
968.761	3553.04
969.063	3534.96
969.365	3528.64
969.666	3504.68
969.968	3473.04
970.269	3444.8
970.571	3470.56
970.872	3459.71
971.174	3417.68
971.475	3395.08
971.776	3407.96
972.077	3365.7
972.378	3363.67
972.679	3353.95
972.98	3333.84
973.281	3300.17
973.582	3298.81
973.883	3280.51
974.183	3272.37
974.484	3256.1
974.785	3244.35
975.085	3290
975.386	3208.64
975.686	3187.85
975.986	3167.29
976.287	3186.72
976.587	3159.15
976.887	3131.81
977.187	3123.22
977.487	3117.8
977.787	3172.26
978.087	3129.32
978.387	3077.12
978.687	3084.58
978.987	3047.74
979.286	3014.75
979.586	3041.42
979.885	3026.5
980.185	3002.32
980.484	2959.84
980.784	2978.59
981.083	2977.24
981.382	2989.22
981.682	2943.11
981.981	2909.22
982.28	2913.28
982.579	2856.56
982.878	2900.86
983.177	2870.57
983.475	2846.62
983.774	2857.92
984.073	2838.94
984.372	2800.07
984.67	2768.88
984.969	2810.24
985.267	2758.26
985.566	2768.43
985.864	2747.41
986.162	2703.35
986.461	2745.61
986.759	2722.33
987.057	2691.6
987.355	2697.25
987.653	2709.22
987.951	2667.42
988.249	2657.7
988.547	2675.78
988.844	2635.78
989.142	2617.47
989.44	2623.8
989.737	2589.9
990.035	2598.27
990.332	2578.38
990.63	2541.32
990.927	2534.54
991.224	2528.66
991.521	2553.75
991.819	2513.97
992.116	2497.93
992.413	2453.18
992.71	2478.27
993.006	2480.08
993.303	2435.33
993.6	2453.64
993.897	2433.75
994.193	2456.35
994.49	2379.29
994.787	2419.51
995.083	2407.08
995.379	2381.77
995.676	2363.69
995.972	2324.37
996.268	2362.56
996.565	2325.96
996.861	2299.29
997.157	2286.63
997.453	2293.19
997.749	2278.73
998.044	2248.67
998.34	2271.27
998.636	2279.18
998.932	2241.89
999.227	2179.29
999.523	2217.03
999.818	2197.15
1000.114	2159.18
1000.409	2130.25
1000.704	2147.88
1001	2177.71
1001.295	2158.73
1001.59	2136.81
1001.885	2133.87
1002.18	2132.06
1002.475	2125.96
1002.77	2099.97
1003.065	2057.49
1003.359	2060.2
1003.654	2027.43
1003.949	2019.98
1004.243	2024.04
1004.538	2019.3
1004.832	2017.26
1005.127	1994.89
1005.421	2003.93
1005.715	1990.15
1006.009	1948.11
1006.304	1942.92
1006.598	1955.34
1006.892	1959.64
1007.186	1922.12
1007.48	1911.73
1007.773	1876.93
1008.067	1914.22
1008.361	1898.17
1008.655	1852.07
1008.948	1886.42
1009.242	1845.29
1009.535	1860.66
1009.829	1828.34
1010.122	1802.13
1010.415	1807.33
1010.708	1800.09
1011.001	1793.77
1011.295	1771.62
1011.588	1756.48
1011.881	1746.76
1012.173	1769.36
1012.466	1738.85
1012.759	1739.53
1013.052	1724.16
1013.344	1732.07
1013.637	1694.33
1013.93	1670.61
1014.222	1681.23
1014.514	1682.81
1014.807	1651.4
1015.099	1651.85
1015.391	1614.11
1015.683	1613.43
1015.976	1622.47
1016.268	1639.42
1016.56	1592.87
1016.851	1566.88
1017.143	1601
1017.435	1550.38
1017.727	1518.97
1018.018	1559.42
1018.31	1537.95
1018.602	1511.29
1018.893	1547.45
1019.185	1530.72
1019.476	1518.97
1019.767	1473.77
1020.058	1472.42
1020.35	1501.57
1020.641	1456.37
1020.932	1469.93
1021.223	1417.96
1021.514	1430.84
1021.804	1427.67
1022.095	1426.32
1022.386	1398.75
1022.677	1405.98
1022.967	1353.78
1023.258	1369.37
1023.548	1385.64
1023.839	1354.91
1024.129	1372.08
1024.419	1344.06
1024.709	1336.6
1025	1312.42
1025.29	1328.47
1025.58	1314.68
1025.87	1286.66
1026.16	1285.76
1026.449	1304.74
1026.739	1271.07
1027.029	1287.79
1027.319	1225.87
1027.608	1276.27
1027.898	1227.23
1028.187	1223.61
1028.477	1243.05
1028.766	1235.59
1029.055	1196.27
1029.344	1201.47
1029.634	1174.57
1029.923	1193.1
1030.212	1163.5
1030.501	1161.47
1030.79	1174.12
1031.078	1144.07
1031.367	1170.05
1031.656	1138.64
1031.945	1164.86
1032.233	1134.35
1032.522	1106.55
1032.81	1114.01
1033.099	1124.18
1033.387	1107
1033.675	1086.67
1033.963	1092.09
1034.251	1100.9
1034.54	1067.91
1034.828	1064.52
1035.116	1055.03
1035.403	1067.23
1035.691	1051.19
1035.979	1049.38
1036.267	1056.16
1036.554	1036.27
1036.842	1019.1
1037.129	1002.83
1037.417	987.01
1037.704	986.56
1037.992	1024.3
1038.279	981.13
1038.566	965.77
1038.853	965.77
1039.14	965.77
