Data from hue_290_FLMS001491_00069.txt Node
Date: Tue Feb 07 15:53:05 GMT 2017
User: dcchb
Spectrometer: FLMS00149
Trigger mode: 0
Integration Time (sec): 2.000000E-2
Scans to average: 10
Electric dark correction enabled: true
Nonlinearity correction enabled: false
Boxcar width: 0
XAxis mode: Wavelengths
Number of Pixels in Spectrum: 2048
>>>>>Begin Spectral Data<<<<<
341.393	-23.21
341.776	-23.21
342.16	-23.21
342.543	-65.92
342.927	-47.16
343.31	-66.59
343.693	-65.46
344.077	-72.47
344.46	-54.39
344.843	-53.71
345.226	-22.98
345.61	-41.06
345.993	-22.75
346.376	2.1
346.759	29.9
347.142	46.4
347.525	30.58
347.908	49.56
348.291	54.53
348.674	79.16
349.057	107.19
349.44	144.93
349.823	148.54
350.206	159.39
350.588	197.13
350.971	206.17
351.354	229.22
351.737	237.58
352.119	255.66
352.502	235.77
352.884	274.64
353.267	260.63
353.65	287.07
354.032	304.7
354.414	285.71
354.797	304.7
355.179	293.62
355.562	325.71
355.944	309.44
356.326	316.45
356.709	337.01
357.091	320.06
357.473	326.39
357.855	340.17
358.238	348.54
358.62	329.55
359.002	347.18
359.384	363.9
359.766	336.33
360.148	340.85
360.53	323.23
360.912	328.2
361.294	329.33
361.676	327.52
362.057	349.44
362.439	326.84
362.821	325.49
363.203	339.72
363.584	324.58
363.966	325.49
364.348	311.93
364.729	313.73
365.111	302.21
365.493	327.75
365.874	313.51
366.256	325.26
366.637	331.59
367.019	325.71
367.4	306.5
367.781	317.58
368.163	308.99
368.544	333.4
368.925	317.12
369.306	303.57
369.688	311.02
370.069	311.93
370.45	310.8
370.831	303.79
371.212	319.16
371.593	316.45
371.974	302.21
372.355	327.52
372.736	309.67
373.117	340.63
373.498	317.35
373.879	304.47
374.26	333.62
374.641	330.23
375.021	307.41
375.402	318.93
375.783	339.95
376.163	328.42
376.544	321.19
376.925	313.73
377.305	327.97
377.686	327.07
378.066	311.93
378.447	322.32
378.827	329.78
379.208	340.17
379.588	335.2
379.968	339.04
380.349	327.75
380.729	330.91
381.109	332.49
381.489	344.69
381.87	346.28
382.25	344.92
382.63	340.85
383.01	354.41
383.39	362.09
383.77	363.45
384.15	330.91
384.53	363
384.91	379.04
385.29	340.17
385.67	350.12
386.049	346.95
386.429	368.2
386.809	371.13
387.189	355.09
387.568	370.68
387.948	382.89
388.328	356.67
388.707	359.84
389.087	373.85
389.466	360.29
389.846	373.39
390.225	379.5
390.605	377.46
390.984	377.01
391.363	401.64
391.743	371.36
392.122	376.33
392.501	391.7
392.881	395.77
393.26	419.95
393.639	362.09
394.018	386.95
394.397	376.33
394.776	395.77
395.155	389.66
395.534	396.67
395.913	397.8
396.292	391.7
396.671	415.88
397.05	411.59
397.429	400.29
397.808	411.13
398.186	439.61
398.565	435.31
398.944	428.76
399.323	432.38
399.701	412.49
400.08	436.22
400.458	455.2
400.837	434.18
401.215	445.48
401.594	429.89
401.972	441.64
402.351	445.26
402.729	467.4
403.107	457.01
403.486	473.96
403.864	458.59
404.242	456.1
404.62	460.62
404.999	477.35
405.377	475.54
405.755	486.61
406.133	485.93
406.511	494.29
406.889	497.23
407.267	501.07
407.645	515.09
408.023	509.89
408.401	522.09
408.779	508.08
409.156	537.23
409.534	522.09
409.912	542.2
410.29	551.92
410.667	543.33
411.045	558.47
411.422	595.08
411.8	565.03
412.178	585.37
412.555	595.08
412.933	601.64
413.31	592.6
413.687	617.68
414.065	621.07
414.442	630.34
414.819	639.15
415.197	642.31
415.574	655.87
415.951	671.01
416.328	671.92
416.705	665.82
417.082	678.47
417.46	691.58
417.837	689.09
418.214	693.39
418.591	702.88
418.967	738.36
419.344	725.25
419.721	759.37
420.098	757.79
420.475	754.4
420.852	758.69
421.228	786.72
421.605	783.1
421.982	840.5
422.358	791.24
422.735	833.04
423.111	850.22
423.488	851.35
423.864	854.74
424.241	860.61
424.617	869.2
424.994	894.28
425.37	894.96
425.746	918.01
426.123	911.69
426.499	924.11
426.875	934.96
427.251	953.49
427.627	951.01
428.003	968.41
428.379	962.53
428.756	990.33
429.132	1010.67
429.507	1016.32
429.883	1020.61
430.259	1073.26
430.635	1032.59
431.011	1064.45
431.387	1071.23
431.763	1093.6
432.138	1086.37
432.514	1110.32
432.89	1119.14
433.265	1142.19
433.641	1125.24
434.016	1169.08
434.392	1225.35
434.767	1207.27
435.143	1209.08
435.518	1227.16
435.894	1255.63
436.269	1252.24
436.644	1282.97
437.02	1311.45
437.395	1278.23
437.77	1337.66
438.145	1346.7
438.52	1340.15
438.895	1351.67
439.271	1330.88
439.646	1414.72
440.021	1419.02
440.395	1383.99
440.77	1430.54
441.145	1424.21
441.52	1436.87
441.895	1477.77
442.27	1446.81
442.645	1482.29
443.019	1495.17
443.394	1484.78
443.769	1476.87
444.143	1495.4
444.518	1531.78
444.892	1515.51
445.267	1510.99
445.641	1557.54
446.016	1510.77
446.39	1571.33
446.764	1570.42
447.139	1563.65
447.513	1568.16
447.887	1566.36
448.262	1579.92
448.636	1613.59
449.01	1620.14
449.384	1619.46
449.758	1603.87
450.132	1637.54
450.506	1635.06
450.88	1638.9
451.254	1663.76
451.628	1642.29
452.002	1692
452.376	1685
452.75	1682.51
453.123	1698.11
453.497	1741.04
453.871	1731.78
454.244	1805.22
454.618	1772.23
454.992	1803.41
455.365	1793.24
455.739	1814.49
456.112	1831.21
456.486	1850.19
456.859	1885.22
457.232	1890.42
457.606	1893.81
457.979	1924.99
458.352	1940.36
458.725	1943.52
459.099	1992.79
459.472	1996.63
459.845	2040.92
460.218	2014.03
460.591	2007.02
460.964	2051.77
461.337	2078.21
461.71	2118.66
462.083	2139.45
462.456	2104.65
462.829	2110.98
463.201	2142.84
463.574	2143.74
463.947	2189.39
464.32	2230.52
464.692	2233.46
465.065	2224.19
465.438	2289.05
465.81	2312.33
466.183	2322.5
466.555	2357.52
466.928	2378.99
467.3	2378.09
467.672	2386
468.045	2419.89
468.417	2451.31
468.789	2454.47
469.161	2486.56
469.534	2499.67
469.906	2549.38
470.278	2584.18
470.65	2591.19
471.022	2603.62
471.394	2706.44
471.766	2669.83
472.138	2710.06
472.51	2741.92
472.882	2759.77
473.253	2797.06
473.625	2823.05
473.997	2867.79
474.369	2886.77
474.74	2886.32
475.112	2926.1
475.484	2949.37
475.855	3037.96
476.227	3022.82
476.598	3105.75
476.97	3155.24
477.341	3175.58
477.713	3215.58
478.084	3208.8
478.455	3311.4
478.827	3290.38
479.198	3382.35
479.569	3380.77
479.94	3456.02
480.311	3481.56
480.682	3512.75
481.053	3614.21
481.424	3663.25
481.795	3693.98
482.166	3703.25
482.537	3689.92
482.908	3778.73
483.279	3826.18
483.65	3911.38
484.021	3951.15
484.391	3965.84
484.762	4013.75
485.133	4042.9
485.503	4108.21
485.874	4154.76
486.244	4178.94
486.615	4192.5
486.985	4232.73
487.356	4278.6
487.726	4367.87
488.097	4417.58
488.467	4435.21
488.837	4503.23
489.207	4530.35
489.578	4602.66
489.948	4592.72
490.318	4703.9
490.688	4679.04
491.058	4711.81
491.428	4799.72
491.798	4813.28
492.168	4860.96
492.538	4891.47
492.908	4960.39
493.278	5046.94
493.648	5027.96
494.017	5066.38
494.387	5157.22
494.757	5159.71
495.126	5213.94
495.496	5197.22
495.866	5203.78
496.235	5238.12
496.605	5275.41
496.974	5302.98
497.344	5390.66
497.713	5335.52
498.082	5416.65
498.452	5420.72
498.821	5468.63
499.19	5485.58
499.559	5508.85
499.928	5518.34
500.298	5549.98
500.667	5580.26
501.036	5608.96
501.405	5631.11
501.774	5646.7
502.143	5674.5
502.512	5703.2
502.88	5754.95
503.249	5804.21
503.618	5778.45
503.987	5818.22
504.356	5828.62
504.724	5841.5
505.093	5839.01
505.462	5919.91
505.83	5927.82
506.199	5948.39
506.567	5982.74
506.936	5952.46
507.304	6087.14
507.672	6043.08
508.041	6114.03
508.409	6093.47
508.777	6153.81
509.145	6209.62
509.514	6204.65
509.882	6203.52
510.25	6200.36
510.618	6249.4
510.986	6230.42
511.354	6308.38
511.722	6287.81
512.09	6408.72
512.458	6369.39
512.826	6429.73
513.193	6434.48
513.561	6422.73
513.929	6514.93
514.297	6582.72
514.664	6587.69
515.032	6575.26
515.4	6561.03
515.767	6598.77
516.135	6625.43
516.502	6579.56
516.869	6644.64
517.237	6681.48
517.604	6629.73
517.972	6771.19
518.339	6780.01
518.706	6748.14
519.073	6737.07
519.44	6822.72
519.808	6872.43
520.175	6861.36
520.542	6950.17
520.909	6975.03
521.276	6926.22
521.643	6936.61
522.009	7079.66
522.376	7075.36
522.743	7048.25
523.11	7116.27
523.477	7148.58
523.843	7189.49
524.21	7281.91
524.577	7289.6
524.943	7315.58
525.31	7354.23
525.676	7393.55
526.043	7437.39
526.409	7519.19
526.776	7556.71
527.142	7589.93
527.508	7538.86
527.874	7609.59
528.241	7562.58
528.607	7624.5
528.973	7692.75
529.339	7738.62
529.705	7796.25
530.071	7820.88
530.437	7786.31
530.803	7929.58
531.169	7916.47
531.535	7900.2
531.901	7922.12
532.267	8011.16
532.632	8011.84
532.998	8110.82
533.364	8111.72
533.73	8086.86
534.095	8195.56
534.461	8183.13
534.826	8154.66
535.192	8229.46
535.557	8290.47
535.923	8326.41
536.288	8304.94
536.653	8321.21
537.019	8322.79
537.384	8301.32
537.749	8363.47
538.114	8439.62
538.479	8438.27
538.845	8431.26
539.21	8494.31
539.575	8458.83
539.94	8526.4
540.305	8588.77
540.67	8514.42
541.034	8602.33
541.399	8652.95
541.764	8631.48
542.129	8655.21
542.494	8624.25
542.858	8678.49
543.223	8658.6
543.587	8780.4
543.952	8761.2
544.316	8826.73
544.681	8799.16
545.045	8861.53
545.41	8921.19
545.774	8915.09
546.138	8900.63
546.503	8915.32
546.867	8957.35
547.231	9058.59
547.595	9027.18
547.959	9084.58
548.324	9115.99
548.688	9106.5
549.052	9149.43
549.416	9157.57
549.779	9206.83
550.143	9125.03
550.507	9242.77
550.871	9235.31
551.235	9293.84
551.599	9308.75
551.962	9318.02
552.326	9318.92
552.689	9374.29
553.053	9311.24
553.417	9388.98
553.78	9460.61
554.143	9414.51
554.507	9469.88
554.87	9468.75
555.234	9557.33
555.597	9455.19
555.96	9517.11
556.323	9566.6
556.686	9601.63
557.05	9598.91
557.413	9686.37
557.776	9670.1
558.139	9680.49
558.502	9710.55
558.865	9760.94
559.228	9786.93
559.59	9791.68
559.953	9819.25
560.316	9925.69
560.679	9943.09
561.041	9950.32
561.404	10002.75
561.767	10008.17
562.129	10041.84
562.492	10084.55
562.854	10088.17
563.217	10090.43
563.579	10106.92
563.941	10237.77
564.304	10207.26
564.666	10288.84
565.028	10277.99
565.39	10297.88
565.753	10384.43
566.115	10425.11
566.477	10483.41
566.839	10496.74
567.201	10586.01
567.563	10561.15
567.925	10659
568.287	10578.55
568.648	10658.1
569.01	10649.96
569.372	10828.26
569.734	10764.31
570.095	10783.52
570.457	10836.62
570.819	10887.24
571.18	10885.21
571.542	10965.21
571.903	11004.75
572.265	11023.96
572.626	11103.06
572.987	11082.49
573.349	11174.01
573.71	11241.36
574.071	11211.08
574.432	11307.34
574.794	11328.13
575.155	11333.33
575.516	11403.39
575.877	11424.63
576.238	11560.9
576.599	11652.65
576.96	11679.99
577.32	11676.6
577.681	11790.27
578.042	11839.31
578.403	11872.3
578.763	11932.19
579.124	12048.79
579.485	12124.5
579.845	12158.62
580.206	12242.69
580.566	12283.82
580.927	12405.39
581.287	12517.03
581.648	12495.34
582.008	12698.95
582.368	12601.1
582.728	12880.86
583.089	12880.18
583.449	13037.92
583.809	13093.51
584.169	13216.9
584.529	13313.17
584.889	13498.7
585.249	13498.25
585.609	13544.12
585.969	13780.05
586.329	13857.56
586.688	13914.96
587.048	14048.06
587.408	14193.37
587.768	14392.23
588.127	14531.89
588.487	14648.27
588.846	14780.92
589.206	14850.08
589.565	14973.01
589.925	15217.3
590.284	15292.55
590.643	15372.1
591.003	15580.45
591.362	15763.72
591.721	15898.86
592.08	15974.57
592.44	16184.73
592.799	16354.89
593.158	16373.43
593.517	16527.32
593.876	16651.38
594.235	16888.44
594.593	16989.45
594.952	17119.39
595.311	17272.16
595.67	17482.77
596.029	17645.26
596.387	17766.84
596.746	17855.65
597.104	18026.04
597.463	18050.67
597.822	18315.52
598.18	18452.69
598.538	18522.75
598.897	18781.95
599.255	18716.87
599.613	19098.33
599.972	19038.89
600.33	19191.43
600.688	19355.72
601.046	19599.1
601.404	19734.92
601.762	19771.08
602.12	19959.32
602.478	20067.34
602.836	20108.47
603.194	20040.45
603.552	20344.39
603.91	20361.12
604.268	20436.6
604.625	20598.17
604.983	20673.88
605.341	20664.61
605.698	20839.75
606.056	20888.79
606.413	21032.74
606.771	21191.6
607.128	21364.93
607.485	21178.27
607.843	21317.02
608.2	21551.37
608.557	21685.83
608.914	21784.36
609.272	21894.64
609.629	21964.46
609.986	21992.49
610.343	21983.22
610.7	22294.17
611.057	22252.14
611.414	22316.55
611.771	22446.26
612.127	22498.01
612.484	22634.05
612.841	22700.72
613.198	22787.72
613.554	22874.95
613.911	23003.76
614.267	23065.68
614.624	23048.05
614.98	23063.42
615.337	23301.83
615.693	23303.86
616.05	23224.32
616.406	23559.45
616.762	23352
617.118	23557.87
617.475	23517.19
617.831	23656.4
618.187	23637.64
618.543	23721.48
618.899	23858.43
619.255	23935.26
619.611	23883.74
619.967	23994.24
620.323	24001.25
620.678	23854.13
621.034	24058.87
621.39	24013.68
621.746	24026.11
622.101	24331.41
622.457	24148.81
622.812	24212.54
623.168	24293.22
623.523	24314.69
623.879	24472.87
624.234	24320.56
624.589	24341.58
624.945	24481.01
625.3	24401.24
625.655	24448.24
626.01	24525.08
626.365	24562.81
626.72	24539.76
627.075	24547.22
627.43	24598.07
627.785	24484.4
628.14	24654.56
628.495	24502.93
628.85	24594
629.205	24544.06
629.559	24647.56
629.914	24550.16
630.269	24544.28
630.623	24530.95
630.978	24496.15
631.332	24689.36
631.687	24779.76
632.041	24552.65
632.396	24689.14
632.75	24616.15
633.104	24524.62
633.459	24460.22
633.813	24574.79
634.167	24555.36
634.521	24426.55
634.875	24612.53
635.229	24584.51
635.583	24488.92
635.937	24461.8
636.291	24464.51
636.645	24436.49
636.999	24405.3
637.352	24445.3
637.706	24353.55
638.06	24403.5
638.413	24372.09
638.767	24306.78
639.121	24408.24
639.474	24280.11
639.828	24318.3
640.181	24262.48
640.534	24288.47
640.888	24177.29
641.241	24271.52
641.594	24175.25
641.947	24257.29
642.301	24192.43
642.654	24291.41
643.007	24229.49
643.36	24192.65
643.713	24215.03
644.066	24210.06
644.419	24217.51
644.771	24044.86
645.124	23729.62
645.477	23827.69
645.83	23602.84
646.182	23688.26
646.535	23478.32
646.888	23482.84
647.24	23335.5
647.593	23536.63
647.945	23464.76
648.298	23286.24
648.65	23394.48
649.002	23279.68
649.355	23527.59
649.707	23378.66
650.059	23537.3
650.411	23818.88
650.763	23839.9
651.115	24057.74
651.467	24001.02
651.819	24035.82
652.171	24028.14
652.523	23956.5
652.875	24004.64
653.227	23780.69
653.578	23986.11
653.93	24021.13
654.282	23832.44
654.633	23815.49
654.985	23847.13
655.337	23974.81
655.688	23947.69
656.039	24067.91
656.391	23928.48
656.742	23940.23
657.094	23921.93
657.445	24034.01
657.796	23980.68
658.147	23989.04
658.498	23945.2
658.849	23948.82
659.2	23923.74
659.551	23876.96
659.902	23960.12
660.253	24017.52
660.604	23961.25
660.955	23957.41
661.306	23969.61
661.656	23987.24
662.007	23985.43
662.358	23894.58
662.708	23887.13
663.059	23995.15
663.409	23876.5
663.76	24071.75
664.11	24020.68
664.461	24084.86
664.811	24111.3
665.161	23980.01
665.511	23923.96
665.862	24031.53
666.212	24074.47
666.562	24085.76
666.912	23976.84
667.262	23991.98
667.612	24062.04
667.962	23957.41
668.312	23904.07
668.662	24016.84
669.011	23997.41
669.361	23886
669.711	23901.14
670.06	23899.33
670.41	23871.53
670.76	23882.38
671.109	23949.5
671.459	23832.66
671.808	23909.95
672.157	23917.86
672.507	23782.95
672.856	23855.04
673.205	23760.58
673.554	23973.68
673.904	23756.06
674.253	24001.02
674.602	23725.32
674.951	23575.5
675.3	23383.41
675.649	23771.87
675.998	23799.22
676.346	23774.13
676.695	23833.57
677.044	23669.73
677.393	23648.04
677.741	23710.41
678.09	23614.59
678.438	23605.33
678.787	23593.8
679.135	23515.16
679.484	23428.83
679.832	23453.24
680.181	23394.03
680.529	23444.43
680.877	23276.52
681.225	23239.01
681.573	23494.37
681.922	23230.87
682.27	23290.76
682.618	23250.08
682.966	23269.97
683.314	23203.3
683.661	23213.25
684.009	22907.49
684.357	22978.45
684.705	22991.56
685.053	22951.11
685.4	23006.92
685.748	22843.99
686.095	22752.01
686.443	22866.59
686.79	22668.63
687.138	22658.46
687.485	22613.04
687.832	22550.66
688.18	22525.58
688.527	22556.09
688.874	22437.22
689.221	22314.96
689.568	22274.97
689.915	22225.02
690.262	22110.68
690.609	22154.97
690.956	22008.53
691.303	22023.45
691.65	22001.53
691.997	21968.76
692.344	21813.28
692.69	21718.82
693.037	21761.53
693.383	21678.14
693.73	21677.24
694.077	21481.09
694.423	21633.63
694.769	21331.26
695.116	21330.81
695.462	21356.12
695.808	21158.61
696.155	21223.24
696.501	21108.44
696.847	20965.17
697.193	20871.61
697.539	20969.91
697.885	20830.94
698.231	20712.29
698.577	20736.47
698.923	20670.49
699.269	20569.93
699.614	20381.68
699.96	20439.99
700.306	20370.16
700.651	20318.63
700.997	20228.92
701.342	20154.79
701.688	20120.22
702.033	20044.29
702.379	19997.28
702.724	19920
703.069	19931.98
703.415	19736.73
703.76	19719.1
704.105	19736.27
704.45	19644.53
704.795	19483.17
705.14	19463.51
705.485	19437.98
705.83	19462.16
706.175	19326.12
706.52	19353.46
706.865	19254.93
707.209	19263.52
707.554	19145.56
707.899	19270.75
708.243	18960.48
708.588	19014.49
708.932	18910.31
709.277	18843.64
709.621	18849.29
709.966	18775.62
710.31	18786.7
710.654	18629.19
710.998	18649.52
711.342	18689.75
711.687	18609.98
712.031	18481.62
712.375	18339.7
712.719	18478.23
713.063	18475.74
713.407	18481.84
713.75	18315.3
714.094	18293.6
714.438	18187.16
714.782	18181.74
715.125	18115.98
715.469	18142.64
715.812	18023.55
716.156	17962.76
716.499	17874.4
716.843	18017.68
717.186	17871.24
717.53	18019.26
717.873	17981.74
718.216	17970.45
718.559	17889.09
718.902	17692.71
719.246	17721.19
719.589	17734.29
719.932	17678.25
720.275	17566.16
720.617	17630.57
720.96	17605.03
721.303	17666.5
721.646	17661.3
721.989	17519.38
722.331	17606.39
722.674	17448.88
723.016	17596.9
723.359	17462.44
723.701	17447.07
724.044	17336.56
724.386	17281.65
724.729	17409.33
725.071	17305.83
725.413	17332.5
725.755	17290.01
726.097	17247.75
726.439	17065.84
726.782	17163.91
727.124	17339.28
727.465	17162.78
727.807	17099.06
728.149	17180.18
728.491	17143.8
728.833	17244.14
729.175	17091.82
729.516	17051.37
729.858	16978.38
730.199	17125.27
730.541	17037.36
730.882	17125.5
731.224	17182.67
731.565	17034.88
731.906	16970.7
732.248	17004.82
732.589	16963.47
732.93	16970.92
733.271	16997.82
733.612	16931.6
733.953	17021.32
734.294	16892.51
734.635	16847.54
734.976	16908.1
735.317	16873.3
735.658	16944.94
735.999	16911.49
736.339	16814.32
736.68	16855.67
737.021	16905.84
737.361	16881.66
737.702	17003.69
738.042	16841.44
738.383	16862.9
738.723	16906.52
739.063	16871.04
739.404	16845.73
739.744	16903.58
740.084	16858.61
740.424	16982.22
740.764	16961.43
741.104	16988.1
741.444	16836.69
741.784	16977.48
742.124	16906.97
742.464	17019.74
742.804	17008.44
743.143	16990.81
743.483	17089.79
743.823	16943.81
744.162	17041.43
744.502	17044.14
744.841	17030.81
745.181	17213.63
745.52	17061.77
745.86	17213.63
746.199	17192.16
746.538	17286.4
746.877	17404.58
747.216	17431.93
747.556	17386.73
747.895	17434.87
748.234	17433.51
748.573	17493.4
748.911	17573.62
749.25	17614.97
749.589	17702.66
749.928	17740.4
750.267	17743.78
750.605	17849.54
750.944	17931.58
751.283	17981.29
751.621	18112.36
751.96	18122.76
752.298	18171.8
752.636	18268.74
752.975	18374.05
753.313	18442.07
753.651	18562.75
753.989	18665.57
754.327	18696.53
754.666	18785.57
755.004	18935.39
755.342	19124.31
755.679	19144.43
756.017	19214.71
756.355	19387.36
756.693	19410.18
757.031	19630.97
757.368	19642.27
757.706	19696.95
758.044	19788.7
758.381	20013.33
758.719	20001.8
759.056	20135.59
759.394	20222.14
759.731	20229.6
760.068	20450.83
760.405	20471.17
760.743	20566.99
761.08	20794.55
761.417	20760.88
761.754	20854.44
762.091	20951.16
762.428	20991.84
762.765	21043.13
763.102	21309.57
763.438	21246.29
763.775	21311.83
764.112	21399.06
764.449	21579.84
764.785	21564.48
765.122	21575.55
765.458	21733.51
765.795	21648.54
766.131	21787.52
766.467	21767.63
766.804	21908.87
767.14	21840.17
767.476	21937.57
767.812	21987.97
768.148	22134.18
768.485	21993.62
768.821	22001.07
769.157	22051.24
769.492	22088.08
769.828	22177.79
770.164	22085.37
770.5	22055.76
770.836	22082.88
771.171	22132.82
771.507	22160.17
771.842	22024.12
772.178	22081.98
772.513	22095.31
772.849	22186.83
773.184	22124.46
773.519	22152.93
773.855	22028.42
774.19	22149.77
774.525	22015.31
774.86	22159.26
775.195	22064.35
775.53	22164.91
775.865	21961.75
776.2	21935.09
776.535	21824.58
776.87	21970.34
777.205	21794.53
777.539	21853.51
777.874	21943.45
778.209	21672.04
778.543	21700.97
778.878	21641.31
779.212	21659.39
779.547	21635.66
779.881	21713.85
780.215	21546.4
780.55	21593.85
780.884	21459.85
781.218	21521.31
781.552	21513.4
781.886	21331.49
782.22	21238.83
782.554	21103.02
782.888	21148.22
783.222	21048.78
783.556	20899.63
783.889	21003.13
784.223	20865.28
784.557	20822.8
784.89	20902.35
785.224	20745.74
785.557	20610.38
785.891	20682.92
786.224	20614.67
786.558	20538.06
786.891	20415.8
787.224	20275.7
787.557	20304.4
787.891	20338.52
788.224	20337.39
788.557	20298.29
788.89	20192.31
789.223	20258.75
789.556	20023.72
789.888	19931.07
790.221	19865.76
790.554	19768.14
790.887	19794.13
791.219	19664.41
791.552	19709.16
791.884	19595.26
792.217	19567.69
792.549	19571.53
792.882	19460.12
793.214	19373.57
793.546	19335.83
793.879	19267.13
794.211	19077.76
794.543	19211.99
794.875	19096.29
795.207	19141.49
795.539	19053.13
795.871	19030.98
796.203	18918.9
796.535	18763.19
796.867	18790.54
797.198	18732.01
797.53	18654.95
797.862	18562.29
798.193	18604.1
798.525	18547.38
798.856	18544.22
799.188	18277.33
799.519	18378.57
799.85	18315.97
800.182	18244.34
800.513	18200.72
800.844	18128.86
801.175	18225.81
801.506	18041.63
801.837	18074.4
802.168	17975.87
802.499	17998.02
802.83	17778.13
803.161	17805.7
803.491	17880.28
803.822	17786.72
804.153	17713.73
804.483	17588.76
804.814	17511.47
805.145	17641.87
805.475	17468.31
805.805	17491.81
806.136	17488.2
806.466	17398.71
806.796	17298.15
807.126	17237.36
807.457	17167.75
807.787	17144.03
808.117	17044.82
808.447	17066.51
808.777	17086.4
809.107	17014.76
809.436	16951.26
809.766	16924.82
810.096	16847.99
810.426	16818.16
810.755	16916.69
811.085	16807.09
811.414	16701.1
811.744	16601.44
812.073	16586.08
812.403	16557.15
812.732	16438.96
813.061	16474.21
813.39	16423.82
813.719	16295.01
814.049	16415.01
814.378	16351.51
814.707	16285.07
815.036	16301.34
815.365	16168.91
815.693	16093.43
816.022	16041.68
816.351	16014.56
816.68	15994.45
817.008	16056.6
817.337	15952.42
817.665	15785.42
817.994	15904.96
818.322	15869.03
818.651	15768.47
818.979	15705.87
819.307	15704.29
819.636	15691.86
819.964	15646.66
820.292	15723.05
820.62	15706.1
820.948	15580.23
821.276	15658.19
821.604	15607.12
821.932	15651.86
822.259	15649.83
822.587	15591.3
822.915	15570.96
823.243	15548.59
823.57	15509.27
823.898	15600.34
824.225	15557.85
824.553	15516.5
824.88	15496.16
825.207	15571.19
825.535	15547.68
825.862	15576.61
826.189	15482.6
826.516	15613.22
826.843	15594.69
827.17	15527.57
827.497	15615.48
827.824	15611.41
828.151	15531.19
828.478	15493.45
828.805	15659.55
829.131	15508.36
829.458	15505.2
829.785	15413.68
830.111	15523.05
830.438	15567.8
830.764	15505.65
831.09	15515.37
831.417	15376.84
831.743	15571.41
832.069	15490.28
832.395	15393.11
832.722	15490.96
833.048	15385.2
833.374	15425.43
833.7	15356.73
834.026	15346.79
834.351	15418.42
834.677	15383.39
835.003	15387.46
835.329	15348.14
835.654	15277.64
835.98	15250.29
836.306	15315.83
836.631	15246.45
836.956	15212.1
837.282	15266.56
837.607	15228.14
837.932	15135.94
838.258	15168.26
838.583	15172.1
838.908	15015.72
839.233	15091.2
839.558	14990.18
839.883	14913.35
840.208	14902.73
840.533	14926.68
840.858	14913.8
841.182	14908.38
841.507	14889.62
841.832	14817.08
842.156	14769.63
842.481	14839.91
842.805	14782.73
843.13	14656.86
843.454	14740.93
843.778	14583.42
844.103	14564.66
844.427	14528.28
844.751	14543.87
845.075	14522.17
845.399	14483.76
845.723	14400.37
846.047	14390.43
846.371	14203.54
846.695	14246.02
847.019	14138.46
847.343	14076.76
847.666	14070.21
847.99	13992.25
848.313	13923.77
848.637	13877.45
848.96	13844
849.284	13872.93
849.607	13667.28
849.931	13715.19
850.254	13562.65
850.577	13532.14
850.9	13465.25
851.223	13382.54
851.546	13408.53
851.869	13302.77
852.192	13326.95
852.515	13208.31
852.838	13190.68
853.161	13134.19
853.483	13149.78
853.806	13054.64
854.129	13033.4
854.451	13002.21
854.774	12903.91
855.096	12957.92
855.419	12882.44
855.741	12863.91
856.063	12801.77
856.385	12745.95
856.708	12700.08
857.03	12648.1
857.352	12744.14
857.674	12558.16
857.996	12472.29
858.318	12546.63
858.64	12477.03
858.961	12472.96
859.283	12425.28
859.605	12349.8
859.926	12395
860.248	12354.1
860.57	12259.64
860.891	12282.01
861.212	12188.45
861.534	12173.76
861.855	12063.48
862.176	12157.27
862.498	12079.08
862.819	12076.14
863.14	12131.28
863.461	12108.45
863.782	11960.43
864.103	12030.26
864.424	12001.34
864.745	11951.62
865.065	11901.9
865.386	11878.4
865.707	11805.41
866.027	11874.11
866.348	11857.84
866.668	11836.14
866.989	11802.7
867.309	11705.53
867.63	11741.68
867.95	11748.24
868.27	11664.4
868.59	11643.83
868.91	11569.48
869.23	11606.77
869.55	11538.75
869.87	11585.08
870.19	11625.53
870.51	11623.49
870.83	11647
871.15	11516.15
871.469	11581.46
871.789	11496.27
872.109	11485.64
872.428	11400.67
872.748	11375.59
873.067	11378.75
873.386	11395.93
873.706	11366.33
874.025	11347.34
874.344	11265.54
874.663	11304.41
874.982	11296.95
875.301	11216.72
875.62	11224.18
875.939	11259.44
876.258	11243.62
876.577	11212.43
876.896	11263.05
877.214	11182.15
877.533	11173.11
877.852	11125.43
878.17	11115.03
878.489	11136.73
878.807	11145.09
879.125	11046.11
879.444	11003.4
879.762	10974.47
880.08	11009.95
880.398	10945.77
880.716	10989.61
881.034	10948.03
881.352	10996.39
881.67	10938.31
881.988	10930.4
882.306	10853.8
882.624	10819.67
882.941	10720.47
883.259	10751.88
883.577	10780.58
883.894	10691.09
884.212	10656.29
884.529	10703.74
884.846	10640.24
885.164	10720.69
885.481	10589.62
885.798	10551.66
886.115	10513.69
886.432	10519.34
886.75	10558.89
887.067	10497.2
887.383	10399.8
887.7	10445.45
888.017	10400.48
888.334	10380.59
888.651	10301.27
888.967	10311.89
889.284	10224.89
889.6	10248.84
889.917	10222.63
890.233	10200.48
890.55	10133.59
890.866	10193.47
891.182	10137.66
891.498	10018.11
891.815	10032.35
892.131	10011.11
892.447	9965.46
892.763	9891.11
893.079	9942.18
893.395	9931.11
893.71	9886.59
894.026	9871.9
894.342	9795.52
894.657	9730.21
894.973	9721.62
895.289	9732.24
895.604	9713.94
895.92	9550.78
896.235	9591.68
896.55	9529.99
896.865	9541.97
897.181	9605.92
897.496	9540.38
897.811	9507.62
898.126	9418.35
898.441	9368.41
898.756	9344.91
899.071	9274.63
899.386	9356.21
899.7	9202.54
900.015	9171.35
900.33	9189.66
900.644	9109.66
900.959	9174.97
901.273	9055.43
901.588	9133.16
901.902	9002.32
902.216	8973.17
902.531	8916.67
902.845	8946.05
903.159	8872.38
903.473	8834.41
903.787	8805.71
904.101	8729.33
904.415	8742.67
904.729	8705.15
905.042	8681.2
905.356	8615.44
905.67	8627.87
905.984	8593.07
906.297	8612.05
906.611	8521.2
906.924	8563.91
907.237	8457.7
907.551	8425.16
907.864	8413.18
908.177	8382.45
908.491	8370.25
908.804	8312.39
909.117	8293.41
909.43	8248.22
909.743	8179.29
910.056	8124.38
910.368	8095.45
910.681	8129.57
910.994	8105.62
911.307	8027.66
911.619	7942.46
911.932	7951.95
912.244	7936.59
912.557	7955.34
912.869	7872.63
913.181	7857.04
913.494	7830.6
913.806	7736.36
914.118	7740.43
914.43	7728.23
914.742	7729.58
915.054	7671.28
915.366	7652.3
915.678	7620.89
915.99	7530.95
916.302	7472.64
916.613	7456.15
916.925	7469.93
917.236	7382.7
917.548	7351.52
917.859	7307.9
918.171	7328.47
918.482	7276.04
918.794	7253.89
919.105	7278.52
919.416	7231.52
919.727	7206.21
920.038	7159.43
920.349	7149.49
920.66	7116.27
920.971	7053.67
921.282	7046.21
921.593	6993.11
921.903	6984.52
922.214	6912.21
922.525	6967.57
922.835	6870.4
923.146	6838.76
923.456	6847.35
923.767	6824.98
924.077	6800.57
924.387	6752.44
924.697	6678.31
925.008	6659.1
925.318	6650.07
925.628	6656.17
925.938	6585.66
926.248	6535.04
926.558	6473.12
926.867	6537.75
927.177	6489.84
927.487	6401.03
927.796	6420.01
928.106	6422.05
928.416	6373.69
928.725	6330.07
929.034	6304.99
929.344	6349.28
929.653	6300.47
929.962	6251.66
930.271	6165.56
930.581	6168.04
930.89	6127.82
931.199	6137.99
931.508	6159.91
931.817	6070.65
932.125	6026.58
932.434	6022.74
932.743	5998.1
933.051	5979.57
933.36	5980.25
933.669	5874.94
933.977	5884.44
934.286	5837.66
934.594	5848.96
934.902	5761.5
935.21	5738.68
935.519	5795.85
935.827	5738.45
936.135	5683.31
936.443	5650.54
936.751	5686.93
937.059	5651
937.367	5649.41
937.674	5637.21
937.982	5582.52
938.29	5526.03
938.597	5580.94
938.905	5472.92
939.213	5455.29
939.52	5435.41
939.827	5478.57
940.135	5441.06
940.442	5429.53
940.749	5374.39
941.056	5397.44
941.363	5293.04
941.67	5324.45
941.977	5261.63
942.284	5225.7
942.591	5239.03
942.898	5201.29
943.205	5239.25
943.511	5172.14
943.818	5127.62
944.125	5086.04
944.431	5107.05
944.738	5123.1
945.044	5025.25
945.35	5057.56
945.657	5041.75
945.963	4955.42
946.269	4957.45
946.575	4959.94
946.881	4855.54
947.187	4890.56
947.493	4875.87
947.799	4885.37
948.105	4829.55
948.41	4809.89
948.716	4811.7
949.022	4835.88
949.327	4726.95
949.633	4771.47
949.938	4717.01
950.244	4734.64
950.549	4694.86
950.854	4674.07
951.16	4653.28
951.465	4607.63
951.77	4573.96
952.075	4554.08
952.38	4545.71
952.685	4486.73
952.99	4513.4
953.294	4482.89
953.599	4503.68
953.904	4410.12
954.209	4406.51
954.513	4420.97
954.818	4374.42
955.122	4365.83
955.426	4361.76
955.731	4309.79
956.035	4317.25
956.339	4273.63
956.643	4301.2
956.948	4270.01
957.252	4215.55
957.556	4231.15
957.86	4219.39
958.163	4190.47
958.467	4153.18
958.771	4179.85
959.075	4136.69
959.378	4115.89
959.682	4106.4
959.985	4077.48
960.289	4066.4
960.592	4023.02
960.896	4038.16
961.199	4010.59
961.502	4037.25
961.805	4002.45
962.108	3916.13
962.411	3918.39
962.714	3928.1
963.017	3909.8
963.32	3931.94
963.623	3908.67
963.926	3864.83
964.228	3829.35
964.531	3836.58
964.833	3839.07
965.136	3795.68
965.438	3825.96
965.741	3735.34
966.043	3793.87
966.345	3754.1
966.648	3715.45
966.95	3695.34
967.252	3652.4
967.554	3646.75
967.856	3622.57
968.158	3647.43
968.46	3622.35
968.761	3583.93
969.063	3602.46
969.365	3575.57
969.666	3551.39
969.968	3482.24
970.269	3491.28
970.571	3490.6
970.872	3484.05
971.174	3477.49
971.475	3440.21
971.776	3439.08
972.077	3417.83
972.378	3433.2
972.679	3405.4
972.98	3424.39
973.281	3339.42
973.582	3338.51
973.883	3317.27
974.183	3338.51
974.484	3333.99
974.785	3333.09
975.085	3297.39
975.386	3269.59
975.686	3248.35
975.986	3270.04
976.287	3221
976.587	3201.57
976.887	3202.7
977.187	3199.99
977.487	3150.04
977.787	3142.13
978.087	3128.58
978.387	3107.33
978.687	3130.16
978.987	3071.63
979.286	3071.18
979.586	3077.5
979.885	3048.13
980.185	3048.8
980.484	3018.97
980.784	2983.27
981.083	3008.58
981.382	2998.64
981.682	3003.61
981.981	2959.09
982.28	2922.48
982.579	2903.05
982.878	2934.68
983.177	2886.32
983.475	2864.85
983.774	2883.16
984.073	2842.71
984.372	2851.3
984.67	2827.79
984.969	2836.61
985.267	2871.86
985.566	2803.84
985.864	2783.95
986.162	2769.26
986.461	2764.97
986.759	2755.7
987.057	2692.88
987.355	2724.97
987.653	2698.08
987.951	2714.35
988.249	2700.79
988.547	2682.49
988.844	2665.31
989.142	2639.55
989.44	2649.72
989.737	2633.45
990.035	2612.43
990.332	2587.8
990.63	2546.44
990.927	2574.24
991.224	2588.03
991.521	2535.15
991.819	2526.11
992.116	2555.26
992.413	2554.58
992.71	2505.09
993.006	2480.68
993.303	2484.53
993.6	2482.49
993.897	2487.69
994.193	2466.9
994.49	2416.73
994.787	2464.64
995.083	2382.38
995.379	2382.38
995.676	2422.15
995.972	2372.44
996.268	2329.95
996.565	2327.02
996.861	2319.33
997.157	2310.52
997.453	2302.38
997.749	2312.33
998.044	2298.99
998.34	2298.32
998.636	2254.47
998.932	2243.4
999.227	2241.82
999.523	2255.6
999.818	2202.27
1000.114	2225.32
1000.409	2216.96
1000.704	2172.44
1001	2182.61
1001.295	2134.03
1001.59	2175.61
1001.885	2149.84
1002.18	2096.51
1002.475	2129.96
1002.77	2126.79
1003.065	2107.59
1003.359	2079.56
1003.654	2050.86
1003.949	2062.84
1004.243	2020.81
1004.538	2034.37
1004.832	1996.18
1005.127	2033.24
1005.421	1998.89
1005.715	1968.61
1006.009	1986.01
1006.304	1941.04
1006.598	1931.32
1006.892	1966.57
1007.186	1930.64
1007.48	1911.88
1007.773	1920.02
1008.067	1922.96
1008.361	1879.8
1008.655	1880.47
1008.948	1870.98
1009.242	1859.23
1009.535	1855.84
1009.829	1827.82
1010.122	1820.36
1010.415	1811.77
1010.708	1792.79
1011.001	1756.86
1011.295	1758.67
1011.588	1756.86
1011.881	1770.42
1012.173	1767.93
1012.466	1747.37
1012.759	1729.97
1013.052	1726.58
1013.344	1703.75
1013.637	1719.12
1013.93	1670.76
1014.222	1675.73
1014.514	1673.02
1014.807	1677.54
1015.099	1668.73
1015.391	1659.46
1015.683	1654.26
1015.976	1600.48
1016.268	1613.14
1016.56	1583.53
1016.851	1595.96
1017.143	1611.33
1017.435	1564.32
1017.727	1571.1
1018.018	1553.93
1018.31	1551.89
1018.602	1534.49
1018.893	1523.42
1019.185	1521.39
1019.476	1510.54
1019.767	1484.78
1020.058	1471.9
1020.35	1410.65
1020.641	1445.68
1020.932	1474.61
1021.223	1466.92
1021.514	1434.16
1021.804	1433.03
1022.095	1405.68
1022.386	1400.94
1022.677	1391.67
1022.967	1395.74
1023.258	1366.59
1023.548	1369.75
1023.839	1369.98
1024.129	1331.79
1024.419	1345.8
1024.709	1318
1025	1292.47
1025.29	1324.33
1025.58	1301.28
1025.87	1327.27
1026.16	1310.77
1026.449	1291.79
1026.739	1266.25
1027.029	1274.16
1027.319	1268.96
1027.608	1236.2
1027.898	1264.22
1028.187	1226.03
1028.477	1225.35
1028.766	1248.85
1029.055	1218.12
1029.344	1201.62
1029.634	1201.17
1029.923	1166.14
1030.212	1201.62
1030.501	1163.66
1030.79	1152.36
1031.078	1151.9
1031.367	1127.05
1031.656	1129.98
1031.945	1133.83
1032.233	1144.67
1032.522	1114.39
1032.81	1096.76
1033.099	1111.68
1033.387	1117.1
1033.675	1087.5
1033.963	1078.91
1034.251	1056.09
1034.54	1082.75
1034.828	1049.31
1035.116	1047.5
1035.403	1040.95
1035.691	1026.03
1035.979	1054.96
1036.267	1054.73
1036.554	1022.19
1036.842	1002.3
1037.129	1007.95
1037.417	1000.5
1037.704	987.39
1037.992	971.8
1038.279	991.01
1038.566	990.55
1038.853	990.55
1039.14	990.55
