Data from hue_20_FLMS001491_86.txt Node
Date: Mon Feb 06 15:34:47 GMT 2017
User: dcchb
Spectrometer: FLMS00149
Trigger mode: 0
Integration Time (sec): 2.000000E-2
Scans to average: 10
Electric dark correction enabled: true
Nonlinearity correction enabled: false
Boxcar width: 0
XAxis mode: Wavelengths
Number of Pixels in Spectrum: 2048
>>>>>Begin Spectral Data<<<<<
341.393	2.18
341.776	2.18
342.16	2.18
342.543	-45.96
342.927	-69.69
343.31	-72.63
343.693	-69.69
344.077	-54.55
344.46	-51.61
344.843	-41.21
345.226	-35.79
345.61	-39.63
345.993	-17.71
346.376	-7.32
346.759	17.77
347.142	22.74
347.525	45.79
347.908	55.73
348.291	62.51
348.674	76.98
349.057	108.61
349.44	109.74
349.823	133.47
350.206	155.62
350.588	206.01
350.971	197.65
351.354	231.1
351.737	245.11
352.119	250.98
352.502	264.54
352.884	283.07
353.267	278.33
353.65	308.83
354.032	312.9
354.414	305.9
354.797	309.06
355.179	319.91
355.562	332.34
355.944	365.33
356.326	349.28
356.709	342.05
357.091	350.64
357.473	355.61
357.855	332.79
358.238	328.04
358.62	321.71
359.002	329.85
359.384	361.94
359.766	339.34
360.148	354.93
360.53	328.49
360.912	358.78
361.294	335.73
361.676	340.92
362.057	338.89
362.439	328.49
362.821	331.66
363.203	333.69
363.584	331.88
363.966	321.49
364.348	326.46
364.729	346.57
365.111	318.78
365.493	325.56
365.874	310.42
366.256	314.71
366.637	306.8
367.019	301.38
367.4	326.91
367.781	322.62
368.163	319
368.544	317.42
368.925	314.03
369.306	315.84
369.688	318.78
370.069	307.93
370.45	324.88
370.831	306.8
371.212	314.26
371.593	307.03
371.974	326.01
372.355	320.13
372.736	328.95
373.117	313.35
373.498	288.72
373.879	322.17
374.26	309.51
374.641	333.47
375.021	341.38
375.402	315.39
375.783	340.7
376.163	335.27
376.544	334.37
376.925	328.49
377.305	328.95
377.686	319
378.066	330.75
378.447	336.4
378.827	304.54
379.208	335.05
379.588	324.43
379.968	349.96
380.349	338.21
380.729	339.79
381.109	321.49
381.489	325.33
381.87	331.88
382.25	351.54
382.63	344.99
383.01	344.76
383.39	340.92
383.77	333.47
384.15	331.21
384.53	347.25
384.91	346.57
385.29	362.39
385.67	356.06
386.049	363.3
386.429	349.28
386.809	360.36
387.189	375.05
387.568	359.91
387.948	371.2
388.328	368.95
388.707	362.39
389.087	368.72
389.466	369.17
389.846	366.69
390.225	350.41
390.605	386.57
390.984	375.27
391.363	387.02
391.743	381.15
392.122	368.49
392.501	378.21
392.881	386.8
393.26	362.39
393.639	385.44
394.018	394.26
394.397	380.92
394.776	377.31
395.155	374.82
395.534	373.69
395.913	387.02
396.292	390.41
396.671	379.34
397.05	372.11
397.429	392.9
397.808	375.27
398.186	391.54
398.565	398.77
398.944	388.83
399.323	401.71
399.701	364.2
400.08	399
400.458	396.29
400.837	407.36
401.215	426.34
401.594	404.2
401.972	396.29
402.351	398.32
402.729	396.74
403.107	412.11
403.486	405.33
403.864	421.15
404.242	413.69
404.62	420.02
404.999	414.59
405.377	452.33
405.755	442.16
406.133	429.73
406.511	437.87
406.889	403.52
407.267	448.72
407.645	445.78
408.023	439.9
408.401	458.89
408.779	439.68
409.156	436.29
409.534	451.2
409.912	446.68
410.29	453.91
410.667	438.77
411.045	452.56
411.422	450.52
411.8	464.76
412.178	457.76
412.555	454.82
412.933	495.04
413.31	476.51
413.687	478.77
414.065	469.51
414.442	482.84
414.819	483.07
415.197	490.07
415.574	506.57
415.951	506.79
416.328	502.27
416.705	490.07
417.082	507.25
417.46	499.34
417.837	519.68
418.214	512.22
418.591	518.32
418.967	518.55
419.344	521.03
419.721	499.11
420.098	539.79
420.475	490.52
420.852	530.3
421.228	521.48
421.605	537.53
421.982	535.95
422.358	532.1
422.735	538.66
423.111	535.27
423.488	542.95
423.864	549.73
424.241	555.61
424.617	555.38
424.994	542.5
425.37	576.62
425.746	533.91
426.123	544.76
426.499	564.42
426.875	569.39
427.251	590.41
427.627	571.88
428.003	578.66
428.379	601.03
428.756	584.53
429.132	589.73
429.507	610.29
429.883	615.04
430.259	620.24
430.635	599
431.011	619.79
431.387	617.98
431.763	600.58
432.138	643.29
432.514	628.6
432.89	633.34
433.265	653.46
433.641	668.6
434.016	663.17
434.392	659.78
434.767	642.61
435.143	672.67
435.518	685.09
435.894	682.16
436.269	701.14
436.644	701.14
437.02	700.91
437.395	695.72
437.77	742.27
438.145	695.72
438.52	721.93
438.895	739.78
439.271	730.52
439.646	739.33
440.021	728.71
440.395	733
440.77	745.88
441.145	748.14
441.52	772.1
441.895	756.28
442.27	771.87
442.645	774.13
443.019	763.51
443.394	789.05
443.769	784.08
444.143	776.17
444.518	789.05
444.892	763.51
445.267	805.54
445.641	799.44
446.016	775.49
446.39	797.41
446.764	803.51
447.139	811.42
447.513	803.06
447.887	790.18
448.262	823.62
448.636	821.36
449.01	838.54
449.384	854.13
449.758	846.67
450.132	864.98
450.506	853.45
450.88	863.85
451.254	854.13
451.628	843.28
452.002	855.94
452.376	893
452.75	893.9
453.123	895.48
453.497	901.59
453.871	913.79
454.244	930.29
454.618	918.76
454.992	937.29
455.365	920.34
455.739	978.19
456.112	961.92
456.486	960.34
456.859	986.78
457.232	968.48
457.606	977.74
457.979	1023.62
458.352	1015.71
458.725	1032.88
459.099	1020.45
459.472	1043.05
459.845	1053.22
460.218	1074.92
460.591	1081.47
460.964	1078.3
461.337	1104.29
461.71	1089.15
462.083	1089.6
462.456	1130.28
462.829	1135.7
463.201	1118.53
463.574	1141.13
463.947	1184.29
464.32	1166.66
464.692	1178.87
465.065	1200.34
465.438	1229.04
465.81	1236.27
466.183	1250.28
466.555	1245.31
466.928	1300.22
467.3	1287.57
467.672	1309.49
468.045	1323.72
468.417	1338.86
468.789	1347.22
469.161	1361.91
469.534	1389.71
469.906	1407.34
470.278	1417.28
470.65	1398.07
471.022	1448.92
471.394	1464.74
471.766	1471.51
472.138	1519.65
472.51	1521.01
472.882	1570.72
473.253	1565.3
473.625	1626.99
473.997	1610.72
474.369	1660.21
474.74	1676.26
475.112	1674.22
475.484	1718.51
475.855	1752.19
476.227	1766.2
476.598	1808.46
476.97	1809.36
477.341	1853.2
477.713	1881.22
478.084	1956.93
478.455	1996.02
478.827	1993.31
479.198	2040.09
479.569	2061.33
479.94	2134.32
480.311	2159.18
480.682	2208.9
481.053	2221.1
481.424	2271.95
481.795	2325.96
482.166	2357.14
482.537	2358.27
482.908	2482.11
483.279	2480.98
483.65	2514.65
484.021	2567.98
484.391	2603.91
484.762	2628.09
485.133	2654.53
485.503	2673.07
485.874	2739.28
486.244	2801.42
486.615	2849.11
486.985	2887.07
487.356	3000.06
487.726	2992.15
488.097	3038.93
488.467	3105.6
488.837	3144.01
489.207	3171.81
489.578	3238.93
489.948	3302.43
490.318	3315.08
490.688	3367.96
491.058	3409.77
491.428	3452.48
491.798	3511.69
492.168	3570.44
492.538	3599.82
492.908	3662.64
493.278	3679.59
493.648	3683.43
494.017	3748.52
494.387	3782.41
494.757	3805.69
495.126	3867.84
495.496	3936.31
495.866	3979.7
496.235	3979.02
496.605	4006.36
496.974	4043.65
497.344	4084.33
497.713	4104.67
498.082	4199.35
498.452	4187.38
498.821	4206.58
499.19	4209.75
499.559	4307.6
499.928	4285
500.298	4382.4
500.667	4374.94
501.036	4397.09
501.405	4415.39
501.774	4395.28
502.143	4470.76
502.512	4476.86
502.88	4515.28
503.249	4562.51
503.618	4571.32
503.987	4562.51
504.356	4596.4
504.724	4661.04
505.093	4644.99
505.462	4728.38
505.83	4692
506.199	4731.77
506.567	4838.21
506.936	4791.43
507.304	4838.66
507.672	4847.7
508.041	4867.36
508.409	4902.84
508.777	4986.9
509.145	4976.51
509.514	5011.76
509.882	5029.39
510.25	5033
510.618	5051.53
510.986	5101.93
511.354	5136.05
511.722	5162.72
512.09	5160.68
512.458	5199.33
512.826	5228.93
513.193	5256.5
513.561	5244.98
513.929	5257.86
514.297	5338.98
514.664	5334.92
515.032	5308.7
515.4	5408.81
515.767	5348.48
516.135	5410.85
516.502	5430.28
516.869	5460.56
517.237	5472.09
517.604	5441.13
517.972	5508.47
518.339	5544.63
518.706	5558.64
519.073	5585.08
519.44	5560.45
519.808	5579.43
520.175	5627.79
520.542	5695.13
520.909	5711.18
521.276	5705.53
521.643	5785.07
522.009	5786.43
522.376	5816.03
522.743	5815.36
523.11	5870.27
523.477	5903.26
523.843	5934.22
524.21	5963.6
524.577	6057.84
524.943	6010.6
525.31	6065.97
525.676	6114.1
526.043	6132.18
526.409	6149.58
526.776	6174.67
527.142	6192.97
527.508	6304.38
527.874	6315.68
528.241	6311.84
528.607	6298.51
528.973	6413.53
529.339	6364.04
529.705	6435.9
530.071	6522
530.437	6506.18
530.803	6562.91
531.169	6643.58
531.535	6637.03
531.901	6566.97
532.267	6675.22
532.632	6699.85
532.998	6669.12
533.364	6716.8
533.73	6754.77
534.095	6849.45
534.461	6790.7
534.826	6880.64
535.192	6901.2
535.557	6880.41
535.923	6961.99
536.288	6980.07
536.653	7025.27
537.019	6964.03
537.384	7056.68
537.749	6999.96
538.114	7092.16
538.479	7119.5
538.845	7147.75
539.21	7149.56
539.575	7154.76
539.94	7216.45
540.305	7226.39
540.67	7287.41
541.034	7297.35
541.399	7313.17
541.764	7377.12
542.129	7357.46
542.494	7456.67
542.858	7519.94
543.223	7459.83
543.587	7530.34
543.952	7536.44
544.316	7561.52
544.681	7596.33
545.045	7670.45
545.41	7619.83
545.774	7651.24
546.138	7706.15
546.503	7701.86
546.867	7747.06
547.231	7821.18
547.595	7794.51
547.959	7822.99
548.324	7922.87
548.688	7916.77
549.052	7940.05
549.416	7999.25
549.779	7955.64
550.143	8016.43
550.507	8093.04
550.871	8084.22
551.235	8017.56
551.599	8185.91
551.962	8147.27
552.326	8216.2
552.689	8265.01
553.053	8210.09
553.417	8221.62
553.78	8354.72
554.143	8308.4
554.507	8341.16
554.87	8355.4
555.234	8459.58
555.597	8419.13
555.96	8458.45
556.323	8484.21
556.686	8486.25
557.05	8575.51
557.413	8492.35
557.776	8561.05
558.139	8621.61
558.502	8669.74
558.865	8610.54
559.228	8662.51
559.59	8780.02
559.953	8741.15
560.316	8806.24
560.679	8832.68
561.041	8859.34
561.404	8898.66
561.767	8976.63
562.129	8881.26
562.492	8982.96
562.854	9025.44
563.217	8996.97
563.579	8998.77
563.941	9130.97
564.304	9109.51
564.666	9165.1
565.028	9172.1
565.39	9214.14
565.753	9286.68
566.115	9300.46
566.477	9333.23
566.839	9362.15
567.201	9366.22
567.563	9425.2
567.925	9452.77
568.287	9536.84
568.648	9584.52
569.01	9633.33
569.372	9702.94
569.734	9618.42
570.095	9703.84
570.457	9734.57
570.819	9772.31
571.18	9814.8
571.542	9920.56
571.903	9848.47
572.265	9953.1
572.626	10006.88
572.987	10072.87
573.349	10131.4
573.71	10208.91
574.071	10186.31
574.432	10281.9
574.794	10335.46
575.155	10335.69
575.516	10320.77
575.877	10484.84
576.238	10511.96
576.599	10614.55
576.96	10653.42
577.32	10796.69
577.681	10833.08
578.042	10883.7
578.403	10896.35
578.763	11057.03
579.124	11142.45
579.485	11242.33
579.845	11402.33
580.206	11450.91
580.566	11585.15
580.927	11718.7
581.287	11850.23
581.648	11988.3
582.008	12155.53
582.368	12253.15
582.728	12375.64
583.089	12546.7
583.449	12757.09
583.809	12903.76
584.169	13090.64
584.529	13298.55
584.889	13528.6
585.249	13689.05
585.609	13725.88
585.969	14143.95
586.329	14232.08
586.688	14517.27
587.048	14730.15
587.408	14895.12
587.768	15194.09
588.127	15395.44
588.487	15646.28
588.846	16013.51
589.206	16142.99
589.565	16401.74
589.925	16789.3
590.284	16981.39
590.643	17340.93
591.003	17589.74
591.362	17933.91
591.721	18306.1
592.08	18608.47
592.44	18835.13
592.799	19207.77
593.158	19497.26
593.517	19751.03
593.876	20179.5
594.235	20417.68
594.593	20831.46
594.952	21063.77
595.311	21541.04
595.67	21793.47
596.029	22331.98
596.387	22616.27
596.746	22970.16
597.104	23101.23
597.463	23450.82
597.822	23843.58
598.18	24086.51
598.538	24417.35
598.897	24961.07
599.255	25086.49
599.613	25732.8
599.972	25914.71
600.33	26248.72
600.688	26523.51
601.046	26940
601.404	27319.65
601.762	27541.34
602.12	28012.51
602.478	28312.62
602.836	28615.89
603.194	28762.77
603.552	29152.37
603.91	29441.4
604.268	29765.46
604.625	30030.09
604.983	30505.78
605.341	30630.3
605.698	31078.19
606.056	31422.82
606.413	31620.1
606.771	31948.68
607.128	32351.38
607.485	32377.14
607.843	32679.28
608.2	33213.28
608.557	33524.68
608.914	33566.26
609.272	34028.17
609.629	34235.4
609.986	34521.04
610.343	34697.31
610.7	35111.99
611.057	35283.51
611.414	35596.27
611.771	35787.67
612.127	36071.96
612.484	36154.9
612.841	36538.62
613.198	36492.29
613.554	36685.96
613.911	37123.46
614.267	37356.67
614.624	37483.68
614.98	37793.5
615.337	38080.72
615.693	38097.67
616.05	38222.64
616.406	38681.84
616.762	38786.92
617.118	38816.07
617.475	38959.57
617.831	39279.11
618.187	39577.86
618.543	39604.98
618.899	39997.06
619.255	40057.62
619.611	40002.48
619.967	40464.61
620.323	40517.72
620.678	40396.37
621.034	40594.1
621.39	40699.41
621.746	40850.37
622.101	41425.04
622.457	41195.67
622.812	41306.17
623.168	41602.44
623.523	41598.14
623.879	41868.87
624.234	41658.48
624.589	41915.2
624.945	42004.69
625.3	42288.29
625.655	42181.41
626.01	42165.36
626.365	42498.23
626.72	42226.83
627.075	42485.35
627.43	42408.97
627.785	42441.06
628.14	42628.85
628.495	42798.56
628.85	42898
629.205	42770.77
629.559	42982.51
629.914	42966.7
630.269	42920.37
630.623	42993.81
630.978	42926.92
631.332	43164.66
631.687	43241.72
632.041	43057.31
632.396	43193.58
632.75	43137.99
633.104	43235.16
633.459	43122.85
633.813	43187.25
634.167	43180.47
634.521	43228.84
634.875	43383.63
635.229	43306.57
635.583	43320.81
635.937	43325.56
636.291	43277.87
636.645	43272.9
636.999	43243.52
637.352	43394.48
637.706	43080.36
638.06	43386.8
638.413	43276.97
638.767	43229.06
639.121	43414.59
639.474	43068.39
639.828	43135.73
640.181	43157.65
640.534	43254.15
640.888	43246.91
641.241	43014.6
641.594	43211.43
641.947	43308.16
642.301	43043.98
642.654	43096.86
643.007	43140.02
643.36	43086.92
643.713	43053.47
644.066	43316.97
644.419	43074.94
644.771	42786.36
645.124	42423.66
645.477	42353.15
645.83	42058.02
646.182	41947.74
646.535	41882.66
646.888	42031.13
647.24	41714.75
647.593	42080.39
647.945	41978.25
648.298	41777.35
648.65	41763.34
649.002	41709.78
649.355	41797.46
649.707	41740.96
650.059	41926.95
650.411	42471.34
650.763	42342.3
651.115	42697.1
651.467	42581.39
651.819	42758.34
652.171	42597.44
652.523	42421.4
652.875	42697.32
653.227	42307.05
653.578	42612.81
653.93	42598.12
654.282	42486.48
654.633	42433.38
654.985	42521.51
655.337	42455.52
655.688	42532.13
656.039	42622.3
656.391	42258.01
656.742	42387.95
657.094	42408.07
657.445	42426.6
657.796	42437.9
658.147	42396.09
658.498	42270.67
658.849	42377.56
659.2	42323.1
659.551	42281.52
659.902	42406.26
660.253	42415.07
660.604	42340.95
660.955	42101.63
661.306	42343.43
661.656	42299.59
662.007	42365.81
662.358	42160.16
662.708	42142.31
663.059	42182.08
663.409	42007.17
663.76	42291.23
664.11	42248.3
664.461	42324.23
664.811	42306.15
665.161	42243.32
665.511	42104.8
665.862	42097.57
666.212	42284.91
666.562	42198.35
666.912	42053.72
667.262	42152.03
667.612	42127.85
667.962	42193.38
668.312	42046.95
668.662	42161.52
669.011	42209.2
669.361	42079.03
669.711	42076.32
670.06	41958.36
670.41	41937.34
670.76	41839.04
671.109	41936.21
671.459	42067.28
671.808	41923.11
672.157	41980.05
672.507	41681.08
672.856	41678.37
673.205	41919.49
673.554	42112.03
673.904	41913.39
674.253	42085.59
674.602	41878.14
674.951	41237.25
675.3	41135.1
675.649	41800.4
675.998	41752.72
676.346	41690.34
676.695	41898.47
677.044	41446.96
677.393	41689.89
677.741	41536.9
678.09	41577.35
678.438	41534.64
678.787	41565.83
679.135	41514.08
679.484	41288.32
679.832	41404.93
680.181	41166.97
680.529	41208.1
680.877	41269.79
681.225	41124.48
681.573	41492.16
681.922	41025.05
682.27	41137.59
682.618	41189.79
682.966	40914.09
683.314	40987.31
683.661	40919.74
684.009	40728.56
684.357	40651.95
684.705	40528.34
685.053	40679.52
685.4	40650.6
685.748	40353.88
686.095	40526.99
686.443	40196.37
686.79	40272.75
687.138	40167.9
687.485	40190.95
687.832	40011.07
688.18	40117.05
688.527	40024.17
688.874	39882.26
689.221	39886.1
689.568	39787.12
689.915	39673.45
690.262	39642.71
690.609	39614.92
690.956	39326.56
691.303	39385.32
691.65	39223.06
691.997	39250.86
692.344	39084.54
692.69	39101.03
693.037	39075.05
693.383	38678.67
693.73	38931.09
694.077	38581.95
694.423	38702.4
694.769	38503.54
695.116	38435.06
695.462	38361.84
695.808	38298.34
696.155	38372.69
696.501	38167.95
696.847	38096.09
697.193	37671.92
697.539	37896.77
697.885	37639.83
698.231	37549.66
698.577	37515.99
698.923	37425.6
699.269	37137.02
699.614	37014.31
699.96	37095.21
700.306	37203
700.651	36945.84
700.997	36817.48
701.342	36709.01
701.688	36789.46
702.033	36621.55
702.379	36597.82
702.724	36462.23
703.069	36486.87
703.415	36047.78
703.76	36152.64
704.105	36157.61
704.45	36152.41
704.795	35780.9
705.14	35757.17
705.485	35716.72
705.83	35629.49
706.175	35578.41
706.52	35499.55
706.865	35401.92
707.209	35245.54
707.554	35241.93
707.899	35349.49
708.243	35062.72
708.588	34971.88
708.932	34869.96
709.277	34935.95
709.621	34824.08
709.966	34627.71
710.31	34765.55
710.654	34506.58
710.998	34445.11
711.342	34459.12
711.687	34416.86
712.031	34225.23
712.375	34149.3
712.719	34165.8
713.063	34065.46
713.407	34234.95
713.75	33924.22
714.094	33936.88
714.438	33765.58
714.782	33830.21
715.125	33680.39
715.469	33682.65
715.812	33563.55
716.156	33300.51
716.499	33340.96
716.843	33412.6
717.186	33217.12
717.53	33260.51
717.873	33337.8
718.216	33211.92
718.559	33117.69
718.902	32902.55
719.246	33056.9
719.589	32825.49
719.932	32764.48
720.275	32760.86
720.617	32637.02
720.96	32646.06
721.303	32627.08
721.646	32579.17
721.989	32330.14
722.331	32488.1
722.674	32406.07
723.016	32440.87
723.359	32357.03
723.701	32379.4
724.044	32161.33
724.386	32127.43
724.729	32213.08
725.071	32014.89
725.413	32046.3
725.755	31949.13
726.097	31902.35
726.439	31759.08
726.782	31719.76
727.124	31882.24
727.465	31746.2
727.807	31746.43
728.149	31625.3
728.491	31575.13
728.833	31639.31
729.175	31528.13
729.516	31425.53
729.858	31296.04
730.199	31352.76
730.541	31253.33
730.882	31156.16
731.224	31325.19
731.565	31091.75
731.906	31091.08
732.248	31016.5
732.589	30866.9
732.93	30862.15
733.271	30958.65
733.612	30898.99
733.953	30973.34
734.294	30760.46
734.635	30579.68
734.976	30778.09
735.317	30579
735.658	30587.81
735.999	30581.94
736.339	30489.96
736.68	30475.05
737.021	30379.23
737.361	30216.75
737.702	30442.96
738.042	30259.01
738.383	30252.91
738.723	30436.63
739.063	30196.86
739.404	30164.55
739.744	30104.89
740.084	30140.37
740.424	30136.3
740.764	30037.54
741.104	30081.84
741.444	29977.88
741.784	29788.74
742.124	29937.89
742.464	29828.28
742.804	29736.31
743.143	29684.56
743.483	29652.02
743.823	29628.97
744.162	29635.07
744.502	29599.36
744.841	29393.72
745.181	29572.02
745.52	29353.27
745.86	29327.05
746.199	29263.33
746.538	29329.54
746.877	29306.94
747.216	29313.04
747.556	29186.04
747.895	29197.11
748.234	28989.44
748.573	29076.89
748.911	28989.21
749.25	28987.85
749.589	28904.69
749.928	28996.21
750.267	28812.72
750.605	28746.96
750.944	28791.47
751.283	28668.31
751.621	28751.48
751.96	28619.5
752.298	28528.66
752.636	28586.06
752.975	28434.2
753.313	28341.99
753.651	28488.21
753.989	28238.04
754.327	28217.7
754.666	28105.39
755.004	28163.47
755.342	28137.03
755.679	28125.73
756.017	27901.78
756.355	28042.57
756.693	27845.28
757.031	27884.83
757.368	27830.37
757.706	27721.45
758.044	27612.75
758.381	27691.39
758.719	27443.04
759.056	27592.86
759.394	27456.14
759.731	27234.91
760.068	27231.29
760.405	27207.34
760.743	27135.02
761.08	27186.32
761.417	26895.03
761.754	27069.94
762.091	26912.2
762.428	26839.44
762.765	26566.22
763.102	26819.1
763.438	26537.52
763.775	26337.3
764.112	26490.74
764.449	26486.68
764.785	26323.52
765.122	26288.94
765.458	26106.35
765.795	26196.97
766.131	26049.4
766.467	25930.08
766.804	25782.97
767.14	25690.77
767.476	25650.31
767.812	25464.33
768.148	25599.24
768.485	25414.61
768.821	25276.99
769.157	25276.09
769.492	25266.37
769.828	25156.77
770.164	24848.3
770.5	24839.04
770.836	24959.71
771.171	24767.85
771.507	24590.68
771.842	24622.32
772.178	24433.4
772.513	24508.88
772.849	24476.79
773.184	24298.49
773.519	24322.89
773.855	24112.28
774.19	24067.53
774.525	23979.62
774.86	23997.93
775.195	23831.15
775.53	23713.42
775.865	23764.04
776.2	23419.64
776.535	23417.6
776.87	23329.47
777.205	23224.16
777.539	23138.52
777.874	23166.54
778.209	22948.01
778.543	22878.41
778.878	22742.59
779.212	22882.25
779.547	22797.96
779.881	22673.67
780.215	22520.45
780.55	22657.17
780.884	22399.55
781.218	22325.88
781.552	22392.09
781.886	22334.47
782.22	22186.9
782.554	22002.5
782.888	21912.56
783.222	21811.55
783.556	21709.4
783.889	21722.96
784.223	21412.91
784.557	21357.77
784.89	21394.83
785.224	21256.98
785.557	21192.58
785.891	21219.92
786.224	21130.66
786.558	21115.52
786.891	20941.74
787.224	20810.89
787.557	20693.38
787.891	20777.45
788.224	20733.61
788.557	20574.52
788.89	20649.54
789.223	20540.84
789.556	20375.2
789.888	20407.97
790.221	20300.62
790.554	20157.8
790.887	20169.55
791.219	19946.74
791.552	19903.12
791.884	19988.54
792.217	19829.9
792.549	19719.17
792.882	19666.06
793.214	19511.72
793.546	19610.02
793.879	19471.27
794.211	19329.35
794.543	19408.44
794.875	19307.88
795.207	19381.33
795.539	19240.09
795.871	19112.63
796.203	19055.23
796.535	18956.93
796.867	18883.94
797.198	18808.23
797.53	18882.36
797.862	18676.03
798.193	18816.82
798.525	18601.46
798.856	18644.17
799.188	18522.59
799.519	18298.87
799.85	18368.7
800.182	18416.83
800.513	18329.83
800.844	18197.63
801.175	18235.37
801.506	18222.94
801.837	18042.38
802.168	18005.09
802.499	18017.52
802.83	17809.39
803.161	17787.92
803.491	17823.85
803.822	17841.48
804.153	17664.99
804.483	17582.96
804.814	17556.52
805.145	17488.27
805.475	17532.56
805.805	17338.44
806.136	17404.88
806.466	17456.18
806.796	17389.51
807.126	17140.03
807.457	17152.91
807.787	17221.84
808.117	17141.84
808.447	16940.26
808.777	17028.39
809.107	16951.11
809.436	16787.5
809.766	16935.74
810.096	16844.44
810.426	16724.22
810.755	16785.69
811.085	16728.51
811.414	16688.74
811.744	16538.24
812.073	16515.41
812.403	16499.37
812.732	16397.9
813.061	16360.39
813.39	16289.88
813.719	16221.86
814.049	16334.85
814.378	16191.13
814.707	16197
815.036	16107.97
815.365	16033.39
815.693	15910.23
816.022	15963.79
816.351	15880.18
816.68	15787.97
817.008	15846.28
817.337	15730.58
817.665	15721.99
817.994	15723.34
818.322	15738.94
818.651	15499.39
818.979	15583.91
819.307	15606.06
819.636	15568.77
819.964	15462.33
820.292	15522.67
820.62	15504.82
820.948	15482.22
821.276	15480.41
821.604	15471.82
821.932	15411.04
822.259	15505.95
822.587	15435.44
822.915	15418.04
823.243	15500.98
823.57	15425.5
823.898	15438.38
824.225	15372.62
824.553	15394.76
824.88	15279.51
825.207	15335.56
825.535	15352.05
825.862	15448.77
826.189	15303.69
826.516	15416.46
826.843	15382.34
827.17	15337.82
827.497	15311.38
827.824	15334.88
828.151	15379.85
828.478	15253.53
828.805	15434.09
829.131	15276.12
829.458	15297.37
829.785	15217.82
830.111	15266.18
830.438	15315.22
830.764	15302.11
831.09	15349.12
831.417	15193.19
831.743	15227.09
832.069	15256.69
832.395	15166.97
832.722	15300.08
833.048	15127.88
833.374	15143.7
833.7	15115.22
834.026	15132.17
834.351	15183.47
834.677	15104.38
835.003	15132.62
835.329	15097.82
835.654	15118.61
835.98	14977.37
836.306	15039.75
836.631	14932.86
836.956	15003.59
837.282	15046.75
837.607	14881.11
837.932	14868
838.258	14896.92
838.583	14966.3
838.908	14847.89
839.233	14850.37
839.558	14790.03
839.883	14672.3
840.208	14619.19
840.533	14672.3
840.858	14791.84
841.182	14697.16
841.507	14636.82
841.832	14556.82
842.156	14558.18
842.481	14597.72
842.805	14529.02
843.13	14534
843.454	14470.72
843.778	14397.28
844.103	14313.66
844.427	14359.09
844.751	14250.16
845.075	14211.97
845.399	14204.06
845.723	14237.51
846.047	14176.04
846.371	14098.98
846.695	14083.61
847.019	14013.78
847.343	13887.69
847.666	13844.75
847.99	13781.47
848.313	13822.6
848.637	13677.07
848.96	13669.16
849.284	13568.6
849.607	13458.32
849.931	13531.08
850.254	13413.57
850.577	13295.84
850.9	13361.15
851.223	13237.76
851.546	13156.63
851.869	13042.06
852.192	13201.38
852.515	13042.74
852.838	12963.19
853.161	13034.37
853.483	12938.56
853.806	12888.84
854.129	12833.48
854.451	12822.4
854.774	12704.89
855.096	12661.28
855.419	12593.48
855.741	12534.27
856.063	12525.01
856.385	12521.17
856.708	12481.39
857.03	12417.89
857.352	12427.61
857.674	12350.55
857.996	12267.62
858.318	12267.16
858.64	12245.47
858.961	12132.93
859.283	12103.78
859.605	12097.68
859.926	12141.29
860.248	12040.5
860.57	12052.25
860.891	12127.73
861.212	11950.56
861.534	12026.27
861.855	11961.18
862.176	11961.18
862.498	11951.01
862.819	11879.6
863.14	11815.88
863.461	11756.44
863.782	11824.24
864.103	11776.33
864.424	11704.92
864.745	11748.53
865.065	11693.85
865.386	11681.87
865.707	11670.79
866.027	11610.01
866.348	11622.43
866.668	11597.8
866.989	11485.04
867.309	11489.78
867.63	11492.72
867.95	11473.06
868.27	11422.44
868.59	11407.75
868.91	11422.67
869.23	11372.95
869.55	11289.79
869.87	11375.66
870.19	11321.43
870.51	11350.8
870.83	11326.85
871.15	11338.15
871.469	11203.24
871.789	11320.97
872.109	11284.36
872.428	11210.47
872.748	11182.9
873.067	11261.77
873.386	11217.02
873.706	11172.28
874.025	11096.8
874.344	11133.86
874.663	11111.26
874.982	11065.61
875.301	11122.79
875.62	10958.27
875.939	11001.89
876.258	10981.1
876.577	10961.89
876.896	10957.82
877.214	10911.72
877.533	10945.62
877.852	10892.74
878.17	10979.06
878.489	10903.36
878.807	10900.87
879.125	10874.21
879.444	10830.36
879.762	10787.2
880.08	10800.99
880.398	10761.44
880.716	10726.64
881.034	10763.02
881.352	10741.78
881.67	10667.21
881.988	10656.81
882.306	10661.56
882.624	10635.79
882.941	10532.52
883.259	10515.12
883.577	10535.68
883.894	10481.67
884.212	10481.67
884.529	10478.28
884.846	10443.48
885.164	10407.78
885.481	10336.14
885.798	10450.71
886.115	10311.96
886.432	10328.01
886.75	10254.33
887.067	10261.79
887.383	10192.42
887.7	10230.61
888.017	10161.91
888.334	10246.65
888.651	10156.71
888.967	10023.15
889.284	10045.98
889.6	10048.69
889.917	10031.29
890.233	9975.25
890.55	9966.88
890.866	10002.14
891.182	9885.76
891.498	9862.25
891.815	9889.6
892.131	9786.55
892.447	9772.09
892.763	9748.36
893.079	9739.77
893.395	9708.13
893.71	9708.36
894.026	9665.2
894.342	9624.97
894.657	9562.83
894.973	9541.36
895.289	9571.19
895.604	9543.85
895.92	9502.94
896.235	9404.41
896.55	9478.08
896.865	9341.14
897.181	9326.45
897.496	9380.01
897.811	9258.2
898.126	9288.26
898.441	9213.91
898.756	9149.51
899.071	9154.7
899.386	9167.36
899.7	9067.02
900.015	9011.88
900.33	9027.25
900.644	8961.26
900.959	8982.28
901.273	8976.4
901.588	8948.83
901.902	8882.39
902.216	8818.21
902.531	8801.04
902.845	8753.58
903.159	8752.23
903.473	8726.24
903.787	8604.89
904.101	8660.25
904.415	8624.77
904.729	8546.36
905.042	8533.7
905.356	8501.61
905.67	8514.72
905.984	8454.16
906.297	8387.94
906.611	8341.16
906.924	8370.32
907.237	8391.56
907.551	8268.62
907.864	8295.52
908.177	8253.03
908.491	8262.07
908.804	8175.97
909.117	8114.05
909.43	8117.67
909.743	8049.87
910.056	8058.91
910.368	7966.03
910.681	7915.19
910.994	7956.09
911.307	7868.41
911.619	7875.64
911.932	7865.02
912.244	7791.57
912.557	7719.94
912.869	7734.85
913.181	7753.16
913.494	7668.87
913.806	7611.69
914.118	7611.47
914.43	7548.87
914.742	7555.65
915.054	7487.4
915.366	7480.17
915.678	7450.79
915.99	7430
916.302	7431.81
916.613	7325.37
916.925	7368.76
917.236	7324.69
917.548	7276.56
917.859	7281.31
918.171	7183.91
918.482	7204.02
918.794	7168.31
919.105	7130.12
919.416	7081.54
919.727	7074.53
920.038	7011.26
920.349	6968.77
920.66	6890.36
920.971	6939.62
921.282	6875.44
921.593	6870.7
921.903	6838.83
922.214	6783.92
922.525	6783.92
922.835	6721.55
923.146	6709.8
923.456	6769.23
923.767	6664.37
924.077	6688.55
924.387	6596.35
924.697	6654.43
925.008	6536.92
925.318	6541.89
925.628	6554.32
925.938	6492.85
926.248	6408.79
926.558	6400.88
926.867	6417.83
927.177	6373.76
927.487	6386.87
927.796	6272.52
928.106	6303.7
928.416	6233.65
928.725	6255.57
929.034	6211.96
929.344	6244.27
929.653	6130.15
929.962	6137.16
930.271	6095.8
930.581	6072.3
930.89	6071.17
931.199	5992.75
931.508	5964.05
931.817	6026.2
932.125	5928.57
932.434	5962.92
932.743	5880.21
933.051	5874.34
933.36	5854.9
933.669	5784.62
933.977	5756.83
934.286	5772.42
934.594	5736.94
934.902	5654
935.21	5700.56
935.519	5706.66
935.827	5651.29
936.135	5599.99
936.443	5572.88
936.751	5562.93
937.059	5563.38
937.367	5475.48
937.674	5470.05
937.982	5473.22
938.29	5467.57
938.597	5452.2
938.905	5387.34
939.213	5383.5
939.52	5356.61
939.827	5385.99
940.135	5309.61
940.442	5259.66
940.749	5235.48
941.056	5291.75
941.363	5200
941.67	5250.17
941.977	5173.11
942.284	5116.62
942.591	5115.26
942.898	5137.18
943.205	5125.2
943.511	5079.33
943.818	5086.34
944.125	4988.03
944.431	5011.99
944.738	5002.5
945.044	4934.25
945.35	4922.5
945.657	4922.72
945.963	4914.59
946.269	4906.68
946.575	4863.97
946.881	4808.6
947.187	4810.41
947.493	4813.8
947.799	4821.71
948.105	4727.47
948.41	4742.16
948.716	4739.9
949.022	4710.53
949.327	4696.06
949.633	4645.44
949.938	4629.85
950.244	4614.71
950.549	4568.16
950.854	4549.63
951.16	4567.03
951.465	4531.55
951.77	4501.94
952.075	4430.53
952.38	4481.83
952.685	4496.29
952.99	4447.26
953.294	4418.33
953.599	4410.42
953.904	4365.9
954.209	4336.07
954.513	4325.23
954.818	4295.17
955.122	4310.08
955.426	4254.27
955.731	4296.53
956.035	4210.88
956.339	4252.01
956.643	4228.28
956.948	4156.19
957.252	4118.68
957.556	4113.93
957.86	4081.84
958.163	4115.06
958.467	4056.08
958.771	4077.55
959.075	4056.31
959.378	4031.67
959.682	4024.22
959.985	4005.91
960.289	3986.25
960.592	3951.9
960.896	3963.65
961.199	3944.44
961.502	3934.5
961.805	3948.96
962.108	3861.51
962.411	3882.3
962.714	3902.41
963.017	3866.03
963.32	3823.54
963.623	3838.01
963.926	3784.22
964.228	3764.34
964.531	3760.49
964.833	3741.74
965.136	3739.48
965.438	3678.69
965.741	3727.73
966.043	3699.25
966.345	3635.53
966.648	3635.3
966.95	3624
967.252	3619.26
967.554	3625.81
967.856	3554.85
968.158	3577
968.46	3532.7
968.761	3561.63
969.063	3520.95
969.365	3539.26
969.666	3447.06
969.968	3452.48
970.269	3458.13
970.571	3457.45
970.872	3438.92
971.174	3398.92
971.475	3392.82
971.776	3368.41
972.077	3384.69
972.378	3369.77
972.679	3356.21
972.98	3312.6
973.281	3343.33
973.582	3298.13
973.883	3291.13
974.183	3260.85
974.484	3284.35
974.785	3231.24
975.085	3196.67
975.386	3243.67
975.686	3203.9
975.986	3183.33
976.287	3142.66
976.587	3131.36
976.887	3114.18
977.187	3143.34
977.487	3088.2
977.787	3108.53
978.087	3039.84
978.387	3061.98
978.687	3040.51
978.987	3012.72
979.286	3002.32
979.586	3011.14
979.885	2952.83
980.185	3001.19
980.484	2960.06
980.784	2964.13
981.083	2943.34
981.382	2907.18
981.682	2959.39
981.981	2906.96
982.28	2897.24
982.579	2873.29
982.878	2893.62
983.177	2868.77
983.475	2818.37
983.774	2846.62
984.073	2813.17
984.372	2791.93
984.67	2792.61
984.969	2817.92
985.267	2813.17
985.566	2749.67
985.864	2801.2
986.162	2718.04
986.461	2695.66
986.759	2697.47
987.057	2680.07
987.355	2736.57
987.653	2672.39
987.951	2660.64
988.249	2657.7
988.547	2620.19
988.844	2638.49
989.142	2588.55
989.44	2588.55
989.737	2583.35
990.035	2569.57
990.332	2570.24
990.63	2556.68
990.927	2520.75
991.224	2512.17
991.521	2519.4
991.819	2520.98
992.116	2502
992.413	2456.8
992.71	2481.88
993.006	2501.32
993.303	2440.3
993.6	2433.3
993.897	2421.77
994.193	2423.13
994.49	2405.73
994.787	2410.47
995.083	2378.84
995.379	2308.56
995.676	2346.97
995.972	2339.29
996.268	2312.62
996.565	2318.5
996.861	2330.02
997.157	2305.39
997.453	2255.22
997.749	2291.15
998.044	2255.9
998.34	2255.45
998.636	2256.35
998.932	2221.1
999.227	2212.51
999.523	2226.98
999.818	2189.01
1000.114	2165.96
1000.409	2170.71
1000.704	2151.72
1001	2162.12
1001.295	2150.82
1001.59	2163.47
1001.885	2124.61
1002.18	2095
1002.475	2088.22
1002.77	2084.38
1003.065	2095.23
1003.359	2078.28
1003.654	2055
1003.949	2008.45
1004.243	2008.9
1004.538	2019.52
1004.832	2001.9
1005.127	1989.02
1005.421	1984.95
1005.715	1973.2
1006.009	1960.09
1006.304	1941.11
1006.598	1891.84
1006.892	1933.2
1007.186	1905.63
1007.48	1937.27
1007.773	1913.09
1008.067	1890.04
1008.361	1854.33
1008.655	1871.28
1008.948	1841.45
1009.242	1858.4
1009.535	1842.8
1009.829	1792.41
1010.122	1821.34
1010.415	1810.49
1010.708	1773.65
1011.001	1784.05
1011.295	1767.33
1011.588	1765.74
1011.881	1755.58
1012.173	1746.54
1012.466	1713.32
1012.759	1719.64
1013.052	1709.25
1013.344	1710.38
1013.637	1692.3
1013.93	1695.46
1014.222	1673.32
1014.514	1655.69
1014.807	1638.06
1015.099	1621.79
1015.391	1624.96
1015.683	1646.43
1015.976	1631.06
1016.268	1611.85
1016.56	1600.33
1016.851	1574.79
1017.143	1584.73
1017.435	1553.55
1017.727	1526.88
1018.018	1560.78
1018.31	1536.15
1018.602	1515.36
1018.893	1493.21
1019.185	1506.99
1019.476	1500.21
1019.767	1498.86
1020.058	1474
1020.35	1486.2
1020.641	1461.57
1020.932	1425.87
1021.223	1438.07
1021.514	1439.88
1021.804	1418.64
1022.095	1383.61
1022.386	1415.25
1022.677	1390.16
1022.967	1390.61
1023.258	1379.54
1023.548	1376.6
1023.839	1343.38
1024.129	1379.31
1024.419	1373.89
1024.709	1324.85
1025	1321.69
1025.29	1312.65
1025.58	1292.31
1025.87	1281.01
1026.16	1278.75
1026.449	1272.2
1026.739	1269.03
1027.029	1262.03
1027.319	1269.71
1027.608	1241.69
1027.898	1230.62
1028.187	1221.58
1028.477	1216.38
1028.766	1227.68
1029.055	1196.72
1029.344	1183.39
1029.634	1193.56
1029.923	1180.9
1030.212	1181.13
1030.501	1168.02
1030.79	1163.73
1031.078	1156.5
1031.367	1153.56
1031.656	1143.61
1031.945	1124.86
1032.233	1124.86
1032.522	1135.25
1032.81	1118.76
1033.099	1086.21
1033.387	1091.86
1033.675	1090.73
1033.963	1069.94
1034.251	1060.9
1034.54	1069.49
1034.828	1066.1
1035.116	1051.86
1035.403	1036.27
1035.691	1018.19
1035.979	1015.26
1036.267	1031.3
1036.554	1027.23
1036.842	1014.8
1037.129	986.56
1037.417	976.84
1037.704	991.98
1037.992	1003.05
1038.279	1003.28
1038.566	982.71
1038.853	982.71
1039.14	982.71
