Data from hue_190_FLMS001491_00045.txt Node
Date: Tue Feb 07 16:45:20 GMT 2017
User: dcchb
Spectrometer: FLMS00149
Trigger mode: 0
Integration Time (sec): 2.000000E-2
Scans to average: 10
Electric dark correction enabled: true
Nonlinearity correction enabled: false
Boxcar width: 0
XAxis mode: Wavelengths
Number of Pixels in Spectrum: 2048
>>>>>Begin Spectral Data<<<<<
341.393	-11.72
341.776	-11.72
342.16	-11.72
342.543	-45.85
342.927	-48.56
343.31	-65.28
343.693	-69.35
344.077	-64.83
344.46	-46.98
344.843	-56.92
345.226	-58.28
345.61	-31.16
345.993	-24.83
346.376	-11.27
346.759	5.23
347.142	17.2
347.525	39.58
347.908	69.63
348.291	75.05
348.674	94.94
349.057	127.26
349.44	130.42
349.823	139.01
350.206	151.44
350.588	201.83
350.971	221.49
351.354	223.07
351.737	226.91
352.119	251.1
352.502	260.59
352.884	263.98
353.267	283.41
353.65	281.15
354.032	306.23
354.414	323.86
354.797	307.59
355.179	321.83
355.562	310.3
355.944	334.48
356.326	328.16
356.709	336.06
357.091	321.83
357.473	332.67
357.855	331.32
358.238	356.63
358.62	328.16
359.002	329.74
359.384	342.62
359.766	328.61
360.148	319.57
360.53	346.23
360.912	333.8
361.294	351.88
361.676	340.81
362.057	327.7
362.439	335.84
362.821	313.24
363.203	320.47
363.584	299.68
363.966	321.6
364.348	312.79
364.729	314.82
365.111	325.22
365.493	313.47
365.874	328.83
366.256	296.07
366.637	288.16
367.019	301.26
367.4	311.43
367.781	318.89
368.163	327.03
368.544	292.9
368.925	303.07
369.306	319.12
369.688	299.68
370.069	284.99
370.45	311.88
370.831	307.36
371.212	305.78
371.593	326.12
371.974	309.4
372.355	308.72
372.736	322.05
373.117	309.17
373.498	298.1
373.879	311.88
374.26	327.93
374.641	303.75
375.021	325.22
375.402	311.21
375.783	324.31
376.163	317.08
376.544	326.12
376.925	304.43
377.305	310.75
377.686	319.57
378.066	332
378.447	319.79
378.827	326.12
379.208	317.08
379.588	329.29
379.968	313.69
380.349	340.81
380.729	324.09
381.109	323.41
381.489	331.32
381.87	317.31
382.25	328.61
382.63	315.05
383.01	330.87
383.39	334.03
383.77	333.35
384.15	343.07
384.53	327.03
384.91	344.65
385.29	341.94
385.67	338.32
386.049	346.69
386.429	357.76
386.809	355.5
387.189	345.78
387.568	352.79
387.948	361.37
388.328	369.74
388.707	343.52
389.087	339.91
389.466	354.82
389.846	345.1
390.225	353.24
390.605	375.16
390.984	366.35
391.363	369.51
391.743	378.1
392.122	349.4
392.501	361.83
392.881	348.95
393.26	349.62
393.639	356.18
394.018	375.39
394.397	367.48
394.776	371.32
395.155	374.48
395.534	369.51
395.913	388.94
396.292	381.71
396.671	366.8
397.05	370.19
397.429	373.8
397.808	398.44
398.186	364.31
398.565	401.37
398.944	391.2
399.323	399.34
399.701	409.28
400.08	385.55
400.458	370.64
400.837	397.98
401.215	408.15
401.594	438.89
401.972	407.25
402.351	407.7
402.729	420.81
403.107	393.24
403.486	418.32
403.864	451.54
404.242	417.87
404.62	435.5
404.999	428.27
405.377	432.56
405.755	420.81
406.133	446.8
406.511	454.48
406.889	444.99
407.267	450.41
407.645	452.9
408.023	470.52
408.401	461.94
408.779	492.22
409.156	489.73
409.534	480.69
409.912	477.08
410.29	505.78
410.667	528.15
411.045	510.52
411.422	520.01
411.8	519.34
412.178	540.8
412.555	546.91
412.933	547.13
413.31	538.77
413.687	570.41
414.065	583.06
414.442	575.61
414.819	576.74
415.197	578.09
415.574	594.14
415.951	620.12
416.328	625.55
416.705	608.83
417.082	633.91
417.46	616.51
417.837	667.13
418.214	641.37
418.591	663.97
418.967	647.92
419.344	681.37
419.721	696.51
420.098	684.3
420.475	694.93
420.852	713.68
421.228	738.09
421.605	754.81
421.982	723.4
422.358	795.04
422.735	789.61
423.111	808.37
423.488	818.31
423.864	805.2
424.241	831.42
424.617	830.06
424.994	834.36
425.37	837.07
425.746	881.14
426.123	893.34
426.499	892.66
426.875	888.82
427.251	897.63
427.627	921.59
428.003	970.17
428.379	939.66
428.756	984.18
429.132	973.34
429.507	1009.49
429.883	989.38
430.259	1005.65
430.635	1036.16
431.011	1057.4
431.387	1050.17
431.763	1052.66
432.138	1058.98
432.514	1089.49
432.89	1122.48
433.265	1119.55
433.641	1172.88
434.016	1180.79
434.392	1172.88
434.767	1221.92
435.143	1242.71
435.518	1249.26
435.894	1284.29
436.269	1284.29
436.644	1301.01
437.02	1331.07
437.395	1341.24
437.77	1364.06
438.145	1406.09
438.52	1378.98
438.895	1453.78
439.271	1452.65
439.646	1480.22
440.021	1501.91
440.395	1501.01
440.77	1514.34
441.145	1554.79
441.52	1580.78
441.895	1586.43
442.27	1605.64
442.645	1608.35
443.019	1616.26
443.394	1663.49
443.769	1688.8
444.143	1648.12
444.518	1698.29
444.892	1721.11
445.267	1747.78
445.641	1754.78
446.016	1733.32
446.39	1787.33
446.764	1797.5
447.139	1788.46
447.513	1825.74
447.887	1832.97
448.262	1852.18
448.636	1865.52
449.01	1871.17
449.384	1913.88
449.758	1905.51
450.132	1971.05
450.506	1964.72
450.88	1982.57
451.254	1969.02
451.628	2023.25
452.002	2047.21
452.376	2055.12
452.75	2044.95
453.123	2077.71
453.497	2117.94
453.871	2117.26
454.244	2213.98
454.618	2182.12
454.992	2242.23
455.365	2198.61
455.739	2262.34
456.112	2276.58
456.486	2289.46
456.859	2331.04
457.232	2388.21
457.606	2401.32
457.979	2439.74
458.352	2412.85
458.725	2479.51
459.099	2526.06
459.472	2569
459.845	2574.42
460.218	2577.36
460.591	2649.45
460.964	2634.76
461.337	2716.79
461.71	2718.83
462.083	2787.07
462.456	2818.94
462.829	2789.33
463.201	2846.96
463.574	2853.06
463.947	2905.71
464.32	2978.26
464.692	3023.9
465.065	3025.71
465.438	3098.48
465.81	3106.84
466.183	3152.04
466.555	3220.28
466.928	3224.12
467.3	3277
467.672	3270
468.045	3324.46
468.417	3392.03
468.789	3396.78
469.161	3476.55
469.534	3567.39
469.906	3609.42
470.278	3649.42
470.65	3683.32
471.022	3737.56
471.394	3809.65
471.766	3845.8
472.138	3919.47
472.51	3989.53
472.882	4067.04
473.253	4105.68
473.625	4138.9
473.997	4214.61
474.369	4234.95
474.74	4304.1
475.112	4348.39
475.484	4450.08
475.855	4493.7
476.227	4609.4
476.598	4707.7
476.97	4772.78
477.341	4881.26
477.713	4897.3
478.084	4941.82
478.455	5161.93
478.827	5151.08
479.198	5283.51
479.569	5303.39
479.94	5438.08
480.311	5494.57
480.682	5652.99
481.053	5761.23
481.424	5813.89
481.795	5901.79
482.166	5989.02
482.537	6119.42
482.908	6182.46
483.279	6222.46
483.65	6358.05
484.021	6484.83
484.391	6533.19
484.762	6584.49
485.133	6673.3
485.503	6803.47
485.874	6898.83
486.244	6978.15
486.615	7156.68
486.985	7274.87
487.356	7341.53
487.726	7383.56
488.097	7536.78
488.467	7599.15
488.837	7738.13
489.207	7781.29
489.578	7929.31
489.948	7999.82
490.318	8128.4
490.688	8169.08
491.058	8260.38
491.428	8399.36
491.798	8430.77
492.168	8539.24
492.538	8634.83
492.908	8706.47
493.278	8801.83
493.648	8815.39
494.017	8923.64
494.387	8965.22
494.757	9079.56
495.126	9104.65
495.496	9199.56
495.866	9201.37
496.235	9249.5
496.605	9386.67
496.974	9353.45
497.344	9487.01
497.713	9559.55
498.082	9578.31
498.452	9661.47
498.821	9667.12
499.19	9710.96
499.559	9704.63
499.928	9773.1
500.298	9875.7
500.667	9910.5
501.036	9940.78
501.405	10016.26
501.774	9993.44
502.143	10039.99
502.512	10142.13
502.88	10134.45
503.249	10109.59
503.618	10134
503.987	10247.44
504.356	10251.51
504.724	10328.12
505.093	10335.12
505.462	10322.02
505.83	10369.02
506.199	10434.1
506.567	10493.54
506.936	10461.45
507.304	10574.21
507.672	10572.86
508.041	10564.27
508.409	10662.35
508.777	10704.83
509.145	10759.29
509.514	10686.98
509.882	10787.99
510.25	10706.19
510.618	10760.88
510.986	10728.56
511.354	10800.87
511.722	10853.3
512.09	10921.55
512.458	10881.32
512.826	10940.76
513.193	10931.49
513.561	10955.45
513.929	11032.96
514.297	11053.97
514.664	10998.61
515.032	11023.92
515.4	11007.42
515.767	11097.59
516.135	11149.11
516.502	10985.28
516.869	11152.05
517.237	11161.77
517.604	11118.38
517.972	11134.88
518.339	11154.54
518.706	11181.66
519.073	11164.48
519.44	11155.44
519.808	11201.99
520.175	11198.15
520.542	11232.5
520.909	11268.88
521.276	11181.88
521.643	11246.96
522.009	11265.04
522.376	11359.5
522.743	11257.13
523.11	11339.62
523.477	11345.94
523.843	11336
524.21	11382.1
524.577	11386.17
524.943	11441.99
525.31	11401.54
525.676	11442.89
526.043	11460.74
526.409	11424.59
526.776	11466.17
527.142	11417.58
527.508	11374.87
527.874	11425.94
528.241	11406.73
528.607	11338.04
528.973	11422.78
529.339	11354.53
529.705	11389.79
530.071	11431.14
530.437	11339.62
530.803	11343.46
531.169	11312.05
531.535	11241.99
531.901	11203.8
532.267	11200.86
532.632	11239.73
532.998	11131.04
533.364	11173.75
533.73	11135.55
534.095	11094.43
534.461	11123.58
534.826	11037.93
535.192	10997.71
535.557	11092.84
535.923	10907.99
536.288	10906.63
536.653	10936.24
537.019	10779.18
537.384	10827.31
537.749	10774.89
538.114	10782.12
538.479	10732.18
538.845	10616.7
539.21	10561.56
539.575	10601.11
539.94	10533.31
540.305	10523.82
540.67	10446.53
541.034	10409.92
541.399	10381
541.764	10356.82
542.129	10276.59
542.494	10283.83
542.858	10188.91
543.223	10163.6
543.587	10092.64
543.952	10005.64
544.316	10010.16
544.681	9959.54
545.045	9903.27
545.41	9931.97
545.774	9810.17
546.138	9769.71
546.503	9735.82
546.867	9738.3
547.231	9689.94
547.595	9607.23
547.959	9588.02
548.324	9528.82
548.688	9488.82
549.052	9484.75
549.416	9424.64
549.779	9395.49
550.143	9293.57
550.507	9368.6
550.871	9269.84
551.235	9248.82
551.599	9187.81
551.962	9172.67
552.326	9102.61
552.689	9080.92
553.053	8983.29
553.417	8969.06
553.78	9000.02
554.143	8902.39
554.507	8939.68
554.87	8893.58
555.234	8875.73
555.597	8816.07
555.96	8778.55
556.323	8741.49
556.686	8710.53
557.05	8745.56
557.413	8606.36
557.776	8619.01
558.139	8629.18
558.502	8621.04
558.865	8575.4
559.228	8548.73
559.59	8591.21
559.953	8541.95
560.316	8581.5
560.679	8529.97
561.041	8550.09
561.404	8463.99
561.767	8483.65
562.129	8434.83
562.492	8464.21
562.854	8418.34
563.217	8395.06
563.579	8386.7
563.941	8411.56
564.304	8422.63
564.666	8437.77
565.028	8445.68
565.39	8426.25
565.753	8384.44
566.115	8391.22
566.477	8379.02
566.839	8389.41
567.201	8409.52
567.563	8354.38
567.925	8368.4
568.287	8424.21
568.648	8378.57
569.01	8380.15
569.372	8417.21
569.734	8402.97
570.095	8377.44
570.457	8416.53
570.819	8356.87
571.18	8330.43
571.542	8385.34
571.903	8301.05
572.265	8403.2
572.626	8328.62
572.987	8354.16
573.349	8329.07
573.71	8362.97
574.071	8378.57
574.432	8349.64
574.794	8409.07
575.155	8354.61
575.516	8333.37
575.877	8306.7
576.238	8373.14
576.599	8396.64
576.96	8327.27
577.32	8271.45
577.681	8340.83
578.042	8329.98
578.403	8304.89
578.763	8368.4
579.124	8297.44
579.485	8369.3
579.845	8353.25
580.206	8337.21
580.566	8323.43
580.927	8249.75
581.287	8281.62
581.648	8212.92
582.008	8342.63
582.368	8289.08
582.728	8259.47
583.089	8275.29
583.449	8261.73
583.809	8221.73
584.169	8271.22
584.529	8225.57
584.889	8255.18
585.249	8171.34
585.609	8172.47
585.969	8260.38
586.329	8138.8
586.688	8195.74
587.048	8171.34
587.408	8149.87
587.768	8144.9
588.127	8108.06
588.487	8099.7
588.846	8129.76
589.206	8016.77
589.565	8091.57
589.925	8063.55
590.284	8123.66
590.643	8069.65
591.003	8065.13
591.362	8093.37
591.721	8053.15
592.08	8066.93
592.44	8086.82
592.799	8061.51
593.158	8026.26
593.517	8012.02
593.876	8009.76
594.235	7975.19
594.593	8060.38
594.952	7963.89
595.311	7986.71
595.67	7895.41
596.029	8026.26
596.387	8001.4
596.746	7988.52
597.104	7978.35
597.463	7895.64
597.822	7956.43
598.18	7905.36
598.538	7958.24
598.897	7956.88
599.255	7892.02
599.613	8023.32
599.972	7922.76
600.33	7911.23
600.688	7855.19
601.046	7873.04
601.404	7991.68
601.762	7971.8
602.12	7929.54
602.478	7964.34
602.836	7917.11
603.194	7889.09
603.552	7911.01
603.91	7831.01
604.268	7858.8
604.625	7906.04
604.983	7881.18
605.341	7866.71
605.698	7897.45
606.056	7899.48
606.413	7878.69
606.771	7864
607.128	7941.51
607.485	7931.35
607.843	7813.16
608.2	7972.25
608.557	7899.71
608.914	7928.18
609.272	7957.11
609.629	7925.92
609.986	7949.42
610.343	7862.87
610.7	7967.95
611.057	7914.4
611.414	7920.05
611.771	7949.2
612.127	7958.46
612.484	7966.15
612.841	7948.97
613.198	7913.94
613.554	7941.29
613.911	7966.37
614.267	7983.1
614.624	7890.22
614.98	7957.11
615.337	8047.73
615.693	7947.39
616.05	7989.65
616.406	7973.38
616.762	7949.65
617.118	7977.22
617.475	7986.94
617.831	8024
618.187	7976.77
618.543	8008.63
618.899	8031.46
619.255	8035.07
619.611	8066.26
619.967	8045.01
620.323	8023.55
620.678	8079.36
621.034	8038.23
621.39	8041.17
621.746	7986.71
622.101	8099.48
622.457	8059.7
622.812	7983.1
623.168	7994.62
623.523	8066.71
623.879	8060.16
624.234	7969.99
624.589	8042.53
624.945	8052.25
625.3	8005.47
625.655	8002.08
626.01	8038.91
626.365	7965.69
626.72	7982.19
627.075	8040.72
627.43	8016.99
627.785	7939.48
628.14	7990.33
628.495	7996.88
628.85	8033.04
629.205	7947.62
629.559	7955.3
629.914	7928.41
630.269	7959.82
630.623	7909.65
630.978	7929.99
631.332	7956.43
631.687	7922.98
632.041	7919.82
632.396	7951.01
632.75	7911.68
633.104	7898.58
633.459	7890.89
633.813	7841.63
634.167	7899.26
634.521	7878.47
634.875	7842.76
635.229	7842.53
635.583	7837.11
635.937	7881.85
636.291	7776.09
636.645	7789.43
636.999	7763.89
637.352	7777.22
637.706	7723.22
638.06	7782.2
638.413	7746.04
638.767	7758.47
639.121	7705.59
639.474	7659.49
639.828	7737.68
640.181	7685.48
640.534	7705.36
640.888	7674.18
641.241	7682.76
641.594	7729.77
641.947	7678.47
642.301	7593.95
642.654	7662.65
643.007	7654.52
643.36	7584.46
643.713	7642.31
644.066	7687.74
644.419	7668.53
644.771	7608.19
645.124	7529.77
645.477	7469.21
645.83	7386.05
646.182	7429.21
646.535	7438.25
646.888	7423.56
647.24	7348.08
647.593	7406.61
647.945	7364.35
648.298	7349.44
648.65	7290.68
649.002	7361.87
649.355	7402.09
649.707	7372.49
650.059	7402.77
650.411	7543.33
650.763	7494.75
651.115	7602.31
651.467	7543.11
651.819	7570.9
652.171	7557.57
652.523	7528.87
652.875	7508.08
653.227	7468.53
653.578	7533.39
653.93	7602.54
654.282	7507.18
654.633	7537.23
654.985	7532.49
655.337	7487.06
655.688	7619.49
656.039	7584.69
656.391	7550.56
656.742	7570.45
657.094	7588.08
657.445	7549.89
657.796	7568.64
658.147	7508.98
658.498	7576.33
658.849	7543.78
659.2	7567.74
659.551	7557.34
659.902	7628.53
660.253	7547.85
660.604	7633.5
660.955	7597.34
661.306	7609.55
661.656	7605.03
662.007	7603.9
662.358	7558.25
662.708	7622.65
663.059	7649.54
663.409	7599.6
663.76	7674.4
664.11	7599.38
664.461	7596.66
664.811	7664.46
665.161	7650.9
665.511	7649.77
665.862	7613.61
666.212	7675.76
666.562	7649.77
666.912	7617.68
667.262	7623.56
667.612	7620.17
667.962	7662.88
668.312	7615.2
668.662	7715.31
669.011	7584.46
669.361	7668.3
669.711	7617
670.06	7574.52
670.41	7580.17
670.76	7591.92
671.109	7658.13
671.459	7655.87
671.808	7614.07
672.157	7603.9
672.507	7561.19
672.856	7564.35
673.205	7574.52
673.554	7608.42
673.904	7569.77
674.253	7605.48
674.602	7531.81
674.951	7433.51
675.3	7418.14
675.649	7551.69
675.998	7526.61
676.346	7571.81
676.695	7537.01
677.044	7522.99
677.393	7464.69
677.741	7496.55
678.09	7505.59
678.438	7437.57
678.787	7477.57
679.135	7479.61
679.484	7387.63
679.832	7362.32
680.181	7381.08
680.529	7387.18
680.877	7364.13
681.225	7403.68
681.573	7441.41
681.922	7341.3
682.27	7350.8
682.618	7297.01
682.966	7268.54
683.314	7333.85
683.661	7271.02
684.009	7251.59
684.357	7179.5
684.705	7228.99
685.053	7266.5
685.4	7181.76
685.748	7157.81
686.095	7171.14
686.443	7128.2
686.79	7101.31
687.138	7125.26
687.485	7132.72
687.832	7017.47
688.18	7080.29
688.527	6993.52
688.874	7003.91
689.221	7001.65
689.568	6979.73
689.915	6968.66
690.262	6931.82
690.609	6935.21
690.956	6888.89
691.303	6886.17
691.65	6806.18
691.997	6817.48
692.344	6817.25
692.69	6786.06
693.037	6781.09
693.383	6730.7
693.73	6744.94
694.077	6686.86
694.423	6660.87
694.769	6677.82
695.116	6655.9
695.462	6627.2
695.808	6596.46
696.155	6597.59
696.501	6523.02
696.847	6513.08
697.193	6444.6
697.539	6438.5
697.885	6421.1
698.231	6373.19
698.577	6394.44
698.923	6446.19
699.269	6373.65
699.614	6378.39
699.96	6319.86
700.306	6317.15
700.651	6225.85
700.997	6244.84
701.342	6229.24
701.688	6183.82
702.033	6188.34
702.379	6141.34
702.724	6175.69
703.069	6111.51
703.415	6098.62
703.76	6087.33
704.105	6075.8
704.45	6056.37
704.795	6045.97
705.14	5981.57
705.485	5943.83
705.83	5902.92
706.175	5937.05
706.52	5936.6
706.865	5888.01
707.209	5904.96
707.554	5848.91
707.899	5882.13
708.243	5891.4
708.588	5816.6
708.932	5772.98
709.277	5808.92
709.621	5755.58
709.966	5706.09
710.31	5683.27
710.654	5704.96
710.998	5677.17
711.342	5744.06
711.687	5691.86
712.031	5692.53
712.375	5650.5
712.719	5664.06
713.063	5703.61
713.407	5608.02
713.75	5614.8
714.094	5622.25
714.438	5606.89
714.782	5636.72
715.125	5540.9
715.469	5576.6
715.812	5558.53
716.156	5513.1
716.499	5488.7
716.843	5542.93
717.186	5507
717.53	5510.62
717.873	5544.97
718.216	5488.47
718.559	5469.04
718.902	5446.66
719.246	5443.27
719.589	5428.81
719.932	5398.53
720.275	5372.09
720.617	5390.17
720.96	5456.38
721.303	5470.39
721.646	5410.28
721.989	5387.91
722.331	5367.57
722.674	5388.59
723.016	5413.45
723.359	5398.98
723.701	5352.2
724.044	5354.92
724.386	5362.6
724.729	5348.14
725.071	5336.84
725.413	5337.29
725.755	5344.75
726.097	5375.03
726.439	5322.83
726.782	5286.44
727.124	5339.77
727.465	5311.98
727.807	5346.78
728.149	5321.47
728.491	5348.36
728.833	5322.83
729.175	5353.56
729.516	5345.88
729.858	5311.53
730.199	5353.79
730.541	5330.06
730.882	5311.98
731.224	5340.9
731.565	5321.92
731.906	5320.11
732.248	5329.38
732.589	5294.13
732.93	5300.45
733.271	5291.19
733.612	5303.39
733.953	5310.4
734.294	5337.06
734.635	5333.45
734.976	5312.2
735.317	5306.1
735.658	5302.94
735.999	5391.98
736.339	5348.36
736.68	5310.85
737.021	5389.27
737.361	5328.02
737.702	5374.8
738.042	5365.54
738.383	5396.27
738.723	5396.5
739.063	5382.26
739.404	5411.64
739.744	5394.69
740.084	5415.03
740.424	5439.89
740.764	5438.08
741.104	5462.94
741.444	5454.57
741.784	5476.04
742.124	5507.23
742.464	5486.21
742.804	5549.26
743.143	5545.19
743.483	5533.44
743.823	5542.48
744.162	5522.14
744.502	5611.41
744.841	5617.28
745.181	5685.3
745.52	5718.3
745.86	5751.52
746.199	5721.69
746.538	5808.01
746.877	5877.61
747.216	5852.76
747.556	5913.55
747.895	5984.96
748.234	5976.14
748.573	6029.02
748.911	6061.34
749.25	6146.08
749.589	6182.69
749.928	6274.89
750.267	6279.86
750.605	6368.9
750.944	6393.98
751.283	6499.07
751.621	6563.7
751.96	6621.78
752.298	6775.44
752.636	6788.78
752.975	6885.27
753.313	6990.8
753.651	7097.24
753.989	7152.83
754.327	7264.24
754.666	7375.43
755.004	7510.34
755.342	7657.23
755.679	7776.32
756.017	7876.43
756.355	8000.95
756.693	8117.1
757.031	8297.44
757.368	8422.86
757.706	8525.68
758.044	8659.01
758.381	8874.82
758.719	9019.68
759.056	9206.34
759.394	9356.39
759.731	9458.76
760.068	9651.53
760.405	9755.93
760.743	9906.21
761.08	10032.31
761.417	10190.27
761.754	10380.55
762.091	10604.95
762.428	10730.37
762.765	10897.37
763.102	11121.77
763.438	11232.95
763.775	11366.06
764.112	11506.39
764.449	11790.45
764.785	11906.61
765.122	12041.52
765.458	12150.44
765.795	12307.73
766.131	12611.45
766.467	12656.64
766.804	12774.38
767.14	13001.27
767.476	13109.97
767.812	13257.76
768.148	13406.46
768.485	13507.47
768.821	13577.3
769.157	13804.86
769.492	13890.06
769.828	13983.16
770.164	14116.27
770.5	14198.07
770.836	14431.51
771.171	14462.25
771.507	14620.89
771.842	14566.88
772.178	14841.9
772.513	14858.62
772.849	14999.41
773.184	15005.74
773.519	15225.16
773.855	15258.16
774.19	15242.11
774.525	15439.17
774.86	15481.43
775.195	15633.06
775.53	15651.59
775.865	15629.45
776.2	15651.37
776.535	15660.18
776.87	15817.92
777.205	15753.06
777.539	15907.18
777.874	15961.19
778.209	15943.79
778.543	16019.49
778.878	15993.73
779.212	16001.87
779.547	16027.86
779.881	16159.83
780.215	16115.08
780.55	16246.38
780.884	16246.61
781.218	16254.52
781.552	16323.44
781.886	16335.42
782.22	16341.07
782.554	16320.73
782.888	16271.46
783.222	16184.91
783.556	16254.06
783.889	16279.6
784.223	16245.7
784.557	16292.26
784.89	16409.09
785.224	16290
785.557	16245.7
785.891	16217
786.224	16316.66
786.558	16306.04
786.891	16179.04
787.224	16151.92
787.557	16218.36
787.891	16181.3
788.224	16118.7
788.557	16270.33
788.89	16200.28
789.223	16287.06
789.556	16148.3
789.888	16194.18
790.221	16080.51
790.554	16052.04
790.887	16019.49
791.219	16049.1
791.552	15944.47
791.884	15873.51
792.217	15939.04
792.549	15955.99
792.882	15881.42
793.214	15849.33
793.546	15925.71
793.879	15824.24
794.211	15718.26
794.543	15765.94
794.875	15763.91
795.207	15890.46
795.539	15659.28
795.871	15780.18
796.203	15579.96
796.535	15549.9
796.867	15566.85
797.198	15555.33
797.53	15568.66
797.862	15511.71
798.193	15511.48
798.525	15325.28
798.856	15434.42
799.188	15315.11
799.519	15310.81
799.85	15228.55
800.182	15242.11
800.513	15301.32
800.844	15210.7
801.175	15182.91
801.506	15247.76
801.837	15135
802.168	15166.64
802.499	15070.14
802.83	14956.25
803.161	14948.11
803.491	14942.69
803.822	15016.36
804.153	14957.15
804.483	14743.14
804.814	14739.08
805.145	14789.47
805.475	14751.05
805.805	14739.98
806.136	14714.9
806.466	14674.44
806.796	14697.72
807.126	14560.1
807.457	14460.21
807.787	14486.2
808.117	14511.29
808.447	14470.83
808.777	14528.01
809.107	14451.17
809.436	14448.69
809.766	14392.19
810.096	14322.36
810.426	14349.03
810.755	14343.83
811.085	14270.61
811.414	14219.54
811.744	14197.17
812.073	14125.31
812.403	14222.25
812.732	14081.47
813.061	14107.45
813.39	14007.57
813.719	13954.01
814.049	14036.27
814.378	14046.66
814.707	13972.32
815.036	13918.08
815.365	13873.79
815.693	13775.03
816.022	13756.05
816.351	13748.59
816.68	13684.41
817.008	13786.78
817.337	13700.68
817.665	13617.3
817.994	13732.77
818.322	13685.54
818.651	13579.33
818.979	13540.46
819.307	13648.48
819.636	13555.15
819.964	13501.37
820.292	13634.02
820.62	13602.16
820.948	13517.19
821.276	13574.36
821.604	13514.25
821.932	13495.72
822.259	13522.84
822.587	13554.47
822.915	13479.9
823.243	13597.41
823.57	13459.34
823.898	13507.92
824.225	13448.94
824.553	13471.99
824.88	13534.14
825.207	13537.3
825.535	13475.83
825.862	13461.6
826.189	13554.93
826.516	13534.81
826.843	13622.72
827.17	13565.32
827.497	13581.82
827.824	13591.76
828.151	13597.18
828.478	13497.3
828.805	13567.58
829.131	13512.44
829.458	13440.35
829.785	13500.46
830.111	13514.48
830.438	13621.59
830.764	13546.34
831.09	13570.52
831.417	13515.61
831.743	13553.34
832.069	13476.51
832.395	13501.59
832.722	13574.36
833.048	13448.71
833.374	13488.71
833.7	13429.73
834.026	13436.06
834.351	13491.42
834.677	13444.42
835.003	13501.59
835.329	13426.57
835.654	13428.15
835.98	13431.99
836.306	13355.61
836.631	13343.18
836.956	13419.34
837.282	13337.53
837.607	13268.61
837.932	13262.5
838.258	13275.39
838.583	13312.22
838.908	13176.63
839.233	13199.46
839.558	13243.3
839.883	13084.88
840.208	13060.48
840.533	13092.57
840.858	13097.76
841.182	13123.52
841.507	13108.61
841.832	13076.75
842.156	13053.47
842.481	13020.25
842.805	13046.24
843.13	12969.4
843.454	12916.07
843.778	12831.1
844.103	12849.18
844.427	12833.82
844.751	12760.6
845.075	12760.14
845.399	12782.07
845.723	12683.54
846.047	12675.18
846.371	12576.19
846.695	12538.91
847.019	12478.57
847.343	12412.81
847.666	12369.87
847.99	12383.88
848.313	12350.44
848.637	12232.47
848.96	12233.83
849.284	12168.52
849.607	12123.1
849.931	12126.26
850.254	12017.11
850.577	11930.11
850.9	11874.74
851.223	11844.46
851.546	11848.53
851.869	11711.58
852.192	11815.08
852.515	11726.27
852.838	11641.3
853.161	11610.34
853.483	11555.88
853.806	11543
854.129	11473.85
854.451	11424.36
854.774	11425.04
855.096	11391.37
855.419	11311.6
855.741	11254.2
856.063	11297.58
856.385	11205.61
856.708	11213.07
857.03	11129.91
857.352	11231.15
857.674	11122.22
857.996	11042.9
858.318	11008.78
858.64	11010.36
858.961	10932.4
859.283	10975.78
859.605	10896.46
859.926	10901.89
860.248	10755.23
860.57	10785.51
860.891	10852.17
861.212	10763.36
861.534	10724.94
861.855	10695.11
862.176	10751.38
862.498	10677.71
862.819	10760.2
863.14	10606.76
863.461	10566.53
863.782	10585.29
864.103	10541.9
864.424	10568.34
864.745	10559.98
865.065	10524.05
865.386	10470.49
865.707	10407.44
866.027	10515.46
866.348	10463.71
866.668	10395.91
866.989	10380.77
867.309	10306.42
867.63	10319.3
867.95	10333.99
868.27	10340.77
868.59	10321.79
868.91	10288.12
869.23	10258.29
869.55	10236.6
869.87	10261.68
870.19	10196.6
870.51	10215.13
870.83	10216.93
871.15	10122.25
871.469	10152.76
871.789	10191.17
872.109	10194.11
872.428	10151.17
872.748	10120.89
873.067	10167.67
873.386	10120.67
873.706	10091.97
874.025	10079.09
874.344	10008.58
874.663	10053.1
874.982	10050.39
875.301	10024.4
875.62	10017.84
875.939	9950.5
876.258	9990.73
876.577	9912.54
876.896	9954.12
877.214	9895.81
877.533	9881.8
877.852	9810.62
878.17	9838.87
878.489	9860.33
878.807	9811.52
879.125	9847.23
879.444	9810.39
879.762	9745.31
880.08	9790.05
880.398	9676.16
880.716	9764.52
881.034	9647.46
881.352	9717.06
881.67	9625.76
881.988	9652.66
882.306	9650.62
882.624	9647.91
882.941	9551.19
883.259	9504.41
883.577	9501.93
883.894	9532.66
884.212	9490.63
884.529	9477.97
884.846	9461.93
885.164	9395.71
885.481	9385.54
885.798	9413.34
886.115	9371.08
886.432	9364.3
886.75	9318.2
887.067	9317.75
887.383	9283.63
887.7	9345.77
888.017	9262.61
888.334	9229.62
888.651	9157.53
888.967	9179
889.284	9147.58
889.6	9117.3
889.917	9099.45
890.233	9037.08
890.55	9004.76
890.866	9038.66
891.182	8976.06
891.498	8915.73
891.815	8900.59
892.131	8914.37
892.447	8857.65
892.763	8802.06
893.079	8773.58
893.395	8702.85
893.71	8799.8
894.026	8786.46
894.342	8741.95
894.657	8685.68
894.973	8617.88
895.289	8623.98
895.604	8602.29
895.92	8504.44
896.235	8497.88
896.55	8507.15
896.865	8482.29
897.181	8445.91
897.496	8369.75
897.811	8411.56
898.126	8386.02
898.441	8313.71
898.756	8306.7
899.071	8262.86
899.386	8273.71
899.7	8178.12
900.015	8171.11
900.33	8116.43
900.644	8115.3
900.959	8105.13
901.273	8062.19
901.588	8028.74
901.902	7962.98
902.216	7951.68
902.531	7960.5
902.845	7923.21
903.159	7873.95
903.473	7786.94
903.787	7844.12
904.101	7732.03
904.415	7782.2
904.729	7742.65
905.042	7650.9
905.356	7708.07
905.67	7601.86
905.984	7644.12
906.297	7589.43
906.611	7535.65
906.924	7562.09
907.237	7511.47
907.551	7486.16
907.864	7412.04
908.177	7435.99
908.491	7431.7
908.804	7344.92
909.117	7301.08
909.43	7243.45
909.743	7216.34
910.056	7233.06
910.368	7154.87
910.681	7145.83
910.994	7190.57
911.307	7152.83
911.619	7039.39
911.932	7113.06
912.244	6996.68
912.557	6996
912.869	6959.17
913.181	6908.77
913.494	6941.77
913.806	6897.02
914.118	6821.54
914.43	6803.92
914.742	6781.54
915.054	6780.19
915.366	6743.81
915.678	6679.63
915.99	6609.12
916.302	6596.01
916.613	6599.63
916.925	6646.18
917.236	6607.09
917.548	6565.05
917.859	6541.1
918.171	6508.78
918.482	6469.91
918.794	6418.39
919.105	6418.39
919.416	6373.87
919.727	6346.98
920.038	6410.26
920.349	6329.58
920.66	6306.76
920.971	6265.4
921.282	6233.76
921.593	6208.68
921.903	6157.61
922.214	6159.19
922.525	6151.73
922.835	6132.75
923.146	6127.55
923.456	6102.69
923.767	6037.61
924.077	6010.72
924.387	6024.28
924.697	5997.16
925.008	5964.17
925.318	5900.44
925.628	5973.66
925.938	5875.35
926.248	5829.48
926.558	5838.74
926.867	5780.89
927.177	5739.76
927.487	5741.57
927.796	5726.88
928.106	5705.41
928.416	5684.62
928.725	5644.17
929.034	5600.56
929.344	5659.31
929.653	5621.35
929.962	5554.01
930.271	5522.14
930.581	5479.21
930.89	5530.28
931.199	5468.81
931.508	5439.43
931.817	5451.86
932.125	5439.66
932.434	5430.17
932.743	5339.55
933.051	5340.23
933.36	5362.15
933.669	5294.13
933.977	5347.68
934.286	5262.04
934.594	5254.13
934.902	5208.25
935.21	5213.22
935.519	5199.21
935.827	5189.72
936.135	5146.79
936.443	5139.78
936.751	5074.92
937.059	5049.84
937.367	5026.34
937.674	5041.7
937.982	5009.39
938.29	4960.12
938.597	4994.7
938.905	4912.44
939.213	4944.53
939.52	4888.49
939.827	4922.61
940.135	4881.71
940.442	4875.38
940.749	4849.62
941.056	4826.12
941.363	4730.3
941.67	4782.28
941.977	4769.39
942.284	4657.53
942.591	4722.39
942.898	4660.92
943.205	4722.62
943.511	4663.63
943.818	4640.81
944.125	4583.18
944.431	4585.22
944.738	4599.68
945.044	4521.94
945.35	4537.08
945.657	4497.99
945.963	4461.83
946.269	4461.15
946.575	4464.54
946.881	4452.57
947.187	4421.83
947.493	4385.9
947.799	4390.2
948.105	4365.34
948.41	4329.18
948.716	4350.2
949.022	4311.1
949.327	4253.02
949.633	4260.03
949.938	4261.84
950.244	4227.49
950.549	4206.02
950.854	4216.87
951.16	4154.95
951.465	4177.77
951.77	4173.93
952.075	4125.57
952.38	4163.31
952.685	4128.51
952.99	4062.07
953.294	4072.46
953.599	4036.53
953.904	4005.12
954.209	3959.02
954.513	3972.13
954.818	3972.58
955.122	3964.67
955.426	3973.71
955.731	3868.63
956.035	3875.18
956.339	3893.26
956.643	3878.57
956.948	3852.58
957.252	3811.45
957.556	3839.02
957.86	3826.82
958.163	3802.87
958.467	3793.6
958.771	3752.47
959.075	3722.64
959.378	3715.64
959.682	3733.26
959.985	3697.78
960.289	3698.91
960.592	3643.55
960.896	3679.71
961.199	3636.09
961.502	3629.09
961.805	3590.89
962.108	3611.68
962.411	3547.73
962.714	3546.83
963.017	3492.14
963.32	3497.56
963.623	3520.16
963.926	3558.13
964.228	3483.33
964.531	3423.44
964.833	3479.48
965.136	3449.43
965.438	3427.73
965.741	3444.01
966.043	3381.63
966.345	3360.84
966.648	3356.55
966.95	3324.01
967.252	3354.06
967.554	3313.16
967.856	3328.98
968.158	3295.53
968.46	3259.6
968.761	3252.15
969.063	3223.67
969.365	3251.92
969.666	3224.35
969.968	3195.2
970.269	3200.62
970.571	3201.53
970.872	3141.64
971.174	3154.07
971.475	3122.88
971.776	3120.62
972.077	3123.56
972.378	3090.12
972.679	3116.56
972.98	3107.07
973.281	3051.25
973.582	3018.25
973.883	3035.65
974.183	3036.11
974.484	3040.17
974.785	2973.96
975.085	2990.23
975.386	3018.93
975.686	2924.02
975.986	2947.97
976.287	2939.61
976.587	2912.27
976.887	2911.59
977.187	2893.06
977.487	2875.88
977.787	2858.03
978.087	2859.84
978.387	2839.28
978.687	2841.54
978.987	2795.43
979.286	2790.24
979.586	2797.69
979.885	2757.7
980.185	2785.94
980.484	2780.75
980.784	2744.81
981.083	2712.73
981.382	2742.1
981.682	2729.9
981.981	2695.32
982.28	2692.84
982.579	2649.9
982.878	2678.38
983.177	2664.59
983.475	2649.9
983.774	2651.94
984.073	2610.58
984.372	2592.95
984.67	2590.69
984.969	2585.05
985.267	2573.52
985.566	2550.92
985.864	2533.75
986.162	2532.17
986.461	2532.39
986.759	2496.23
987.057	2458.72
987.355	2493.07
987.653	2480.19
987.951	2476.8
988.249	2446.29
988.547	2465.95
988.844	2434.09
989.142	2426.86
989.44	2370.59
989.737	2354.77
990.035	2367.65
990.332	2347.54
990.63	2381.89
990.927	2337.37
991.224	2338.95
991.521	2315.45
991.819	2331.49
992.116	2315.67
992.413	2329.91
992.71	2255.79
993.006	2251.49
993.303	2266.41
993.6	2250.82
993.897	2237.48
994.193	2258.5
994.49	2197.71
994.787	2231.83
995.083	2201.1
995.379	2181.67
995.676	2153.42
995.972	2171.95
996.268	2141.89
996.565	2182.34
996.861	2136.24
997.157	2138.96
997.453	2114.1
997.749	2119.52
998.044	2100.99
998.34	2108.22
998.636	2098.96
998.932	2070.71
999.227	2062.35
999.523	2045.4
999.818	2036.58
1000.114	2023.25
1000.409	2000.65
1000.704	1984.16
1001	1991.39
1001.295	1999.52
1001.59	1983.48
1001.885	1943.93
1002.18	1918.17
1002.475	1909.13
1002.77	1904.84
1003.065	1904.84
1003.359	1878.17
1003.654	1910.03
1003.949	1890.37
1004.243	1879.98
1004.538	1884.5
1004.832	1850.6
1005.127	1852.63
1005.421	1827.55
1005.715	1825.07
1006.009	1832.75
1006.304	1826.42
1006.598	1803.37
1006.892	1793.65
1007.186	1721.79
1007.48	1762.24
1007.773	1723.37
1008.067	1752.75
1008.361	1761.11
1008.655	1689.7
1008.948	1703.94
1009.242	1703.03
1009.535	1699.42
1009.829	1711.62
1010.122	1689.02
1010.415	1703.26
1010.708	1658.97
1011.001	1651.96
1011.295	1611.06
1011.588	1641.12
1011.881	1620.1
1012.173	1608.57
1012.466	1583.94
1012.759	1575.58
1013.052	1578.07
1013.344	1583.26
1013.637	1547.56
1013.93	1573.55
1014.222	1562.02
1014.514	1541.23
1014.807	1512.76
1015.099	1496.94
1015.391	1489.03
1015.683	1512.76
1015.976	1506.88
1016.268	1495.36
1016.56	1479.09
1016.851	1478.41
1017.143	1455.81
1017.435	1451.97
1017.727	1446.54
1018.018	1428.69
1018.31	1453.55
1018.602	1416.04
1018.893	1425.08
1019.185	1407.9
1019.476	1394.34
1019.767	1398.41
1020.058	1370.16
1020.35	1396.38
1020.641	1354.79
1020.932	1366.09
1021.223	1340.11
1021.514	1316.83
1021.804	1316.15
1022.095	1308.69
1022.386	1316.83
1022.677	1283.84
1022.967	1294.46
1023.258	1285.64
1023.548	1298.98
1023.839	1282.48
1024.129	1256.94
1024.419	1249.49
1024.709	1243.84
1025	1212.2
1025.29	1232.31
1025.58	1206.1
1025.87	1211.52
1026.16	1197.51
1026.449	1182.82
1026.739	1177.85
1027.029	1175.59
1027.319	1180.34
1027.608	1156.61
1027.898	1141.02
1028.187	1164.29
1028.477	1156.16
1028.766	1130.17
1029.055	1126.78
1029.344	1122.26
1029.634	1103.95
1029.923	1114.12
1030.212	1102.37
1030.501	1093.78
1030.79	1081.58
1031.078	1060.34
1031.367	1079.55
1031.656	1048.36
1031.945	1049.94
1032.233	1037.74
1032.522	1045.2
1032.81	1035.48
1033.099	1035.93
1033.387	1018.76
1033.675	1007.01
1033.963	996.84
1034.251	986.67
1034.54	1028.7
1034.828	1003.62
1035.116	990.51
1035.403	995.03
1035.691	985.09
1035.979	979.66
1036.267	965.2
1036.554	935.37
1036.842	947.8
1037.129	937.18
1037.417	926.33
1037.704	952.32
1037.992	935.6
1038.279	919.1
1038.566	918.87
1038.853	918.87
1039.14	918.87
