Data from hue_230_FLMS001491_00052.txt Node
Date: Tue Feb 07 16:37:26 GMT 2017
User: dcchb
Spectrometer: FLMS00149
Trigger mode: 0
Integration Time (sec): 2.000000E-2
Scans to average: 10
Electric dark correction enabled: true
Nonlinearity correction enabled: false
Boxcar width: 0
XAxis mode: Wavelengths
Number of Pixels in Spectrum: 2048
>>>>>Begin Spectral Data<<<<<
341.393	-9.24
341.776	-9.24
342.16	-9.24
342.543	-80.42
342.927	-65.05
343.31	-76.58
343.693	-62.12
344.077	-53.76
344.46	-46.98
344.843	-75.22
345.226	-61.89
345.61	-23.25
345.993	-6.53
346.376	-9.69
346.759	7.26
347.142	41.84
347.525	45.45
347.908	37.99
348.291	68.73
348.674	101.49
349.057	113.25
349.44	125.67
349.823	147.82
350.206	149.63
350.588	191.21
350.971	216.52
351.354	208.84
351.737	237.76
352.119	256.29
352.502	254.71
352.884	271.21
353.267	280.92
353.65	287.7
354.032	294.71
354.414	297.2
354.797	308.27
355.179	305.1
355.562	299.46
355.944	312.56
356.326	322.96
356.709	335.39
357.091	344.2
357.473	334.48
357.855	340.13
358.238	331.77
358.62	347.59
359.002	335.16
359.384	345.56
359.766	335.16
360.148	326.12
360.53	334.26
360.912	332.67
361.294	326.12
361.676	339
362.057	326.12
362.439	320.7
362.821	328.38
363.203	321.83
363.584	322.96
363.966	329.74
364.348	337.65
364.729	301.49
365.111	313.24
365.493	329.29
365.874	314.14
366.256	300.59
366.637	312.34
367.019	303.98
367.4	308.49
367.781	290.64
368.163	306.01
368.544	296.29
368.925	306.69
369.306	319.12
369.688	313.92
370.069	299.23
370.45	303.75
370.831	308.95
371.212	301.49
371.593	309.17
371.974	304.43
372.355	270.98
372.736	311.66
373.117	292.45
373.498	314.14
373.879	307.36
374.26	312.56
374.641	288.61
375.021	310.98
375.402	327.25
375.783	289.29
376.163	310.75
376.544	317.31
376.925	324.31
377.305	307.36
377.686	326.57
378.066	323.86
378.447	310.08
378.827	332.45
379.208	328.83
379.588	327.93
379.968	339.23
380.349	318.89
380.729	323.18
381.109	330.87
381.489	312.34
381.87	336.29
382.25	334.03
382.63	346.23
383.01	351.66
383.39	325.22
383.77	319.12
384.15	331.32
384.53	347.59
384.91	350.08
385.29	348.95
385.67	345.78
386.049	337.65
386.429	332.45
386.809	346.46
387.189	360.92
387.568	336.06
387.948	367.02
388.328	332.9
388.707	351.88
389.087	356.18
389.466	364.76
389.846	352.11
390.225	346.91
390.605	357.31
390.984	358.21
391.363	361.37
391.743	371.54
392.122	373.58
392.501	366.35
392.881	367.02
393.26	369.28
393.639	375.39
394.018	382.17
394.397	374.26
394.776	374.71
395.155	377.87
395.534	389.17
395.913	380.81
396.292	385.55
396.671	371.77
397.05	386.23
397.429	378.1
397.808	400.47
398.186	407.25
398.565	373.35
398.944	388.72
399.323	396.4
399.701	407.02
400.08	393.69
400.458	415.61
400.837	408.83
401.215	399.79
401.594	412.67
401.972	420.13
402.351	417.19
402.729	403.86
403.107	438.89
403.486	421.71
403.864	424.2
404.242	413.12
404.62	439.56
404.999	410.41
405.377	430.98
405.755	427.14
406.133	453.8
406.511	450.64
406.889	454.71
407.267	440.92
407.645	450.86
408.023	472.33
408.401	462.16
408.779	473.24
409.156	462.16
409.534	488.15
409.912	477.76
410.29	495.16
410.667	483.18
411.045	500.81
411.422	490.41
411.8	497.87
412.178	503.29
412.555	527.7
412.933	533.35
413.31	539.68
413.687	549.62
414.065	546
414.442	567.47
414.819	571.76
415.197	586.91
415.574	579.45
415.951	590.3
416.328	600.01
416.705	595.49
417.082	602.05
417.46	614.7
417.837	635.49
418.214	617.19
418.591	639.79
418.967	642.95
419.344	650.18
419.721	658.54
420.098	673.91
420.475	679.78
420.852	655.83
421.228	675.72
421.605	691.08
421.982	691.54
422.358	721.14
422.735	740.8
423.111	742.38
423.488	735.83
423.864	738.99
424.241	776.73
424.617	764.53
424.994	809.5
425.37	793.45
425.746	809.95
426.123	795.94
426.499	819.89
426.875	841.59
427.251	847.92
427.627	849.95
428.003	854.24
428.379	889.5
428.756	905.32
429.132	889.27
429.507	897.86
429.883	909.61
430.259	915.48
430.635	911.64
431.011	939.44
431.387	970.4
431.763	967.69
432.138	973.34
432.514	971.53
432.89	1016.95
433.265	1026.22
433.641	1040.23
434.016	1065.31
434.392	1075.93
434.767	1102.37
435.143	1101.69
435.518	1107.12
435.894	1118.64
436.269	1148.25
436.644	1161.35
437.02	1188.25
437.395	1170.62
437.77	1204.52
438.145	1212.2
438.52	1239.54
438.895	1268.24
439.271	1264.4
439.646	1297.62
440.021	1307.34
440.395	1301.46
440.77	1310.73
441.145	1365.19
441.52	1364.74
441.895	1376.94
442.27	1383.72
442.645	1385.98
443.019	1408.35
443.394	1439.54
443.769	1440.67
444.143	1418.97
444.518	1468.69
444.892	1477.73
445.267	1464.17
445.641	1476.15
446.016	1485.64
446.39	1517.5
446.764	1537.16
447.139	1524.28
447.513	1530.84
447.887	1561.12
448.262	1573.77
448.636	1553.21
449.01	1569.03
449.384	1634.56
449.758	1644.96
450.132	1622.58
450.506	1620.1
450.88	1670.27
451.254	1642.47
451.628	1690.38
452.002	1704.16
452.376	1739.19
452.75	1677.72
453.123	1712.75
453.497	1771.06
453.871	1790.26
454.244	1817.38
454.618	1805.86
454.992	1830.26
455.365	1834.56
455.739	1876.59
456.112	1886.31
456.486	1895.57
456.859	1906.42
457.232	1964.27
457.606	1942.12
457.979	1958.17
458.352	1992.29
458.725	2047.21
459.099	2030.03
459.472	2050.82
459.845	2084.95
460.218	2121.33
460.591	2171.04
460.964	2125.4
461.337	2140.31
461.71	2214.21
462.083	2207.2
462.456	2214.66
462.829	2229.35
463.201	2254.88
463.574	2295.34
463.947	2336.69
464.32	2336.92
464.692	2396.12
465.065	2407.87
465.438	2437.03
465.81	2490.58
466.183	2464.14
466.555	2512.73
466.928	2536.46
467.3	2515.44
467.672	2583.46
468.045	2621.88
468.417	2640.64
468.789	2637.02
469.161	2687.42
469.534	2719.28
469.906	2806.73
470.278	2798.82
470.65	2818.94
471.022	2837.47
471.394	2929.22
471.766	2934.19
472.138	2958.59
472.51	3032.72
472.882	3062.32
473.253	3053.51
473.625	3130.79
473.997	3190.68
474.369	3219.38
474.74	3243.33
475.112	3289.43
475.484	3307.06
475.855	3369.88
476.227	3408.07
476.598	3487.17
476.97	3530.33
477.341	3515.19
477.713	3625.02
478.084	3606.26
478.455	3706.6
478.827	3745.47
479.198	3861.85
479.569	3813.26
479.94	3907.04
480.311	3954.5
480.682	4043.54
481.053	4147.26
481.424	4175.96
481.795	4222.06
482.166	4229.75
482.537	4264.55
482.908	4404.21
483.279	4369.18
483.65	4486.92
484.021	4548.84
484.391	4593.81
484.762	4641.26
485.133	4691.66
485.503	4738.66
485.874	4765.33
486.244	4820.92
486.615	4907.92
486.985	4959.9
487.356	5096.39
487.726	5064.53
488.097	5208.03
488.467	5168.48
488.837	5277.63
489.207	5343.16
489.578	5376.38
489.948	5427.91
490.318	5431.3
490.688	5490.73
491.058	5577.51
491.428	5630.16
491.798	5619.99
492.168	5785.86
492.538	5760.55
492.908	5825.86
493.278	5862.7
493.648	5919.42
494.017	5963.26
494.387	6071.06
494.757	6081.68
495.126	6123.71
495.496	6121.9
495.866	6165.29
496.235	6210.71
496.605	6272.41
496.974	6287.32
497.344	6320.99
497.713	6335.91
498.082	6357.83
498.452	6384.72
498.821	6433.08
499.19	6476.92
499.559	6457.94
499.928	6549.23
500.298	6515.79
500.667	6625.84
501.036	6607.31
501.405	6664.49
501.774	6639.4
502.143	6639.18
502.512	6746.74
502.88	6744.03
503.249	6751.72
503.618	6802.56
503.987	6780.19
504.356	6882.11
504.724	6872.39
505.093	6905.84
505.462	6881.43
505.83	6915.55
506.199	6944.7
506.567	7007.98
506.936	7064.93
507.304	7113.51
507.672	7085.27
508.041	7065.83
508.409	7175.66
508.777	7163.23
509.145	7193.06
509.514	7181.53
509.882	7172.5
510.25	7232.83
510.618	7201.42
510.986	7263.57
511.354	7318.93
511.722	7370.23
512.09	7391.7
512.458	7366.61
512.826	7391.02
513.193	7387.63
513.561	7434.86
513.929	7456.56
514.297	7495.65
514.664	7483.9
515.032	7544.69
515.4	7588.98
515.767	7535.88
516.135	7530.45
516.502	7548.3
516.869	7573.61
517.237	7660.84
517.604	7601.41
517.972	7673.05
518.339	7635.31
518.706	7686.83
519.073	7723.22
519.44	7656.78
519.808	7704.68
520.175	7678.47
520.542	7753.5
520.909	7765.02
521.276	7808.86
521.643	7817.45
522.009	7852.7
522.376	7817.9
522.743	7791.91
523.11	7940.84
523.477	7938.35
523.843	7986.94
524.21	8031.46
524.577	8050.21
524.943	8031.91
525.31	8041.85
525.676	8058.12
526.043	8057.44
526.409	8096.99
526.776	8095.86
527.142	8097.67
527.508	8090.66
527.874	8152.13
528.241	8139.25
528.607	8080.04
528.973	8199.13
529.339	8154.84
529.705	8195.52
530.071	8208.85
530.437	8215.63
530.803	8247.95
531.169	8194.39
531.535	8260.6
531.901	8176.08
532.267	8197.78
532.632	8243.43
532.998	8253.82
533.364	8212.02
533.73	8209.98
534.095	8200.49
534.461	8202.52
534.826	8218.12
535.192	8216.99
535.557	8246.82
535.923	8154.39
536.288	8190.77
536.653	8233.94
537.019	8204.33
537.384	8197.33
537.749	8115.97
538.114	8186.93
538.479	8144.45
538.845	8121.62
539.21	8134.28
539.575	8147.61
539.94	8099.93
540.305	8157.1
540.67	8066.03
541.034	8048.86
541.399	8069.42
541.764	8087.27
542.129	8115.75
542.494	8052.92
542.858	8106.71
543.223	8059.93
543.587	8077.33
543.952	8011.79
544.316	8075.07
544.681	7992.59
545.045	7992.59
545.41	7976.32
545.774	7918.24
546.138	7900.39
546.503	7940.38
546.867	7869.65
547.231	7960.95
547.595	7939.03
547.959	7932.7
548.324	7888.63
548.688	7880.95
549.052	7871.69
549.416	7880.27
549.779	7862.65
550.143	7873.49
550.507	7851.12
550.871	7792.59
551.235	7773.84
551.599	7840.95
551.962	7817.45
552.326	7816.77
552.689	7856.54
553.053	7790.11
553.417	7781.97
553.78	7826.72
554.143	7801.18
554.507	7794.17
554.87	7811.8
555.234	7829.65
555.597	7813.38
555.96	7748.53
556.323	7789.88
556.686	7798.24
557.05	7806.6
557.413	7802.76
557.776	7742.65
558.139	7841.4
558.502	7710.56
558.865	7779.03
559.228	7812.7
559.59	7827.62
559.953	7746.04
560.316	7881.63
560.679	7748.98
561.041	7755.3
561.404	7769.99
561.767	7818.81
562.129	7852.03
562.492	7859.93
562.854	7840.5
563.217	7854.06
563.579	7849.31
563.941	7909.65
564.304	7874.85
564.666	7942.87
565.028	7941.51
565.39	7941.51
565.753	7929.99
566.115	8002.76
566.477	8014.51
566.839	8006.6
567.201	8031
567.563	8064.22
567.925	8077.33
568.287	8100.61
568.648	8056.09
569.01	8193.26
569.372	8123.88
569.734	8114.17
570.095	8134.28
570.457	8183.99
570.819	8144.67
571.18	8197.78
571.542	8220.83
571.903	8175.86
572.265	8189.87
572.626	8238.23
572.987	8257.89
573.349	8313.03
573.71	8326.59
574.071	8316.19
574.432	8318
574.794	8402.97
575.155	8349.64
575.516	8335.4
575.877	8358.68
576.238	8356.19
576.599	8428.96
576.96	8417.89
577.32	8461.73
577.681	8496.08
578.042	8477.55
578.403	8480.94
578.763	8512.35
579.124	8479.35
579.485	8570.65
579.845	8607.49
580.206	8560.71
580.566	8589.63
580.927	8616.75
581.287	8609.97
581.648	8578.79
582.008	8694.26
582.368	8614.27
582.728	8660.82
583.089	8651.78
583.449	8692.68
583.809	8688.84
584.169	8752.34
584.529	8699.69
584.889	8747.59
585.249	8747.82
585.609	8744.21
585.969	8809.51
586.329	8758.67
586.688	8780.59
587.048	8765.22
587.408	8784.43
587.768	8851.32
588.127	8807.25
588.487	8849.74
588.846	8925.44
589.206	8815.39
589.565	8882.28
589.925	8837.76
590.284	8840.02
590.643	8895.61
591.003	8940.58
591.362	8929.96
591.721	8927.03
592.08	8907.36
592.44	8910.08
592.799	8928.83
593.158	8969.06
593.517	8899.23
593.876	8969.96
594.235	8949.17
594.593	8971.09
594.952	9023.75
595.311	9015.61
595.67	8969.28
596.029	9011.09
596.387	9008.15
596.746	9058.55
597.104	8989.85
597.463	9002.5
597.822	9110.07
598.18	9042.5
598.538	9072.33
598.897	9069.17
599.255	9089.28
599.613	9178.54
599.972	9080.92
600.33	9151.2
600.688	9049.51
601.046	9058.32
601.404	9099.68
601.762	9081.15
602.12	9157.98
602.478	9202.72
602.836	9193.68
603.194	9107.36
603.552	9132.22
603.91	9156.17
604.268	9140.13
604.625	9141.93
604.983	9167.92
605.341	9193.46
605.698	9164.31
606.056	9203.85
606.413	9180.8
606.771	9250.86
607.128	9197.07
607.485	9193.23
607.843	9184.19
608.2	9183.29
608.557	9290.63
608.914	9195.04
609.272	9250.18
609.629	9301.7
609.986	9295.6
610.343	9254.7
610.7	9413.79
611.057	9308.48
611.414	9354.58
611.771	9288.15
612.127	9369.27
612.484	9348.93
612.841	9445.88
613.198	9368.6
613.554	9411.76
613.911	9409.5
614.267	9450.85
614.624	9325.43
614.98	9347.35
615.337	9356.62
615.693	9412.21
616.05	9393.68
616.406	9427.58
616.762	9444.98
617.118	9364.08
617.475	9422.15
617.831	9489.04
618.187	9429.16
618.543	9454.92
618.899	9511.19
619.255	9496.95
619.611	9505.09
619.967	9552.77
620.323	9551.42
620.678	9454.47
621.034	9466.9
621.39	9492.43
621.746	9433.9
622.101	9595.48
622.457	9489.72
622.812	9487.69
623.168	9516.16
623.523	9493.79
623.879	9541.02
624.234	9483.85
624.589	9499.89
624.945	9509.83
625.3	9533.11
625.655	9489.95
626.01	9553.9
626.365	9498.99
626.72	9527.24
627.075	9512.32
627.43	9517.74
627.785	9520.46
628.14	9498.99
628.495	9509.61
628.85	9500.57
629.205	9460.57
629.559	9486.78
629.914	9456.05
630.269	9448.59
630.623	9402.04
630.978	9402.27
631.332	9416.05
631.687	9496.5
632.041	9424.87
632.396	9390.97
632.75	9359.56
633.104	9428.71
633.459	9357.75
633.813	9314.59
634.167	9377.41
634.521	9328.14
634.875	9363.17
635.229	9363.4
635.583	9278.65
635.937	9361.59
636.291	9289.5
636.645	9362.72
636.999	9263.74
637.352	9322.72
637.706	9237.75
638.06	9270.29
638.413	9249.05
638.767	9212.67
639.121	9226.68
639.474	9199.56
639.828	9148.04
640.181	9188.94
640.534	9211.76
640.888	9186.68
641.241	9160.47
641.594	9086.79
641.947	9128.38
642.301	9078.21
642.654	9157.3
643.007	9134.93
643.36	9086.79
643.713	9117.53
644.066	9195.72
644.419	9131.77
644.771	9033.46
645.124	8947.14
645.477	8937.19
645.83	8830.98
646.182	8853.35
646.535	8851.32
646.888	8814.26
647.24	8758.67
647.593	8835.28
647.945	8788.95
648.298	8735.39
648.65	8709.4
649.002	8706.01
649.355	8727.93
649.707	8784.2
650.059	8734.49
650.411	8920.7
650.763	8895.16
651.115	8963.18
651.467	8951.43
651.819	8956.63
652.171	8967.93
652.523	8955.5
652.875	8927.03
653.227	8874.37
653.578	8936.06
653.93	8960.7
654.282	8933.8
654.633	8905.33
654.985	8854.03
655.337	8948.49
655.688	8946.46
656.039	8995.95
656.391	8884.31
656.742	8924.09
657.094	9021.26
657.445	8990.53
657.796	8927.03
658.147	8904.2
658.498	8942.62
658.849	8924.31
659.2	8974.03
659.551	8947.36
659.902	8914.14
660.253	8930.19
660.604	8977.87
660.955	8932
661.306	9022.84
661.656	9011.77
662.007	8997.76
662.358	8968.61
662.708	8976.74
663.059	8957.53
663.409	8918.89
663.76	8966.35
664.11	8976.29
664.461	8926.8
664.811	8964.54
665.161	8955.5
665.511	8952.11
665.862	8952.34
666.212	8981.26
666.562	8984.88
666.912	8984.65
667.262	8905.56
667.612	9034.37
667.962	8952.34
668.312	8934.93
668.662	9014.48
669.011	8906.69
669.361	8923.86
669.711	8914.6
670.06	8877.31
670.41	8945.78
670.76	8883.18
671.109	8931.09
671.459	8903.07
671.808	8900.59
672.157	8886.12
672.507	8908.04
672.856	8878.21
673.205	8942.39
673.554	8881.38
673.904	8851.55
674.253	8870.3
674.602	8892.9
674.951	8750.98
675.3	8757.76
675.649	8834.6
675.998	8857.87
676.346	8805.9
676.695	8849.74
677.044	8788.5
677.393	8767.93
677.741	8800.93
678.09	8788.95
678.438	8769.97
678.787	8783.75
679.135	8798.89
679.484	8701.72
679.832	8714.38
680.181	8682.51
680.529	8670.53
680.877	8608.16
681.225	8677.09
681.573	8718.22
681.922	8694.04
682.27	8600.93
682.618	8595.06
682.966	8601.61
683.314	8532.01
683.661	8551.22
684.009	8467.6
684.357	8548.96
684.705	8482.52
685.053	8512.57
685.4	8425.8
685.748	8436.64
686.095	8389.86
686.443	8438.45
686.79	8406.81
687.138	8386.02
687.485	8397.55
687.832	8317.1
688.18	8342.18
688.527	8335.85
688.874	8301.05
689.221	8250.21
689.568	8217.89
689.915	8207.27
690.262	8227.16
690.609	8202.3
690.956	8229.87
691.303	8140.15
691.65	8120.94
691.997	8108.29
692.344	8073.26
692.69	8027.84
693.037	8055.41
693.383	7957.79
693.73	7986.71
694.077	7995.98
694.423	7859.48
694.769	7880.5
695.116	7844.79
695.462	7815.87
695.808	7828.3
696.155	7778.35
696.501	7784.68
696.847	7757.56
697.193	7686.38
697.539	7740.39
697.885	7610
698.231	7584.46
698.577	7624.91
698.923	7618.81
699.269	7545.82
699.614	7473.05
699.96	7511.47
700.306	7445.03
700.651	7426.5
700.997	7414.97
701.342	7372.72
701.688	7365.71
702.033	7344.92
702.379	7367.29
702.724	7326.39
703.069	7342.66
703.415	7197.58
703.76	7203.23
704.105	7225.37
704.45	7222.89
704.795	7151.03
705.14	7164.81
705.485	7150.57
705.83	7128.43
706.175	7059.73
706.52	7083.68
706.865	7038.49
707.209	7035.55
707.554	6998.71
707.899	7018.83
708.243	6926.17
708.588	6944.93
708.932	6883.24
709.277	6879.85
709.621	6907.64
709.966	6849.34
710.31	6880.53
710.654	6812.73
710.998	6835.1
711.342	6840.98
711.687	6792.62
712.031	6723.69
712.375	6717.59
712.719	6744.48
713.063	6688.44
713.407	6753.52
713.75	6713.52
714.094	6719.63
714.438	6682.56
714.782	6651.6
715.125	6626.52
715.469	6633.07
715.812	6634.66
716.156	6565.51
716.499	6619.29
716.843	6600.53
717.186	6530.03
717.53	6623.36
717.873	6578.84
718.216	6499.52
718.559	6524.15
718.902	6490.25
719.246	6477.15
719.589	6476.69
719.932	6447.54
720.275	6459.07
720.617	6458.84
720.96	6429.24
721.303	6446.86
721.646	6499.07
721.989	6391.95
722.331	6433.53
722.674	6436.7
723.016	6431.05
723.359	6464.04
723.701	6385.17
724.044	6399.41
724.386	6355.57
724.729	6425.17
725.071	6410.48
725.413	6347.66
725.755	6427.43
726.097	6332.07
726.439	6247.32
726.782	6347.88
727.124	6344.95
727.465	6316.7
727.807	6290.71
728.149	6327.09
728.491	6306.3
728.833	6344.49
729.175	6316.92
729.516	6287.32
729.858	6247.1
730.199	6330.48
730.541	6277.83
730.882	6263.82
731.224	6309.69
731.565	6296.59
731.906	6205.29
732.248	6295.46
732.589	6303.59
732.93	6237.6
733.271	6317.38
733.612	6265.17
733.953	6275.8
734.294	6212.97
734.635	6279.19
734.976	6295
735.317	6278.73
735.658	6296.81
735.999	6266.3
736.339	6246.42
736.68	6263.82
737.021	6316.02
737.361	6258.39
737.702	6346.75
738.042	6264.5
738.383	6240.54
738.723	6300.65
739.063	6339.3
739.404	6291.39
739.744	6284.61
740.084	6270.6
740.424	6334.78
740.764	6350.6
741.104	6406.41
741.444	6312.18
741.784	6320.54
742.124	6406.87
742.464	6321.67
742.804	6369.13
743.143	6401.44
743.483	6438.28
743.823	6397.15
744.162	6450.25
744.502	6427.2
744.841	6459.07
745.181	6519.63
745.52	6520.76
745.86	6539.97
746.199	6570.02
746.538	6611.38
746.877	6649.34
747.216	6635.79
747.556	6629.23
747.895	6730.47
748.234	6686.63
748.573	6779.96
748.911	6787.42
749.25	6836.01
749.589	6823.58
749.928	6922.11
750.267	6959.39
750.605	6994.42
750.944	7060.86
751.283	7099.28
751.621	7147.18
751.96	7198.48
752.298	7272.83
752.636	7348.99
752.975	7369.55
753.313	7464.92
753.651	7583.56
753.989	7573.61
754.327	7669.66
754.666	7708.3
755.004	7883.21
755.342	7990.78
755.679	8073.94
756.017	8133.6
756.355	8298.34
756.693	8356.87
757.031	8423.31
757.368	8494.04
757.706	8569.97
758.044	8701.04
758.381	8814.49
758.719	8914.14
759.056	9055.84
759.394	9168.15
759.731	9238.43
760.068	9326.79
760.405	9473.23
760.743	9563.84
761.08	9670.06
761.417	9772.43
761.754	9951.63
762.091	10016.26
762.428	10093.1
762.765	10153.43
763.102	10392.75
763.438	10489.47
763.775	10554.78
764.112	10643.14
764.449	10842.91
764.785	10902.57
765.122	10891.95
765.458	11010.81
765.795	11208.1
766.131	11322.22
766.467	11350.92
766.804	11442.44
767.14	11591.59
767.476	11674.75
767.812	11713.84
768.148	11850.34
768.485	11901.18
768.821	12005.81
769.157	12081.29
769.492	12153.61
769.828	12266.82
770.164	12201.74
770.5	12321.29
770.836	12430.66
771.171	12475.41
771.507	12499.36
771.842	12530.55
772.178	12665.01
772.513	12707.49
772.849	12738.68
773.184	12770.09
773.519	12800.82
773.855	12807.83
774.19	12961.95
774.525	12991.1
774.86	13026.13
775.195	13082.62
775.53	13083.53
775.865	13074.26
776.2	13073.36
776.535	13075.62
776.87	13113.36
777.205	13142.73
777.539	13056.41
777.874	13239.68
778.209	13180.7
778.543	13173.47
778.878	13210.3
779.212	13293.01
779.547	13266.57
779.881	13297.76
780.215	13243.97
780.55	13262.96
780.884	13249.85
781.218	13177.76
781.552	13272.9
781.886	13219.34
782.22	13208.49
782.554	13150.64
782.888	13136.41
783.222	13114.26
783.556	13148.16
783.889	13176.63
784.223	13022.51
784.557	13091.66
784.89	13126.46
785.224	12988.16
785.557	13143.86
785.891	13051.66
786.224	13055.73
786.558	13062.28
786.891	12986.58
787.224	12911.33
787.557	12928.5
787.891	12968.95
788.224	12889.41
788.557	12932.12
788.89	12905.23
789.223	12928.5
789.556	12825.68
789.888	12825.45
790.221	12787.04
790.554	12809.63
790.887	12700.26
791.219	12705.91
791.552	12655.74
791.884	12678.79
792.217	12722.18
792.549	12616.87
792.882	12602.63
793.214	12578.68
793.546	12585.91
793.879	12595.4
794.211	12466.82
794.543	12519.02
794.875	12460.94
795.207	12550.43
795.539	12396.99
795.871	12439.25
796.203	12325.81
796.535	12256.88
796.867	12322.87
797.198	12323.77
797.53	12220.05
797.862	12163.32
798.193	12185.7
798.525	12132.59
798.856	12208.07
799.188	12092.37
799.519	12065.02
799.85	11998.58
800.182	11970.33
800.513	12032.25
800.844	11897.12
801.175	12078.58
801.506	11968.53
801.837	11926.27
802.168	11874.97
802.499	11859.38
802.83	11740.06
803.161	11779.83
803.491	11801.07
803.822	11731.92
804.153	11763.79
804.483	11586.62
804.814	11570.35
805.145	11510.46
805.475	11559.95
805.805	11565.83
806.136	11493.74
806.466	11490.8
806.796	11490.8
807.126	11412.61
807.457	11425.04
807.787	11466.39
808.117	11340.3
808.447	11298.71
808.777	11339.62
809.107	11292.84
809.436	11313.18
809.766	11267.08
810.096	11209
810.426	11246.74
810.755	11219.85
811.085	11144.82
811.414	11048.33
811.744	11025.73
812.073	11037.48
812.403	11066.4
812.732	10960.42
813.061	11024.6
813.39	10952.73
813.719	10937.37
814.049	10990.7
814.378	10905.96
814.707	10874.32
815.036	10790.03
815.365	10807.65
815.693	10746.86
816.022	10837.71
816.351	10839.29
816.68	10696.47
817.008	10782.57
817.337	10639.75
817.665	10654.89
817.994	10626.19
818.322	10643.59
818.651	10603.37
818.979	10553.88
819.307	10609.47
819.636	10531.5
819.964	10502.8
820.292	10597.26
820.62	10579.64
820.948	10508.45
821.276	10599.3
821.604	10520.88
821.932	10536.25
822.259	10562.69
822.587	10513.65
822.915	10456.93
823.243	10519.07
823.57	10437.95
823.898	10474.33
824.225	10434.33
824.553	10472.97
824.88	10502.12
825.207	10500.77
825.535	10509.58
825.862	10563.59
826.189	10473.2
826.516	10546.64
826.843	10544.16
827.17	10511.16
827.497	10590.71
827.824	10482.46
828.151	10529.92
828.478	10527.21
828.805	10621.44
829.131	10550.71
829.458	10513.88
829.785	10447.44
830.111	10511.84
830.438	10582.35
830.764	10543.48
831.09	10491.5
831.417	10446.76
831.743	10475.69
832.069	10508.68
832.395	10478.62
832.722	10515.68
833.048	10485.85
833.374	10521.56
833.7	10385.97
834.026	10385.52
834.351	10471.84
834.677	10441.34
835.003	10443.6
835.329	10370.38
835.654	10452.18
835.98	10385.29
836.306	10321.34
836.631	10327.44
836.956	10379.64
837.282	10362.47
837.607	10277.27
837.932	10246.54
838.258	10318.63
838.583	10254.9
838.908	10195.24
839.233	10227.78
839.558	10238.4
839.883	10165.64
840.208	10157.5
840.533	10261.23
840.858	10155.02
841.182	10164.51
841.507	10111.63
841.832	10058.52
842.156	10052.65
842.481	10122.7
842.805	10027.56
843.13	10066.88
843.454	10026.43
843.778	9958.86
844.103	9950.5
844.427	9918.64
844.751	9936.26
845.075	9850.62
845.399	9846.77
845.723	9828.02
846.047	9845.19
846.371	9752.31
846.695	9782.37
847.019	9752.99
847.343	9621.47
847.666	9599.78
847.99	9607.91
848.313	9611.53
848.637	9454.02
848.96	9461.47
849.284	9417.63
849.607	9387.8
849.931	9341.7
850.254	9315.94
850.577	9304.87
850.9	9223.06
851.223	9202.95
851.546	9152.33
851.869	9143.52
852.192	9112.33
852.515	9036.85
852.838	9070.98
853.161	9054.03
853.483	8969.51
853.806	8956.4
854.129	8934.26
854.451	8907.36
854.774	8829.4
855.096	8823.53
855.419	8856.97
855.741	8793.47
856.063	8766.58
856.385	8772
856.708	8744.21
857.03	8730.87
857.352	8708.27
857.674	8685.45
857.996	8633.02
858.318	8632.8
858.64	8597.32
858.961	8571.78
859.283	8530.88
859.605	8487.94
859.926	8487.94
860.248	8475.51
860.57	8400.94
860.891	8450.88
861.212	8364.78
861.534	8393.93
861.855	8318.68
862.176	8346.25
862.498	8388.96
862.819	8308.51
863.14	8298.79
863.461	8249.53
863.782	8225.57
864.103	8281.62
864.424	8284.33
864.745	8206.14
865.065	8218.12
865.386	8172.24
865.707	8159.14
866.027	8124.56
866.348	8150.77
866.668	8147.38
866.989	8095.63
867.309	8049.53
867.63	8101.06
867.95	8024.9
868.27	8031.23
868.59	8060.83
868.91	8049.99
869.23	8011.79
869.55	7989.65
869.87	8024.22
870.19	8004.11
870.51	8015.18
870.83	7973.6
871.15	7928.18
871.469	7965.24
871.789	7917.79
872.109	7927.96
872.428	7868.52
872.748	7842.31
873.067	7879.82
873.386	7799.15
873.706	7869.43
874.025	7804.34
874.344	7756.89
874.663	7768.86
874.982	7765.25
875.301	7831.23
875.62	7764.12
875.939	7705.59
876.258	7751.91
876.577	7732.71
876.896	7743.33
877.214	7686.38
877.533	7671.69
877.852	7623.56
878.17	7652.93
878.489	7662.2
878.807	7617.91
879.125	7691.58
879.444	7638.02
879.762	7654.74
880.08	7617.46
880.398	7551.92
880.716	7604.12
881.034	7569.77
881.352	7573.61
881.67	7544.69
881.988	7503.11
882.306	7478.25
882.624	7442.09
882.941	7398.48
883.259	7469.21
883.577	7412.26
883.894	7400.51
884.212	7394.41
884.529	7396.22
884.846	7377.24
885.164	7346.95
885.481	7297.69
885.798	7401.42
886.115	7285.71
886.432	7259.05
886.75	7349.89
887.067	7299.05
887.383	7231.48
887.7	7257.01
888.017	7229.67
888.334	7204.58
888.651	7116.23
888.967	7152.38
889.284	7129.11
889.6	7125.94
889.917	7028.09
890.233	7078.03
890.55	7006.62
890.866	7029
891.182	6957.13
891.498	6973.86
891.815	6925.04
892.131	6918.94
892.447	6895.44
892.763	6923.69
893.079	6864.48
893.395	6871.71
893.71	6857.48
894.026	6855.44
894.342	6857.48
894.657	6764.14
894.973	6705.39
895.289	6767.76
895.604	6720.76
895.92	6700.64
896.235	6671.27
896.55	6657.48
896.865	6639.18
897.181	6633.75
897.496	6617.93
897.811	6571.83
898.126	6578.39
898.441	6499.74
898.756	6474.66
899.071	6444.15
899.386	6531.83
899.7	6397.37
900.015	6346.53
900.33	6284.16
900.644	6306.3
900.959	6345.4
901.273	6313.08
901.588	6248.9
901.902	6260.43
902.216	6295
902.531	6224.72
902.845	6202.35
903.159	6151.73
903.473	6158.74
903.787	6161.9
904.101	6091.39
904.415	6097.5
904.729	6043.94
905.042	6059.08
905.356	6039.64
905.67	6017.72
905.984	6025.86
906.297	5991.96
906.611	5937.73
906.924	5931.85
907.237	5911.51
907.551	5903.6
907.864	5851.63
908.177	5814.34
908.491	5783.15
908.804	5810.27
909.117	5822.02
909.43	5690.73
909.743	5668.13
910.056	5673.78
910.368	5671.97
910.681	5646.43
910.994	5655.47
911.307	5604.4
911.619	5587.45
911.932	5545.65
912.244	5554.91
912.557	5516.49
912.869	5484.18
913.181	5462.94
913.494	5461.35
913.806	5406.67
914.118	5419.77
914.43	5298.42
914.742	5397.4
915.054	5333.9
915.366	5344.97
915.678	5306.56
915.99	5318.08
916.302	5245.54
916.613	5209.38
916.925	5199.21
917.236	5201.7
917.548	5152.21
917.859	5172.77
918.171	5166.45
918.482	5124.41
918.794	5126.9
919.105	5126.22
919.416	5042.83
919.727	5053.68
920.038	5035.83
920.349	4985.89
920.66	4969.84
920.971	4981.59
921.282	4946.79
921.593	4946.34
921.903	4871.09
922.214	4917.19
922.525	4880.58
922.835	4849.84
923.146	4858.88
923.456	4823.18
923.767	4747.25
924.077	4787.92
924.387	4762.39
924.697	4704.09
925.008	4686.68
925.318	4716.74
925.628	4705.89
925.938	4631.09
926.248	4639.91
926.558	4598.1
926.867	4592.68
927.177	4566.91
927.487	4605.1
927.796	4535.73
928.106	4512
928.416	4516.29
928.725	4511.55
929.034	4449.18
929.344	4520.59
929.653	4469.29
929.962	4394.71
930.271	4443.53
930.581	4402.85
930.89	4374.38
931.199	4337.09
931.508	4319.91
931.817	4288.96
932.125	4302.51
932.434	4303.87
932.743	4253.7
933.051	4251.89
933.36	4201.95
933.669	4167.38
933.977	4175.29
934.286	4149.07
934.594	4163.76
934.902	4121.5
935.21	4109.75
935.519	4101.16
935.827	4067.04
936.135	4041.05
936.443	4019.36
936.751	4027.49
937.059	4036.98
937.367	3995.63
937.674	3981.17
937.982	3962.41
938.29	3957.89
938.597	3954.5
938.905	3919.93
939.213	3915.86
939.52	3858.68
939.827	3876.76
940.135	3896.87
940.442	3859.59
940.749	3856.65
941.056	3857.33
941.363	3831.57
941.67	3787.73
941.977	3764.22
942.284	3732.81
942.591	3757.67
942.898	3731.68
943.205	3687.84
943.511	3677.67
943.818	3680.61
944.125	3619.37
944.431	3652.81
944.738	3622.76
945.044	3600.84
945.35	3609.2
945.657	3596.54
945.963	3571.23
946.269	3554.06
946.575	3541.63
946.881	3550.9
947.187	3515.64
947.493	3490.11
947.799	3493.72
948.105	3473.61
948.41	3439.03
948.716	3430.67
949.022	3459.82
949.327	3415.53
949.633	3375.53
949.938	3367.62
950.244	3412.59
950.549	3352.93
950.854	3342.77
951.16	3341.64
951.465	3305.03
951.77	3301.41
952.075	3298.02
952.38	3259.38
952.685	3296.21
952.99	3224.12
953.294	3198.59
953.599	3248.08
953.904	3214.18
954.209	3205.59
954.513	3189.55
954.818	3166.27
955.122	3151.36
955.426	3167.4
955.731	3129.89
956.035	3075.43
956.339	3082.21
956.643	3052.83
956.948	3089.66
957.252	3064.13
957.556	3051.93
957.86	3018.93
958.163	3058.25
958.467	3003.79
958.771	3010.57
959.075	2984.13
959.378	2951.82
959.682	2998.82
959.985	2930.12
960.289	2972.15
960.592	2942.55
960.896	2894.87
961.199	2910.69
961.502	2888.77
961.805	2888.77
962.108	2848.54
962.411	2854.19
962.714	2845.83
963.017	2856.45
963.32	2823.91
963.623	2812.16
963.926	2794.76
964.228	2804.25
964.531	2780.97
964.833	2751.82
965.136	2718.15
965.438	2748.88
965.741	2754.53
966.043	2689.9
966.345	2714.76
966.648	2710.92
966.95	2687.19
967.252	2663.46
967.554	2647.42
967.856	2632.5
968.158	2625.72
968.46	2623.24
968.761	2592.5
969.063	2620.07
969.365	2582.79
969.666	2587.98
969.968	2550.7
970.269	2553.63
970.571	2561.77
970.872	2545.5
971.174	2519.96
971.475	2519.96
971.776	2514.31
972.077	2472.96
972.378	2493.3
972.679	2475.9
972.98	2455.56
973.281	2438.83
973.582	2442.68
973.883	2438.83
974.183	2413.98
974.484	2405.16
974.785	2434.77
975.085	2442.45
975.386	2429.34
975.686	2367.88
975.986	2413.07
976.287	2373.98
976.587	2329.01
976.887	2343.02
977.187	2336.46
977.487	2349.8
977.787	2267.99
978.087	2300.53
978.387	2270.03
978.687	2283.58
978.987	2318.39
979.286	2242
979.586	2241.33
979.885	2222.79
980.185	2260.31
980.484	2213.53
980.784	2203.59
981.083	2197.71
981.382	2178.28
981.682	2201.78
981.981	2191.16
982.28	2162.01
982.579	2144.83
982.878	2166.75
983.177	2160.65
983.475	2132.18
983.774	2169.24
984.073	2127.2
984.372	2114.1
984.67	2086.3
984.969	2098.5
985.267	2054.21
985.566	2078.62
985.864	2063.48
986.162	2050.14
986.461	2006.3
986.759	2036.13
987.057	2011.27
987.355	2039.75
987.653	1986.42
987.951	1995.68
988.249	2004.27
988.547	1997.26
988.844	1983.03
989.142	1968.11
989.44	1961.33
989.737	1918.4
990.035	1911.62
990.332	1940.77
990.63	1931.5
990.927	1949.13
991.224	1896.02
991.521	1905.97
991.819	1861.67
992.116	1881.33
992.413	1877.49
992.71	1842.01
993.006	1869.58
993.303	1845.4
993.6	1843.82
993.897	1832.07
994.193	1805.4
994.49	1802.92
994.787	1807.89
995.083	1808.57
995.379	1780.09
995.676	1766.54
995.972	1788.91
996.268	1784.61
996.565	1759.76
996.861	1750.49
997.157	1744.39
997.453	1723.6
997.749	1729.02
998.044	1706.2
998.34	1689.48
998.636	1698.06
998.932	1707.78
999.227	1657.84
999.523	1669.81
999.818	1636.82
1000.114	1668.91
1000.409	1647.22
1000.704	1613.09
1001	1628.46
1001.295	1611.29
1001.59	1640.44
1001.885	1651.96
1002.18	1625.75
1002.475	1594.11
1002.77	1599.76
1003.065	1593.88
1003.359	1558.63
1003.654	1550.5
1003.949	1539.2
1004.243	1534.45
1004.538	1541.68
1004.832	1542.13
1005.127	1507.79
1005.421	1505.53
1005.715	1494.45
1006.009	1544.39
1006.304	1479.54
1006.598	1498.75
1006.892	1448.8
1007.186	1449.03
1007.48	1458.07
1007.773	1438.63
1008.067	1463.49
1008.361	1422.59
1008.655	1451.97
1008.948	1434.57
1009.242	1410.61
1009.535	1405.64
1009.829	1396.15
1010.122	1400.9
1010.415	1387.79
1010.708	1374.91
1011.001	1369.03
1011.295	1376.72
1011.588	1352.08
1011.881	1336.72
1012.173	1338.75
1012.466	1324.51
1012.759	1341.91
1013.052	1314.8
1013.344	1280.45
1013.637	1303.5
1013.93	1289.71
1014.222	1295.36
1014.514	1289.71
1014.807	1264.18
1015.099	1270.96
1015.391	1290.16
1015.683	1260.11
1015.976	1261.01
1016.268	1253.1
1016.56	1239.32
1016.851	1225.76
1017.143	1205.19
1017.435	1216.27
1017.727	1191.86
1018.018	1209.49
1018.31	1206.32
1018.602	1196.61
1018.893	1178.53
1019.185	1177.85
1019.476	1141.47
1019.767	1164.29
1020.058	1127.91
1020.35	1146.21
1020.641	1141.02
1020.932	1147.12
1021.223	1126.78
1021.514	1126.55
1021.804	1098.08
1022.095	1111.19
1022.386	1111.64
1022.677	1082.26
1022.967	1072.77
1023.258	1079.1
1023.548	1061.92
1023.839	1065.08
1024.129	1051.98
1024.419	1036.84
1024.709	1027.12
1025	1045.88
1025.29	1008.82
1025.58	1017.18
1025.87	1025.76
1026.16	1004.75
1026.449	995.26
1026.739	994.8
1027.029	1012.88
1027.319	996.61
1027.608	995.93
1027.898	1003.62
1028.187	985.77
1028.477	973.56
1028.766	986.89
1029.055	947.57
1029.344	964.75
1029.634	956.61
1029.923	938.08
1030.212	958.42
1030.501	948.93
1030.79	922.04
1031.078	930.85
1031.367	894.02
1031.656	886.56
1031.945	876.62
1032.233	904.86
1032.522	892.89
1032.81	881.36
1033.099	869.16
1033.387	876.62
1033.675	880.68
1033.963	870.06
1034.251	855.15
1034.54	854.92
1034.828	870.51
1035.116	839.1
1035.403	850.63
1035.691	837.07
1035.979	832.77
1036.267	819.67
1036.554	826.45
1036.842	841.36
1037.129	813.11
1037.417	818.76
1037.704	808.59
1037.992	793.23
1038.279	792.55
1038.566	778.99
1038.853	778.99
1039.14	778.99
