Data from hue_20_FLMS001491_19.txt Node
Date: Mon Feb 06 15:33:42 GMT 2017
User: dcchb
Spectrometer: FLMS00149
Trigger mode: 0
Integration Time (sec): 2.000000E-2
Scans to average: 10
Electric dark correction enabled: true
Nonlinearity correction enabled: false
Boxcar width: 0
XAxis mode: Wavelengths
Number of Pixels in Spectrum: 2048
>>>>>Begin Spectral Data<<<<<
341.393	-10.51
341.776	-10.51
342.16	-10.51
342.543	-69.94
342.927	-66.78
343.31	-62.71
343.693	-60.45
344.077	-67.23
344.46	-36.72
344.843	-57.96
345.226	-55.93
345.61	-34.46
345.993	-8.25
346.376	-14.8
346.759	3.28
347.142	12.99
347.525	43.5
347.908	38.3
348.291	89.15
348.674	107.23
349.057	104.07
349.44	140.67
349.823	153.56
350.206	159.66
350.588	198.07
350.971	213.21
351.354	226.1
351.737	248.24
352.119	225.19
352.502	265.42
352.884	263.38
353.267	290.95
353.65	280.78
354.032	297.51
354.414	307
354.797	302.03
355.179	299.99
355.562	335.47
355.944	330.05
356.326	340.67
356.709	323.04
357.091	330.95
357.473	351.06
357.855	328.69
358.238	339.77
358.62	328.24
359.002	339.54
359.384	335.47
359.766	352.19
360.148	346.32
360.53	328.01
360.912	336.83
361.294	330.73
361.676	332.99
362.057	321.46
362.439	323.95
362.821	328.92
363.203	324.17
363.584	321.69
363.966	329.6
364.348	321.46
364.729	303.83
365.111	306.32
365.493	316.04
365.874	311.07
366.256	313.55
366.637	297.28
367.019	316.71
367.4	307.45
367.781	314.46
368.163	322.82
368.544	302.93
368.925	306.32
369.306	334.57
369.688	305.42
370.069	302.03
370.45	300.67
370.831	300.22
371.212	288.02
371.593	316.04
371.974	314.68
372.355	307.22
372.736	308.81
373.117	317.17
373.498	333.89
373.879	302.93
374.26	301.12
374.641	312.42
375.021	295.92
375.402	308.58
375.783	316.26
376.163	332.76
376.544	312.2
376.925	326.88
377.305	325.08
377.686	336.38
378.066	342.93
378.447	331.18
378.827	311.52
379.208	304.96
379.588	333.66
379.968	315.13
380.349	338.18
380.729	344.28
381.109	323.72
381.489	321.23
381.87	322.36
382.25	344.06
382.63	320.78
383.01	323.49
383.39	341.57
383.77	333.44
384.15	332.08
384.53	362.36
384.91	307.45
385.29	324.4
385.67	318.3
386.049	316.71
386.429	360.56
386.809	375.92
387.189	362.14
387.568	336.83
387.948	347.9
388.328	348.58
388.707	336.15
389.087	356.94
389.466	367.11
389.846	364.62
390.225	369.59
390.605	362.59
390.984	358.07
391.363	368.69
391.743	364.17
392.122	376.15
392.501	360.33
392.881	364.85
393.26	370.05
393.639	376.6
394.018	360.56
394.397	345.19
394.776	379.31
395.155	385.41
395.534	381.8
395.913	378.18
396.292	356.26
396.671	378.41
397.05	373.66
397.429	369.37
397.808	373.44
398.186	388.8
398.565	401.46
398.944	391.06
399.323	380.89
399.701	377.96
400.08	387.67
400.458	386.09
400.837	409.37
401.215	405.3
401.594	387.22
401.972	397.84
402.351	397.62
402.729	405.07
403.107	400.1
403.486	391.52
403.864	404.17
404.242	413.44
404.62	400.33
404.999	389.03
405.377	399.2
405.755	410.05
406.133	390.61
406.511	420.67
406.889	426.77
407.267	428.12
407.645	411.63
408.023	424.96
408.401	410.72
408.779	412.98
409.156	432.42
409.534	430.38
409.912	431.51
410.29	426.99
410.667	417.28
411.045	434.68
411.422	438.52
411.8	447.78
412.178	447.56
412.555	447.33
412.933	438.29
413.31	452.3
413.687	437.39
414.065	454.11
414.442	453.21
414.819	461.8
415.197	467.9
415.574	452.08
415.951	462.93
416.328	463.38
416.705	478.97
417.082	476.03
417.46	478.97
417.837	475.35
418.214	459.31
418.591	491.4
418.967	482.36
419.344	485.52
419.721	481.23
420.098	511.06
420.475	488.01
420.852	495.69
421.228	513.55
421.605	491.63
421.982	495.02
422.358	507.67
422.735	503.6
423.111	504.05
423.488	527.33
423.864	503.38
424.241	504.73
424.617	513.09
424.994	524.62
425.37	530.27
425.746	518.74
426.123	513.09
426.499	529.36
426.875	534.56
427.251	522.81
427.627	523.49
428.003	550.83
428.379	549.48
428.756	540.44
429.132	554.67
429.507	582.02
429.883	575.92
430.259	577.5
430.635	565.07
431.011	580.21
431.387	582.24
431.763	580.21
432.138	585.18
432.514	592.87
432.89	601.91
433.265	613.43
433.641	617.72
434.016	582.02
434.392	625.41
434.767	620.66
435.143	622.47
435.518	633.09
435.894	640.55
436.269	641.45
436.644	644.16
437.02	627.67
437.395	637.16
437.77	643.71
438.145	643.03
438.52	654.79
438.895	661.11
439.271	655.24
439.646	695.91
440.021	693.65
440.395	677.61
440.77	680.55
441.145	675.35
441.52	696.82
441.895	696.59
442.27	689.36
442.645	695.91
443.019	715.8
443.394	709.47
443.769	704.28
444.143	701.11
444.518	708.34
444.892	710.83
445.267	739.3
445.641	709.47
446.016	709.25
446.39	731.85
446.764	757.16
447.139	761.45
447.513	711.51
447.887	764.39
448.262	772.07
448.636	754.22
449.01	763.03
449.384	727.1
449.758	773.2
450.132	774.56
450.506	820.43
450.88	794.67
451.254	788.11
451.628	811.17
452.002	773.65
452.376	808.91
452.75	791.73
453.123	823.82
453.497	819.75
453.871	826.98
454.244	840.99
454.618	841.9
454.992	874.44
455.365	868.11
455.739	854.33
456.112	890.94
456.486	885.29
456.859	884.38
457.232	902.69
457.606	906.08
457.979	924.83
458.352	917.38
458.725	906.08
459.099	957.6
459.472	944.27
459.845	963.48
460.218	958.51
460.591	956.02
460.964	971.84
461.337	989.01
461.71	997.6
462.083	1012.06
462.456	1001.67
462.829	1004.38
463.201	1057.26
463.574	1039.63
463.947	1038.96
464.32	1089.12
464.692	1070.37
465.065	1117.15
465.438	1096.13
465.81	1111.5
466.183	1117.6
466.555	1125.28
466.928	1152.63
467.3	1145.17
467.672	1176.81
468.045	1216.35
468.417	1200.99
468.789	1207.31
469.161	1229.23
469.534	1236.01
469.906	1266.97
470.278	1304.49
470.65	1260.64
471.022	1307.2
471.394	1322.11
471.766	1327.54
472.138	1353.98
472.51	1388.78
472.882	1396.69
473.253	1422.9
473.625	1432.17
473.997	1468.1
474.369	1472.62
474.74	1484.14
475.112	1538.6
475.484	1579.28
475.855	1559.85
476.227	1593.29
476.598	1637.36
476.97	1644.59
477.341	1697.02
477.713	1708.32
478.084	1735.21
478.455	1783.79
478.827	1775.66
479.198	1798.48
479.569	1840.97
479.94	1887.07
480.311	1938.37
480.682	1947.41
481.053	2006.39
481.424	2041.42
481.795	2030.79
482.166	2089.55
482.537	2134.75
482.908	2184.01
483.279	2180.39
483.65	2268.98
484.021	2297.68
484.391	2320.05
484.762	2330.67
485.133	2372.71
485.503	2413.83
485.874	2465.13
486.244	2473.04
486.615	2543.32
486.985	2562.31
487.356	2616.09
487.726	2644.34
488.097	2662.42
488.467	2765.92
488.837	2780.83
489.207	2791.9
489.578	2861.51
489.948	2902.41
490.318	2922.07
490.688	2980.15
491.058	3026.93
491.428	3073.93
491.798	3069.86
492.168	3171.78
492.538	3190.09
492.908	3200.71
493.278	3274.6
493.648	3261.27
494.017	3296.07
494.387	3324.32
494.757	3421.72
495.126	3402.06
495.496	3436.63
495.866	3458.33
496.235	3527.48
496.605	3533.81
496.974	3571.54
497.344	3577.19
497.713	3616.52
498.082	3648.38
498.452	3713.46
498.821	3673.46
499.19	3692.45
499.559	3746.91
499.928	3786.91
500.298	3779.22
500.667	3821.93
501.036	3814.02
501.405	3876.85
501.774	3914.81
502.143	3948.94
502.512	3956.62
502.88	3939.9
503.249	4001.14
503.618	4041.36
503.987	4011.76
504.356	4043.62
504.724	4066.9
505.093	4097.41
505.462	4136.95
505.83	4163.17
506.199	4186.67
506.567	4192.32
506.936	4221.02
507.304	4270.51
507.672	4275.71
508.041	4293.79
508.409	4340.34
508.777	4374.24
509.145	4381.01
509.514	4333.56
509.882	4391.18
510.25	4364.97
510.618	4427.79
510.986	4477.96
511.354	4454.91
511.722	4504.18
512.09	4498.53
512.458	4501.69
512.826	4547.56
513.193	4543.95
513.561	4583.27
513.929	4597.51
514.297	4615.81
514.664	4711.18
515.032	4627.79
515.4	4734.68
515.767	4713.44
516.135	4729.93
516.502	4693.55
516.869	4824.39
517.237	4760.67
517.604	4794.56
517.972	4868.91
518.339	4851.74
518.706	4831.4
519.073	4934.67
519.44	4895.8
519.808	4950.94
520.175	4896.48
520.542	4983.26
520.909	4990.26
521.276	5053.77
521.643	5020.32
522.009	5048.79
522.376	5036.36
522.743	5101
523.11	5098.28
523.477	5188.23
523.843	5230.26
524.21	5278.17
524.577	5242.01
524.943	5296.02
525.31	5336.92
525.676	5353.42
526.043	5376.47
526.409	5366.07
526.776	5452.4
527.142	5437.48
527.508	5422.12
527.874	5513.87
528.241	5561.32
528.607	5535.11
528.973	5577.37
529.339	5584.6
529.705	5693.07
530.071	5735.78
530.437	5700.53
530.803	5742.11
531.169	5782.79
531.535	5757.25
531.901	5854.87
532.267	5805.16
532.632	5825.95
532.998	5877.25
533.364	5894.65
533.73	5880.41
534.095	5998.15
534.461	5972.61
534.826	5998.6
535.192	6046.06
535.557	6036.56
535.923	6078.15
536.288	6136.45
536.653	6112.04
537.019	6107.3
537.384	6172.38
537.749	6144.36
538.114	6199.95
538.479	6178.71
538.845	6234.75
539.21	6227.29
539.575	6267.74
539.94	6292.15
540.305	6329.21
540.67	6300.06
541.034	6412.37
541.399	6378.25
541.764	6428.64
542.129	6452.15
542.494	6482.88
542.858	6500.51
543.223	6513.84
543.587	6590
543.952	6603.78
544.316	6609.2
544.681	6576.21
545.045	6633.84
545.41	6721.97
545.774	6720.61
546.138	6697.79
546.503	6737.56
546.867	6700.05
547.231	6780.73
547.595	6849.2
547.959	6867.28
548.324	6855.3
548.688	6895.52
549.052	6918.35
549.416	6928.52
549.779	6963.32
550.143	7049.42
550.507	7000.83
550.871	7011.45
551.235	7035.18
551.599	7101.85
551.962	7120.15
552.326	7114.95
552.689	7210.54
553.053	7125.58
553.417	7182.52
553.78	7249.87
554.143	7267.49
554.507	7272.01
554.87	7302.29
555.234	7328.06
555.597	7304.33
555.96	7398.34
556.323	7362.18
556.686	7332.12
557.05	7440.37
557.413	7434.49
557.776	7480.59
558.139	7515.4
558.502	7556.52
558.865	7566.24
559.228	7568.95
559.59	7638.56
559.953	7668.84
560.316	7683.75
560.679	7704.09
561.041	7785.67
561.404	7729.4
561.767	7854.37
562.129	7851.66
562.492	7835.39
562.854	7867.48
563.217	7941.6
563.579	7961.71
563.941	7955.84
564.304	7982.95
564.666	8051.65
565.028	8072.67
565.39	8046.46
565.753	8053.91
566.115	8107.47
566.477	8107.92
566.839	8162.84
567.201	8189.5
567.563	8280.8
567.925	8319.89
568.287	8318.99
568.648	8255.26
569.01	8391.08
569.372	8460.46
569.734	8414.13
570.095	8446.44
570.457	8501.36
570.819	8506.56
571.18	8577.51
571.542	8546.55
571.903	8678.53
572.265	8658.19
572.626	8735.25
572.987	8803.27
573.349	8791.97
573.71	8824.29
574.071	8917.39
574.432	8962.14
574.794	8989.26
575.155	9028.8
575.516	9013.89
575.877	9169.36
576.238	9178.4
576.599	9318.51
576.96	9355.57
577.32	9428.57
577.681	9395.35
578.042	9549.01
578.403	9593.76
578.763	9669.69
579.124	9776.58
579.485	9844.83
579.845	10034.88
580.206	9994.2
580.566	10078.27
580.927	10187.42
581.287	10356.45
581.648	10424.25
582.008	10616.56
582.368	10758.93
582.728	10779.94
583.089	10932.48
583.449	11110.56
583.809	11208.18
584.169	11418.57
584.529	11521.17
584.889	11838.45
585.249	11906.47
585.609	12019.23
585.969	12285.89
586.329	12472.78
586.688	12564.75
587.048	12799.55
587.408	13026.89
587.768	13256.71
588.127	13440.89
588.487	13643.37
588.846	13952.51
589.206	14060.53
589.565	14362.9
589.925	14625.49
590.284	14806.28
590.643	15102.09
591.003	15464.57
591.362	15705.01
591.721	15923.99
592.08	16215.96
592.44	16527.36
592.799	16771.42
593.158	16974.36
593.517	17289.6
593.876	17627.67
594.235	17880.77
594.593	18179.97
594.952	18491.6
595.311	18654.09
595.67	19102.89
596.029	19395.76
596.387	19761.4
596.746	20110.09
597.104	20191.67
597.463	20557.31
597.822	20982.61
598.18	21097.86
598.538	21351.64
598.897	21757.96
599.255	21951.85
599.613	22484.72
599.972	22643.81
600.33	22957.02
600.688	23206.73
601.046	23566.05
601.404	23960.39
601.762	23998.8
602.12	24543.42
602.478	24706.81
602.836	25154.03
603.194	25230.18
603.552	25588.59
603.91	25748.81
604.268	26162.59
604.625	26423.6
604.983	26735.68
605.341	26747.43
605.698	27186.97
606.056	27435.78
606.413	27682.77
606.771	28042.54
607.128	28377.45
607.485	28453.6
607.843	28785.34
608.2	29037.99
608.557	29335.61
608.914	29511.88
609.272	29818.09
609.629	30004.07
609.986	30417.62
610.343	30387.34
610.7	30844.05
611.057	30881.79
611.414	31189.35
611.771	31434.31
612.127	31652.61
612.484	31889.22
612.841	32163.56
613.198	32147.97
613.554	32423.67
613.911	32774.39
614.267	32830.66
614.624	33019.81
614.98	33350.87
615.337	33653.69
615.693	33594.94
616.05	33638.32
616.406	34026.11
616.762	34107.01
617.118	34254.58
617.475	34461.58
617.831	34669.03
618.187	34778.18
618.543	35029.47
618.899	35358.28
619.255	35312.4
619.611	35301.33
619.967	35532.06
620.323	35859.74
620.678	35825.39
621.034	35879.85
621.39	35996.23
621.746	36096.11
622.101	36712.59
622.457	36230.12
622.812	36526.84
623.168	36758.47
623.523	36693.16
623.879	36915.75
624.234	36761.18
624.589	36977.67
624.945	37096.31
625.3	37304.67
625.655	37181.28
626.01	37421.28
626.365	37473.7
626.72	37487.04
627.075	37728.84
627.43	37697.43
627.785	37710.99
628.14	37806.12
628.495	37972.22
628.85	37886.8
629.205	37864.88
629.559	38159.11
629.914	38038.21
630.269	38200.01
630.623	38131.54
630.978	38025.55
631.332	38312.55
631.687	38491.08
632.041	38235.94
632.396	38313.46
632.75	38223.51
633.104	38354.58
633.459	38233.01
633.813	38201.59
634.167	38229.62
634.521	38299.9
634.875	38448.14
635.229	38384.19
635.583	38303.06
635.937	38386.45
636.291	38325.43
636.645	38333.12
636.999	38408.59
637.352	38444.98
637.706	38271.65
638.06	38565.65
638.413	38284.3
638.767	38216.96
639.121	38456.5
639.474	38200.01
639.828	38370.86
640.181	38396.84
640.534	38540.12
640.888	38298.99
641.241	38170.86
641.594	38284.08
641.947	38435.03
642.301	38319.56
642.654	38370.86
643.007	38290.63
643.36	38291.99
643.713	38307.13
644.066	38357.07
644.419	38353.23
644.771	38016.29
645.124	37655.85
645.477	37702.17
645.83	37443.87
646.182	37165.46
646.535	37228.96
646.888	37274.84
647.24	37193.49
647.593	37388.73
647.945	37219.93
648.298	37081.85
648.65	37115.07
649.002	37100.61
649.355	37181.73
649.707	37036.88
650.059	37185.12
650.411	37772.68
650.763	37770.19
651.115	38103.97
651.467	37914.6
651.819	38025.78
652.171	37827.14
652.523	37954.14
652.875	37809.51
653.227	37788.72
653.578	38059.45
653.93	37866.69
654.282	37891.09
654.633	37729.29
654.985	37944.43
655.337	37723.64
655.688	37823.53
656.039	37876.63
656.391	37575.4
656.742	37595.96
657.094	37755.5
657.445	37932.22
657.796	37792.11
658.147	37692
658.498	37742.62
658.849	37769.06
659.2	37658.78
659.551	37669.41
659.902	37777.42
660.253	37660.82
660.604	37710.99
660.955	37667.82
661.306	37820.59
661.656	37586.24
662.007	37649.97
662.358	37681.61
662.708	37595.51
663.059	37654.04
663.409	37534.27
663.76	37685
664.11	37651.1
664.461	37800.48
664.811	37851.77
665.161	37788.72
665.511	37680.93
665.862	37698.33
666.212	37706.92
666.562	37846.35
666.912	37552.8
667.262	37757.31
667.612	37690.65
667.962	37693.36
668.312	37582.85
668.662	37731.78
669.011	37591.21
669.361	37622.63
669.711	37630.54
670.06	37547.37
670.41	37442.07
670.76	37490.65
671.109	37632.57
671.459	37610.42
671.808	37544.66
672.157	37547.15
672.507	37384.89
672.856	37384.21
673.205	37480.94
673.554	37591.21
673.904	37438.68
674.253	37656.98
674.602	37577.88
674.951	36986.94
675.3	36822.87
675.649	37463.08
675.998	37415.63
676.346	37452.24
676.695	37571.1
677.044	37213.15
677.393	37418.34
677.741	37271.9
678.09	37353.03
678.438	37199.36
678.787	37376.98
679.135	37369.3
679.484	36870.33
679.832	37207.72
680.181	37054.51
680.529	37235.29
680.877	36989.2
681.225	37009.99
681.573	37373.37
681.922	37003.21
682.27	36875.3
682.618	36933.61
682.966	36744.68
683.314	36942.87
683.661	36822.42
684.009	36712.14
684.357	36591.24
684.705	36500.85
685.053	36614.74
685.4	36567.74
685.748	36446.39
686.095	36387.18
686.443	36112.38
686.79	36153.29
687.138	36306.5
687.485	36168.88
687.832	36171.59
688.18	36104.7
688.527	35956
688.874	36002.1
689.221	35791.04
689.568	35866.29
689.915	35776.35
690.262	35658.84
690.609	35612.28
690.956	35488.22
691.303	35487.09
691.65	35376.81
691.997	35348.34
692.344	35168.23
692.69	35191.73
693.037	34994.45
693.383	34882.59
693.73	34985.63
694.077	34738.86
694.423	34742.48
694.769	34614.12
695.116	34830.38
695.462	34621.8
695.808	34546.32
696.155	34608.02
696.501	34254.58
696.847	34305.2
697.193	34083.96
697.539	34286.44
697.885	33909.5
698.231	33897.07
698.577	33947.02
698.923	33748.38
699.269	33573.47
699.614	33580.47
699.96	33456.18
700.306	33398.78
700.651	33336.19
700.997	33120.15
701.342	33122.86
701.688	33145.23
702.033	33078.11
702.379	33031.11
702.724	32879.47
703.069	33049.19
703.415	32684.9
703.76	32628.41
704.105	32704.11
704.45	32627.73
704.795	32430.67
705.14	32270.22
705.485	32242.2
705.83	32240.4
706.175	32222.09
706.52	32159.49
706.865	32124.01
707.209	32047.18
707.554	31892.83
707.899	31969.67
708.243	31763.12
708.588	31802.89
708.932	31482.45
709.277	31541.2
709.621	31566.29
709.966	31263.02
710.31	31285.17
710.654	31081.78
710.998	31198.39
711.342	31230.25
711.687	31048.11
712.031	30940.99
712.375	30862.35
712.719	30891.05
713.063	30885.18
713.407	30946.19
713.75	30697.38
714.094	30751.39
714.438	30717.27
714.782	30652.87
715.125	30463.04
715.469	30522.93
715.812	30392.31
716.156	30245.19
716.499	30192.31
716.843	30347.79
717.186	30004.52
717.53	30232.31
717.873	30216.49
718.216	30110.06
718.559	29907.12
718.902	29760.91
719.246	29886.56
719.589	29708.03
719.932	29693.8
720.275	29686.79
720.617	29646.57
720.96	29595.04
721.303	29635.27
721.646	29560.92
721.989	29248.38
722.331	29491.99
722.674	29489.51
723.016	29302.39
723.359	29289.96
723.701	29451.99
724.044	29186.92
724.386	29070.31
724.729	29107.82
725.071	29032.8
725.413	29122.29
725.755	29020.14
726.097	28913.93
726.439	28660.6
726.782	28769.3
727.124	28885.91
727.465	28743.99
727.807	28661.96
728.149	28631.68
728.491	28536.09
728.833	28707.61
729.175	28471.91
729.516	28559.36
729.858	28474.84
730.199	28512.81
730.541	28391.46
730.882	28393.04
731.224	28428.74
731.565	28185.36
731.906	28310.33
732.248	28190.33
732.589	28037.34
732.93	27921.19
733.271	28017.46
733.612	28070.34
733.953	27958.02
734.294	27859.27
734.635	27914.86
734.976	27849.1
735.317	27754.19
735.658	27744.24
735.999	27717.35
736.339	27746.73
736.68	27755.54
737.021	27687.29
737.361	27426.28
737.702	27607.75
738.042	27478.03
738.383	27415.44
738.723	27536.11
739.063	27300.64
739.404	27303.35
739.744	27328.89
740.084	27272.84
740.424	27318.72
740.764	27157.14
741.104	27274.88
741.444	27164.82
741.784	26972.96
742.124	27137.03
742.464	27000.08
742.804	26984.04
743.143	26976.8
743.483	26964.6
743.823	26748.11
744.162	26891.61
744.502	26960.53
744.841	26709.47
745.181	26763.7
745.52	26762.35
745.86	26784.04
746.199	26599.87
746.538	26548.34
746.877	26699.07
747.216	26528.91
747.556	26481.9
747.895	26620.43
748.234	26444.16
748.573	26348.12
748.911	26401.45
749.25	26334.11
749.589	26218.18
749.928	26222.93
750.267	26257.73
750.605	26103.61
750.944	26114
751.283	26084.85
751.621	26094.57
751.96	25889.15
752.298	25931.86
752.636	25979.54
752.975	25741.13
753.313	25723.28
753.651	25796.27
753.989	25722.6
754.327	25617.52
754.666	25522.15
755.004	25553.34
755.342	25509.95
755.679	25491.65
756.017	25476.51
756.355	25401.7
756.693	25194.7
757.031	25420.69
757.368	25120.36
757.706	25086.91
758.044	25125.55
758.381	25123.07
758.719	25019.34
759.056	25072.9
759.394	24922.17
759.731	24778.9
760.068	24829.52
760.405	24671.78
760.743	24632.46
761.08	24640.14
761.417	24516.08
761.754	24506.14
762.091	24406.93
762.428	24298.01
762.765	24229.08
763.102	24214.39
763.438	24069.08
763.775	24047.62
764.112	24066.37
764.449	24086.03
764.785	23827.06
765.122	23812.59
765.458	23622.99
765.795	23701.18
766.131	23584.35
766.467	23476.33
766.804	23477.69
767.14	23312.49
767.476	23362.89
767.812	23170.58
768.148	23192.27
768.485	23102.78
768.821	22956.57
769.157	22813.75
769.492	22816.69
769.828	22858.5
770.164	22623.7
770.5	22609.24
770.836	22619.86
771.171	22421.9
771.507	22369.02
771.842	22268.23
772.178	22248.12
772.513	22155.69
772.849	22122.7
773.184	22049.02
773.519	21946.65
773.855	21927.9
774.19	21766.09
774.525	21768.35
774.86	21549.83
775.195	21646.78
775.53	21551.18
775.865	21452.43
776.2	21306.45
776.535	21115.26
776.87	21211.31
777.205	21045.44
777.539	21033.01
777.874	21047.24
778.209	20905.33
778.543	20798.44
778.878	20691.77
779.212	20699.23
779.547	20514.15
779.881	20589.85
780.215	20442.06
780.55	20498.33
780.884	20280.94
781.218	20274.83
781.552	20312.35
781.886	20101.51
782.22	19975.86
782.554	19932.7
782.888	19784.68
783.222	19774.73
783.556	19692.7
783.889	19605.25
784.223	19464.23
784.557	19324.58
784.89	19451.35
785.224	19338.36
785.557	19180.63
785.891	19228.53
786.224	19141.98
786.558	19090.23
786.891	18899.05
787.224	18844.59
787.557	18806.4
787.891	18786.96
788.224	18763.69
788.557	18749
788.89	18634.43
789.223	18626.52
789.556	18400.76
789.888	18444.83
790.221	18330.03
790.554	18240.09
790.887	18211.61
791.219	18210.71
791.552	18095
791.884	18063.59
792.217	17942.47
792.549	17904.5
792.882	17838.51
793.214	17792.64
793.546	17702.02
793.879	17604.17
794.211	17578.86
794.543	17563.49
794.875	17519.2
795.207	17530.95
795.539	17391.75
795.871	17442.37
796.203	17173.22
796.535	17147.91
796.867	17142.49
797.198	17168.7
797.53	17188.81
797.862	16899.33
798.193	17083.96
798.525	16898.65
798.856	16978.2
799.188	16762.84
799.519	16687.36
799.85	16543.18
800.182	16582.73
800.513	16554.48
800.844	16357.2
801.175	16525.1
801.506	16473.8
801.837	16439.68
802.168	16359.46
802.499	16274.94
802.83	16145.68
803.161	16102.29
803.491	16168.95
803.822	16233.13
804.153	16040.6
804.483	15898
804.814	15888.73
805.145	15873.59
805.475	15807.38
805.805	15835.63
806.136	15676.76
806.466	15798.79
806.796	15662.3
807.126	15568.29
807.457	15595.86
807.787	15578.91
808.117	15402.87
808.447	15495.52
808.777	15448.07
809.107	15400.61
809.436	15240.16
809.766	15272.03
810.096	15212.14
810.426	15145.48
810.755	15167.4
811.085	15189.09
811.414	15130.34
811.744	14971.24
812.073	14989.1
812.403	14915.2
812.732	14823
813.061	14879.04
813.39	14761.08
813.719	14772.61
814.049	14847.41
814.378	14712.49
814.707	14602.21
815.036	14671.14
815.365	14634.76
815.693	14369.9
816.022	14484.93
816.351	14431.82
816.68	14368.55
817.008	14347.08
817.337	14293.52
817.665	14237.7
817.994	14248.55
818.322	14300.3
818.651	14239.96
818.979	14143.02
819.307	14197.93
819.636	14135.79
819.964	14030.93
820.292	14091.72
820.62	14100.99
820.948	14022.12
821.276	14050.37
821.604	13942.12
821.932	14039.52
822.259	14062.12
822.587	13916.13
822.915	13949.58
823.243	14019.18
823.57	13990.25
823.898	13982.57
824.225	13930.14
824.553	13904.83
824.88	13938.05
825.207	13954.55
825.535	13879.97
825.862	14002
826.189	13871.61
826.516	13941.22
826.843	14058.73
827.17	13892.18
827.497	13899.41
827.824	13932.85
828.151	13938.5
828.478	13902.35
828.805	13898.28
829.131	13970.14
829.458	13800.88
829.785	13851.73
830.111	13863.25
830.438	13871.84
830.764	13889.47
831.09	13869.13
831.417	13881.33
831.743	13866.42
832.069	13937.6
832.395	13771.05
832.722	13812.63
833.048	13704.84
833.374	13804.27
833.7	13703.93
834.026	13741.45
834.351	13738.28
834.677	13674.1
835.003	13695.35
835.329	13721.11
835.654	13666.87
835.98	13655.57
836.306	13599.76
836.631	13579.64
836.956	13640.88
837.282	13644.27
837.607	13528.8
837.932	13474.33
838.258	13548.68
838.583	13488.57
838.908	13368.35
839.233	13451.74
839.558	13425.3
839.883	13364.73
840.208	13281.57
840.533	13314.34
840.858	13312.08
841.182	13295.58
841.507	13283.83
841.832	13249.48
842.156	13187.56
842.481	13211.07
842.805	13112.54
843.13	13101.24
843.454	13121.8
843.778	13047.91
844.103	13003.84
844.427	12973.56
844.751	13044.52
845.075	12892.66
845.399	12950.96
845.723	12833.67
846.047	12847.91
846.371	12722.26
846.695	12776.73
847.019	12675.03
847.343	12612.89
847.666	12551.42
847.99	12509.39
848.313	12523.17
848.637	12374.7
848.96	12404.08
849.284	12332.44
849.607	12232.11
849.931	12278.66
850.254	12213.58
850.577	12092.22
850.9	11960.93
851.223	11977.43
851.546	11952.79
851.869	11848.62
852.192	11893.13
852.515	11808.62
852.838	11793.02
853.161	11701.05
853.483	11714.61
853.806	11659.47
854.129	11619.47
854.451	11558.68
854.774	11500.6
855.096	11505.57
855.419	11412.47
855.741	11486.36
856.063	11381.06
856.385	11252.25
856.708	11379.47
857.03	11274.62
857.352	11262.64
857.674	11153.94
857.996	11130.22
858.318	11125.92
858.64	11081.63
858.961	11091.57
859.283	11024.23
859.605	10970.22
859.926	10972.93
860.248	10977.45
860.57	10887.51
860.891	10914.4
861.212	10843.9
861.534	10878.02
861.855	10835.31
862.176	10790.34
862.498	10793.73
862.819	10768.42
863.14	10729.1
863.461	10720.51
863.782	10688.87
864.103	10707.4
864.424	10645.71
864.745	10650.68
865.065	10661.75
865.386	10556.45
865.707	10611.36
866.027	10598.03
866.348	10525.49
866.668	10536.11
866.989	10505.37
867.309	10464.24
867.63	10456.34
867.95	10494.53
868.27	10450.23
868.59	10439.61
868.91	10438.26
869.23	10422.66
869.55	10292.5
869.87	10312.16
870.19	10353.51
870.51	10359.16
870.83	10348.77
871.15	10270.58
871.469	10284.81
871.789	10275.78
872.109	10260.18
872.428	10214.31
872.748	10212.73
873.067	10153.07
873.386	10204.82
873.706	10094.99
874.025	10115.55
874.344	10080.53
874.663	10108.55
874.982	10069.9
875.301	10059.51
875.62	10043.69
875.939	10010.47
876.258	10038.27
876.577	9910.59
876.896	10004.37
877.214	9938.38
877.533	9965.73
877.852	9919.4
878.17	9967.99
878.489	9905.62
878.807	9900.19
879.125	9846.63
879.444	9912.17
879.762	9818.84
880.08	9791.95
880.398	9704.72
880.716	9804.83
881.034	9700.2
881.352	9686.64
881.67	9740.42
881.988	9666.75
882.306	9665.62
882.624	9653.42
882.941	9583.82
883.259	9639.18
883.577	9509.24
883.894	9556.25
884.212	9522.12
884.529	9497.72
884.846	9501.33
885.164	9421.11
885.481	9464.27
885.798	9439.64
886.115	9394.44
886.432	9382.24
886.75	9383.37
887.067	9394.67
887.383	9249.14
887.7	9327.33
888.017	9233.77
888.334	9292.52
888.651	9234.45
888.967	9199.42
889.284	9144.51
889.6	9117.84
889.917	9098.86
890.233	9110.16
890.55	9115.81
890.866	9065.64
891.182	9067.45
891.498	9024.28
891.815	8934.34
892.131	8948.8
892.447	8921.01
892.763	8886.88
893.079	8913.32
893.395	8827.23
893.71	8848.02
894.026	8761.24
894.342	8829.49
894.657	8737.06
894.973	8653.9
895.289	8703.61
895.604	8590.85
895.92	8563.5
896.235	8595.37
896.55	8557.63
896.865	8544.75
897.181	8501.13
897.496	8525.31
897.811	8384.75
898.126	8390.63
898.441	8373
898.756	8287.13
899.071	8354.47
899.386	8315.15
899.7	8229.95
900.015	8292.55
900.33	8203.51
900.644	8211.42
900.959	8166
901.273	8136.4
901.588	8112.67
901.902	7992.45
902.216	8020.47
902.531	8020.02
902.845	7993.12
903.159	7891.2
903.473	7935.05
903.787	7873.13
904.101	7824.31
904.415	7825.22
904.729	7857.99
905.042	7782.28
905.356	7742.73
905.67	7728.27
905.984	7730.08
906.297	7638.78
906.611	7577.09
906.924	7625.22
907.237	7553.36
907.551	7561.04
907.864	7432.69
908.177	7548.62
908.491	7471.33
908.804	7452.57
909.117	7406.7
909.43	7344.1
909.743	7315.85
910.056	7283.99
910.368	7259.13
910.681	7251.22
910.994	7230.21
911.307	7198.12
911.619	7158.57
911.932	7159.25
912.244	7096.2
912.557	7055.75
912.869	7040.61
913.181	6970.33
913.494	6982.3
913.806	6932.81
914.118	6954.96
914.43	6854.85
914.742	6891.23
915.054	6859.37
915.366	6785.25
915.678	6795.87
915.99	6725.81
916.302	6702.08
916.613	6674.06
916.925	6669.54
917.236	6674.74
917.548	6618.7
917.859	6584.35
918.171	6540.96
918.482	6513.84
918.794	6488.08
919.105	6476.55
919.416	6424.58
919.727	6389.32
920.038	6401.53
920.349	6313.39
920.66	6362.21
920.971	6301.87
921.282	6306.39
921.593	6260.29
921.903	6230.23
922.214	6255.32
922.525	6173.51
922.835	6197.24
923.146	6140.52
923.456	6135.77
923.767	6116.79
924.077	6054.42
924.387	6013.29
924.697	5997.92
925.008	6025.27
925.318	6022.1
925.628	5929.45
925.938	5940.07
926.248	5911.14
926.558	5824.37
926.867	5801.54
927.177	5861.2
927.487	5800.19
927.796	5720.87
928.106	5752.05
928.416	5727.19
928.725	5658.5
929.034	5681.32
929.344	5671.83
929.653	5638.83
929.962	5583.69
930.271	5553.64
930.581	5590.02
930.89	5506.18
931.199	5467.99
931.508	5506.86
931.817	5472.29
932.125	5447.88
932.434	5411.27
932.743	5386.41
933.051	5324.04
933.36	5341.22
933.669	5261.67
933.977	5279.75
934.286	5227.32
934.594	5244.49
934.902	5241.78
935.21	5178.06
935.519	5184.16
935.827	5140.99
936.135	5132.41
936.443	5091.73
936.751	5034.1
937.059	5083.14
937.367	5062.13
937.674	5019.42
937.982	5058.74
938.29	5008.79
938.597	4990.72
938.905	4983.26
939.213	4875.24
939.52	4897.16
939.827	4982.13
940.135	4841.57
940.442	4827.1
940.749	4841.12
941.056	4829.82
941.363	4724.06
941.67	4769.25
941.977	4735.36
942.284	4677.28
942.591	4678.41
942.898	4668.01
943.205	4675.92
943.511	4639.31
943.818	4633.66
944.125	4576.49
944.431	4569.71
944.738	4532.42
945.044	4550.5
945.35	4532.65
945.657	4456.94
945.963	4432.76
946.269	4480.45
946.575	4446.32
946.881	4412.88
947.187	4387.79
947.493	4396.83
947.799	4338.08
948.105	4377.85
948.41	4348.47
948.716	4354.8
949.022	4286.33
949.327	4294.24
949.633	4200.68
949.938	4263.96
950.244	4235.26
950.549	4163.62
950.854	4201.58
951.16	4140.12
951.465	4126.56
951.77	4116.39
952.075	4117.52
952.38	4093.11
952.685	4095.6
952.99	4016.05
953.294	4088.37
953.599	4048.37
953.904	3969.73
954.209	4002.04
954.513	3985.77
954.818	3961.59
955.122	3952.55
955.426	3880.69
955.731	3883.63
956.035	3901.03
956.339	3904.64
956.643	3814.48
956.948	3807.7
957.252	3828.71
957.556	3809.28
957.86	3775.15
958.163	3773.57
958.467	3754.82
958.771	3749.17
959.075	3725.66
959.378	3711.65
959.682	3701.03
959.985	3690.64
960.289	3648.6
960.592	3671.2
960.896	3618.1
961.199	3563.64
961.502	3557.53
961.805	3574.93
962.108	3564.54
962.411	3563.18
962.714	3511.89
963.017	3521.83
963.32	3524.09
963.623	3504.43
963.926	3464.43
964.228	3435.28
964.531	3458.1
964.833	3396.18
965.136	3435.28
965.438	3385.56
965.741	3358.67
966.043	3352.12
966.345	3365.67
966.648	3328.61
966.95	3315.05
967.252	3301.27
967.554	3261.72
967.856	3258.78
968.158	3229.63
968.46	3268.95
968.761	3250.2
969.063	3226.47
969.365	3207.03
969.666	3180.82
969.968	3163.65
970.269	3199.8
970.571	3160.71
970.872	3155.51
971.174	3126.58
971.475	3138.11
971.776	3086.13
972.077	3097.21
972.378	3071.22
972.679	3082.97
972.98	3053.14
973.281	3038
973.582	2986.25
973.883	3010.88
974.183	3012.92
974.484	3004.1
974.785	2966.14
975.085	2972.69
975.386	2923.88
975.686	2960.94
975.986	2912.58
976.287	2933.14
976.587	2885.01
976.887	2853.82
977.187	2849.98
977.487	2857.89
977.787	2847.5
978.087	2826.71
978.387	2816.99
978.687	2815.41
978.987	2829.42
979.286	2733.6
979.586	2741.06
979.885	2710.78
980.185	2749.87
980.484	2726.59
980.784	2699.93
981.083	2716.2
981.382	2692.02
981.682	2688.86
981.981	2637.56
982.28	2653.83
982.579	2620.16
982.878	2645.24
983.177	2638.24
983.475	2632.36
983.774	2587.62
984.073	2557.79
984.372	2604.34
984.67	2545.36
984.969	2555.3
985.267	2543.32
985.566	2527.96
985.864	2519.59
986.162	2507.39
986.461	2496.54
986.759	2479.14
987.057	2482.76
987.355	2443.89
987.653	2452.7
987.951	2465.81
988.249	2465.36
988.547	2415.42
988.844	2388.52
989.142	2409.54
989.44	2409.99
989.737	2357.79
990.035	2377.9
990.332	2393.95
990.63	2311.92
990.927	2332.71
991.224	2335.19
991.521	2308.53
991.819	2311.01
992.116	2276.44
992.413	2287.51
992.71	2267.85
993.006	2288.64
993.303	2242.54
993.6	2251.13
993.897	2224.46
994.193	2214.07
994.49	2238.02
994.787	2191.47
995.083	2180.62
995.379	2160.51
995.676	2157.12
995.972	2165.48
996.268	2154.63
996.565	2129.77
996.861	2153.95
997.157	2141.3
997.453	2112.15
997.749	2111.7
998.044	2075.76
998.34	2071.47
998.636	2068.76
998.932	2043.22
999.227	2031.02
999.523	2027.63
999.818	2021.08
1000.114	2014.07
1000.409	1988.76
1000.704	1986.05
1001	1973.85
1001.295	1979.27
1001.59	1971.13
1001.885	1952.83
1002.18	1946.73
1002.475	1943.34
1002.77	1938.59
1003.065	1907.63
1003.359	1924.81
1003.654	1923
1003.949	1905.15
1004.243	1870.12
1004.538	1855.88
1004.832	1873.06
1005.127	1850.46
1005.421	1849.1
1005.715	1862.89
1006.009	1828.77
1006.304	1793.96
1006.598	1786.96
1006.892	1786.73
1007.186	1753.51
1007.48	1756.45
1007.773	1750.12
1008.067	1744.7
1008.361	1703.35
1008.655	1723.91
1008.948	1700.63
1009.242	1689.33
1009.535	1678.49
1009.829	1669.67
1010.122	1684.81
1010.415	1659.5
1010.708	1661.99
1011.001	1660.41
1011.295	1633.52
1011.588	1657.7
1011.881	1597.81
1012.173	1614.76
1012.466	1607.3
1012.759	1612.27
1013.052	1577.02
1013.344	1554.87
1013.637	1567.3
1013.93	1544.71
1014.222	1558.94
1014.514	1542.45
1014.807	1534.76
1015.099	1522.78
1015.391	1478.72
1015.683	1495.21
1015.976	1502.67
1016.268	1504.03
1016.56	1474.42
1016.851	1496.57
1017.143	1453.63
1017.435	1437.36
1017.727	1459.74
1018.018	1434.88
1018.31	1424.93
1018.602	1410.02
1018.893	1433.52
1019.185	1426.06
1019.476	1371.6
1019.767	1389.45
1020.058	1373.41
1020.35	1382.9
1020.641	1353.75
1020.932	1328.44
1021.223	1339.29
1021.514	1337.48
1021.804	1329.34
1022.095	1313.75
1022.386	1308.33
1022.677	1286.86
1022.967	1316.69
1023.258	1274.88
1023.548	1289.8
1023.839	1266.97
1024.129	1241.44
1024.419	1290.25
1024.709	1253.19
1025	1221.78
1025.29	1246.18
1025.58	1215.67
1025.87	1216.8
1026.16	1203.02
1026.449	1190.82
1026.739	1150.37
1027.029	1189.69
1027.319	1159.18
1027.608	1173.19
1027.898	1169.8
1028.187	1139.97
1028.477	1162.34
1028.766	1142.91
1029.055	1128.22
1029.344	1123.93
1029.634	1117.37
1029.923	1074.21
1030.212	1110.59
1030.501	1099.29
1030.79	1102.46
1031.078	1099.97
1031.367	1064.27
1031.656	1047.54
1031.945	1052.74
1032.233	1053.19
1032.522	1039.86
1032.81	1031.5
1033.099	1017.04
1033.387	1021.78
1033.675	1037.83
1033.963	1009.58
1034.251	1012.06
1034.54	977.94
1034.828	1009.35
1035.116	962.57
1035.403	1003.93
1035.691	968.22
1035.979	987.43
1036.267	978.39
1036.554	951.73
1036.842	963.7
1037.129	937.72
1037.417	938.17
1037.704	936.81
1037.992	911.5
1038.279	903.82
1038.566	945.4
1038.853	945.4
1039.14	945.4
