Data from hue_30_FLMS001491_11.txt Node
Date: Mon Feb 06 15:04:48 GMT 2017
User: dcchb
Spectrometer: FLMS00149
Trigger mode: 0
Integration Time (sec): 2.000000E-2
Scans to average: 10
Electric dark correction enabled: true
Nonlinearity correction enabled: false
Boxcar width: 0
XAxis mode: Wavelengths
Number of Pixels in Spectrum: 2048
>>>>>Begin Spectral Data<<<<<
341.393	-13.86
341.776	-13.86
342.16	-13.86
342.543	-61.54
342.927	-52.05
343.31	-51.37
343.693	-62.89
344.077	-60.63
344.46	-64.25
344.843	-45.27
345.226	-54.98
345.61	-28.77
345.993	-8.21
346.376	-14.31
346.759	-9.79
347.142	41.28
347.525	30.89
347.908	68.18
348.291	80.38
348.674	73.37
349.057	106.37
349.44	120.38
349.823	150.66
350.206	162.64
350.588	209.42
350.971	212.13
351.354	241.28
351.737	256.87
352.119	247.15
352.502	259.81
352.884	290.32
353.267	280.15
353.65	307.49
354.032	305.68
354.414	286.02
354.797	324.44
355.179	323.99
355.562	340.49
355.944	318.11
356.326	332.35
356.709	348.62
357.091	345.23
357.473	346.81
357.855	342.75
358.238	321.28
358.62	333.71
359.002	342.97
359.384	334.84
359.766	317.66
360.148	315.4
360.53	346.81
360.912	338.45
361.294	335.29
361.676	312.69
362.057	347.26
362.439	333.03
362.821	298.23
363.203	331.45
363.584	333.25
363.966	333.25
364.348	300.49
364.729	320.15
365.111	324.89
365.493	315.85
365.874	337.55
366.256	324.44
366.637	342.52
367.019	313.14
367.4	330.99
367.781	328.06
368.163	298.45
368.544	319.92
368.925	300.71
369.306	323.99
369.688	307.27
370.069	321.5
370.45	309.3
370.831	312.24
371.212	319.47
371.593	295.97
371.974	305.23
372.355	309.3
372.736	326.93
373.117	321.28
373.498	321.5
373.879	310.43
374.26	332.8
374.641	306.81
375.021	315.85
375.402	333.48
375.783	320.15
376.163	323.54
376.544	325.57
376.925	330.99
377.305	330.99
377.686	331.45
378.066	341.16
378.447	320.37
378.827	330.09
379.208	343.42
379.588	343.65
379.968	330.09
380.349	326.47
380.729	319.69
381.109	328.73
381.489	342.29
381.87	348.85
382.25	324.21
382.63	328.28
383.01	347.26
383.39	345.23
383.77	343.65
384.15	347.26
384.53	327.6
384.91	342.29
385.29	344.33
385.67	364.44
386.049	343.88
386.429	342.75
386.809	336.87
387.189	354.72
387.568	352.46
387.948	335.51
388.328	367.83
388.707	355.4
389.087	363.31
389.466	356.08
389.846	347.49
390.225	362.18
390.605	367.83
390.984	361.95
391.363	381.16
391.743	355.4
392.122	381.84
392.501	366.93
392.881	369.64
393.26	367.38
393.639	358.11
394.018	349.07
394.397	378.45
394.776	374.83
395.155	356.08
395.534	415.29
395.913	374.38
396.292	373.25
396.671	370.09
397.05	390.2
397.429	366.7
397.808	397.21
398.186	368.96
398.565	392.46
398.944	383.2
399.323	394.95
399.701	389.52
400.08	400.14
400.458	388.17
400.837	380.71
401.215	401.5
401.594	391.78
401.972	401.05
402.351	394.27
402.729	396.98
403.107	403.53
403.486	421.84
403.864	439.47
404.242	382.29
404.62	427.49
404.999	424.78
405.377	409.41
405.755	404.21
406.133	404.89
406.511	418
406.889	408.51
407.267	418
407.645	434.04
408.023	414.16
408.401	436.75
408.779	431.1
409.156	434.49
409.534	445.12
409.912	427.49
410.29	450.54
410.667	442.4
411.045	453.93
411.422	428.62
411.8	442.4
412.178	446.47
412.555	456.87
412.933	448.51
413.31	475.17
413.687	483.08
414.065	489.18
414.442	498.9
414.819	460.93
415.197	469.75
415.574	470.43
415.951	480.59
416.328	464.78
416.705	485.11
417.082	499.58
417.46	503.42
417.837	498.22
418.214	498
418.591	503.64
418.967	497.09
419.344	509.97
419.721	518.11
420.098	508.39
420.475	514.49
420.852	494.61
421.228	513.14
421.605	521.27
421.982	519.24
422.358	532.34
422.735	537.54
423.111	541.38
423.488	563.08
423.864	535.51
424.241	552.46
424.617	546.81
424.994	533.02
425.37	556.3
425.746	533.93
426.123	546.81
426.499	554.72
426.875	548.84
427.251	570.99
427.627	552.01
428.003	560.37
428.379	563.98
428.756	585.68
429.132	590.65
429.507	598.56
429.883	611.89
430.259	589.52
430.635	599.91
431.011	617.31
431.387	644.43
431.763	613.25
432.138	645.11
432.514	641.49
432.89	614.15
433.265	660.93
433.641	626.58
434.016	660.93
434.392	636.97
434.767	683.98
435.143	671.55
435.518	661.83
435.894	665.67
436.269	695.28
436.644	687.59
437.02	677.2
437.395	693.24
437.77	689.4
438.145	701.38
438.52	713.81
438.895	717.65
439.271	727.59
439.646	744.99
440.021	730.53
440.395	709.74
440.77	718.33
441.145	742.06
441.52	747.03
441.895	765.11
442.27	765.78
442.645	777.76
443.019	749.74
443.394	781.6
443.769	763.3
444.143	764.43
444.518	772.11
444.892	774.6
445.267	781.6
445.641	791.1
446.016	788.16
446.39	797.87
446.764	814.6
447.139	788.84
447.513	787.25
447.887	787.71
448.262	807.37
448.636	815.5
449.01	839.23
449.384	810.53
449.758	838.1
450.132	840.36
450.506	835.39
450.88	848.27
451.254	859.57
451.628	848.72
452.002	872.67
452.376	872.45
452.75	896.18
453.123	878.1
453.497	892.11
453.871	897.98
454.244	926.46
454.618	913.35
454.992	942.73
455.365	923.97
455.739	958.32
456.112	967.36
456.486	975.27
456.859	979.56
457.232	989.73
457.606	971.66
457.979	1002.84
458.352	1034.7
458.725	1022.28
459.099	1021.15
459.472	1028.38
459.845	1055.04
460.218	1085.1
460.591	1054.59
460.964	1052.56
461.337	1090.52
461.71	1075.83
462.083	1102.27
462.456	1129.39
462.829	1130.75
463.201	1139.79
463.574	1156.74
463.947	1166.23
464.32	1174.36
464.692	1207.36
465.065	1194.47
465.438	1213.68
465.81	1246.9
466.183	1266.11
466.555	1274.7
466.928	1282.16
467.3	1283.74
467.672	1307.01
468.045	1314.47
468.417	1342.94
468.789	1357.18
469.161	1350.18
469.534	1390.63
469.906	1428.14
470.278	1438.99
470.65	1458.87
471.022	1478.08
471.394	1511.75
471.766	1482.6
472.138	1537.29
472.51	1589.72
472.882	1597.18
473.253	1630.39
473.625	1643.28
473.997	1671.98
474.369	1681.92
474.74	1670.85
475.112	1710.17
475.484	1774.35
475.855	1795.81
476.227	1825.64
476.598	1878.75
476.97	1909.03
477.341	1924.85
477.713	1954
478.084	1998.97
478.455	2038.07
478.827	2074
479.198	2099.08
479.569	2157.61
479.94	2224.28
480.311	2242.13
480.682	2299.76
481.053	2371.62
481.424	2428.34
481.795	2445.29
482.166	2518.06
482.537	2535.46
482.908	2626.75
483.279	2575.91
483.65	2699.29
484.021	2740.42
484.391	2821.78
484.762	2820.65
485.133	2858.84
485.503	2930.25
485.874	2960.08
486.244	3043.01
486.615	3101.99
486.985	3141.32
487.356	3227.64
487.726	3297.24
488.097	3340.63
488.467	3342.44
488.837	3424.25
489.207	3466.96
489.578	3568.2
489.948	3600.29
490.318	3673.51
490.688	3668.53
491.058	3789.89
491.428	3812.71
491.798	3914.63
492.168	3984.68
492.538	3980.39
492.908	4040.28
493.278	4138.13
493.648	4136.32
494.017	4251.34
494.387	4273.94
494.757	4297.22
495.126	4369.98
495.496	4442.98
495.866	4489.75
496.235	4500.6
496.605	4566.59
496.974	4577.44
497.344	4647.26
497.713	4678
498.082	4720.48
498.452	4777.2
498.821	4816.07
499.19	4902.63
499.559	4943.98
499.928	4943.3
500.298	4984.66
500.667	5023.98
501.036	5045.22
501.405	5106.91
501.774	5168.16
502.143	5193.47
502.512	5160.25
502.88	5235.05
503.249	5345.55
503.618	5361.14
503.987	5317.76
504.356	5431.2
504.724	5440.46
505.093	5470.52
505.462	5506.9
505.83	5517.75
506.199	5557.52
506.567	5642.49
506.936	5636.17
507.304	5752.09
507.672	5743.51
508.041	5733.34
508.409	5829.15
508.777	5846.1
509.145	5885.65
509.514	5898.76
509.882	5870.51
510.25	5967.23
510.618	6006.1
510.986	6036.83
511.354	6091.29
511.722	6107.57
512.09	6183.27
512.458	6169.94
512.826	6198.86
513.193	6235.7
513.561	6282.48
513.929	6312.53
514.297	6326.32
514.664	6397.05
515.032	6380.33
515.4	6410.83
515.767	6431.62
516.135	6475.69
516.502	6444.28
516.869	6551.62
517.237	6616.25
517.604	6537.61
517.972	6611.28
518.339	6668.91
518.706	6651.28
519.073	6713.43
519.44	6718.17
519.808	6798.17
520.175	6757.27
520.542	6822.35
520.909	6915.45
521.276	6918.62
521.643	6943.48
522.009	6947.77
522.376	6999.75
522.743	7051.27
523.11	7116.58
523.477	7198.38
523.843	7190.47
524.21	7235.45
524.577	7288.33
524.943	7345.95
525.31	7331.26
525.676	7399.73
526.043	7416.68
526.409	7456.68
526.776	7502.33
527.142	7579.39
527.508	7582.1
527.874	7643.57
528.241	7646.73
528.607	7683.57
528.973	7817.35
529.339	7739.39
529.705	7827.52
530.071	7995.88
530.437	7987.29
530.803	7956.56
531.169	7952.94
531.535	7986.39
531.901	8066.61
532.267	8095.54
532.632	8200.84
532.998	8156.1
533.364	8200.39
533.73	8262.99
534.095	8270.67
534.461	8312.71
534.826	8369.88
535.192	8374.85
535.557	8436.09
535.923	8468.18
536.288	8556.09
536.653	8480.84
537.019	8498.46
537.384	8552.02
537.749	8558.12
538.114	8687.61
538.479	8670.66
538.845	8697.33
539.21	8677.67
539.575	8721.06
539.94	8838.34
540.305	8814.39
540.67	8888.96
541.034	8929.41
541.399	8956.53
541.764	9030.43
542.129	9022.29
542.494	9009.18
542.858	9064.78
543.223	9128.95
543.587	9179.8
543.952	9173.25
544.316	9197.43
544.681	9214.6
545.045	9291.44
545.41	9296.86
545.774	9356.07
546.138	9391.55
546.503	9453.92
546.867	9469.06
547.231	9479
547.595	9555.16
547.959	9568.94
548.324	9555.61
548.688	9615.72
549.052	9694.82
549.416	9679.45
549.779	9718.09
550.143	9781.59
550.507	9845.32
550.871	9815.26
551.235	9769.16
551.599	9861.14
551.962	9891.19
552.326	9862.49
552.689	9984.3
553.053	10001.25
553.417	10028.14
553.78	10073.34
554.143	10011.64
554.507	10107.01
554.87	10185.42
555.234	10257.51
555.597	10184.52
555.96	10237.85
556.323	10247.57
556.686	10276.72
557.05	10398.53
557.413	10366.21
557.776	10404.85
558.139	10406.44
558.502	10482.82
558.865	10551.06
559.228	10527.79
559.59	10572.76
559.953	10634.23
560.316	10746.54
560.679	10724.39
561.041	10799.87
561.404	10777.27
561.767	10854.79
562.129	10872.86
562.492	10982.47
562.854	10910.83
563.217	10966.42
563.579	11027.66
563.941	11078.06
564.304	11104.27
564.666	11086.19
565.028	11198.5
565.39	11223.82
565.753	11293.42
566.115	11250.93
566.477	11300.42
566.839	11312.4
567.201	11395.11
567.563	11335.68
567.925	11482.11
568.287	11524.6
568.648	11527.99
569.01	11635.1
569.372	11637.14
569.734	11629.68
570.095	11729.11
570.457	11776.79
570.819	11888.88
571.18	11842.78
571.542	11938.6
571.903	12024.92
572.265	12068.76
572.626	12101.53
572.987	12143.56
573.349	12183.34
573.71	12259.27
574.071	12327.74
574.432	12419.26
574.794	12476.89
575.155	12509.88
575.516	12568.64
575.877	12760.95
576.238	12766.83
576.599	12850.44
576.96	12995.52
577.32	12946.93
577.681	13128.62
578.042	13239.36
578.403	13202.75
578.763	13329.07
579.124	13479.57
579.485	13567.03
579.845	13718.89
580.206	13742.84
580.566	13828.49
580.927	14039.56
581.287	14063.06
581.648	14262.61
582.008	14506.89
582.368	14636.38
582.728	14750.05
583.089	14886.77
583.449	15137.38
583.809	15187.1
584.169	15466.42
584.529	15540.99
584.889	15880.64
585.249	15978.04
585.609	16048.55
585.969	16371.7
586.329	16488.08
586.688	16812.37
587.048	16947.05
587.408	17227.5
587.768	17338
588.127	17538.23
588.487	17659.35
588.846	18046.23
589.206	18098.66
589.565	18348.6
589.925	18733.9
590.284	18948.81
590.643	19329.36
591.003	19310.38
591.362	19772.29
591.721	19876.02
592.08	20074.2
592.44	20530.91
592.799	20709.22
593.158	20866.27
593.517	21183.55
593.876	21433.72
594.235	21628.06
594.593	21881.84
594.952	22263.3
595.311	22451.77
595.67	22662.84
596.029	23191.64
596.387	23318.86
596.746	23626.88
597.104	23849.7
597.463	23999.75
597.822	24360.64
598.18	24474.31
598.538	24678.15
598.897	24993.4
599.255	25115.65
599.613	25696.2
599.972	25671.12
600.33	25979.59
600.688	26074.95
601.046	26413.47
601.404	26815.04
601.762	26884.19
602.12	27234.24
602.478	27382.71
602.836	27571.41
603.194	27676.26
603.552	27986.09
603.91	28149.25
604.268	28432.4
604.625	28603.47
604.983	28854.76
605.341	28895.21
605.698	29325.94
606.056	29432.38
606.413	29669.21
606.771	29943.55
607.128	30234.16
607.485	30111.45
607.843	30282.75
608.2	30766.8
608.557	30964.09
608.914	30897.42
609.272	31299.22
609.629	31439.78
609.986	31722.94
610.343	31743.73
610.7	32077.5
611.057	32155.47
611.414	32303.71
611.771	32451.73
612.127	32710.93
612.484	32791.84
612.841	33041.77
613.198	33089.68
613.554	33287.87
613.911	33429.56
614.267	33684.69
614.624	33683.34
614.98	33906.83
615.337	34008.75
615.693	34256.88
616.05	34274.96
616.406	34545.69
616.762	34406.26
617.118	34603.31
617.475	34775.74
617.831	34973.25
618.187	35013.02
618.543	35118.1
618.899	35443.97
619.255	35409.62
619.611	35508.15
619.967	35671.76
620.323	35691.65
620.678	35717.18
621.034	35899.1
621.39	35718.99
621.746	35904.07
622.101	36391.97
622.457	36116.04
622.812	36382.25
623.168	36397.16
623.523	36454.56
623.879	36757.61
624.234	36371.85
624.589	36732.3
624.945	36868.34
625.3	36906.08
625.655	36925.29
626.01	37038.73
626.365	36941.56
626.72	37100.2
627.075	37190.59
627.43	37130.25
627.785	37080.99
628.14	37205.73
628.495	37265.16
628.85	37351.26
629.205	37238.5
629.559	37587.42
629.914	37279.63
630.269	37327.08
630.623	37367.99
630.978	37381.77
631.332	37623.8
631.687	37502.45
632.041	37511.26
632.396	37634.42
632.75	37455.22
633.104	37679.39
633.459	37429.45
633.813	37525.27
634.167	37511.49
634.521	37399.62
634.875	37518.94
635.229	37416.57
635.583	37473.52
635.937	37407.53
636.291	37363.24
636.645	37385.16
636.999	37423.35
637.352	37452.05
637.706	37318.5
638.06	37540.64
638.413	37470.36
638.767	37353.98
639.121	37455.44
639.474	37205.5
639.828	37299.51
640.181	37440.98
640.534	37445.05
640.888	37424.03
641.241	37229.91
641.594	37299.29
641.947	37397.59
642.301	37298.38
642.654	37295.67
643.007	37342.68
643.36	37325.73
643.713	37174.32
644.066	37396.01
644.419	37108.78
644.771	36823.37
645.124	36641.45
645.477	36535.69
645.83	36200.79
646.182	36200.79
646.535	36092.77
646.888	36189.94
647.24	35904.07
647.593	36224.74
647.945	36092.99
648.298	35982.26
648.65	35894.35
649.002	35885.99
649.355	36228.36
649.707	35879.89
650.059	36049.83
650.411	36499.76
650.763	36605.75
651.115	36990.37
651.467	36828.57
651.819	36762.8
652.171	36787.21
652.523	36650.94
652.875	36655.46
653.227	36577.05
653.578	36887.32
653.93	36743.37
654.282	36637.61
654.633	36534.56
654.985	36600.77
655.337	36389.48
655.688	36579.98
656.039	36719.42
656.391	36342.02
656.742	36584.28
657.094	36468.8
657.445	36709.92
657.796	36543.83
658.147	36511.29
658.498	36400.78
658.849	36552.19
659.2	36378.86
659.551	36311.52
659.902	36567.33
660.253	36500.21
660.604	36498.63
660.955	36457.28
661.306	36454.56
661.656	36457.5
662.007	36465.41
662.358	36335.47
662.708	36526.65
663.059	36523.26
663.409	36095.93
663.76	36419.08
664.11	36420.67
664.461	36540.21
664.811	36359.43
665.161	36377.73
665.511	36262.25
665.862	36379.54
666.212	36445.07
666.562	36476.94
666.912	36415.7
667.262	36297.05
667.612	36290.27
667.962	36365.75
668.312	36288.69
668.662	36440.78
669.011	36392.19
669.361	36212.76
669.711	36239.88
670.06	36142.48
670.41	36119.21
670.76	36023.39
671.109	36307.68
671.459	36135.93
671.808	36137.28
672.157	36125.99
672.507	35987.23
672.856	35993.56
673.205	36041.02
673.554	36193.1
673.904	36124.18
674.253	36238.52
674.602	36124.18
674.951	35568.49
675.3	35465.21
675.649	35962.6
675.998	35891.19
676.346	36042.82
676.695	35940
677.044	35816.39
677.393	35881.25
677.741	35787.24
678.09	35725.09
678.438	35724.64
678.787	35871.75
679.135	35849.38
679.484	35570.97
679.832	35616.62
680.181	35475.61
680.529	35580.91
680.877	35540.69
681.225	35429.73
681.573	35523.52
681.922	35394.7
682.27	35196.52
682.618	35309.96
682.966	35211.66
683.314	35294.14
683.661	35227.93
684.009	35012.79
684.357	34979.35
684.705	34954.26
685.053	34813.7
685.4	34932.8
685.748	34723.54
686.095	34684.89
686.443	34612.35
686.79	34622.75
687.138	34747.49
687.485	34665.91
687.832	34479.02
688.18	34560.83
688.527	34367.84
688.874	34360.83
689.221	34266.6
689.568	34187.96
689.915	34037.45
690.262	34151.12
690.609	33928.08
690.956	33891.47
691.303	33999.26
691.65	33790.23
691.997	33751.13
692.344	33665.71
692.69	33685.15
693.037	33564.24
693.383	33265.27
693.73	33334.65
694.077	33237.93
694.423	33205.38
694.769	33154.99
695.116	33101.66
695.462	32958.16
695.808	32881.78
696.155	32939.85
696.501	32677.26
696.847	32777.37
697.193	32427.55
697.539	32665.06
697.885	32380.32
698.231	32328.57
698.577	32209.7
698.923	32233.21
699.269	32017.62
699.614	31894.01
699.96	31789.38
700.306	31848.81
700.651	31777.4
700.997	31650.17
701.342	31739.43
701.688	31674.12
702.033	31381.03
702.379	31401.36
702.724	31282.5
703.069	31400.69
703.415	31064.65
703.76	31018.32
704.105	31111.2
704.45	31054.48
704.795	30761.83
705.14	30654.04
705.485	30582.85
705.83	30611.55
706.175	30553.93
706.52	30372.24
706.865	30357.1
707.209	30294.95
707.554	30277.1
707.899	30260.6
708.243	30034.39
708.588	30117.1
708.932	29991.46
709.277	29983.1
709.621	29834.4
709.966	29760.95
710.31	29852.48
710.654	29574.52
710.998	29552.6
711.342	29636.89
711.687	29613.39
712.031	29410
712.375	29277.13
712.719	29234.64
713.063	29261.76
713.407	29387.41
713.75	29182.66
714.094	29129.11
714.438	29049.56
714.782	29079.84
715.125	28864.03
715.469	29049.79
715.812	28740.64
716.156	28728.67
716.499	28680.53
716.843	28765.95
717.186	28448.67
717.53	28637.37
717.873	28552.85
718.216	28505.85
718.559	28391.5
718.902	28318.28
719.246	28292.52
719.589	28162.13
719.932	28096.82
720.275	28088.23
720.617	28006.88
720.96	28046.65
721.303	27913.32
721.646	28122.81
721.989	27782.48
722.331	27936.14
722.674	27815.02
723.016	27939.31
723.359	27744.51
723.701	27800.55
724.044	27558.98
724.386	27486.21
724.729	27565.08
725.071	27472.88
725.413	27533.89
725.755	27321.47
726.097	27322.15
726.439	27143.17
726.782	27183.4
727.124	27321.02
727.465	27138.2
727.807	27053.68
728.149	27001.48
728.491	27089.84
728.833	27151.31
729.175	26833.8
729.516	26920.58
729.858	26909.73
730.199	26829.05
730.541	26816.4
730.882	26781.15
731.224	26864.31
731.565	26713.13
731.906	26711.77
732.248	26683.52
732.589	26523.3
732.93	26472.23
733.271	26576.86
733.612	26575.28
733.953	26465.45
734.294	26389.07
734.635	26343.42
734.976	26447.6
735.317	26270.43
735.658	26294.38
735.999	26336.41
736.339	26301.16
736.68	26297.09
737.021	26076.76
737.361	26034.27
737.702	26236.3
738.042	25991.79
738.383	25988.62
738.723	25996.08
739.063	25923.09
739.404	25837.22
739.744	25874.05
740.084	25825.24
740.424	25738.91
740.764	25604.23
741.104	25908.85
741.444	25690.1
741.784	25636.09
742.124	25655.75
742.464	25575.98
742.804	25420.5
743.143	25536.66
743.483	25431.13
743.823	25249.89
744.162	25352.48
744.502	25414.63
744.841	25325.59
745.181	25304.8
745.52	25231.81
745.86	25273.39
746.199	25227.97
746.538	25171.24
746.877	25164.47
747.216	25275.2
747.556	25064.36
747.895	25180.96
748.234	25036.56
748.573	25047.41
748.911	24907.3
749.25	24957.69
749.589	24772.61
749.928	24800.86
750.267	24803.35
750.605	24730.35
750.944	24676.12
751.283	24626.85
751.621	24733.52
751.96	24413.98
752.298	24588.89
752.636	24512.05
752.975	24363.81
753.313	24291.49
753.651	24355.9
753.989	24205.39
754.327	24326.97
754.666	24122.01
755.004	24257.6
755.342	24260.31
755.679	24049.01
756.017	24033.42
756.355	24042.46
756.693	24031.61
757.031	23922.92
757.368	23739.64
757.706	23797.04
758.044	23712.53
758.381	23818.51
758.719	23724.28
759.056	23748.91
759.394	23691.06
759.731	23431.18
760.068	23426.66
760.405	23428.01
760.743	23157.29
761.08	23298.07
761.417	23145.31
761.754	23030.06
762.091	23066.22
762.428	22963.62
762.765	22918.42
763.102	22905.77
763.438	22702.16
763.775	22687.69
764.112	22617.41
764.449	22673.91
764.785	22636.62
765.122	22339.23
765.458	22418.55
765.795	22224.2
766.131	22358.21
766.467	22227.37
766.804	22096.52
767.14	22000.03
767.476	22048.62
767.812	21903.53
768.148	21957.77
768.485	21813.82
768.821	21648.85
769.157	21611.34
769.492	21582.64
769.828	21603.43
770.164	21358.46
770.5	21417.67
770.836	21389.42
771.171	21146.72
771.507	21120.28
771.842	20996.21
772.178	20964.8
772.513	20952.37
772.849	20844.58
773.184	20658.14
773.519	20801.19
773.855	20680.97
774.19	20556.45
774.525	20560.07
774.86	20522.1
775.195	20472.16
775.53	20256.8
775.865	20271.26
776.2	20147.87
776.535	20040.31
776.87	19921.44
777.205	19968.9
777.539	19821.1
777.874	19914.89
778.209	19620.43
778.543	19684.61
778.878	19527.1
779.212	19536.14
779.547	19439.19
779.881	19502.47
780.215	19394
780.55	19317.16
780.884	19085.3
781.218	19209.82
781.552	19117.62
781.886	19090.73
782.22	18942.93
782.554	18774.35
782.888	18677.4
783.222	18646.67
783.556	18551.53
783.889	18501.59
784.223	18410.74
784.557	18342.05
784.89	18363.29
785.224	18283.52
785.557	18263.4
785.891	18254.82
786.224	18136.4
786.558	18094.59
786.891	17925.33
787.224	17895.73
787.557	17795.39
787.891	17848.5
788.224	17680.37
788.557	17742.06
788.89	17675.62
789.223	17534.38
789.556	17508.4
789.888	17392.24
790.221	17403.99
790.554	17284.22
790.887	17232.47
791.219	17251.91
791.552	17119.93
791.884	17051.01
792.217	17002.42
792.549	16951.57
792.882	16854.18
793.214	16643.11
793.546	16841.29
793.879	16720.62
794.211	16554.97
794.543	16568.31
794.875	16535.54
795.207	16501.64
795.539	16463
795.871	16461.87
796.203	16321.53
796.535	16252.61
796.867	16227.75
797.198	16149.56
797.53	16192.27
797.862	16006.29
798.193	16110.01
798.525	15938.72
798.856	15926.97
799.188	15763.81
799.519	15711.61
799.85	15743.02
800.182	15750.25
800.513	15736.46
800.844	15463.48
801.175	15604.26
801.506	15547.09
801.837	15467.09
802.168	15505.74
802.499	15432.29
802.83	15311.17
803.161	15226.65
803.491	15241.34
803.822	15281.11
804.153	15162.47
804.483	15015.81
804.814	15005.86
805.145	14977.61
805.475	15043.83
805.805	14870.05
806.136	14930.38
806.466	14928.35
806.796	14830.95
807.126	14719.99
807.457	14706.89
807.787	14631.86
808.117	14643.39
808.447	14570.85
808.777	14592.54
809.107	14455.14
809.436	14447.46
809.766	14433
810.096	14471.87
810.426	14337.41
810.755	14332.43
811.085	14356.39
811.414	14230.06
811.744	14161.82
812.073	14130.18
812.403	14144.19
812.732	14018.54
813.061	14030.07
813.39	13971.77
813.719	13835.27
814.049	13967.7
814.378	13910.3
814.707	13835.5
815.036	13862.84
815.365	13718.21
815.693	13633.47
816.022	13743.75
816.351	13639.12
816.68	13548.5
817.008	13534.94
817.337	13545.34
817.665	13433.47
817.994	13433.02
818.322	13442.51
818.651	13352.57
818.979	13378.79
819.307	13329.07
819.636	13295.4
819.964	13269.19
820.292	13329.07
820.62	13300.14
820.948	13265.8
821.276	13298.11
821.604	13152.58
821.932	13275.29
822.259	13256.98
822.587	13224.44
822.915	13126.36
823.243	13185.35
823.57	13153.93
823.898	13208.62
824.225	13160.26
824.553	13127.04
824.88	13192.12
825.207	13201.16
825.535	13230.09
825.862	13205.91
826.189	13075.29
826.516	13153.93
826.843	13236.42
827.17	13167.72
827.497	13178.79
827.824	13138.79
828.151	13208.4
828.478	13138.79
828.805	13190.77
829.131	13155.29
829.458	13146.7
829.785	13065.8
830.111	13169.07
830.438	13161.39
830.764	13247.94
831.09	13105.57
831.417	13024.45
831.743	13080.94
832.069	13166.36
832.395	13054.28
832.722	12980.38
833.048	12980.15
833.374	13001.4
833.7	12981.06
834.026	13036.65
834.351	13028.97
834.677	13004.33
835.003	13007.95
835.329	12939.25
835.654	12889.76
835.98	12829.87
836.306	12914.17
836.631	12908.74
836.956	12899.25
837.282	12858.12
837.607	12773.6
837.932	12852.92
838.258	12812.47
838.583	12761.63
838.908	12725.24
839.233	12837.33
839.558	12697.45
839.883	12680.5
840.208	12616.09
840.533	12598.02
840.858	12667.84
841.182	12593.5
841.507	12628.75
841.832	12498.81
842.156	12547.17
842.481	12464.46
842.805	12441.86
843.13	12394.18
843.454	12315.76
843.778	12315.99
844.103	12344.69
844.427	12300.17
844.751	12264.92
845.075	12291.36
845.399	12128.88
845.723	12191.93
846.047	12154.41
846.371	12046.17
846.695	12010.01
847.019	12025.38
847.343	11896.79
847.666	11873.52
847.99	11790.35
848.313	11787.19
848.637	11790.81
848.96	11641.21
849.284	11721.88
849.607	11524.37
849.931	11544.94
850.254	11423.13
850.577	11381.78
850.9	11327.77
851.223	11329.57
851.546	11219.75
851.869	11224.04
852.192	11288.67
852.515	11171.61
852.838	11117.15
853.161	11160.31
853.483	11041.45
853.806	10968.91
854.129	10971.62
854.451	10980.21
854.774	10870.15
855.096	10871.96
855.419	10909.25
855.741	10793.32
856.063	10740.89
856.385	10755.13
856.708	10718.97
857.03	10648.69
857.352	10635.13
857.674	10563.49
857.996	10630.84
858.318	10426.77
858.64	10525.98
858.961	10441.91
859.283	10392.2
859.605	10411.63
859.926	10396.27
860.248	10352.2
860.57	10285.31
860.891	10404.18
861.212	10300.45
861.534	10247.57
861.855	10168.02
862.176	10171.64
862.498	10143.39
862.819	10231.07
863.14	10155.59
863.461	10110.85
863.782	10094.81
864.103	10148.82
864.424	10058.2
864.745	10090.96
865.065	10017.07
865.386	9998.31
865.707	9968.93
866.027	9944.07
866.348	9940.23
866.668	9946.79
866.989	9923.74
867.309	9802.84
867.63	9926.22
867.95	9844.87
868.27	9847.13
868.59	9877.41
868.91	9851.65
869.23	9816.62
869.55	9719.67
869.87	9822.72
870.19	9763.97
870.51	9806.68
870.83	9716.06
871.15	9648.94
871.469	9664.99
871.789	9743.63
872.109	9639.22
872.428	9579.56
872.748	9704.98
873.067	9636.06
873.386	9559.68
873.706	9648.94
874.025	9582.95
874.344	9560.81
874.663	9525.78
874.982	9515.39
875.301	9480.36
875.62	9483.97
875.939	9386.8
876.258	9443.52
876.577	9434.26
876.896	9410.76
877.214	9381.6
877.533	9380.25
877.852	9367.82
878.17	9406.46
878.489	9344.09
878.807	9371.89
879.125	9335.05
879.444	9385.9
879.762	9220.25
880.08	9270.19
880.398	9237.65
880.716	9205.56
881.034	9142.06
881.352	9254.6
881.67	9150.65
881.988	9148.84
882.306	9144.55
882.624	9096.87
882.941	9041.27
883.259	9047.15
883.577	9005.34
883.894	9031.56
884.212	8987.26
884.529	8952.69
884.846	8985
885.164	8929.86
885.481	8886.02
885.798	8857.55
886.115	8851.22
886.432	8891.22
886.75	8820.26
887.067	8873.59
887.383	8801.96
887.7	8780.94
888.017	8734.84
888.334	8828.85
888.651	8698.23
888.967	8726.48
889.284	8662.98
889.6	8626.14
889.917	8597.22
890.233	8583.43
890.55	8530.1
890.866	8538.69
891.182	8554.96
891.498	8548.63
891.815	8537.56
892.131	8474.73
892.447	8404.45
892.763	8416.43
893.079	8408.75
893.395	8340.28
893.71	8337.56
894.026	8298.69
894.342	8329.88
894.657	8243.33
894.973	8231.13
895.289	8204.69
895.604	8196.32
895.92	8095.31
896.235	8028.19
896.55	8076.78
896.865	8062.54
897.181	8040.85
897.496	8047.4
897.811	7993.17
898.126	7957.23
898.441	7965.37
898.756	7914.07
899.071	7891.02
899.386	7852.83
899.7	7801.76
900.015	7728.54
900.33	7715.43
900.644	7720.63
900.959	7729.67
901.273	7659.39
901.588	7631.14
901.902	7706.62
902.216	7639.05
902.531	7583.46
902.845	7551.6
903.159	7525.83
903.473	7479.28
903.787	7494.2
904.101	7396.35
904.415	7367.87
904.729	7374.88
905.042	7385.5
905.356	7292.62
905.67	7261.66
905.984	7268.21
906.297	7295.56
906.611	7177.37
906.924	7206.75
907.237	7190.7
907.551	7156.58
907.864	7089.69
908.177	7115.67
908.491	7084.04
908.804	7057.37
909.117	7002.23
909.43	6983.93
909.743	6969.69
910.056	6904.38
910.368	6896.25
910.681	6820.54
910.994	6810.82
911.307	6832.07
911.619	6765.4
911.932	6731.96
912.244	6706.42
912.557	6707.32
912.869	6651.28
913.181	6630.94
913.494	6669.36
913.806	6579.64
914.118	6573.32
914.43	6491.06
914.742	6515.46
915.054	6485.18
915.366	6418.97
915.678	6368.35
915.99	6409.25
916.302	6322.25
916.613	6354.11
916.925	6308.69
917.236	6303.49
917.548	6274.11
917.859	6250.61
918.171	6238.41
918.482	6126.32
918.794	6194.79
919.105	6159.77
919.416	6130.62
919.727	6067.79
920.038	6040.9
920.349	6009.71
920.66	6020.79
920.971	5968.36
921.282	5948.02
921.593	5969.94
921.903	5890.85
922.214	5887.46
922.525	5843.62
922.835	5875.93
923.146	5811.75
923.456	5836.39
923.767	5731.98
924.077	5760
924.387	5727.24
924.697	5671.42
925.008	5684.3
925.318	5668.48
925.628	5610.86
925.938	5631.42
926.248	5603.17
926.558	5561.82
926.867	5502.16
927.177	5534.47
927.487	5489.5
927.796	5486.56
928.106	5431.88
928.416	5387.13
928.725	5369.05
929.034	5381.93
929.344	5376.29
929.653	5393.23
929.962	5313.01
930.271	5283.86
930.581	5241.15
930.89	5220.81
931.199	5194.14
931.508	5229.62
931.817	5181.94
932.125	5191.66
932.434	5159.12
932.743	5144.65
933.051	5093.81
933.36	5090.64
933.669	5059.23
933.977	5047.03
934.286	5029.4
934.594	5016.52
934.902	4959.35
935.21	4906.69
935.519	4922.29
935.827	4917.09
936.135	4885.68
936.443	4843.87
936.751	4852.01
937.059	4790.54
937.367	4776.53
937.674	4798
937.982	4747.6
938.29	4693.82
938.597	4755.96
938.905	4657.21
939.213	4633.93
939.52	4634.61
939.827	4616.08
940.135	4599.81
940.442	4582.41
940.749	4576.76
941.056	4570.88
941.363	4536.08
941.67	4503.77
941.977	4467.38
942.284	4452.47
942.591	4450.21
942.898	4411.79
943.205	4465.12
943.511	4396.65
943.818	4388.29
944.125	4367.72
944.431	4312.81
944.738	4347.39
945.044	4268.74
945.35	4257.44
945.657	4240.27
945.963	4254.51
946.269	4207.5
946.575	4234.85
946.881	4188.97
947.187	4189.42
947.493	4163.89
947.799	4124.57
948.105	4133.83
948.41	4122.98
948.716	4101.97
949.022	4076.21
949.327	4071.91
949.633	4030.11
949.938	4054.96
950.244	4006.38
950.549	3966.38
950.854	3925.02
951.16	3953.5
951.465	3954.4
951.77	3951.92
952.075	3887.51
952.38	3883.22
952.685	3894.29
952.99	3831.02
953.294	3832.15
953.599	3847.51
953.904	3781.07
954.209	3753.05
954.513	3767.74
954.818	3737.68
955.122	3743.33
955.426	3708.76
955.731	3672.83
956.035	3690.23
956.339	3704.24
956.643	3653.62
956.948	3671.25
957.252	3593.51
957.556	3649.32
957.86	3609.33
958.163	3585.15
958.467	3533.62
958.771	3541.08
959.075	3545.37
959.378	3516.45
959.682	3504.47
959.985	3500.4
960.289	3491.59
960.592	3468.54
960.896	3461.53
961.199	3426.51
961.502	3400.52
961.805	3385.38
962.108	3373.63
962.411	3390.8
962.714	3378.6
963.017	3350.35
963.32	3330.24
963.623	3330.46
963.926	3321.88
964.228	3280.97
964.531	3275.78
964.833	3256.11
965.136	3191.26
965.438	3262.67
965.741	3220.64
966.043	3202.56
966.345	3205.72
966.648	3162.11
966.95	3152.84
967.252	3139.51
967.554	3123.01
967.856	3120.75
968.158	3090.24
968.46	3099.28
968.761	3043.01
969.063	3064.48
969.365	3056.12
969.666	3048.66
969.968	2985.16
970.269	3035.56
970.571	3023.58
970.872	3036.69
971.174	2972.96
971.475	3008.44
971.776	2992.62
972.077	2976.57
972.378	2926.18
972.679	2893.41
972.98	2888.89
973.281	2887.76
973.582	2880.31
973.883	2899.97
974.183	2815.9
974.484	2859.97
974.785	2844.6
975.085	2800.53
975.386	2824.26
975.686	2784.49
975.986	2760.31
976.287	2761.21
976.587	2743.13
976.887	2693.42
977.187	2706.52
977.487	2747.88
977.787	2684.38
978.087	2681.21
978.387	2676.7
978.687	2709.01
978.987	2648
979.286	2625.62
979.586	2629.92
979.885	2643.48
980.185	2639.41
980.484	2601.67
980.784	2566.19
981.083	2560.77
981.382	2579.07
981.682	2540.43
981.981	2574.32
982.28	2549.01
982.579	2513.76
982.878	2517.6
983.177	2504.04
983.475	2503.37
983.774	2452.29
984.073	2466.08
984.372	2436.93
984.67	2460.88
984.969	2420.88
985.267	2426.76
985.566	2422.24
985.864	2421.56
986.162	2399.87
986.461	2395.35
986.759	2355.8
987.057	2357.61
987.355	2349.7
987.653	2381.79
987.951	2321.68
988.249	2330.26
988.547	2317.16
988.844	2311.96
989.142	2299.53
989.44	2283.49
989.737	2260.89
990.035	2281
990.332	2241
990.63	2247.1
990.927	2219.08
991.224	2233.99
991.521	2222.7
991.819	2185.41
992.116	2189.48
992.413	2195.8
992.71	2198.52
993.006	2165.07
993.303	2165.07
993.6	2147.9
993.897	2138.63
994.193	2106.31
994.49	2127.56
994.787	2128.69
995.083	2080.33
995.379	2064.73
995.676	2066.77
995.972	2051.17
996.268	2060.89
996.565	2035.13
996.861	2044.62
997.157	2024.06
997.453	2022.48
997.749	2011.85
998.044	2036.94
998.34	1991.97
998.636	1983.83
998.932	1955.36
999.227	1957.84
999.523	1949.26
999.818	1925.75
1000.114	1924.4
1000.409	1901.12
1000.704	1899.09
1001	1921.23
1001.295	1862.93
1001.59	1887.56
1001.885	1862.48
1002.18	1864.74
1002.475	1822.48
1002.77	1841.46
1003.065	1867
1003.359	1829.26
1003.654	1798.07
1003.949	1815.47
1004.243	1782.26
1004.538	1799.43
1004.832	1791.29
1005.127	1765.76
1005.421	1784.97
1005.715	1746.1
1006.009	1721.24
1006.304	1733.44
1006.598	1711.97
1006.892	1690.51
1007.186	1703.39
1007.48	1678.08
1007.773	1686.89
1008.067	1679.21
1008.361	1643.73
1008.655	1625.2
1008.948	1636.5
1009.242	1632.2
1009.535	1655.93
1009.829	1629.27
1010.122	1609.83
1010.415	1612.54
1010.708	1573.67
1011.001	1580
1011.295	1575.26
1011.588	1549.49
1011.881	1553.33
1012.173	1549.72
1012.466	1553.56
1012.759	1533.9
1013.052	1565.76
1013.344	1527.12
1013.637	1532.77
1013.93	1504.97
1014.222	1485.54
1014.514	1488.03
1014.807	1456.16
1015.099	1441.47
1015.391	1459.55
1015.683	1448.25
1015.976	1426.33
1016.268	1423.17
1016.56	1398.54
1016.851	1427.69
1017.143	1398.76
1017.435	1371.19
1017.727	1409.38
1018.018	1400.34
1018.31	1376.62
1018.602	1377.29
1018.893	1339.56
1019.185	1335.94
1019.476	1329.39
1019.767	1293.68
1020.058	1316.73
1020.35	1293.68
1020.641	1314.25
1020.932	1312.89
1021.223	1281.25
1021.514	1262.04
1021.804	1272.21
1022.095	1243.96
1022.386	1258.43
1022.677	1238.99
1022.967	1248.71
1023.258	1210.75
1023.548	1226.11
1023.839	1246.22
1024.129	1201.93
1024.419	1196.06
1024.709	1213.46
1025	1208.03
1025.29	1188.37
1025.58	1196.28
1025.87	1138.88
1026.16	1159.45
1026.449	1141.37
1026.739	1129.84
1027.029	1147.7
1027.319	1135.94
1027.608	1138.2
1027.898	1132.33
1028.187	1108.15
1028.477	1087.13
1028.766	1096.85
1029.055	1093.46
1029.344	1082.61
1029.634	1095.27
1029.923	1082.61
1030.212	1074.48
1030.501	1051.43
1030.79	1050.07
1031.078	1003.97
1031.367	1003.52
1031.656	1041.26
1031.945	1018.21
1032.233	1019.11
1032.522	981.6
1032.81	1004.87
1033.099	991.54
1033.387	1020.02
1033.675	994.71
1033.963	978.21
1034.251	977.53
1034.54	979.11
1034.828	945.89
1035.116	950.19
1035.403	956.06
1035.691	934.14
1035.979	924.42
1036.267	940.02
1036.554	943.63
1036.842	931.43
1037.129	919.68
1037.417	919.68
1037.704	889.4
1037.992	903.63
1038.279	909.96
1038.566	869.74
1038.853	869.74
1039.14	869.74
