Data from hue_70_FLMS001491_61.txt Node
Date: Mon Feb 06 15:21:15 GMT 2017
User: dcchb
Spectrometer: FLMS00149
Trigger mode: 0
Integration Time (sec): 2.000000E-2
Scans to average: 10
Electric dark correction enabled: true
Nonlinearity correction enabled: false
Boxcar width: 0
XAxis mode: Wavelengths
Number of Pixels in Spectrum: 2048
>>>>>Begin Spectral Data<<<<<
341.393	-12.82
341.776	-12.82
342.16	-12.82
342.543	-76.55
342.927	-72.48
343.31	-77.23
343.693	-67.74
344.077	-70.22
344.46	-57.34
344.843	-45.37
345.226	-48.3
345.61	-35.42
345.993	-17.34
346.376	5.25
346.759	12.71
347.142	38.25
347.525	29.21
347.908	56.33
348.291	57.23
348.674	101.52
349.057	118.47
349.44	116.44
349.823	142.43
350.206	165.25
350.588	191.46
350.971	214.97
351.354	215.19
351.737	248.86
352.119	257.22
352.502	263.33
352.884	282.76
353.267	306.49
353.65	269.43
354.032	284.34
354.414	309.88
354.797	293.38
355.179	325.92
355.562	331.57
355.944	327.05
356.326	345.81
356.709	324.79
357.091	356.43
357.473	331.35
357.855	339.26
358.238	326.83
358.62	349.43
359.002	322.53
359.384	326.83
359.766	348.97
360.148	353.72
360.53	333.61
360.912	341.29
361.294	324.79
361.676	343.32
362.057	347.62
362.439	324.57
362.821	333.16
363.203	314.85
363.584	320.27
363.966	331.57
364.348	324.12
364.729	317.11
365.111	329.31
365.493	326.15
365.874	332.48
366.256	299.94
366.637	311.91
367.019	303.55
367.4	313.49
367.781	330.22
368.163	302.65
368.544	296.77
368.925	340.16
369.306	317.11
369.688	307.62
370.069	319.6
370.45	319.82
370.831	311.01
371.212	329.54
371.593	307.39
371.974	310.56
372.355	323.21
372.736	333.16
373.117	307.62
373.498	307.17
373.879	324.57
374.26	294.06
374.641	322.53
375.021	318.24
375.402	304
375.783	332.03
376.163	362.53
376.544	327.96
376.925	334.28
377.305	323.89
377.686	327.05
378.066	331.12
378.447	330.9
378.827	332.03
379.208	333.61
379.588	351.46
379.968	327.73
380.349	329.31
380.729	351.01
381.109	352.82
381.489	351.23
381.87	317.34
382.25	318.92
382.63	324.79
383.01	344.68
383.39	351.46
383.77	359.14
384.15	347.39
384.53	356.88
384.91	353.72
385.29	338.35
385.67	357.56
386.049	345.58
386.429	369.54
386.809	359.37
387.189	353.27
387.568	355.3
387.948	348.52
388.328	372.48
388.707	376.54
389.087	361.85
389.466	362.08
389.846	373.83
390.225	343.1
390.605	346.49
390.984	357.56
391.363	355.75
391.743	348.75
392.122	372.25
392.501	348.75
392.881	382.65
393.26	364.11
393.639	376.32
394.018	375.64
394.397	347.84
394.776	365.47
395.155	373.15
395.534	368.63
395.913	379.71
396.292	392.59
396.671	386.94
397.05	376.77
397.429	386.04
397.808	352.82
398.186	358.24
398.565	384.23
398.944	379.71
399.323	384
399.701	365.47
400.08	387.16
400.458	387.84
400.837	382.42
401.215	392.14
401.594	398.46
401.972	393.94
402.351	401.85
402.729	401.18
403.107	419.71
403.486	390.55
403.864	409.76
404.242	382.87
404.62	417.45
404.999	424.9
405.377	420.38
405.755	397.79
406.133	412.7
406.511	420.61
406.889	418.8
407.267	415.86
407.645	402.53
408.023	412.25
408.401	434.4
408.779	435.75
409.156	407.28
409.534	436.88
409.912	436.2
410.29	446.15
410.667	423.55
411.045	439.14
411.422	412.48
411.8	431.01
412.178	463.55
412.555	461.06
412.933	459.71
413.31	446.6
413.687	454.96
414.065	457.45
414.442	451.34
414.819	470.1
415.197	490.44
415.574	488.86
415.951	487.95
416.328	483.21
416.705	482.98
417.082	484.11
417.46	480.27
417.837	498.12
418.214	506.48
418.591	496.99
418.967	488.63
419.344	490.89
419.721	489.99
420.098	494.51
420.475	509.65
420.852	506.26
421.228	514.85
421.605	523.43
421.982	513.04
422.358	500.16
422.735	516.65
423.111	518.91
423.488	527.73
423.864	526.37
424.241	538.35
424.617	554.39
424.994	554.84
425.37	535.18
425.746	526.14
426.123	558.23
426.499	532.02
426.875	591
427.251	565.69
427.627	570.44
428.003	571.79
428.379	571.11
428.756	577.67
429.132	593.26
429.507	576.09
429.883	585.8
430.259	578.35
430.635	618.8
431.011	600.49
431.387	605.01
431.763	596.42
432.138	593.04
432.514	626.25
432.89	617.67
433.265	641.17
433.641	643.88
434.016	633.71
434.392	639.14
434.767	615.86
435.143	668.06
435.518	654.95
435.894	652.47
436.269	659.02
436.644	647.95
437.02	666.03
437.395	660.83
437.77	677.33
438.145	689.98
438.52	711.22
438.895	696.08
439.271	699.25
439.646	700.38
440.021	708.74
440.395	731.34
440.77	695.41
441.145	702.18
441.52	737.66
441.895	750.09
442.27	743.09
442.645	742.18
443.019	708.51
443.394	755.52
443.769	766.36
444.143	763.2
444.518	776.31
444.892	749.87
445.267	759.58
445.641	778.57
446.016	773.14
446.39	785.35
446.764	792.35
447.139	802.75
447.513	817.21
447.887	776.31
448.262	799.81
448.636	803.43
449.01	814.27
449.384	806.36
449.758	814.72
450.132	844.55
450.506	834.84
450.88	865.8
451.254	851.79
451.628	863.76
452.002	842.97
452.376	861.28
452.75	868.06
453.123	859.69
453.497	873.93
453.871	895.63
454.244	884.55
454.618	913.25
454.992	934.27
455.365	918.45
455.739	928.85
456.112	946.47
456.486	950.54
456.859	953.25
457.232	962.97
457.606	981.73
457.979	984.66
458.352	1020.37
458.725	1011.78
459.099	1030.31
459.472	1038.45
459.845	1038.9
460.218	1059.01
460.591	1051.55
460.964	1088.39
461.337	1088.62
461.71	1099.46
462.083	1128.84
462.456	1136.52
462.829	1145.56
463.201	1149.4
463.574	1173.13
463.947	1185.56
464.32	1193.47
464.692	1199.35
465.065	1205.67
465.438	1211.78
465.81	1235.96
466.183	1256.52
466.555	1285.67
466.928	1299.91
467.3	1318.67
467.672	1319.12
468.045	1347.14
468.417	1378.55
468.789	1398.66
469.161	1434.14
469.534	1439.11
469.906	1463.75
470.278	1490.19
470.65	1474.14
471.022	1509.4
471.394	1566.57
471.766	1590.75
472.138	1635.72
472.51	1662.39
472.882	1691.09
473.253	1711.65
473.625	1743.29
473.997	1792.33
474.369	1838.65
474.74	1844.53
475.112	1922.27
475.484	1947.12
475.855	1985.32
476.227	2015.82
476.598	2099.89
476.97	2105.54
477.341	2206.55
477.713	2249.71
478.084	2277.28
478.455	2379.88
478.827	2425.3
479.198	2494.23
479.569	2559.31
479.94	2630.27
480.311	2711.4
480.682	2807.44
481.053	2853.54
481.424	2958.85
481.795	2990.03
482.166	3088.56
482.537	3166.3
482.908	3311.83
483.279	3354.09
483.65	3442.45
484.021	3558.83
484.391	3622.33
484.762	3712.73
485.133	3804.02
485.503	3925.15
485.874	4049.67
486.244	4151.59
486.615	4283.33
486.985	4403.1
487.356	4510.9
487.726	4613.95
488.097	4811.68
488.467	4848.29
488.837	5032.92
489.207	5136.87
489.578	5315.62
489.948	5404.89
490.318	5517.88
490.688	5673.35
491.058	5722.62
491.428	5924.87
491.798	6030.86
492.168	6271.53
492.538	6349.72
492.908	6452.99
493.278	6689.15
493.648	6735.02
494.017	6876.71
494.387	7002.58
494.757	7161
495.126	7291.84
495.496	7382.24
495.866	7485.06
496.235	7707.2
496.605	7885.05
496.974	8031.26
497.344	8138.6
497.713	8229.22
498.082	8381.53
498.452	8512.6
498.821	8697.68
499.19	8729.54
499.559	8887.96
499.928	9015.19
500.298	9182.19
500.667	9312.58
501.036	9333.37
501.405	9541.27
501.774	9625.57
502.143	9780.59
502.512	9877.76
502.88	10020.58
503.249	10088.83
503.618	10188.49
503.987	10343.51
504.356	10444.3
504.724	10577.41
505.093	10648.82
505.462	10796.16
505.83	10858.08
506.199	11016.49
506.567	11242.7
506.936	11246.31
507.304	11370.38
507.672	11472.3
508.041	11635.46
508.409	11659.86
508.777	11835.68
509.145	11931.27
509.514	12011.94
509.882	12111.38
510.25	12257.36
510.618	12381.2
510.986	12401.31
511.354	12506.17
511.722	12688.54
512.09	12850.79
512.458	12806.5
512.826	13032.93
513.193	13055.53
513.561	13176.21
513.929	13271.8
514.297	13402.64
514.664	13454.39
515.032	13544.33
515.4	13719.24
515.767	13776.64
516.135	13848.51
516.502	13766.93
516.869	14050.08
517.237	14067.48
517.604	14078.56
517.972	14295.05
518.339	14370.3
518.706	14462.28
519.073	14507.25
519.44	14693.46
519.808	14737.07
520.175	14754.02
520.542	15014.35
520.909	14996.95
521.276	14989.72
521.643	15165.53
522.009	15308.58
522.376	15313.78
522.743	15534.11
523.11	15634.67
523.477	15752.41
523.843	15782.01
524.21	15875.57
524.577	16025.85
524.943	16093.87
525.31	16133.87
525.676	16265.39
526.043	16452.73
526.409	16440.08
526.776	16555.78
527.142	16678.49
527.508	16757.81
527.874	16868.54
528.241	16854.98
528.607	16890.69
528.973	17065.6
529.339	17091.13
529.705	17139.94
530.071	17353.27
530.437	17302.43
530.803	17410.67
531.169	17483.44
531.535	17431.91
531.901	17558.92
532.267	17639.14
532.632	17583.1
532.998	17759.36
533.364	17857.21
533.73	17843.43
534.095	17924.33
534.461	17834.16
534.826	18026.25
535.192	18016.31
535.557	18145.79
535.923	18100.6
536.288	18203.42
536.653	18221.72
537.019	18144.44
537.384	18252.23
537.749	18325
538.114	18298.78
538.479	18328.61
538.845	18404.32
539.21	18357.77
539.575	18402.28
539.94	18469.85
540.305	18616.06
540.67	18428.05
541.034	18526.58
541.399	18591.21
541.764	18650.19
542.129	18670.98
542.494	18666.46
542.858	18688.83
543.223	18712.78
543.587	18900.8
543.952	18768.83
544.316	18863.52
544.681	18757.76
545.045	18800.24
545.41	18983.29
545.774	18826.68
546.138	18922.95
546.503	18946.22
546.867	18972.21
547.231	18993
547.595	18944.87
547.959	19040.69
548.324	18983.51
548.688	19005.88
549.052	19085.2
549.416	19026.67
549.779	19093.79
550.143	19127.24
550.507	19267.8
550.871	19190.96
551.235	19144.41
551.599	19397.06
551.962	19249.95
552.326	19332.43
552.689	19438.64
553.053	19358.64
553.417	19260.79
553.78	19563.38
554.143	19396.16
554.507	19510.28
554.87	19509.83
555.234	19684.28
555.597	19513.44
555.96	19576.49
556.323	19775.13
556.686	19632.76
557.05	19890.61
557.413	19869.82
557.776	19861.68
558.139	19954.56
558.502	19999.98
558.865	19935.58
559.228	20045.41
559.59	20106.42
559.953	20072.75
560.316	20330.6
560.679	20342.8
561.041	20429.8
561.404	20483.59
561.767	20596.35
562.129	20449.46
562.492	20579.18
562.854	20609.68
563.217	20688.33
563.579	20640.64
563.941	20783.69
564.304	20745.5
564.666	20999.96
565.028	20932.61
565.39	20939.17
565.753	21103.68
566.115	21102.78
566.477	21296.45
566.839	21168.77
567.201	21330.8
567.563	21338.7
567.925	21498.25
568.287	21499.38
568.648	21429.78
569.01	21599.71
569.372	21666.38
569.734	21581.18
570.095	21711.58
570.457	21821.86
570.819	21851.23
571.18	21908.18
571.542	21993.38
571.903	22010.1
572.265	22102.98
572.626	22051.23
572.987	22119.25
573.349	22119.25
573.71	22252.13
574.071	22308.17
574.432	22385
574.794	22410.54
575.155	22348.4
575.516	22389.98
575.877	22426.81
576.238	22531.67
576.599	22505.23
576.96	22530.99
577.32	22500.71
577.681	22660.93
578.042	22663.42
578.403	22554.72
578.763	22588.39
579.124	22826.35
579.485	22812.56
579.845	22679.69
580.206	22730.98
580.566	22665.9
580.927	22820.7
581.287	22805.56
581.648	22798.1
582.008	22965.55
582.368	22878.78
582.728	22932.33
583.089	22869.29
583.449	22961.03
583.809	22877.87
584.169	22922.84
584.529	22906.8
584.889	23047.13
585.249	23024.54
585.609	22747.48
585.969	22981.37
586.329	22983.41
586.688	22975.27
587.048	22987.93
587.408	22926.46
587.768	22922.17
588.127	22876.97
588.487	22882.17
588.846	23002.16
589.206	22845.33
589.565	22793.13
589.925	22899.79
590.284	22804.2
590.643	22982.28
591.003	22975.95
591.362	22969.62
591.721	22985.21
592.08	22976.18
592.44	22942.96
592.799	23033.58
593.158	22859.34
593.517	22864.54
593.876	22957.64
594.235	22952
594.593	23030.64
594.952	23001.03
595.311	22950.19
595.67	22906.12
596.029	23180.01
596.387	23097.08
596.746	23160.35
597.104	22937.98
597.463	23032.9
597.822	23153.35
598.18	22980.92
598.538	23007.81
598.897	23119.45
599.255	22895.05
599.613	23188.6
599.972	23102.73
600.33	23206.9
600.688	23126.91
601.046	23189.96
601.404	23223.85
601.762	23168.94
602.12	23359.67
602.478	23318.77
602.836	23318.54
603.194	23226.34
603.552	23246
603.91	23123.29
604.268	23201.03
604.625	23224.3
604.983	23269.05
605.341	23200.12
605.698	23343.17
606.056	23335.26
606.413	23441.25
606.771	23293.68
607.128	23456.84
607.485	23366
607.843	23350.18
608.2	23465.88
608.557	23601.24
608.914	23558.53
609.272	23561.47
609.629	23593.33
609.986	23691.18
610.343	23664.74
610.7	23838.75
611.057	23684.63
611.414	23868.13
611.771	23767.34
612.127	23803.95
612.484	23888.92
612.841	23959.2
613.198	23881.24
613.554	23767.79
613.911	24016.6
614.267	24024.74
614.624	23914.91
614.98	24041.68
615.337	24212.3
615.693	24143.83
616.05	24084.62
616.406	24259.31
616.762	24101.34
617.118	24088.01
617.475	24081.23
617.831	24221.79
618.187	24255.24
618.543	24292.53
618.899	24443.26
619.255	24349.02
619.611	24379.3
619.967	24363.94
620.323	24477.83
620.678	24410.71
621.034	24279.42
621.39	24436.7
621.746	24394.67
622.101	24610.48
622.457	24425.63
622.812	24480.77
623.168	24546.98
623.523	24602.8
623.879	24552.41
624.234	24551.5
624.589	24533.87
624.945	24519.19
625.3	24634.66
625.655	24522.35
626.01	24612.52
626.365	24654.78
626.72	24574.55
627.075	24535.91
627.43	24514.44
627.785	24547.21
628.14	24591.73
628.495	24577.94
628.85	24532.07
629.205	24537.49
629.559	24638.05
629.914	24426.53
630.269	24544.04
630.623	24492.97
630.978	24521.45
631.332	24552.41
631.687	24638.96
632.041	24451.62
632.396	24545.85
632.75	24461.79
633.104	24543.82
633.459	24363.71
633.813	24527.77
634.167	24384.5
634.521	24331.17
634.875	24330.26
635.229	24302.24
635.583	24299.98
635.937	24249.81
636.291	24185.18
636.645	24297.72
636.999	24198.97
637.352	24201.23
637.706	24173.88
638.06	24118.29
638.413	24091.85
638.767	24048.46
639.121	24144.51
639.474	23995.58
639.828	24034.68
640.181	24072.64
640.534	24001.91
640.888	23945.87
641.241	23910.61
641.594	23939.54
641.947	24039.2
642.301	23933.66
642.654	23967.11
643.007	23859.54
643.36	23888.47
643.713	23951.29
644.066	23959.88
644.419	23867.68
644.771	23611.64
645.124	23397.41
645.477	23386.33
645.83	23239.22
646.182	23144.08
646.535	23079.22
646.888	23187.47
647.24	23015.72
647.593	23116.28
647.945	23064.99
648.298	22980.02
648.65	22864.09
649.002	22812.11
649.355	22947.93
649.707	22999.68
650.059	23110.18
650.411	23381.81
650.763	23324.64
651.115	23687.34
651.467	23539.1
651.819	23585.2
652.171	23476.73
652.523	23460.68
652.875	23387.01
653.227	23396.73
653.578	23582.04
653.93	23422.27
654.282	23518.08
654.633	23358.99
654.985	23415.26
655.337	23441.47
655.688	23424.75
656.039	23423.4
656.391	23223.63
656.742	23373.45
657.094	23397.18
657.445	23441.47
657.796	23322.83
658.147	23349.73
658.498	23327.13
658.849	23417.07
659.2	23242.16
659.551	23280.8
659.902	23447.8
660.253	23367.58
660.604	23347.24
660.955	23367.35
661.306	23346.79
661.656	23286.9
662.007	23420.01
662.358	23335.49
662.708	23429.5
663.059	23411.42
663.409	23258.2
663.76	23415.71
664.11	23379.55
664.461	23335.94
664.811	23412.55
665.161	23341.14
665.511	23272.89
665.862	23319.9
666.212	23465.88
666.562	23414.58
666.912	23324.87
667.262	23271.31
667.612	23250.74
667.962	23356.73
668.312	23248.94
668.662	23395.83
669.011	23280.57
669.361	23327.35
669.711	23225.21
670.06	23253.91
670.41	23226.56
670.76	23155.83
671.109	23253
671.459	23161.03
671.808	23151.09
672.157	23197.41
672.507	23060.02
672.856	23236.73
673.205	23222.04
673.554	23257.07
673.904	23044.65
674.253	23262.27
674.602	23126
674.951	22841.04
675.3	22685.56
675.649	22972.11
675.998	23023.63
676.346	22975.5
676.695	23083.29
677.044	22861.83
677.393	23045.78
677.741	22916.74
678.09	22933.46
678.438	22783.19
678.787	22862.51
679.135	22958.77
679.484	22735.28
679.832	22873.35
680.181	22582.06
680.529	22694.6
680.877	22641.27
681.225	22625.22
681.573	22766.24
681.922	22607.15
682.27	22553.36
682.618	22566.69
682.966	22536.19
683.314	22423.87
683.661	22461.16
684.009	22394.95
684.357	22249.19
684.705	22251
685.053	22287.83
685.4	22247.16
685.748	22193.82
686.095	21997.9
686.443	22036.31
686.79	22004.22
687.138	22086.93
687.485	22025.47
687.832	21980.5
688.18	22047.16
688.527	21880.61
688.874	21794.29
689.221	21821.86
689.568	21712.93
689.915	21664.35
690.262	21667.74
690.609	21575.76
690.956	21416.89
691.303	21539.83
691.65	21248.76
691.997	21328.76
692.344	21330.34
692.69	21154.53
693.037	21260.51
693.383	20966.74
693.73	21124.92
694.077	21016
694.423	20959.96
694.769	20929.9
695.116	20845.38
695.462	20752.51
695.808	20712.96
696.155	20715.9
696.501	20545.73
696.847	20455.11
697.193	20426.41
697.539	20426.19
697.885	20290.82
698.231	20156.36
698.577	20126.98
698.923	20146.19
699.269	20115.23
699.614	20014.67
699.96	19916.37
700.306	19838.63
700.651	19805.86
700.997	19680.89
701.342	19623.95
701.688	19631.4
702.033	19621.91
702.379	19494.23
702.724	19422.37
703.069	19442.03
703.415	19237.29
703.76	19286.78
704.105	19183.28
704.45	19238.42
704.795	19048.6
705.14	19010.18
705.485	19046.79
705.83	18983.96
706.175	18956.17
706.52	18932.21
706.865	18843.18
707.209	18779.22
707.554	18752.11
707.899	18793.46
708.243	18712.11
708.588	18559.79
708.932	18549.4
709.277	18438.22
709.621	18502.17
709.966	18369.07
710.31	18330.87
710.654	18171.1
710.998	18245.9
711.342	18313.47
711.687	18285.68
712.031	18088.17
712.375	18041.39
712.719	18081.16
713.063	17987.15
713.407	18053.59
713.75	17954.84
714.094	17951.22
714.438	17870.77
714.782	17973.37
715.125	17754.17
715.469	17819.93
715.812	17590.55
716.156	17602.31
716.499	17603.89
716.843	17631.01
717.186	17502.42
717.53	17658.58
717.873	17570.67
718.216	17524.12
718.559	17505.58
718.902	17431.01
719.246	17399.82
719.589	17352.59
719.932	17292.03
720.275	17306.72
720.617	17287.29
720.96	17241.86
721.303	17186.95
721.646	17219.49
721.989	17132.26
722.331	17183.11
722.674	17090.91
723.016	17169.77
723.359	17161.87
723.701	17113.05
724.044	16979.72
724.386	16992.15
724.729	16996.45
725.071	17049.78
725.413	17021.08
725.755	16954.41
726.097	16856.11
726.439	16790.35
726.782	16757.81
727.124	16833.96
727.465	16798.71
727.807	16755.55
728.149	16747.19
728.491	16829.22
728.833	16868.54
729.175	16778.6
729.516	16626.51
729.858	16684.82
730.199	16683.91
730.541	16674.65
730.882	16478.04
731.224	16712.61
731.565	16560.98
731.906	16618.83
732.248	16557.59
732.589	16521.88
732.93	16605.04
733.271	16473.07
733.612	16504.03
733.953	16506.74
734.294	16492.05
734.635	16398.5
734.976	16475.1
735.317	16517.36
735.658	16377.25
735.999	16443.92
736.339	16402.11
736.68	16449.79
737.021	16401.89
737.361	16359.85
737.702	16387.87
738.042	16396.46
738.383	16330.47
738.723	16427.65
739.063	16278.95
739.404	16346.75
739.744	16333.41
740.084	16253.64
740.424	16323.7
740.764	16268.33
741.104	16317.82
741.444	16324.15
741.784	16273.3
742.124	16305.16
742.464	16333.41
742.804	16325.28
743.143	16339.74
743.483	16384.48
743.823	16255.67
744.162	16355.78
744.502	16410.7
744.841	16327.31
745.181	16433.75
745.52	16406.18
745.86	16438.27
746.199	16389.91
746.538	16535.89
746.877	16539.96
747.216	16484.59
747.556	16574.31
747.895	16567.08
748.234	16589.22
748.573	16621.77
748.911	16611.37
749.25	16638.94
749.589	16608.66
749.928	16681.65
750.267	16738.83
750.605	16683.46
750.944	16785.83
751.283	16809.33
751.621	16919.84
751.96	16878.48
752.298	16915.32
752.636	17034.18
752.975	17055.65
753.313	17014.75
753.651	17151.02
753.989	17237.8
754.327	17179.49
754.666	17238.93
755.004	17385.14
755.342	17500.39
755.679	17477.56
756.017	17457
756.355	17731.79
756.693	17720.95
757.031	17731.34
757.368	17788.97
757.706	17842.07
758.044	17816.99
758.381	17984.67
758.719	18046.81
759.056	18117.77
759.394	18019.24
759.731	18092.24
760.068	18167.04
760.405	18241.16
760.743	18275.51
761.08	18394.15
761.417	18379.91
761.754	18425.79
762.091	18432.11
762.428	18522.28
762.765	18454.94
763.102	18606.8
763.438	18501.49
763.775	18604.54
764.112	18691.99
764.449	18713.91
764.785	18762.95
765.122	18635.72
765.458	18751.2
765.795	18772.22
766.131	18883.85
766.467	18754.37
766.804	18856.96
767.14	18827.58
767.476	18851.31
767.812	18850.41
768.148	18928.37
768.485	18843.85
768.821	18764.99
769.157	18875.94
769.492	18924.53
769.828	18916.4
770.164	18796.4
770.5	18781.48
770.836	18741.03
771.171	18731.09
771.507	18729.96
771.842	18698.55
772.178	18751.65
772.513	18748.49
772.849	18678.89
773.184	18655.84
773.519	18630.3
773.855	18558.89
774.19	18519.8
774.525	18474.15
774.86	18616.52
775.195	18650.41
775.53	18400.25
775.865	18401.83
776.2	18388.95
776.535	18154.38
776.87	18325.9
777.205	18228.05
777.539	18209.97
777.874	18244.1
778.209	18121.84
778.543	18118.9
778.878	18041.84
779.212	18075.29
779.547	17875.29
779.881	17962.3
780.215	17907.83
780.55	17922.52
780.884	17856.31
781.218	17795.75
781.552	17776.54
781.886	17661.51
782.22	17611.34
782.554	17553.27
782.888	17394.85
783.222	17387.4
783.556	17308.53
783.889	17315.53
784.223	17183.11
784.557	17151.02
784.89	17181.3
785.224	17042.09
785.557	17019.5
785.891	16994.41
786.224	16908.99
786.558	16949.89
786.891	16784.47
787.224	16805.72
787.557	16706.96
787.891	16713.74
788.224	16716.45
788.557	16657.47
788.89	16584.25
789.223	16549
789.556	16517.81
789.888	16449.12
790.221	16387.65
790.554	16292.51
790.887	16248.67
791.219	16156.47
791.552	16248.44
791.884	16151.04
792.217	16114.66
792.549	15951.05
792.882	15921.22
793.214	15831.5
793.546	15932.29
793.879	15829.02
794.211	15737.04
794.543	15787.66
794.875	15744.28
795.207	15678.29
795.539	15655.69
795.871	15575.24
796.203	15505.19
796.535	15362.36
796.867	15415.47
797.198	15412.31
797.53	15360.78
797.862	15201.01
798.193	15276.94
798.525	15157.17
798.856	15267
799.188	15088.25
799.519	15082.6
799.85	15015.48
800.182	14967.8
800.513	14909.49
800.844	14939.32
801.175	14885.77
801.506	14796.28
801.837	14724.87
802.168	14730.52
802.499	14707.24
802.83	14531.88
803.161	14610.97
803.491	14686
803.822	14593.35
804.153	14420.02
804.483	14407.36
804.814	14362.62
805.145	14345.89
805.475	14296.63
805.805	14264.09
806.136	14201.94
806.466	14283.07
806.796	14228.16
807.126	14088.27
807.457	14014.6
807.787	13947.94
808.117	13912.01
808.447	13934.61
808.777	13989.75
809.107	13830.2
809.436	13850.99
809.766	13813.7
810.096	13690.77
810.426	13690.09
810.755	13722.41
811.085	13685.8
811.414	13719.02
811.744	13507.05
812.073	13501.17
812.403	13533.03
812.732	13469.76
813.061	13413.72
813.39	13390.44
813.719	13268.18
814.049	13389.99
814.378	13376.43
814.707	13298.01
815.036	13222.53
815.365	13173.72
815.693	13072.03
816.022	13119.26
816.351	13118.58
816.68	12973.5
817.008	13029.32
817.337	12955.2
817.665	12927.85
817.994	13011.92
818.322	12955.42
818.651	12937.8
818.979	12845.37
819.307	12892.37
819.636	12841.75
819.964	12731.02
820.292	12814.18
820.62	12859.83
820.948	12789.55
821.276	12788.87
821.604	12731.25
821.932	12814.86
822.259	12758.59
822.587	12754.07
822.915	12733.96
823.243	12688.54
823.57	12632.72
823.898	12694.19
824.225	12640.4
824.553	12646.05
824.88	12659.38
825.207	12686.73
825.535	12569.67
825.862	12693.73
826.189	12605.37
826.516	12679.5
826.843	12737.8
827.17	12627.75
827.497	12617.35
827.824	12698.25
828.151	12688.99
828.478	12682.89
828.805	12727.86
829.131	12688.76
829.458	12640.85
829.785	12575.55
830.111	12635.43
830.438	12663
830.764	12652.38
831.09	12660.29
831.417	12610.8
831.743	12623
832.069	12606.96
832.395	12527.64
832.722	12615.54
833.048	12535.55
833.374	12502.1
833.7	12540.97
834.026	12569.22
834.351	12547.07
834.677	12590.01
835.003	12561.08
835.329	12518.15
835.654	12450.58
835.98	12459.84
836.306	12446.73
836.631	12420.75
836.956	12447.41
837.282	12396.79
837.607	12382.78
837.932	12301.43
838.258	12321.77
838.583	12403.35
838.908	12298.26
839.233	12297.81
839.558	12229.11
839.883	12230.24
840.208	12217.81
840.533	12097.37
840.858	12210.58
841.182	12118.61
841.507	12144.82
841.832	12013.75
842.156	12005.84
842.481	12036.58
842.805	11966.3
843.13	11963.36
843.454	12023.47
843.778	11839.97
844.103	11895.79
844.427	11927.43
844.751	11826.86
845.075	11846.75
845.399	11819.18
845.723	11734.44
846.047	11773.53
846.371	11576.93
846.695	11590.71
847.019	11542.8
847.343	11482.47
847.666	11418.51
847.99	11392.3
848.313	11424.84
848.637	11316.14
848.96	11277.5
849.284	11337.61
849.607	11121.12
849.931	11124.51
850.254	11118.18
850.577	11009.71
850.9	10994.57
851.223	11001.8
851.546	10902.82
851.869	10790.06
852.192	10817.85
852.515	10808.36
852.838	10764.07
853.161	10728.59
853.483	10689.72
853.806	10655.37
854.129	10575.6
854.451	10595.26
854.774	10479.55
855.096	10528.82
855.419	10510.06
855.741	10479.33
856.063	10431.19
856.385	10371.54
856.708	10336.06
857.03	10269.62
857.352	10269.62
857.674	10271.88
857.996	10246.57
858.318	10162.5
858.64	10201.37
858.961	10123.63
859.283	10118.89
859.605	9962.05
859.926	10014.71
860.248	10018.32
860.57	9918.44
860.891	9949.63
861.212	9887.71
861.534	9961.6
861.855	9881.6
862.176	9925.67
862.498	9902.17
862.819	9870.98
863.14	9789.4
863.461	9789.63
863.782	9791.66
864.103	9765.68
864.424	9699.69
864.745	9704.43
865.065	9648.84
865.386	9678.67
865.707	9636.64
866.027	9699.91
866.348	9654.49
866.668	9635.96
866.989	9548.96
867.309	9506.25
867.63	9581.73
867.95	9525.91
868.27	9551.22
868.59	9536.53
868.91	9483.65
869.23	9474.84
869.55	9394.61
869.87	9442.97
870.19	9458.34
870.51	9494.27
870.83	9428.51
871.15	9377.89
871.469	9384.89
871.789	9383.09
872.109	9371.56
872.428	9307.38
872.748	9344.67
873.067	9270.55
873.386	9339.92
873.706	9228.74
874.025	9236.2
874.344	9214.5
874.663	9242.53
874.982	9210.44
875.301	9282.07
875.62	9248.85
875.939	9158.23
876.258	9203.66
876.577	9134.05
876.896	9127.73
877.214	9110.78
877.533	9085.02
877.852	9074.85
878.17	9096.54
878.489	9051.8
878.807	9042.98
879.125	9022.87
879.444	9009.54
879.762	8952.82
880.08	8947.17
880.398	8890.44
880.716	8892.48
881.034	8934.74
881.352	8951.23
881.67	8905.59
881.988	8857.45
882.306	8825.59
882.624	8779.26
882.941	8848.64
883.259	8702.2
883.577	8725.02
883.894	8708.53
884.212	8689.55
884.529	8690.45
884.846	8679.83
885.164	8665.59
885.481	8585.14
885.798	8599.15
886.115	8574.07
886.432	8558.48
886.75	8533.17
887.067	8525.48
887.383	8532.71
887.7	8510.57
888.017	8486.61
888.334	8446.39
888.651	8472.83
888.967	8443.9
889.284	8367.52
889.6	8324.81
889.917	8322.55
890.233	8333.17
890.55	8224.25
890.866	8346.73
891.182	8265.83
891.498	8229.44
891.815	8165.72
892.131	8165.04
892.447	8114.87
892.763	8122.78
893.079	8187.86
893.395	8063.35
893.71	8097.24
894.026	8064.03
894.342	7995.55
894.657	7961.66
894.973	7938.6
895.289	7932.28
895.604	7877.82
895.92	7921.66
896.235	7815.9
896.55	7837.14
896.865	7825.39
897.181	7807.99
897.496	7772.51
897.811	7751.27
898.126	7717.59
898.441	7737.71
898.756	7733.64
899.071	7621.78
899.386	7642.34
899.7	7573.42
900.015	7520.31
900.33	7492.06
900.644	7436.25
900.959	7511.5
901.273	7437.38
901.588	7362.8
901.902	7296.14
902.216	7375.91
902.531	7327.32
902.845	7262.24
903.159	7252.75
903.473	7283.71
903.787	7149.47
904.101	7179.53
904.415	7137.27
904.729	7117.84
905.042	7099.76
905.356	7077.16
905.67	7037.84
905.984	7050.94
906.297	7041.91
906.611	6956.71
906.924	6905.19
907.237	6901.57
907.551	6902.02
907.864	6892.53
908.177	6872.87
908.491	6825.19
908.804	6795.36
909.117	6765.75
909.43	6704.51
909.743	6702.93
910.056	6705.42
910.368	6674.68
910.681	6633.1
910.994	6560.56
911.307	6514.46
911.619	6484.63
911.932	6562.14
912.244	6485.08
912.557	6471.07
912.869	6432.66
913.181	6438.08
913.494	6374.58
913.806	6343.39
914.118	6323.51
914.43	6276.73
914.742	6307.91
915.054	6268.37
915.366	6253.68
915.678	6255.03
915.99	6186.33
916.302	6123.06
916.613	6147.69
916.925	6143.62
917.236	6112.21
917.548	6070.86
917.859	6073.12
918.171	6036.06
918.482	5959.22
918.794	5915.38
919.105	5946.79
919.416	5887.13
919.727	5919.45
920.038	5910.18
920.349	5869.73
920.66	5827.7
920.971	5847.59
921.282	5824.54
921.593	5770.3
921.903	5711.77
922.214	5704.99
922.525	5660.25
922.835	5704.77
923.146	5606.01
923.456	5645.11
923.767	5615.73
924.077	5574.83
924.387	5580.7
924.697	5511.55
925.008	5493.7
925.318	5426.13
925.628	5500.7
925.938	5453.02
926.248	5429.97
926.558	5388.16
926.867	5414.38
927.177	5356.3
927.487	5313.14
927.796	5286.25
928.106	5262.97
928.416	5282.86
928.725	5248.73
929.034	5179.58
929.344	5189.98
929.653	5162.41
929.962	5105.23
930.271	5131.67
930.581	5031.56
930.89	5096.19
931.199	4992.02
931.508	5048.51
931.817	5052.58
932.125	4987.27
932.434	4999.47
932.743	4940.27
933.051	4920.61
933.36	4931.68
933.669	4884
933.977	4841.29
934.286	4864.79
934.594	4832.47
934.902	4813.94
935.21	4807.39
935.519	4769.87
935.827	4764.23
936.135	4731.68
936.443	4655.08
936.751	4670.67
937.059	4655.98
937.367	4619.6
937.674	4637
937.982	4620.73
938.29	4566.26
938.597	4557.22
938.905	4489.88
939.213	4512.03
939.52	4499.83
939.827	4508.41
940.135	4473.84
940.442	4427.06
940.749	4432.93
941.056	4465.7
941.363	4354.97
941.67	4381.86
941.977	4376.21
942.284	4314.97
942.591	4347.74
942.898	4324.91
943.205	4272.71
943.511	4243.33
943.818	4215.54
944.125	4207.4
944.431	4227.74
944.738	4227.97
945.044	4162.88
945.35	4139.61
945.657	4175.77
945.963	4095.99
946.269	4084.69
946.575	4072.49
946.881	4106.16
947.187	4089.67
947.493	4048.54
947.799	4010.57
948.105	4024.81
948.41	3956.34
948.716	3983.91
949.022	3971.93
949.327	3959.27
949.633	3883.34
949.938	3900.52
950.244	3860.52
950.549	3842.44
950.854	3858.03
951.16	3841.76
951.465	3809.67
951.77	3820.52
952.075	3841.09
952.38	3791.6
952.685	3767.87
952.99	3730.13
953.294	3712.05
953.599	3697.59
953.904	3706.4
954.209	3694.2
954.513	3670.47
954.818	3619.4
955.122	3661.2
955.426	3657.14
955.731	3595.22
956.035	3617.14
956.339	3571.49
956.643	3604.71
956.948	3516.35
957.252	3517.25
957.556	3544.14
957.86	3513.18
958.163	3530.81
958.467	3462.79
958.771	3456.69
959.075	3451.04
959.378	3425.5
959.682	3446.75
959.985	3386.41
960.289	3370.36
960.592	3395.67
960.896	3344.6
961.199	3337.14
961.502	3344.15
961.805	3312.74
962.108	3309.8
962.411	3268.67
962.714	3228.45
963.017	3237.94
963.32	3260.76
963.623	3197.49
963.926	3227.77
964.228	3179.41
964.531	3205.62
964.833	3187.09
965.136	3147.32
965.438	3117.04
965.741	3118.17
966.043	3086.53
966.345	3090.82
966.648	3094.89
966.95	3058.28
967.252	3069.13
967.554	3068
967.856	3031.84
968.158	2997.72
968.46	3018.73
968.761	2993.42
969.063	2983.71
969.365	3013.76
969.666	2956.59
969.968	2925.18
970.269	2928.34
970.571	2917.95
970.872	2931.28
971.174	2919.98
971.475	2861.68
971.776	2874.33
972.077	2849.02
972.378	2844.73
972.679	2852.86
972.98	2815.12
973.281	2846.54
973.582	2820.77
973.883	2783.94
974.183	2739.42
974.484	2802.24
974.785	2776.25
975.085	2740.55
975.386	2721.11
975.686	2717.5
975.986	2691.29
976.287	2704.17
976.587	2683.83
976.887	2679.53
977.187	2638.63
977.487	2665.3
977.787	2648.57
978.087	2606.99
978.387	2607.67
978.687	2605.41
978.987	2598.86
979.286	2551.4
979.586	2581.91
979.885	2539.88
980.185	2564.73
980.484	2538.07
980.784	2533.1
981.083	2484.74
981.382	2518.63
981.682	2520.22
981.981	2484.06
982.28	2477.51
982.579	2454.91
982.878	2474.12
983.177	2427.56
983.475	2425.98
983.774	2438.64
984.073	2377.62
984.372	2392.31
984.67	2386.21
984.969	2379.2
985.267	2343.95
985.566	2362.71
985.864	2345.31
986.162	2320.67
986.461	2321.35
986.759	2282.48
987.057	2301.24
987.355	2301.24
987.653	2243.39
987.951	2287.68
988.249	2238.19
988.547	2272.09
988.844	2247.46
989.142	2239.55
989.44	2201.81
989.737	2226.89
990.035	2173.78
990.332	2192.09
990.63	2172.2
990.927	2186.67
991.224	2177.4
991.521	2136.5
991.819	2128.14
992.116	2152.54
992.413	2124.97
992.71	2122.94
993.006	2096.72
993.303	2089.72
993.6	2091.53
993.897	2098.08
994.193	2057.4
994.49	2082.49
994.787	2039.78
995.083	2033.45
995.379	2009.27
995.676	2005.65
995.972	2016.73
996.268	2002.26
996.565	2002.72
996.861	1996.84
997.157	1978.08
997.453	1965.65
997.749	1925.88
998.044	1956.39
998.34	1910.51
998.636	1926.11
998.932	1925.88
999.227	1911.42
999.523	1883.85
999.818	1873.68
1000.114	1873.91
1000.409	1838.43
1000.704	1855.83
1001	1855.15
1001.295	1833.45
1001.59	1822.16
1001.885	1806.34
1002.18	1784.87
1002.475	1781.93
1002.77	1799.33
1003.065	1776.73
1003.359	1770.63
1003.654	1763.17
1003.949	1757.98
1004.243	1773.34
1004.538	1733.57
1004.832	1736.73
1005.127	1709.39
1005.421	1748.26
1005.715	1690.63
1006.009	1677.75
1006.304	1698.99
1006.598	1671.65
1006.892	1663.29
1007.186	1670.07
1007.48	1633.01
1007.773	1620.13
1008.067	1623.52
1008.361	1605.21
1008.655	1621.26
1008.948	1617.42
1009.242	1570.18
1009.535	1620.13
1009.829	1587.59
1010.122	1560.92
1010.415	1560.24
1010.708	1542.39
1011.001	1519.11
1011.295	1528.38
1011.588	1527.7
1011.881	1524.54
1012.173	1496.74
1012.466	1486.35
1012.759	1470.98
1013.052	1480.47
1013.344	1444.31
1013.637	1467.36
1013.93	1475.27
1014.222	1431.43
1014.514	1432.56
1014.807	1431.43
1015.099	1421.94
1015.391	1402.51
1015.683	1383.97
1015.976	1408.83
1016.268	1383.75
1016.56	1371.77
1016.851	1355.5
1017.143	1383.3
1017.435	1352.34
1017.727	1347.82
1018.018	1332.9
1018.31	1356.63
1018.602	1318.67
1018.893	1322.96
1019.185	1312.56
1019.476	1284.32
1019.767	1274.37
1020.058	1288.84
1020.35	1272.79
1020.641	1268.27
1020.932	1235.5
1021.223	1258.1
1021.514	1248.61
1021.804	1236.63
1022.095	1219.69
1022.386	1255.39
1022.677	1232.11
1022.967	1218.78
1023.258	1217.43
1023.548	1182.17
1023.839	1189.86
1024.129	1197.09
1024.419	1176.07
1024.709	1141.72
1025	1176.07
1025.29	1166.35
1025.58	1130.42
1025.87	1128.39
1026.16	1131.33
1026.449	1131.78
1026.739	1105.56
1027.029	1114.6
1027.319	1112.12
1027.608	1101.95
1027.898	1104.66
1028.187	1087.49
1028.477	1088.62
1028.766	1094.04
1029.055	1049.75
1029.344	1062.85
1029.634	1033.48
1029.923	1027.37
1030.212	1045.68
1030.501	1023.53
1030.79	1028.73
1031.078	1011.1
1031.367	1000.26
1031.656	992.57
1031.945	1004.55
1032.233	982.63
1032.522	975.85
1032.81	995.51
1033.099	967.26
1033.387	981.95
1033.675	976.75
1033.963	957.09
1034.251	941.27
1034.54	943.76
1034.828	962.74
1035.116	921.61
1035.403	938.34
1035.691	919.58
1035.979	918.22
1036.267	906.7
1036.554	898.34
1036.842	883.42
1037.129	908.28
1037.417	874.16
1037.704	889.07
1037.992	876.19
1038.279	881.84
1038.566	849.98
1038.853	849.98
1039.14	849.98
