Data from hue_180_FLMS001491_00090.txt Node
Date: Tue Feb 07 16:47:37 GMT 2017
User: dcchb
Spectrometer: FLMS00149
Trigger mode: 0
Integration Time (sec): 2.000000E-2
Scans to average: 10
Electric dark correction enabled: true
Nonlinearity correction enabled: false
Boxcar width: 0
XAxis mode: Wavelengths
Number of Pixels in Spectrum: 2048
>>>>>Begin Spectral Data<<<<<
341.393	-8.26
341.776	-8.26
342.16	-8.26
342.543	-52.56
342.927	-54.36
343.31	-84.87
343.693	-59.33
344.077	-57.98
344.46	-51.2
344.843	-57.53
345.226	-53.01
345.61	-8.94
345.993	-23.18
346.376	-1.48
346.759	0.55
347.142	22.47
347.525	56.37
347.908	47.78
348.291	64.05
348.674	97.27
349.057	109.02
349.44	117.61
349.823	135.01
350.206	161.68
350.588	194.22
350.971	184.05
351.354	222.92
351.737	234.67
352.119	233.77
352.502	266.31
352.884	276.48
353.267	295.68
353.65	294.78
354.032	297.72
354.414	293.88
354.797	290.26
355.179	307.89
355.562	320.09
355.944	304.72
356.326	318.51
356.709	309.7
357.091	307.21
357.473	327.55
357.855	327.55
358.238	337.04
358.62	343.82
359.002	328
359.384	333.88
359.766	324.84
360.148	337.04
360.53	336.36
360.912	311.96
361.294	323.48
361.676	334.55
362.057	341.33
362.439	330.03
362.821	318.73
363.203	334.1
363.584	323.03
363.966	322.35
364.348	302.01
364.729	322.58
365.111	300.2
365.493	323.03
365.874	302.46
366.256	310.37
366.637	297.49
367.019	284.39
367.4	315.12
367.781	319.64
368.163	303.37
368.544	311.96
368.925	318.06
369.306	312.63
369.688	315.12
370.069	321.45
370.45	305.18
370.831	317.6
371.212	311.05
371.593	318.73
371.974	301.33
372.355	309.24
372.736	316.02
373.117	312.41
373.498	318.28
373.879	317.15
374.26	276.93
374.641	302.24
375.021	313.54
375.402	306.53
375.783	311.73
376.163	319.19
376.544	334.55
376.925	332.75
377.305	333.42
377.686	337.94
378.066	322.35
378.447	345.17
378.827	331.16
379.208	316.25
379.588	336.81
379.968	310.15
380.349	337.72
380.729	338.62
381.109	316.93
381.489	334.78
381.87	320.99
382.25	333.88
382.63	343.37
383.01	311.73
383.39	324.16
383.77	343.82
384.15	343.59
384.53	355.57
384.91	332.29
385.29	345.63
385.67	343.82
386.049	347.89
386.429	327.77
386.809	339.07
387.189	346.76
387.568	333.42
387.948	351.5
388.328	351.95
388.707	355.12
389.087	358.51
389.466	349.02
389.846	355.57
390.225	363.03
390.605	358.73
390.984	357.6
391.363	370.94
391.743	342.91
392.122	361.22
392.501	372.29
392.881	354.67
393.26	369.13
393.639	356.47
394.018	371.16
394.397	362.35
394.776	354.21
395.155	387.66
395.534	384.95
395.913	377.72
396.292	386.3
396.671	384.04
397.05	385.63
397.429	387.66
397.808	367.32
398.186	376.13
398.565	408.68
398.944	408.45
399.323	401.67
399.701	407.55
400.08	402.35
400.458	398.73
400.837	400.54
401.215	401.44
401.594	389.02
401.972	415.46
402.351	403.03
402.729	416.36
403.107	433.99
403.486	436.47
403.864	439.41
404.242	429.47
404.62	438.51
404.999	427.21
405.377	421.56
405.755	428.56
406.133	446.19
406.511	447.54
406.889	442.8
407.267	445.28
407.645	462.69
408.023	469.92
408.401	469.47
408.779	463.59
409.156	467.21
409.534	485.96
409.912	483.02
410.29	487.77
410.667	501.55
411.045	532.74
411.422	529.35
411.8	528.9
412.178	535.68
412.555	550.59
412.933	532.74
413.31	538.39
413.687	541.33
414.065	566.86
414.442	588.11
414.819	587.43
415.197	577.03
415.574	595.79
415.951	587.88
416.328	603.02
416.705	596.02
417.082	621.55
417.46	613.87
417.837	629.01
418.214	610.7
418.591	635.34
418.967	652.96
419.344	662.68
419.721	659.06
420.098	676.01
420.475	673.3
420.852	684.83
421.228	704.94
421.605	719.63
421.982	719.85
422.358	732.51
422.735	749.46
423.111	733.19
423.488	766.86
423.864	765.28
424.241	772.06
424.617	804.37
424.994	807.99
425.37	823.35
425.746	833.07
426.123	818.61
426.499	868.32
426.875	863.13
427.251	853.86
427.627	878.72
428.003	905.61
428.379	887.76
428.756	906.97
429.132	905.39
429.507	938.83
429.883	935.89
430.259	952.16
430.635	950.58
431.011	965.95
431.387	983.35
431.763	1006.63
432.138	987.64
432.514	1013.86
432.89	1024.25
433.265	1056.12
433.641	1076.91
434.016	1090.01
434.392	1110.35
434.767	1132.95
435.143	1116.68
435.518	1152.61
435.894	1144.48
436.269	1160.75
436.644	1195.55
437.02	1211.14
437.395	1238.26
437.77	1247.07
438.145	1253.4
438.52	1285.71
438.895	1318.48
439.271	1314.64
439.646	1337.01
440.021	1349.67
440.395	1343.34
440.77	1363.45
441.145	1386.28
441.52	1426.28
441.895	1445.71
442.27	1449.33
442.645	1468.99
443.019	1472.15
443.394	1468.53
443.769	1496.33
444.143	1487.29
444.518	1548.76
444.892	1535.43
445.267	1531.13
445.641	1561.87
446.016	1563.9
446.39	1574.07
446.764	1597.8
447.139	1598.25
447.513	1650
447.887	1617.46
448.262	1625.82
448.636	1637.34
449.01	1675.31
449.384	1676.89
449.758	1718.25
450.132	1738.81
450.506	1731.8
450.88	1747.17
451.254	1758.92
451.628	1778.81
452.002	1791.01
452.376	1819.94
452.75	1819.94
453.123	1869.2
453.497	1882.54
453.871	1886.15
454.244	1931.8
454.618	1960.73
454.992	1962.76
455.365	1987.39
455.739	2010.89
456.112	2032.81
456.486	2015.87
456.859	2055.19
457.232	2107.16
457.606	2111.68
457.979	2134.28
458.352	2175.18
458.725	2223.54
459.099	2192.13
459.472	2281.85
459.845	2299.25
460.218	2309.19
460.591	2368.85
460.964	2347.61
461.337	2380.6
461.71	2441.84
462.083	2457.66
462.456	2484.33
462.829	2533.37
463.201	2563.42
463.574	2582.18
463.947	2640.48
464.32	2682.51
464.692	2667.6
465.065	2685.68
465.438	2739.69
465.81	2796.86
466.183	2806.8
466.555	2865.33
466.928	2865.33
467.3	2902.17
467.672	2936.07
468.045	3013.58
468.417	3037.76
468.789	3092.22
469.161	3126.34
469.534	3172.9
469.906	3246.79
470.278	3296.06
470.65	3316.85
471.022	3380.57
471.394	3471.19
471.766	3496.73
472.138	3541.7
472.51	3641.81
472.882	3700.34
473.253	3738.76
473.625	3787.8
473.997	3888.81
474.369	3881.13
474.74	3999.54
475.112	3991.63
475.484	4088.58
475.855	4237.05
476.227	4219.2
476.598	4370.61
476.97	4435.01
477.341	4491.51
477.713	4586.19
478.084	4637.72
478.455	4728.34
478.827	4814.66
479.198	4979.85
479.569	4940.76
479.94	5117.25
480.311	5170.81
480.682	5296.46
481.053	5467.75
481.424	5496
481.795	5568.31
482.166	5744.13
482.537	5779.83
482.908	5935.54
483.279	5991.58
483.65	6133.72
484.021	6218.47
484.391	6325.13
484.762	6399.48
485.133	6475.86
485.503	6520.38
485.874	6700.04
486.244	6773.48
486.615	6933.7
486.985	7008.05
487.356	7192.23
487.726	7234.71
488.097	7358.78
488.467	7394.03
488.837	7620.69
489.207	7696.39
489.578	7824.75
489.948	7911.98
490.318	8027.23
490.688	8103.39
491.058	8226.1
491.428	8304.74
491.798	8419.31
492.168	8578.86
492.538	8650.27
492.908	8774.56
493.278	8907.21
493.648	8892.97
494.017	8997.83
494.387	9040.09
494.757	9138.16
495.126	9240.76
495.496	9320.31
495.866	9372.06
496.235	9476.46
496.605	9537.25
496.974	9584.48
497.344	9704.25
497.713	9702.44
498.082	9829.22
498.452	9902.21
498.821	9986.5
499.19	9971.36
499.559	10103.34
499.928	10112.38
500.298	10169.55
500.667	10206.16
501.036	10136.33
501.405	10343.56
501.774	10364.12
502.143	10412.93
502.512	10494.29
502.88	10589.42
503.249	10531.12
503.618	10598.24
503.987	10632.81
504.356	10640.5
504.724	10709.42
505.093	10745.13
505.462	10753.26
505.83	10878.23
506.199	10927.04
506.567	11029.41
506.936	10980.83
507.304	11066.25
507.672	11086.36
508.041	11134.5
508.409	11200.03
508.777	11280.93
509.145	11310.99
509.514	11289.29
509.882	11269.63
510.25	11309.63
510.618	11327.94
510.986	11356.41
511.354	11477.09
511.722	11464.2
512.09	11511.21
512.458	11454.26
512.826	11563.64
513.193	11598.21
513.561	11574.26
513.929	11695.38
514.297	11671.43
514.664	11735.38
515.032	11769.73
515.4	11804.53
515.767	11814.03
516.135	11837.08
516.502	11751.2
516.869	11840.92
517.237	11867.58
517.604	11800.69
517.972	11934.25
518.339	11885.89
518.706	11928.6
519.073	11954.13
519.44	12019.9
519.808	12038.88
520.175	11907.36
520.542	12143.73
520.909	12134.92
521.276	12055.6
521.643	12100.8
522.009	12153.68
522.376	12160.23
522.743	12190.74
523.11	12267.57
523.477	12249.95
523.843	12315.71
524.21	12304.41
524.577	12350.51
524.943	12317.29
525.31	12287.91
525.676	12425.31
526.043	12335.82
526.409	12362.03
526.776	12454.91
527.142	12360.9
527.508	12424.86
527.874	12512.31
528.241	12437.51
528.607	12454.01
528.973	12471.86
529.339	12379.43
529.705	12484.29
530.071	12426.66
530.437	12428.92
530.803	12383.95
531.169	12386.67
531.535	12336.72
531.901	12325.88
532.267	12286.1
532.632	12348.93
532.998	12270.28
533.364	12274.8
533.73	12268.93
534.095	12423.28
534.461	12198.65
534.826	12271.64
535.192	12238.2
535.557	12251.08
535.923	12124.98
536.288	12184.41
536.653	12101.25
537.019	12051.99
537.384	11949.84
537.749	11943.74
538.114	11941.48
538.479	11838.66
538.845	11888.15
539.21	11753.69
539.575	11791.43
539.94	11760.47
540.305	11645.22
540.67	11687.02
541.034	11584.43
541.399	11613.35
541.764	11607.93
542.129	11465.79
542.494	11512.34
542.858	11466.92
543.223	11439.12
543.587	11442.06
543.952	11297.65
544.316	11221.05
544.681	11251.55
545.045	11194.15
545.41	11145.12
545.774	11149.41
546.138	11079.81
546.503	11114.83
546.867	11017.21
547.231	10918.46
547.595	10902.19
547.959	10918
548.324	10777.22
548.688	10821.51
549.052	10836.2
549.416	10724.11
549.779	10673.26
550.143	10621.51
550.507	10631.01
550.871	10641.63
551.235	10460.39
551.599	10538.8
551.962	10463.78
552.326	10404.12
552.689	10437.11
553.053	10316.21
553.417	10280.05
553.78	10311.69
554.143	10310.79
554.507	10268.76
554.87	10171.36
555.234	10211.81
555.597	10196.67
555.96	10126.16
556.323	10046.61
556.686	10059.27
557.05	10124.58
557.413	10051.59
557.776	10026.05
558.139	9974.98
558.502	9941.08
558.865	9958.26
559.228	10004.58
559.59	9937.46
559.953	9907.86
560.316	9934.53
560.679	9928.88
561.041	9945.37
561.404	9912.38
561.767	9895.66
562.129	9794.19
562.492	9871.03
562.854	9853.17
563.217	9833.06
563.579	9839.16
563.941	9759.84
564.304	9874.87
564.666	9843
565.028	9870.35
565.39	9810.46
565.753	9881.19
566.115	9793.29
566.477	9766.85
566.839	9792.84
567.201	9892.49
567.563	9826.73
567.925	9859.05
568.287	9793.74
568.648	9761.65
569.01	9877.81
569.372	9833.06
569.734	9779.5
570.095	9779.05
570.457	9857.24
570.819	9801.88
571.18	9797.81
571.542	9875.32
571.903	9754.64
572.265	9803.91
572.626	9843.23
572.987	9773.63
573.349	9851.37
573.71	9848.65
574.071	9831.03
574.432	9842.33
574.794	9952.61
575.155	9868.99
575.516	9759.62
575.877	9844.59
576.238	9865.83
576.599	9870.12
576.96	9811.14
577.32	9836.68
577.681	9845.04
578.042	9884.36
578.403	9880.74
578.763	9788.09
579.124	9761.88
579.485	9843.91
579.845	9840.52
580.206	9784.93
580.566	9843
580.927	9825.38
581.287	9777.47
581.648	9780.63
582.008	9815.43
582.368	9763.46
582.728	9808.65
583.089	9790.58
583.449	9664.93
583.809	9736.79
584.169	9735.44
584.529	9756.9
584.889	9797.81
585.249	9718.94
585.609	9665.61
585.969	9647.75
586.329	9661.54
586.688	9706.96
587.048	9713.74
587.408	9636.68
587.768	9645.95
588.127	9611.6
588.487	9653.18
588.846	9666.51
589.206	9611.82
589.565	9604.82
589.925	9615.21
590.284	9570.47
590.643	9562.33
591.003	9615.67
591.362	9630.13
591.721	9505.84
592.08	9596.68
592.44	9588.77
592.799	9603.01
593.158	9480.3
593.517	9504.93
593.876	9463.8
594.235	9483.69
594.593	9487.08
594.952	9534.31
595.311	9446.63
595.67	9488.66
596.029	9475.56
596.387	9503.35
596.746	9456.35
597.104	9506.97
597.463	9471.94
597.822	9469
598.18	9385.39
598.538	9405.5
598.897	9430.36
599.255	9358.5
599.613	9522.11
599.972	9433.07
600.33	9413.86
600.688	9368.89
601.046	9421.55
601.404	9422.45
601.762	9366.18
602.12	9330.25
602.478	9446.86
602.836	9391.49
603.194	9367.54
603.552	9391.26
603.91	9319.63
604.268	9336.12
604.625	9315.33
604.983	9407.08
605.341	9379.51
605.698	9376.12
606.056	9361.66
606.413	9367.54
606.771	9417.93
607.128	9397.59
607.485	9407.76
607.843	9382
608.2	9407.08
608.557	9396.01
608.914	9359.63
609.272	9426.29
609.629	9461.55
609.986	9433.52
610.343	9467.87
610.7	9502.67
611.057	9404.82
611.414	9419.96
611.771	9400.98
612.127	9417.03
612.484	9433.07
612.841	9503.8
613.198	9479.17
613.554	9395.33
613.911	9502.45
614.267	9450.02
614.624	9478.95
614.98	9457.25
615.337	9488.21
615.693	9530.02
616.05	9535.22
616.406	9556.91
616.762	9516.46
617.118	9488.44
617.475	9496.8
617.831	9504.26
618.187	9491.83
618.543	9517.59
618.899	9556.68
619.255	9554.2
619.611	9547.87
619.967	9584.93
620.323	9585.84
620.678	9542.22
621.034	9544.03
621.39	9511.49
621.746	9486.4
622.101	9586.97
622.457	9611.15
622.812	9554.2
623.168	9586.97
623.523	9591.71
623.879	9645.72
624.234	9532.96
624.589	9603.91
624.945	9577.47
625.3	9589.9
625.655	9624.7
626.01	9579.28
626.365	9549.23
626.72	9595.33
627.075	9491.37
627.43	9586.74
627.785	9482.56
628.14	9527.53
628.495	9559.4
628.85	9524.14
629.205	9467.19
629.559	9509.68
629.914	9450.7
630.269	9455.9
630.623	9411.38
630.978	9486.86
631.332	9439.85
631.687	9511.04
632.041	9430.13
632.396	9408.21
632.75	9414.54
633.104	9410.92
633.459	9333.19
633.813	9343.13
634.167	9302.45
634.521	9331.83
634.875	9383.13
635.229	9338.61
635.583	9312.17
635.937	9299.74
636.291	9311.72
636.645	9291.15
636.999	9290.48
637.352	9233.3
637.706	9261.1
638.06	9261.78
638.413	9266.52
638.767	9214.77
639.121	9172.51
639.474	9176.58
639.828	9215
640.181	9189.46
640.534	9197.37
640.888	9178.84
641.241	9135.68
641.594	9210.7
641.947	9185.85
642.301	9125.28
642.654	9117.37
643.007	9134.32
643.36	9141.78
643.713	9061.78
644.066	9153.53
644.419	9070.37
644.771	9096.13
645.124	8950.15
645.477	8969.13
645.83	8924.38
646.182	8863.37
646.535	8839.87
646.888	8837.61
647.24	8807.55
647.593	8802.35
647.945	8890.03
648.298	8770.49
648.65	8810.71
649.002	8766.42
649.355	8762.13
649.707	8850.26
650.059	8830.6
650.411	8970.03
650.763	8928.68
651.115	9052.74
651.467	9024.95
651.819	9065.85
652.171	9055.68
652.523	8988.34
652.875	9116.24
653.227	9001.44
653.578	9099.07
653.93	9056.13
654.282	8999.18
654.633	9005.96
654.985	8975.91
655.337	9036.25
655.688	9002.35
656.039	9019.97
656.391	9009.35
656.742	8983.14
657.094	9073.53
657.445	8998.51
657.796	9030.82
658.147	9054.78
658.498	9006.64
658.849	9014.78
659.2	9044.61
659.551	9023.36
659.902	9018.39
660.253	8973.42
660.604	9074.89
660.955	9049.8
661.306	9079.63
661.656	9039.41
662.007	9063.36
662.358	9091.84
662.708	9125.51
663.059	9019.97
663.409	9035.34
663.76	9087.54
664.11	9127.32
664.461	9114.21
664.811	9067.21
665.161	9092.74
665.511	9034.66
665.862	9100.2
666.212	9145.17
666.562	9082.12
666.912	9112.4
667.262	9049.35
667.612	9048.45
667.962	9122.34
668.312	9085.06
668.662	9132.29
669.011	9063.36
669.361	9081.67
669.711	9042.57
670.06	9059.75
670.41	9153.53
670.76	9097.26
671.109	9063.82
671.459	9008.68
671.808	9033.31
672.157	9068.56
672.507	9007.32
672.856	9031.05
673.205	9043.48
673.554	9091.39
673.904	9004.61
674.253	9046.64
674.602	8981.11
674.951	8843.26
675.3	8769.81
675.649	8930.94
675.998	8941.78
676.346	8943.82
676.695	8981.78
677.044	8886.42
677.393	8929.81
677.741	8908.34
678.09	8916.02
678.438	8900.66
678.787	8870.37
679.135	8870.6
679.484	8811.84
679.832	8890.94
680.181	8811.17
680.529	8906.98
680.877	8789.25
681.225	8812.52
681.573	8824.95
681.922	8788.57
682.27	8719.87
682.618	8790.83
682.966	8706.54
683.314	8747.89
683.661	8708.12
684.009	8667.44
684.357	8630.15
684.705	8649.14
685.053	8702.69
685.4	8647.78
685.748	8551.06
686.095	8583.15
686.443	8525.52
686.79	8487.33
687.138	8528.46
687.485	8450.72
687.832	8435.81
688.18	8490.5
688.527	8390.39
688.874	8322.59
689.221	8359.43
689.568	8311.07
689.915	8299.54
690.262	8342.7
690.609	8303.84
690.956	8294.57
691.303	8249.83
691.65	8229.26
691.997	8179.09
692.344	8126.21
692.69	8126.44
693.037	8113.78
693.383	8010.74
693.73	8112.2
694.077	8077.4
694.423	7960.12
694.769	7965.09
695.116	7910.17
695.462	7927.57
695.808	7904.98
696.155	7890.29
696.501	7828.82
696.847	7813.68
697.193	7686.9
697.539	7770.74
697.885	7719.22
698.231	7624.76
698.577	7666.34
698.923	7682.83
699.269	7578.66
699.614	7519.68
699.96	7507.47
700.306	7521.03
700.651	7476.29
700.997	7430.19
701.342	7457.76
701.688	7398.1
702.033	7335.5
702.379	7354.26
702.724	7347.25
703.069	7350.87
703.415	7269.51
703.76	7255.5
704.105	7198.33
704.45	7154.26
704.795	7180.93
705.14	7134.15
705.485	7152.45
705.83	7055.05
706.175	7079.69
706.52	7058.67
706.865	7043.08
707.209	7008.5
707.554	6987.94
707.899	7015.73
708.243	6890.31
708.588	6940.93
708.932	6842.4
709.277	6865
709.621	6858.45
709.966	6851.9
710.31	6854.38
710.654	6857.77
710.998	6814.16
711.342	6760.15
711.687	6763.99
712.031	6715.4
712.375	6666.59
712.719	6752.46
713.063	6782.75
713.407	6716.08
713.75	6668.62
714.094	6667.27
714.438	6641.05
714.782	6665.46
715.125	6617.1
715.469	6664.1
715.812	6599.02
716.156	6516.99
716.499	6545.24
716.843	6562.19
717.186	6555.18
717.53	6540.49
717.873	6506.37
718.216	6576.42
718.559	6558.34
718.902	6453.49
719.246	6473.37
719.589	6447.61
719.932	6415.75
720.275	6453.04
720.617	6431.12
720.96	6442.19
721.303	6464.34
721.646	6426.37
721.989	6427.95
722.331	6427.05
722.674	6380.5
723.016	6393.15
723.359	6424.34
723.701	6398.8
724.044	6367.84
724.386	6340.95
724.729	6335.98
725.071	6354.96
725.413	6397.44
725.755	6361.06
726.097	6340.95
726.439	6330.78
726.782	6344.79
727.124	6314.06
727.465	6309.76
727.807	6314.96
728.149	6296.66
728.491	6237
728.833	6322.64
729.175	6299.82
729.516	6305.24
729.858	6357.22
730.199	6306.6
730.541	6322.64
730.882	6314.06
731.224	6326.03
731.565	6287.39
731.906	6314.74
732.248	6303.21
732.589	6330.55
732.93	6267.5
733.271	6302.08
733.612	6310.89
733.953	6330.1
734.294	6334.4
734.635	6267.28
734.976	6359.48
735.317	6267.5
735.658	6307.05
735.999	6359.25
736.339	6366.03
736.68	6326.71
737.021	6355.19
737.361	6302.98
737.702	6360.61
738.042	6318.8
738.383	6381.17
738.723	6401.74
739.063	6368.74
739.404	6332.81
739.744	6412.36
740.084	6394.28
740.424	6392.02
740.764	6401.06
741.104	6441.74
741.444	6434.51
741.784	6476.09
742.124	6513.6
742.464	6554.05
742.804	6527.38
743.143	6554.95
743.483	6523.54
743.823	6524.22
744.162	6623.88
744.502	6669.75
744.841	6629.3
745.181	6695.52
745.52	6657.78
745.86	6758.79
746.199	6783.65
746.538	6782.97
746.877	6866.36
747.216	6923.53
747.556	6951.1
747.895	6912.46
748.234	7042.63
748.573	7084.66
748.911	7099.12
749.25	7135.28
749.589	7260.02
749.928	7291.43
750.267	7361.94
750.605	7454.59
750.944	7470.41
751.283	7561.03
751.621	7675.15
751.96	7742.04
752.298	7852.32
752.636	7951.75
752.975	7974.35
753.313	8025.42
753.651	8199.21
753.989	8218.19
754.327	8382.7
754.666	8442.59
755.004	8604.17
755.342	8791.73
755.679	8861.11
756.017	8968.68
756.355	9113.53
756.693	9192.17
757.031	9400.53
757.368	9574.76
757.706	9647.53
758.044	9807.52
758.381	10056.33
758.719	10068.31
759.056	10283.22
759.394	10479.37
759.731	10540.16
760.068	10705.35
760.405	10898.8
760.743	10985.12
761.08	11222.63
761.417	11339.69
761.754	11547.14
762.091	11642.05
762.428	11787.81
762.765	11914.81
763.102	12172.89
763.438	12347.12
763.775	12474.8
764.112	12631.86
764.449	12755.24
764.785	12976.25
765.122	13026.42
765.458	13250.6
765.795	13416.47
766.131	13529.23
766.467	13623.92
766.804	13770.13
767.14	13932.84
767.476	14150.24
767.812	14172.38
768.148	14455.09
768.485	14440.62
768.821	14504.8
769.157	14663.44
769.492	14884.23
769.828	14987.5
770.164	15017.78
770.5	15153.82
770.836	15374.84
771.171	15386.81
771.507	15542.52
771.842	15383.2
772.178	15649.18
772.513	15761.94
772.849	15833.35
773.184	15868.16
773.519	16022.95
773.855	15997.87
774.19	16116.51
774.525	16187.24
774.86	16363.28
775.195	16453
775.53	16434.24
775.865	16438.31
776.2	16464.07
776.535	16415.49
776.87	16590.62
777.205	16563.28
777.539	16578.65
777.874	16711.75
778.209	16692.09
778.543	16632.2
778.878	16622.49
779.212	16780.45
779.547	16826.1
779.881	16861.35
780.215	16798.3
780.55	16977.05
780.884	16934.12
781.218	16956.49
781.552	16980.22
781.886	16970.27
782.22	16924.63
782.554	16925.08
782.888	16845.98
783.222	16884.63
783.556	16813.44
783.889	16813.44
784.223	16836.72
784.557	16792.65
784.89	16906.32
785.224	16866.1
785.557	16729.6
785.891	16786.78
786.224	16860.45
786.558	16897.96
786.891	16767.57
787.224	16835.14
787.557	16772.77
787.891	16734.57
788.224	16769.38
788.557	16753.1
788.89	16786.55
789.223	16782.93
789.556	16659.32
789.888	16723.73
790.221	16625.2
790.554	16577.52
790.887	16575.93
791.219	16585.88
791.552	16535.71
791.884	16517.63
792.217	16448.71
792.549	16518.99
792.882	16409.38
793.214	16284.64
793.546	16351.08
793.879	16240.8
794.211	16237.19
794.543	16273.12
794.875	16271.31
795.207	16287.58
795.539	16130.07
795.871	16222.27
796.203	16053.01
796.535	15946.35
796.867	16038.32
797.198	16011.43
797.53	16065.21
797.862	15930.08
798.193	15917.42
798.525	15789.97
798.856	15886.01
799.188	15740.7
799.519	15667.26
799.85	15552.23
800.182	15585
800.513	15614.6
800.844	15603.08
801.175	15686.01
801.506	15563.08
801.837	15503.19
802.168	15441.27
802.499	15500.93
802.83	15415.06
803.161	15388.39
803.491	15358.34
803.822	15401.05
804.153	15313.59
804.483	15219.59
804.814	15209.64
805.145	15247.83
805.475	15153.15
805.805	15093.49
806.136	15212.58
806.466	15055.07
806.796	15096.43
807.126	15001.06
807.457	14953.6
807.787	14947.28
808.117	14879.48
808.447	14836.09
808.777	14826.38
809.107	14756.32
809.436	14787.73
809.766	14694.18
810.096	14753.16
810.426	14702.99
810.755	14704.57
811.085	14664.12
811.414	14638.13
811.744	14471.13
812.073	14511.58
812.403	14460.96
812.732	14439.95
813.061	14438.14
813.39	14456.67
813.719	14406.95
814.049	14361.53
814.378	14293.06
814.707	14230.01
815.036	14200.86
815.365	14240.63
815.693	14148.88
816.022	14164.02
816.351	14086.28
816.68	13986.17
817.008	14125.6
817.337	14002.89
817.665	13976
817.994	13963.12
818.322	13900.75
818.651	13857.59
818.979	13925.38
819.307	13939.39
819.636	13900.3
819.964	13858.72
820.292	13940.3
820.62	13879.28
820.948	13830.24
821.276	13869.79
821.604	13847.87
821.932	13847.19
822.259	13811.94
822.587	13840.19
822.915	13815.1
823.243	13866.17
823.57	13733.3
823.898	13761.54
824.225	13795.44
824.553	13743.24
824.88	13835.44
825.207	13807.87
825.535	13781.88
825.862	13893.07
826.189	13820.98
826.516	13854.42
826.843	13918.6
827.17	13828.21
827.497	13887.64
827.824	13932.61
828.151	13849.23
828.478	13835.22
828.805	13918.15
829.131	13872.95
829.458	13826.18
829.785	13791.37
830.111	13758.38
830.438	13880.86
830.764	13794.76
831.09	13831.37
831.417	13804.71
831.743	13852.39
832.069	13818.72
832.395	13723.35
832.722	13797.02
833.048	13773.07
833.374	13783.69
833.7	13778.04
834.026	13746.86
834.351	13779.62
834.677	13803.35
835.003	13757.48
835.329	13743.24
835.654	13674.32
835.98	13638.61
836.306	13697.14
836.631	13681.55
836.956	13674.54
837.282	13627.09
837.607	13594.32
837.932	13586.86
838.258	13628.44
838.583	13604.49
838.908	13511.38
839.233	13530.59
839.558	13436.58
839.883	13424.6
840.208	13460.08
840.533	13397.94
840.858	13429.8
841.182	13408.56
841.507	13329.92
841.832	13243.14
842.156	13205.4
842.481	13269.58
842.805	13192.75
843.13	13154.56
843.454	13164.5
843.778	13100.77
844.103	13075.24
844.427	13023.94
844.751	12971.06
845.075	13017.61
845.399	13001.34
845.723	12922.02
846.047	12971.96
846.371	12808.58
846.695	12808.58
847.019	12724.74
847.343	12660.1
847.666	12645.42
847.99	12583.95
848.313	12590.05
848.637	12506.21
848.96	12483.39
849.284	12480.9
849.607	12358.87
849.931	12319.55
850.254	12183.96
850.577	12136.95
850.9	12113
851.223	12178.08
851.546	12025.09
851.869	11974.47
852.192	12046.11
852.515	11872.33
852.838	11820.58
853.161	11897.19
853.483	11814.7
853.806	11708.72
854.129	11740.81
854.451	11709.85
854.774	11577.2
855.096	11520.93
855.419	11597.08
855.741	11543.3
856.063	11419.23
856.385	11420.59
856.708	11427.6
857.03	11441.83
857.352	11329.52
857.674	11350.31
857.996	11301.04
858.318	11212.46
858.64	11191.89
858.961	11190.99
859.283	11225.57
859.605	11087.26
859.926	11101.5
860.248	11076.64
860.57	10993.93
860.891	11069.41
861.212	11038.45
861.534	10925.01
861.855	10880.72
862.176	10892.69
862.498	10921.17
862.819	10896.54
863.14	10818.8
863.461	10811.79
863.782	10789.87
864.103	10844.56
864.424	10759.82
864.745	10797.56
865.065	10711.46
865.386	10633.04
865.707	10703.77
866.027	10675.75
866.348	10673.26
866.668	10631.46
866.989	10598.69
867.309	10565.02
867.63	10601.18
867.95	10595.98
868.27	10505.81
868.59	10461.97
868.91	10493.16
869.23	10480.95
869.55	10378.81
869.87	10462.2
870.19	10447.96
870.51	10449.09
870.83	10491.12
871.15	10405.25
871.469	10421.07
871.789	10381.75
872.109	10384.68
872.428	10297.46
872.748	10334.52
873.067	10325.7
873.386	10298.13
873.706	10241.19
874.025	10231.02
874.344	10226.5
874.663	10194.18
874.982	10180.17
875.301	10228.08
875.62	10208.64
875.939	10096.78
876.258	10206.84
876.577	10108.76
876.896	10083.22
877.214	10078.03
877.533	10054.3
877.852	10131.81
878.17	10061.08
878.489	10051.36
878.807	10021.08
879.125	10004.13
879.444	9966.62
879.762	10011.36
880.08	9967.97
880.398	9916.45
880.716	9967.97
881.034	9911.93
881.352	9906.51
881.67	9860.18
881.988	9823.34
882.306	9801.65
882.624	9792.84
882.941	9756.45
883.259	9768.43
883.577	9706.51
883.894	9636.46
884.212	9689.79
884.529	9665.16
884.846	9605.5
885.164	9633.52
885.481	9547.64
885.798	9544.71
886.115	9520.75
886.432	9528.66
886.75	9534.54
887.067	9508.1
887.383	9449.34
887.7	9435.33
888.017	9434.88
888.334	9361.66
888.651	9355.11
888.967	9318.72
889.284	9304.26
889.6	9310.59
889.917	9262.68
890.233	9194.21
890.55	9236.92
890.866	9195.56
891.182	9211.61
891.498	9162.57
891.815	9137.26
892.131	9080.76
892.447	9013.65
892.763	8977.26
893.079	9034.66
893.395	8990.14
893.71	9009.81
894.026	8878.51
894.342	8871.05
894.657	8822.69
894.973	8777.27
895.289	8803.94
895.604	8787.44
895.92	8701.79
896.235	8661.11
896.55	8635.58
896.865	8640.32
897.181	8590.38
897.496	8624.05
897.811	8596.71
898.126	8520.78
898.441	8497.73
898.756	8474
899.071	8415.02
899.386	8426.32
899.7	8332.54
900.015	8330.73
900.33	8322.59
900.644	8258.41
900.959	8282.59
901.273	8248.24
901.588	8166.21
901.902	8112.88
902.216	8172.31
902.531	8036.05
902.845	8106.55
903.159	8028.81
903.473	7994.01
903.787	7986.78
904.101	7957.63
904.415	7904.75
904.729	7905.65
905.042	7815.94
905.356	7841.02
905.67	7832.44
905.984	7804.19
906.297	7752.66
906.611	7702.5
906.924	7681.48
907.237	7653
907.551	7585.89
907.864	7577.98
908.177	7527.36
908.491	7497.75
908.804	7516.51
909.117	7465.67
909.43	7422.73
909.743	7420.47
910.056	7330.75
910.368	7373.92
910.681	7288.04
910.994	7299.57
911.307	7192.9
911.619	7169.4
911.932	7174.83
912.244	7123.98
912.557	7125.34
912.869	7098.22
913.181	7045.11
913.494	7035.17
913.806	6992.23
914.118	6980.48
914.43	6951.33
914.742	6919.24
915.054	6853.7
915.366	6880.82
915.678	6869.97
915.99	6796.53
916.302	6765.57
916.613	6703.88
916.925	6765.34
917.236	6727.15
917.548	6708.17
917.859	6634.95
918.171	6604.9
918.482	6564.22
918.794	6516.09
919.105	6606.7
919.416	6514.05
919.727	6479.25
920.038	6476.99
920.349	6467.5
920.66	6427.27
920.971	6436.54
921.282	6362.19
921.593	6372.13
921.903	6304.79
922.214	6304.11
922.525	6250.78
922.835	6234.29
923.146	6225.47
923.456	6213.49
923.767	6239.03
924.077	6188.86
924.387	6162.42
924.697	6114.51
925.008	6063.89
925.318	6020.96
925.628	6045.14
925.938	5996.33
926.248	5937.57
926.558	5918.81
926.867	5914.07
927.177	5864.8
927.487	5847.63
927.796	5804.01
928.106	5768.08
928.416	5791.59
928.725	5782.77
929.034	5708.65
929.344	5766.5
929.653	5769.44
929.962	5637.01
930.271	5680.18
930.581	5651.7
930.89	5583.68
931.199	5599.95
931.508	5535.55
931.817	5558.6
932.125	5503.68
932.434	5526.06
932.743	5445.61
933.051	5456
933.36	5404.93
933.669	5403.35
933.977	5363.57
934.286	5401.31
934.594	5360.18
934.902	5300.3
935.21	5301.2
935.519	5296.68
935.827	5285.16
936.135	5230.02
936.443	5205.16
936.751	5157.7
937.059	5196.8
937.367	5147.31
937.674	5162
937.982	5095.33
938.29	5055.79
938.597	5079.51
938.905	5020.08
939.213	5033.64
939.52	4991.61
939.827	4967.88
940.135	4947.77
940.442	4947.54
940.749	4942.57
941.056	4915.68
941.363	4891.04
941.67	4854.21
941.977	4799.29
942.284	4773.08
942.591	4827.32
942.898	4774.89
943.205	4713.42
943.511	4743.93
943.818	4695.79
944.125	4729.01
944.431	4694.44
944.738	4629.81
945.044	4572.86
945.35	4576.48
945.657	4578.28
945.963	4585.29
946.269	4566.53
946.575	4558.85
946.881	4524.73
947.187	4461.68
947.493	4483.14
947.799	4479.08
948.105	4455.12
948.41	4448.12
948.716	4406.99
949.022	4366.54
949.327	4378.97
949.633	4334.9
949.938	4321.79
950.244	4315.69
950.549	4302.81
950.854	4233.43
951.16	4269.14
951.465	4236.37
951.77	4172.87
952.075	4197.5
952.38	4162.25
952.685	4184.17
952.99	4149.14
953.294	4152.31
953.599	4095.81
953.904	4053.33
954.209	4085.19
954.513	4040.67
954.818	4032.31
955.122	3982.14
955.426	3997.51
955.731	3963.84
956.035	3962.03
956.339	3973.1
956.643	3956.61
956.948	3954.35
957.252	3925.87
957.556	3877.74
957.86	3874.8
958.163	3900.11
958.467	3844.97
958.771	3797.29
959.075	3808.36
959.378	3763.62
959.682	3797.97
959.985	3782.6
960.289	3751.64
960.592	3740.57
960.896	3737.63
961.199	3687.23
961.502	3678.42
961.805	3651.53
962.108	3638.65
962.411	3632.32
962.714	3600.23
963.017	3624.41
963.32	3596.84
963.623	3609.95
963.926	3590.74
964.228	3592.55
964.531	3529.5
964.833	3505.54
965.136	3472.78
965.438	3462.38
965.741	3506.45
966.043	3451.31
966.345	3404.08
966.648	3442.27
966.95	3390.52
967.252	3400.69
967.554	3355.72
967.856	3359.78
968.158	3324.98
968.46	3324.53
968.761	3328.6
969.063	3289.5
969.365	3286.57
969.666	3303.74
969.968	3258.54
970.269	3258.54
970.571	3245.89
970.872	3199.79
971.174	3175.61
971.475	3187.13
971.776	3150.75
972.077	3167.7
972.378	3164.31
972.679	3128.38
972.98	3121.82
973.281	3088.83
973.582	3082.28
973.883	3115.72
974.183	3061.04
974.484	3073.46
974.785	3015.84
975.085	3044.99
975.386	3040.47
975.686	3006.35
975.986	3038.21
976.287	2999.79
976.587	2969.74
976.887	2951.43
977.187	2958.21
977.487	2901.72
977.787	2915.5
978.087	2879.57
978.387	2865.79
978.687	2901.04
978.987	2831.89
979.286	2847.71
979.586	2816.52
979.885	2812.68
980.185	2822.17
980.484	2782.17
980.784	2786.24
981.083	2766.81
981.382	2768.84
981.682	2765
981.981	2720.48
982.28	2723.19
982.579	2710.54
982.878	2744.43
983.177	2685.23
983.475	2674.38
983.774	2662.18
984.073	2635.74
984.372	2648.84
984.67	2607.94
984.969	2638.45
985.267	2645.45
985.566	2612.69
985.864	2609.75
986.162	2570.43
986.461	2552.57
986.759	2560.71
987.057	2544.21
987.355	2536.3
987.653	2506.93
987.951	2511.9
988.249	2501.28
988.547	2482.97
988.844	2504.44
989.142	2479.81
989.44	2452.46
989.737	2429.87
990.035	2413.59
990.332	2406.36
990.63	2393.48
990.927	2389.41
991.224	2376.53
991.521	2373.82
991.819	2361.39
992.116	2366.36
992.413	2342.41
992.71	2329.08
993.006	2303.32
993.303	2327.04
993.6	2287.5
993.897	2258.12
994.193	2264.45
994.49	2244.79
994.787	2234.39
995.083	2221.96
995.379	2229.87
995.676	2185.58
995.972	2186.93
996.268	2212.02
996.565	2191.45
996.861	2201.62
997.157	2176.99
997.453	2133.15
997.749	2136.99
998.044	2124.56
998.34	2151.45
998.636	2120.04
998.932	2081.17
999.227	2059.93
999.523	2076.65
999.818	2075.98
1000.114	2058.35
1000.409	2040.27
1000.704	2049.08
1001	2040.05
1001.295	1996.2
1001.59	2030.78
1001.885	2020.84
1002.18	1992.81
1002.475	1971.8
1002.77	1935.64
1003.065	1928.18
1003.359	1928.41
1003.654	1942.87
1003.949	1939.48
1004.243	1910.56
1004.538	1891.12
1004.832	1915.75
1005.127	1875.98
1005.421	1893.38
1005.715	1895.87
1006.009	1838.69
1006.304	1827.62
1006.598	1855.19
1006.892	1809.54
1007.186	1795.08
1007.48	1809.54
1007.773	1803.67
1008.067	1787.4
1008.361	1725.03
1008.655	1746.27
1008.948	1719.6
1009.242	1705.14
1009.535	1733.39
1009.829	1704.46
1010.122	1699.04
1010.415	1699.94
1010.708	1680.28
1011.001	1664.91
1011.295	1625.14
1011.588	1659.94
1011.881	1654.74
1012.173	1631.69
1012.466	1595.76
1012.759	1627.85
1013.052	1614.52
1013.344	1615.65
1013.637	1591.47
1013.93	1615.88
1014.222	1577.01
1014.514	1572.49
1014.807	1579.27
1015.099	1543.56
1015.391	1559.83
1015.683	1524.58
1015.976	1527.06
1016.268	1477.35
1016.56	1492.71
1016.851	1488.42
1017.143	1497.69
1017.435	1469.21
1017.727	1470.57
1018.018	1446.39
1018.31	1454.75
1018.602	1431.7
1018.893	1409.78
1019.185	1429.44
1019.476	1410.23
1019.767	1422.43
1020.058	1407.75
1020.35	1395.77
1020.641	1360.29
1020.932	1355.09
1021.223	1359.61
1021.514	1336.11
1021.804	1323.91
1022.095	1349.67
1022.386	1328.2
1022.677	1307.41
1022.967	1301.99
1023.258	1287.97
1023.548	1278.71
1023.839	1280.97
1024.129	1268.54
1024.419	1250.91
1024.709	1264.25
1025	1265.6
1025.29	1233.06
1025.58	1224.02
1025.87	1206.17
1026.16	1227.64
1026.449	1209.56
1026.739	1198.71
1027.029	1184.93
1027.319	1194.87
1027.608	1198.71
1027.898	1208.43
1028.187	1164.36
1028.477	1178.37
1028.766	1121.65
1029.055	1117.13
1029.344	1145.15
1029.634	1110.13
1029.923	1146.96
1030.212	1132.05
1030.501	1097.47
1030.79	1105.38
1031.078	1091.6
1031.367	1095.44
1031.656	1073.29
1031.945	1059.51
1032.233	1087.3
1032.522	1060.41
1032.81	1061.31
1033.099	1049.34
1033.387	1032.61
1033.675	1019.51
1033.963	1013.41
1034.251	1026.51
1034.54	1005.95
1034.828	1032.39
1035.116	993.97
1035.403	997.36
1035.691	1018.15
1035.979	998.72
1036.267	952.39
1036.554	958.72
1036.842	959.62
1037.129	957.36
1037.417	944.93
1037.704	953.07
1037.992	947.87
1038.279	926.18
1038.566	930.7
1038.853	930.7
1039.14	930.7
