Data from hue_110_FLMS001491_00063.txt Node
Date: Tue Feb 07 17:01:39 GMT 2017
User: dcchb
Spectrometer: FLMS00149
Trigger mode: 0
Integration Time (sec): 2.000000E-2
Scans to average: 10
Electric dark correction enabled: true
Nonlinearity correction enabled: false
Boxcar width: 0
XAxis mode: Wavelengths
Number of Pixels in Spectrum: 2048
>>>>>Begin Spectral Data<<<<<
341.393	-1.26
341.776	-1.26
342.16	-1.26
342.543	-35.61
342.927	-68.15
343.31	-79.9
343.693	-82.16
344.077	-54.81
344.46	-72.22
344.843	-66.79
345.226	-37.41
345.61	-29.96
345.993	-24.31
346.376	19.76
346.759	14.34
347.142	24.73
347.525	37.84
347.908	55.46
348.291	85.52
348.674	107.21
349.057	102.7
349.44	119.64
349.823	127.1
350.206	169.81
350.588	196.93
350.971	199.87
351.354	221.79
351.737	228.57
352.119	242.35
352.502	261.11
352.884	272.18
353.267	277.61
353.65	299.98
354.032	285.06
354.414	312.86
354.797	310.37
355.179	322.35
355.562	318.06
355.944	328.23
356.326	321.45
356.709	337.49
357.091	342.46
357.473	339.3
357.855	344.72
358.238	329.13
358.62	341.11
359.002	349.92
359.384	363.48
359.766	340.43
360.148	332.75
360.53	331.39
360.912	338.62
361.294	330.26
361.676	312.86
362.057	322.35
362.439	333.88
362.821	323.25
363.203	353.54
363.584	331.62
363.966	327.1
364.348	318.51
364.729	311.96
365.111	325.51
365.493	328
365.874	293.65
366.256	326.87
366.637	333.88
367.019	311.96
367.4	311.73
367.781	320.99
368.163	323.93
368.544	291.62
368.925	319.64
369.306	311.96
369.688	312.18
370.069	315.12
370.45	310.15
370.831	329.13
371.212	315.57
371.593	326.42
371.974	311.96
372.355	300.43
372.736	303.59
373.117	321.67
373.498	283.71
373.879	335.01
374.26	322.58
374.641	324.61
375.021	305.18
375.402	309.47
375.783	332.97
376.163	329.81
376.544	336.59
376.925	342.91
377.305	316.93
377.686	354.67
378.066	327.55
378.447	333.65
378.827	314.21
379.208	329.36
379.588	331.84
379.968	330.49
380.349	333.65
380.729	334.78
381.109	343.82
381.489	351.95
381.87	350.37
382.25	349.69
382.63	332.75
383.01	326.64
383.39	333.65
383.77	352.18
384.15	360.54
384.53	342.91
384.91	343.14
385.29	355.34
385.67	350.6
386.049	374.78
386.429	334.1
386.809	344.04
387.189	361.9
387.568	354.89
387.948	362.58
388.328	367.09
388.707	342.01
389.087	346.98
389.466	343.82
389.846	365.96
390.225	367.32
390.605	337.72
390.984	366.42
391.363	374.1
391.743	390.37
392.122	384.27
392.501	378.85
392.881	390.82
393.26	373.87
393.639	375
394.018	369.81
394.397	377.94
394.776	374.33
395.155	371.39
395.534	395.79
395.913	384.27
396.292	396.92
396.671	391.28
397.05	395.79
397.429	408.45
397.808	391.28
398.186	410.94
398.565	413.65
398.944	388.56
399.323	398.28
399.701	405.06
400.08	430.6
400.458	402.57
400.837	418.39
401.215	405.51
401.594	395.57
401.972	418.39
402.351	416.59
402.729	414.1
403.107	409.35
403.486	426.98
403.864	435.57
404.242	432.63
404.62	449.58
404.999	444.38
405.377	442.8
405.755	446.41
406.133	427.66
406.511	439.18
406.889	458.62
407.267	439.86
407.645	449.35
408.023	449.35
408.401	459.75
408.779	453.65
409.156	467.21
409.534	463.59
409.912	471.72
410.29	459.3
410.667	467.66
411.045	493.19
411.422	492.74
411.8	470.14
412.178	494.32
412.555	480.76
412.933	474.21
413.31	496.58
413.687	487.54
414.065	498.62
414.442	515.79
414.819	505.4
415.197	487.32
415.574	503.59
415.951	491.16
416.328	516.92
416.705	530.25
417.082	524.6
417.46	528.67
417.837	517.83
418.214	527.54
418.591	556.24
418.967	526.64
419.344	549.01
419.721	525.28
420.098	530.48
420.475	577.03
420.852	563.02
421.228	546.98
421.605	554.66
421.982	549.69
422.358	565.96
422.735	567.99
423.111	586.07
423.488	580.42
423.864	589.46
424.241	604.6
424.617	588.78
424.994	595.79
425.37	614.77
425.746	614.77
426.123	605.51
426.499	616.81
426.875	645.96
427.251	633.98
427.627	629.01
428.003	640.76
428.379	637.6
428.756	629.69
429.132	632.17
429.507	656.58
429.883	666.52
430.259	667.43
430.635	647.77
431.011	666.52
431.387	678.73
431.763	695.67
432.138	687.31
432.514	693.87
432.89	720.76
433.265	706.07
433.641	742
434.016	741.55
434.392	735.67
434.767	742.9
435.143	735.45
435.518	741.32
435.894	741.77
436.269	768.67
436.644	757.14
437.02	772.73
437.395	756.24
437.77	779.74
438.145	816.57
438.52	802.79
438.895	839.62
439.271	829
439.646	819.96
440.021	844.82
440.395	833.07
440.77	847.76
441.145	848.21
441.52	871.26
441.895	841.88
442.27	846.63
442.645	861.77
443.019	889.57
443.394	881.66
443.769	879.4
444.143	879.85
444.518	903.8
444.892	892.28
445.267	896.12
445.641	908.32
446.016	924.37
446.39	907.65
446.764	937.93
447.139	949
447.513	935.89
447.887	956.91
448.262	968.89
448.636	974.54
449.01	943.12
449.384	972.05
449.758	996.46
450.132	962.79
450.506	985.16
450.88	1007.08
451.254	994.65
451.628	1017.25
452.002	1032.84
452.376	1028.55
452.75	1038.72
453.123	1032.61
453.497	1081.2
453.871	1060.86
454.244	1106.06
454.618	1106.74
454.992	1142.44
455.365	1123.46
455.739	1151.03
456.112	1177.92
456.486	1162.1
456.859	1179.95
457.232	1197.58
457.606	1179.28
457.979	1219.28
458.352	1221.54
458.725	1265.6
459.099	1246.85
459.472	1285.71
459.845	1301.31
460.218	1302.21
460.591	1308.54
460.964	1301.08
461.337	1333.62
461.71	1381.98
462.083	1381.31
462.456	1372.04
462.829	1391.02
463.201	1453.85
463.574	1454.75
463.947	1473.51
464.32	1466.5
464.692	1505.82
465.065	1519.61
465.438	1517.12
465.81	1569.32
466.183	1595.99
466.555	1598.25
466.928	1634.41
467.3	1615.88
467.672	1661.98
468.045	1723.9
468.417	1732.26
468.789	1765.7
469.161	1779.26
469.534	1831.69
469.906	1837.56
470.278	1909.43
470.65	1900.16
471.022	1978.35
471.394	1995.3
471.766	2023.55
472.138	2075.3
472.51	2130.21
472.882	2152.36
473.253	2182.64
473.625	2224.67
473.997	2283.2
474.369	2353.48
474.74	2337.89
475.112	2439.81
475.484	2510.32
475.855	2584.89
476.227	2602.06
476.598	2694.04
476.97	2721.16
477.341	2802.51
477.713	2877.31
478.084	2930.64
478.455	3051.77
478.827	3099.45
479.198	3206.57
479.569	3243.86
479.94	3385.32
480.311	3423.96
480.682	3527.46
481.053	3644.3
481.424	3729.94
481.795	3841.81
482.166	3930.17
482.537	3973.33
482.908	4124.96
483.279	4192.76
483.65	4335.8
484.021	4481.56
484.391	4580.32
484.762	4653.76
485.133	4766.75
485.503	4901.89
485.874	5032.96
486.244	5168.55
486.615	5277.93
486.985	5443.35
487.356	5611.93
487.726	5709.33
488.097	5844.69
488.467	5970.11
488.837	6152.03
489.207	6257.11
489.578	6412.59
489.948	6515.41
490.318	6713.82
490.688	6805.57
491.058	6901.84
491.428	7103.19
491.798	7264.09
492.168	7479.22
492.538	7576.17
492.908	7717.64
493.278	7908.14
493.648	7993.34
494.017	8148.13
494.387	8279.2
494.757	8398.52
495.126	8595.13
495.496	8747.89
495.866	8773.43
496.235	8918.28
496.605	9076.7
496.974	9231.72
497.344	9379.51
497.713	9467.42
498.082	9589.9
498.452	9769.11
498.821	9850.46
499.19	9902.66
499.559	10105.37
499.928	10273.95
500.298	10260.39
500.667	10452.48
501.036	10477.79
501.405	10625.36
501.774	10685.02
502.143	10843.43
502.512	10989.19
502.88	11130.88
503.249	11139.69
503.618	11191.22
503.987	11355.96
504.356	11430.76
504.724	11488.84
505.093	11612.9
505.462	11699.45
505.83	11764.99
506.199	11893.8
506.567	12031.42
506.936	11996.85
507.304	12144.41
507.672	12280.91
508.041	12393.9
508.409	12367.91
508.777	12512.31
509.145	12590.95
509.514	12578.07
509.882	12681.12
510.25	12732.42
510.618	12902.81
510.986	12927.44
511.354	12988.46
511.722	13107.55
512.09	13235.46
512.458	13201.56
512.826	13341.89
513.193	13324.72
513.561	13299.41
513.929	13483.59
514.297	13562.91
514.664	13640.64
515.032	13602
515.4	13783.92
515.767	13792.73
516.135	13876.12
516.502	13791.6
516.869	13949.56
517.237	14037.7
517.604	13969.45
517.972	14109.78
518.339	14117.69
518.706	14117.02
519.073	14182.32
519.44	14260.29
519.808	14348.65
520.175	14352.94
520.542	14531.92
520.909	14549.55
521.276	14498.47
521.643	14608.75
522.009	14641.75
522.376	14741.86
522.743	14755.42
523.11	14879.71
523.477	14954.73
523.843	14903.89
524.21	15067.5
524.577	15127.84
524.943	15094.84
525.31	15198.12
525.676	15200.83
526.043	15217.1
526.409	15278.34
526.776	15409.19
527.142	15425.46
527.508	15337.77
527.874	15451.22
528.241	15431.33
528.607	15439.69
528.973	15538.9
529.339	15496.19
529.705	15550.88
530.071	15665.68
530.437	15641.04
530.803	15613.02
531.169	15639.69
531.535	15627.26
531.901	15608.05
532.267	15659.12
532.632	15708.16
532.998	15645.56
533.364	15757.88
533.73	15660.93
534.095	15777.09
534.461	15765.33
534.826	15759.23
535.192	15774.15
535.557	15819.57
535.923	15758.33
536.288	15644.89
536.653	15650.99
537.019	15621.84
537.384	15603.53
537.749	15665.22
538.114	15639.69
538.479	15660.03
538.845	15616.64
539.21	15561.95
539.575	15555.17
539.94	15610.54
540.305	15585.68
540.67	15516.53
541.034	15435.63
541.399	15454.83
541.764	15430.43
542.129	15494.83
542.494	15413.25
542.858	15479.69
543.223	15393.37
543.587	15381.84
543.952	15338.45
544.316	15352.46
544.681	15234.5
545.045	15281.05
545.41	15309.75
545.774	15237.89
546.138	15189.08
546.503	15135.97
546.867	15187.72
547.231	15163.54
547.595	15182.52
547.959	15137.55
548.324	15051.68
548.688	15042.64
549.052	15129.19
549.416	14951.8
549.779	15006.94
550.143	14991.34
550.507	14990.44
550.871	14906.37
551.235	14978.46
551.599	14979.37
551.962	14787.28
552.326	14839.71
552.689	14876.54
553.053	14659.6
553.417	14738.92
553.78	14851.91
554.143	14829.77
554.507	14878.58
554.87	14740.95
555.234	14843.32
555.597	14778.47
555.96	14792.48
556.323	14720.39
556.686	14789.54
557.05	14765.59
557.413	14678.58
557.776	14759.03
558.139	14734.17
558.502	14754.29
558.865	14615.08
559.228	14697.34
559.59	14687.4
559.953	14757.9
560.316	14774.85
560.679	14745.25
561.041	14823.89
561.404	14826.83
561.767	14861.85
562.129	14711.8
562.492	14879.71
562.854	14820.27
563.217	14773.04
563.579	14768.75
563.941	14892.36
564.304	14902.76
564.666	14976.65
565.028	14946.82
565.39	15000.61
565.753	14954.06
566.115	15006.03
566.477	14967.16
566.839	14989.31
567.201	15052.58
567.563	15089.42
567.925	15093.94
568.287	15128.06
568.648	15133.71
569.01	15104.33
569.372	15221.39
569.734	15087.61
570.095	15202.86
570.457	15222.3
570.819	15183.88
571.18	15261.84
571.542	15250.09
571.903	15212.13
572.265	15276.53
572.626	15268.4
572.987	15335.97
573.349	15398.34
573.71	15331.22
574.071	15238.57
574.432	15374.16
574.794	15413.03
575.155	15322.63
575.516	15363.54
575.877	15475.62
576.238	15436.08
576.599	15435.63
576.96	15471.78
577.32	15398.34
577.681	15418.9
578.042	15512.01
578.403	15451.9
578.763	15520.59
579.124	15438.56
579.485	15474.27
579.845	15569.18
580.206	15435.85
580.566	15488.28
580.927	15458.22
581.287	15499.58
581.648	15478.11
582.008	15519.01
582.368	15399.69
582.728	15425.68
583.089	15522.85
583.449	15389.75
583.809	15413.7
584.169	15489.86
584.529	15413.7
584.889	15456.19
585.249	15435.4
585.609	15335.74
585.969	15466.36
586.329	15414.61
586.688	15358.79
587.048	15392.91
587.408	15333.26
587.768	15309.75
588.127	15345.68
588.487	15259.36
588.846	15390.65
589.206	15363.31
589.565	15285.8
589.925	15267.72
590.284	15285.57
590.643	15344.78
591.003	15328.28
591.362	15369.64
591.721	15312.01
592.08	15251.68
592.44	15366.47
592.799	15320.37
593.158	15273.6
593.517	15172.81
593.876	15254.16
594.235	15242.64
594.593	15136.42
594.952	15247.83
595.311	15111.11
595.67	15129.87
596.029	15316.08
596.387	15315.63
596.746	15291.9
597.104	15118.35
597.463	15192.24
597.822	15230.88
598.18	15135.07
598.538	15153.82
598.897	15165.8
599.255	14961.51
599.613	15177.33
599.972	15183.65
600.33	15225.01
600.688	15141.62
601.046	15168.74
601.404	15306.14
601.762	15131.23
602.12	15246.48
602.478	15258.23
602.836	15209.64
603.194	15148.18
603.552	15162.41
603.91	15088.52
604.268	15184.11
604.625	15143.43
604.983	15212.13
605.341	15150.43
605.698	15153.6
606.056	15209.64
606.413	15255.29
606.771	15258.91
607.128	15170.32
607.485	15181.62
607.843	15153.82
608.2	15196.99
608.557	15342.52
608.914	15236.76
609.272	15254.16
609.629	15311.33
609.986	15361.5
610.343	15258
610.7	15308.85
611.057	15270.88
611.414	15192.47
611.771	15228.63
612.127	15372.12
612.484	15358.34
612.841	15396.53
613.198	15363.08
613.554	15341.84
613.911	15438.56
614.267	15501.16
614.624	15520.59
614.98	15533.25
615.337	15497.54
615.693	15487.83
616.05	15482.63
616.406	15602.4
616.762	15440.37
617.118	15520.82
617.475	15515.17
617.831	15642.63
618.187	15635.62
618.543	15578.67
618.899	15693.92
619.255	15629.07
619.611	15605.34
619.967	15685.11
620.323	15657.09
620.678	15615.73
621.034	15551.33
621.39	15563.31
621.746	15551.33
622.101	15768.95
622.457	15639.69
622.812	15620.71
623.168	15648.5
623.523	15740.02
623.879	15670.65
624.234	15535.51
624.589	15617.32
624.945	15676.3
625.3	15709.52
625.655	15665.45
626.01	15671.1
626.365	15628.39
626.72	15622.51
627.075	15663.64
627.43	15629.52
627.785	15575.96
628.14	15628.61
628.495	15613.7
628.85	15633.13
629.205	15446.7
629.559	15776.18
629.914	15567.83
630.269	15629.52
630.623	15578.67
630.978	15478.79
631.332	15581.61
631.687	15569.18
632.041	15514.27
632.396	15481.5
632.75	15354.05
633.104	15498.45
633.459	15305.69
633.813	15419.58
634.167	15477.88
634.521	15310.88
634.875	15384.78
635.229	15328.74
635.583	15222.75
635.937	15221.62
636.291	15248.96
636.645	15237.44
636.999	15203.54
637.352	15244.22
637.706	15121.28
638.06	15187.27
638.413	15225.46
638.767	15094.39
639.121	15091.23
639.474	15138.23
639.828	15008.74
640.181	15145.69
640.534	15055.97
640.888	15093.94
641.241	15024.34
641.594	15034.73
641.947	15089.19
642.301	15023.66
642.654	14932.14
643.007	14993.6
643.36	15008.07
643.713	15014.39
644.066	15034.05
644.419	14898.92
644.771	14834.96
645.124	14632.26
645.477	14745.93
645.83	14663.22
646.182	14557.68
646.535	14543.22
646.888	14573.5
647.24	14452.6
647.593	14494.41
647.945	14465.93
648.298	14418.7
648.65	14441.53
649.002	14328.08
649.355	14430.45
649.707	14482.66
650.059	14571.24
650.411	14700.73
650.763	14636.78
651.115	14846.94
651.467	14803.78
651.819	14769.2
652.171	14777.79
652.523	14715.64
652.875	14703.89
653.227	14711.35
653.578	14803.78
653.93	14798.81
654.282	14636.32
654.633	14688.3
654.985	14693.27
655.337	14744.12
655.688	14703.44
656.039	14833.16
656.391	14641.07
656.742	14764.46
657.094	14792.93
657.445	14767.17
657.796	14679.49
658.147	14718.36
658.498	14702.99
658.849	14790.22
659.2	14782.99
659.551	14747.28
659.902	14852.14
660.253	14797.9
660.604	14813.95
660.955	14721.07
661.306	14855.3
661.656	14769.43
662.007	14753.61
662.358	14811.23
662.708	14784.57
663.059	14708.64
663.409	14732.59
663.76	14932.36
664.11	14884.23
664.461	14750.9
664.811	14861.63
665.161	14807.85
665.511	14899.59
665.862	14834.96
666.212	14813.72
666.562	14811.46
666.912	14795.19
667.262	14816.43
667.612	14798.35
667.962	14850.33
668.312	14798.58
668.662	14801.97
669.011	14835.87
669.361	14841.06
669.711	14712.93
670.06	14759.26
670.41	14715.42
670.76	14807.62
671.109	14833.61
671.459	14749.54
671.808	14719.49
672.157	14759.26
672.507	14742.54
672.856	14695.76
673.205	14721.52
673.554	14731.01
673.904	14690.79
674.253	14724.68
674.602	14636.1
674.951	14562.88
675.3	14304.36
675.649	14619.83
675.998	14575.76
676.346	14523.11
676.695	14635.65
677.044	14472.49
677.393	14520.85
677.741	14592.03
678.09	14529.43
678.438	14495.76
678.787	14423
679.135	14491.7
679.484	14400.62
679.832	14434.3
680.181	14307.75
680.529	14335.32
680.877	14324.92
681.225	14285.15
681.573	14428.19
681.922	14264.13
682.27	14219.84
682.618	14218.48
682.966	14210.8
683.314	14243.79
683.661	14246.73
684.009	14146.62
684.357	14055.77
684.705	14085.38
685.053	14041.76
685.4	14008.54
685.748	13967.64
686.095	13947.98
686.443	13969.45
686.79	13868.89
687.138	13896
687.485	13907.98
687.832	13837.48
688.18	13831.83
688.527	13696.91
688.874	13705.05
689.221	13704.37
689.568	13654.66
689.915	13587.31
690.262	13600.65
690.609	13556.8
690.956	13596.58
691.303	13484.72
691.65	13358.84
691.997	13445.62
692.344	13272.07
692.69	13333.08
693.037	13282.24
693.383	13142.13
693.73	13152.52
694.077	13107.32
694.423	13120.88
694.769	13079.98
695.116	12948.01
695.462	12914.79
695.808	12932.64
696.155	12947.56
696.501	12858.07
696.847	12841.8
697.193	12603.84
697.539	12706.43
697.885	12731.29
698.231	12572.2
698.577	12562.25
698.923	12542.37
699.269	12479.32
699.614	12467.12
699.96	12387.8
700.306	12332.43
700.651	12274.35
700.997	12276.16
701.342	12202.49
701.688	12158.42
702.033	12191.42
702.379	12120.68
702.724	12131.98
703.069	12082.04
703.415	11913.91
703.76	11959.11
704.105	12003.63
704.45	11923.85
704.795	11672.79
705.14	11680.92
705.485	11724.76
705.83	11673.92
706.175	11684.31
706.52	11640.47
706.865	11552.11
707.209	11512.79
707.554	11550.98
707.899	11563.18
708.243	11371.33
708.588	11439.8
708.932	11361.38
709.277	11337.43
709.621	11324.32
709.966	11232.8
710.31	11282.29
710.654	11213.36
710.998	11195.06
711.342	11212.69
711.687	11179.24
712.031	11136.53
712.375	11058.11
712.719	11128.39
713.063	11031.45
713.407	11046.81
713.75	11027.83
714.094	11088.85
714.438	10953.26
714.782	10938.34
715.125	10886.14
715.469	10859.25
715.812	10847.27
716.156	10868.97
716.499	10874.16
716.843	10840.04
717.186	10775.63
717.53	10802.75
717.873	10841.85
718.216	10824.45
718.559	10782.41
718.902	10681.85
719.246	10708.74
719.589	10636.88
719.932	10592.81
720.275	10606.6
720.617	10601.18
720.96	10558.92
721.303	10654.51
721.646	10602.76
721.989	10492.93
722.331	10554.4
722.674	10579.48
723.016	10605.47
723.359	10531.12
723.701	10561.63
724.044	10511.01
724.386	10465.36
724.729	10508.52
725.071	10478.92
725.413	10537.22
725.755	10501.52
726.097	10405.25
726.439	10315.31
726.782	10333.84
727.124	10443.21
727.465	10268.3
727.807	10309.43
728.149	10309.43
728.491	10353.72
728.833	10277.79
729.175	10358.02
729.516	10374.06
729.858	10278.47
730.199	10320.96
730.541	10291.35
730.882	10276.66
731.224	10341.3
731.565	10269.66
731.906	10317.34
732.248	10293.39
732.589	10285.03
732.93	10224.01
733.271	10242.77
733.612	10169.77
733.953	10365.48
734.294	10264.24
734.635	10223.11
734.976	10274.63
735.317	10215.88
735.658	10262.43
735.999	10212.71
736.339	10257.46
736.68	10226.04
737.021	10266.04
737.361	10192.6
737.702	10303.56
738.042	10261.07
738.383	10227.17
738.723	10272.37
739.063	10354.18
739.404	10369.54
739.744	10305.36
740.084	10348.3
740.424	10395.98
740.764	10345.59
741.104	10434.17
741.444	10313.95
741.784	10331.8
742.124	10502.42
742.464	10448.19
742.804	10445.47
743.143	10441.41
743.483	10493.38
743.823	10450.45
744.162	10554.17
744.502	10523.66
744.841	10483.67
745.181	10596.2
745.52	10572.93
745.86	10656.77
746.199	10746.48
746.538	10732.47
746.877	10760.49
747.216	10844.56
747.556	10856.31
747.895	10958.68
748.234	10967.04
748.573	11023.09
748.911	11157.09
749.25	11097.89
749.589	11170.88
749.928	11252.23
750.267	11325.68
750.605	11465.56
750.944	11521.15
751.283	11564.09
751.621	11669.62
751.96	11714.14
752.298	11883.4
752.636	11941.93
752.975	11959.56
753.313	12075.26
753.651	12268.02
753.989	12326.1
754.327	12399.09
754.666	12403.84
755.004	12720.22
755.342	12801.8
755.679	12907.33
756.017	13060.09
756.355	13179.41
756.693	13240.2
757.031	13405.4
757.368	13443.14
757.706	13689.23
758.044	13857.36
758.381	13988.88
758.719	14092.61
759.056	14338.48
759.394	14425.93
759.731	14543.22
760.068	14701.41
760.405	14806.94
760.743	14894.85
761.08	15171.9
761.417	15339.36
761.754	15432.24
762.091	15469.75
762.428	15693.25
762.765	15801.27
763.102	16131.2
763.438	16157.87
763.775	16329.84
764.112	16433.34
764.449	16588.14
764.785	16661.13
765.122	16878.07
765.458	16959.65
765.795	17046.2
766.131	17305.63
766.467	17366.65
766.804	17478.06
767.14	17557.15
767.476	17741.1
767.812	17774.09
768.148	17998.27
768.485	17926.86
768.821	18041.66
769.157	18168.66
769.492	18311.93
769.828	18446.62
770.164	18478.94
770.5	18432.83
770.836	18638.7
771.171	18693.62
771.507	18791.7
771.842	18745.37
772.178	18888.19
772.513	18832.15
772.849	19045.02
773.184	19045.02
773.519	19129.54
773.855	19149.2
774.19	19146.49
774.525	19203.89
774.86	19328.18
775.195	19464.9
775.53	19500.15
775.865	19404.79
776.2	19412.47
776.535	19318.46
776.87	19322.08
777.205	19491.56
777.539	19431.23
777.874	19610.66
778.209	19427.84
778.543	19473.49
778.878	19557.55
779.212	19486.59
779.547	19437.1
779.881	19491.34
780.215	19515.97
780.55	19510.09
780.884	19465.8
781.218	19584.44
781.552	19507.16
781.886	19535.18
782.22	19519.59
782.554	19393.26
782.888	19393.26
783.222	19348.97
783.556	19251.57
783.889	19336.54
784.223	19220.84
784.557	19180.61
784.89	19212.02
785.224	19196.66
785.557	19150.33
785.891	19184
786.224	19133.83
786.558	19233.04
786.891	18996.89
787.224	18979.26
787.557	18990.33
787.891	18924.57
788.224	18996.89
788.557	18961.18
788.89	18965.25
789.223	18950.34
789.556	18815.65
789.888	18907.17
790.221	18772.03
790.554	18641.64
790.887	18703.56
791.219	18695.88
791.552	18542.66
791.884	18523
792.217	18450.01
792.549	18423.34
792.882	18395.55
793.214	18354.87
793.546	18384.7
793.879	18257.7
794.211	18133.86
794.543	18256.34
794.875	18166.85
795.207	18329.56
795.539	18065.16
795.871	18123.69
796.203	18080.08
796.535	18028.55
796.867	17919.63
797.198	17826.3
797.53	17808.67
797.862	17799.4
798.193	17833.08
798.525	17716.92
798.856	17619.97
799.188	17526.19
799.519	17515.57
799.85	17424.27
800.182	17411.62
800.513	17483.71
800.844	17339.08
801.175	17401.68
801.506	17323.49
801.837	17241.23
802.168	17254.79
802.499	17125.07
802.83	17130.04
803.161	17098.63
803.491	17107.9
803.822	17060.89
804.153	16939.99
804.483	16929.6
804.814	16822.93
805.145	16834.01
805.475	16765.76
805.805	16718.3
806.136	16775.7
806.466	16712.43
806.796	16699.55
807.126	16589.04
807.457	16507.46
807.787	16528.25
808.117	16426.11
808.447	16387.92
808.777	16456.84
809.107	16413.9
809.436	16275.83
809.766	16309.73
810.096	16211.65
810.426	16140.01
810.755	16210.75
811.085	16065.67
811.414	16154.25
811.744	16016.63
812.073	15944.76
812.403	15947.93
812.732	15885.1
813.061	15902.73
813.39	15825.67
813.719	15775.96
814.049	15818.21
814.378	15850.53
814.707	15813.69
815.036	15712.68
815.365	15695.28
815.693	15608.95
816.022	15534.15
816.351	15537.32
816.68	15450.09
817.008	15481.05
817.337	15316.98
817.665	15319.7
817.994	15368.28
818.322	15390.88
818.651	15284.44
818.979	15277.66
819.307	15329.19
819.636	15257.32
819.964	15253.94
820.292	15260.26
820.62	15245.12
820.948	15209.87
821.276	15175.75
821.604	15101.62
821.932	15200.83
822.259	15105.92
822.587	15149.31
822.915	15088.97
823.243	15201.06
823.57	15053.94
823.898	15122.19
824.225	15036.77
824.553	15119.93
824.88	15105.01
825.207	15168.29
825.535	15132.58
825.862	15171.68
826.189	15119.48
826.516	15181.39
826.843	15164.9
827.17	15178.23
827.497	15123.09
827.824	15208.29
828.151	15239.25
828.478	15217.33
828.805	15226.14
829.131	15163.54
829.458	15168.29
829.785	15090.55
830.111	15114.96
830.438	15220.26
830.764	15141.4
831.09	15248.29
831.417	15088.74
831.743	15169.42
832.069	15061.4
832.395	15103.43
832.722	15132.81
833.048	15063.43
833.374	15052.36
833.7	14958.35
834.026	14961.51
834.351	15105.69
834.677	15022.98
835.003	15092.13
835.329	15065.47
835.654	14957.67
835.98	14913.38
836.306	14985.24
836.631	14879.93
836.956	14998.12
837.282	14988.41
837.607	14832.25
837.932	14811.69
838.258	14800.61
838.583	14784.79
838.908	14721.52
839.233	14653.05
839.558	14654.4
839.883	14677.23
840.208	14596.1
840.533	14546.61
840.858	14608.53
841.182	14554.97
841.507	14604.46
841.832	14456.67
842.156	14504.58
842.481	14483.33
842.805	14428.42
843.13	14345.26
843.454	14360.17
843.778	14379.83
844.103	14226.84
844.427	14218.48
844.751	14325.82
845.075	14261.19
845.399	14121.08
845.723	14031.37
846.047	14059.62
846.371	14046.51
846.695	13955.21
847.019	13838.83
847.343	13723.58
847.666	13759.96
847.99	13672.96
848.313	13642.23
848.637	13512.96
848.96	13520.2
849.284	13497.37
849.607	13429.35
849.931	13372.63
850.254	13301.22
850.577	13265.96
850.9	13136.25
851.223	13125.63
851.546	13145.29
851.869	13035.01
852.192	13061
852.515	12908.91
852.838	12836.15
853.161	12851.29
853.483	12885.18
853.806	12809.03
854.129	12707.34
854.451	12738.07
854.774	12658.3
855.096	12635.7
855.419	12619.88
855.741	12509.37
856.063	12409.72
856.385	12456.49
856.708	12457.17
857.03	12376.04
857.352	12404.74
857.674	12240.45
857.996	12280
858.318	12173.56
858.64	12221.25
858.961	12131.31
859.283	12210.85
859.605	12097.41
859.926	12071.19
860.248	12025.55
860.57	11993.68
860.891	11999.33
861.212	11906.45
861.534	11905.1
861.855	11833.69
862.176	11881.14
862.498	11838.21
862.819	11761.82
863.14	11800.47
863.461	11715.72
863.782	11689.06
864.103	11723.86
864.424	11730.64
864.745	11718.43
865.065	11614.93
865.386	11624.88
865.707	11667.81
866.027	11670.75
866.348	11548.5
866.668	11579.46
866.989	11547.37
867.309	11407.71
867.63	11516.41
867.95	11499.91
868.27	11419.69
868.59	11484.09
868.91	11442.74
869.23	11388.27
869.55	11356.64
869.87	11385.56
870.19	11358.22
870.51	11399.57
870.83	11344.43
871.15	11264.66
871.469	11252.68
871.789	11232.35
872.109	11265.79
872.428	11239.58
872.748	11263.08
873.067	11190.54
873.386	11127.49
873.706	11129.07
874.025	11207.49
874.344	11086.59
874.663	11065.34
874.982	11087.26
875.301	11073.03
875.62	11001.62
875.939	10999.81
876.258	11023.76
876.577	10974.27
876.896	10957.78
877.214	10971.79
877.533	10964.33
877.852	10874.39
878.17	10849.53
878.489	10909.19
878.807	10838.68
879.125	10894.95
879.444	10758.23
879.762	10791.68
880.08	10754.39
880.398	10824.67
880.716	10794.62
881.034	10709.65
881.352	10631.91
881.67	10673.26
881.988	10695.86
882.306	10629.88
882.624	10608.18
882.941	10529.31
883.259	10612.7
883.577	10494.96
883.894	10460.39
884.212	10505.59
884.529	10467.17
884.846	10416.32
885.164	10408.19
885.481	10360.5
885.798	10415.64
886.115	10307.85
886.432	10324.35
886.75	10285.93
887.067	10245.71
887.383	10231.24
887.7	10259.49
888.017	10147.63
888.334	10173.16
888.651	10165.48
888.967	10118.93
889.284	10038.48
889.6	10100.62
889.917	9953.51
890.233	9985.83
890.55	9960.74
890.866	9972.49
891.182	9917.13
891.498	9862.21
891.815	9862.21
892.131	9865.83
892.447	9797.81
892.763	9766.4
893.079	9711.48
893.395	9720.07
893.71	9633.74
894.026	9614.54
894.342	9640.07
894.657	9546.74
894.973	9487.31
895.289	9524.59
895.604	9562.33
895.92	9407.08
896.235	9382
896.55	9333.86
896.865	9327.31
897.181	9324.37
897.496	9305.39
897.811	9324.6
898.126	9252.28
898.441	9228.78
898.756	9226.07
899.071	9130.03
899.386	9135
899.7	9072.4
900.015	9007.55
900.33	8932.75
900.644	8994.89
900.959	8948.34
901.273	8968.9
901.588	8813.65
901.902	8856.59
902.216	8783.82
902.531	8819.08
902.845	8779.76
903.159	8663.15
903.473	8669.02
903.787	8660.44
904.101	8590.83
904.415	8560.78
904.729	8558.07
905.042	8556.94
905.356	8509.93
905.67	8475.81
905.984	8443.94
906.297	8424.96
906.611	8380.9
906.924	8311.74
907.237	8284.4
907.551	8245.53
907.864	8219.09
908.177	8229.04
908.491	8130.05
908.804	8139.09
909.117	8083.28
909.43	8002.15
909.743	8022.94
910.056	7990.85
910.368	7932.09
910.681	7955.6
910.994	7945.2
911.307	7839.67
911.619	7878.08
911.932	7838.54
912.244	7728.48
912.557	7716.05
912.869	7703.85
913.181	7585.89
913.494	7634.25
913.806	7586.11
914.118	7523.06
914.43	7494.37
914.742	7519.9
915.054	7476.74
915.366	7452.33
915.678	7420.47
915.99	7394.48
916.302	7359.45
916.613	7344.54
916.925	7269.29
917.236	7204.88
917.548	7206.69
917.859	7229.29
918.171	7138.67
918.482	7136.41
918.794	7060.7
919.105	7086.47
919.416	7055.51
919.727	7039.46
920.038	7007.6
920.349	6970.31
920.66	6963.76
920.971	6984.32
921.282	6887.38
921.593	6874.27
921.903	6836.76
922.214	6795.85
922.525	6732.58
922.835	6775.51
923.146	6693.03
923.456	6728.06
923.767	6695.06
924.077	6656.65
924.387	6605.57
924.697	6585.46
925.008	6572.81
925.318	6524.45
925.628	6533.26
925.938	6486.03
926.248	6430.66
926.558	6392.7
926.867	6394.28
927.177	6385.69
927.487	6344.11
927.796	6200.39
928.106	6312.93
928.416	6308.18
928.725	6241.52
929.034	6244.68
929.344	6182.31
929.653	6201.74
929.962	6099.15
930.271	6125.59
930.581	6051.47
930.89	6034.97
931.199	6027.51
931.508	6042.65
931.817	6015.08
932.125	5958.13
932.434	5929.66
932.743	5893.73
933.051	5945.48
933.36	5901.41
933.669	5834.07
933.977	5838.36
934.286	5832.94
934.594	5754.07
934.902	5721.53
935.21	5704.13
935.519	5705.26
935.827	5656.9
936.135	5604.25
936.443	5614.87
936.751	5587.3
937.059	5605.6
937.367	5573.51
937.674	5513.17
937.982	5513.63
938.29	5478.6
938.597	5454.87
938.905	5445.15
939.213	5377.58
939.52	5380.97
939.827	5323.8
940.135	5333.52
940.442	5330.13
940.749	5281.77
941.056	5293.74
941.363	5200.87
941.67	5255.78
941.977	5193.63
942.284	5146.18
942.591	5169.68
942.898	5096.46
943.205	5114.54
943.511	5062.56
943.818	5067.08
944.125	5036.58
944.431	5067.99
944.738	5018.5
945.044	4990.7
945.35	4955.9
945.657	4934.88
945.963	4908.22
946.269	4915.45
946.575	4880.2
946.881	4864.38
947.187	4827.77
947.493	4801.33
947.799	4800.42
948.105	4753.42
948.41	4767.21
948.716	4708
949.022	4733.53
949.327	4723.36
949.633	4646.76
949.938	4731.73
950.244	4682.46
950.549	4620.54
950.854	4595.46
951.16	4589.81
951.465	4557.04
951.77	4487.89
952.075	4501.22
952.38	4503.94
952.685	4494.67
952.99	4426.42
953.294	4459.19
953.599	4409.47
953.904	4395.46
954.209	4379.87
954.513	4380.77
954.818	4329.7
955.122	4380.32
955.426	4270.95
955.731	4327.67
956.035	4241.34
956.339	4233.89
956.643	4276.14
956.948	4197.73
957.252	4185.3
957.556	4188.24
957.86	4170.38
958.163	4158.86
958.467	4121.57
958.771	4141.91
959.075	4110.05
959.378	4050.61
959.682	4059.43
959.985	4027.56
960.289	3997.06
960.592	3975.36
960.896	3974.01
961.199	3955.02
961.502	3949.15
961.805	3914.12
962.108	3893.78
962.411	3918.87
962.714	3894.91
963.017	3847.68
963.32	3877.06
963.623	3840.68
963.926	3831.18
964.228	3834.8
964.531	3792.77
964.833	3742.15
965.136	3748.93
965.438	3723.84
965.741	3734.69
966.043	3683.62
966.345	3681.58
966.648	3704.63
966.95	3673
967.252	3590.51
967.554	3599.33
967.856	3614.92
968.158	3567.01
968.46	3571.3
968.761	3536.05
969.063	3534.47
969.365	3505.32
969.666	3535.37
969.968	3496.28
970.269	3501.93
970.571	3471.87
970.872	3423.96
971.174	3402.04
971.475	3462.15
971.776	3391.2
972.077	3401.37
972.378	3392.78
972.679	3349.39
972.98	3358.88
973.281	3309.16
973.582	3306.45
973.883	3324.98
974.183	3287.24
974.484	3272.1
974.785	3266.45
975.085	3269.62
975.386	3254.93
975.686	3206.34
975.986	3196.85
976.287	3186.23
976.587	3174.93
976.887	3128.38
977.187	3154.14
977.487	3157.98
977.787	3101.94
978.087	3124.76
978.387	3088.61
978.687	3099.9
978.987	3054.26
979.286	3046.12
979.586	3035.95
979.885	3034.14
980.185	3020.13
980.484	2966.35
980.784	2951.66
981.083	2956.86
981.382	2919.12
981.682	2954.6
981.981	2929.74
982.28	2934.71
982.579	2908.95
982.878	2877.76
983.177	2887.03
983.475	2895.62
983.774	2840.25
984.073	2848.61
984.372	2851.78
984.67	2861.04
984.969	2800.25
985.267	2812.91
985.566	2792.79
985.864	2779.23
986.162	2742.85
986.461	2732.46
986.759	2697.66
987.057	2707.37
987.355	2705.34
987.653	2699.69
987.951	2690.42
988.249	2668.28
988.547	2659.01
988.844	2648.39
989.142	2628.73
989.44	2622.85
989.737	2623.08
990.035	2588.73
990.332	2590.31
990.63	2587.6
990.927	2575.85
991.224	2549.64
991.521	2564.55
991.819	2475.06
992.116	2497.66
992.413	2490.2
992.71	2485.01
993.006	2494.72
993.303	2460.83
993.6	2471.22
993.897	2456.98
994.193	2431.45
994.49	2382.18
994.787	2382.41
995.083	2411.79
995.379	2391.9
995.676	2385.35
995.972	2337.21
996.268	2362.52
996.565	2335.18
996.861	2320.49
997.157	2311.22
997.453	2290.89
997.749	2283.43
998.044	2270.77
998.34	2271.68
998.636	2254.5
998.932	2249.31
999.227	2222.87
999.523	2202.75
999.818	2193.49
1000.114	2207.72
1000.409	2196.88
1000.704	2174.5
1001	2143.32
1001.295	2128.4
1001.59	2140.38
1001.885	2122.3
1002.18	2112.36
1002.475	2108.97
1002.77	2075.52
1003.065	2042.98
1003.359	2076.43
1003.654	2062.64
1003.949	2061.06
1004.243	2031.68
1004.538	2026.94
1004.832	2025.13
1005.127	2028.07
1005.421	1986.71
1005.715	1978.35
1006.009	2000.72
1006.304	1929.31
1006.598	1921.63
1006.892	1915.08
1007.186	1937.68
1007.48	1912.59
1007.773	1890.9
1008.067	1887.28
1008.361	1880.05
1008.655	1864.68
1008.948	1848.86
1009.242	1872.37
1009.535	1866.04
1009.829	1807.06
1010.122	1867.85
1010.415	1792.59
1010.708	1797.11
1011.001	1794.85
1011.295	1777.91
1011.588	1755.08
1011.881	1763.67
1012.173	1732.26
1012.466	1739.94
1012.759	1723.44
1013.052	1721.86
1013.344	1722.77
1013.637	1698.81
1013.93	1680.05
1014.222	1696.1
1014.514	1669.43
1014.807	1666.04
1015.099	1646.16
1015.391	1657
1015.683	1640.28
1015.976	1622.2
1016.268	1614.29
1016.56	1609.55
1016.851	1568.65
1017.143	1599.15
1017.435	1573.16
1017.727	1586.27
1018.018	1561.19
1018.31	1536.33
1018.602	1539.49
1018.893	1514.41
1019.185	1530.45
1019.476	1499.72
1019.767	1484.35
1020.058	1471.92
1020.35	1498.14
1020.641	1450.91
1020.932	1445.03
1021.223	1435.09
1021.514	1461.08
1021.804	1409.55
1022.095	1409.78
1022.386	1419.27
1022.677	1413.62
1022.967	1404.81
1023.258	1385.15
1023.548	1386.5
1023.839	1363.45
1024.129	1339.72
1024.419	1341.08
1024.709	1323.23
1025	1319.61
1025.29	1297.92
1025.58	1328.88
1025.87	1304.92
1026.16	1309.67
1026.449	1284.81
1026.739	1305.6
1027.029	1271.03
1027.319	1252.72
1027.608	1224.7
1027.898	1229.67
1028.187	1238.71
1028.477	1207.3
1028.766	1221.99
1029.055	1209.56
1029.344	1191.48
1029.634	1193.97
1029.923	1163.91
1030.212	1170.01
1030.501	1184.47
1030.79	1162.33
1031.078	1142.67
1031.367	1153.29
1031.656	1134.76
1031.945	1134.31
1032.233	1125.72
1032.522	1102.89
1032.81	1110.8
1033.099	1085.49
1033.387	1118.94
1033.675	1101.99
1033.963	1083.01
1034.251	1088.21
1034.54	1065.38
1034.828	1078.26
1035.116	1059.05
1035.403	1046.63
1035.691	1041.43
1035.979	1025.16
1036.267	1033.29
1036.554	1018.6
1036.842	1022.9
1037.129	1007.3
1037.417	1003.24
1037.704	986.29
1037.992	985.38
1038.279	993.75
1038.566	971.82
1038.853	971.82
1039.14	971.82
