Data from hue_210_FLMS001491_00068.txt Node
Date: Tue Feb 07 16:41:33 GMT 2017
User: dcchb
Spectrometer: FLMS00149
Trigger mode: 0
Integration Time (sec): 2.000000E-2
Scans to average: 10
Electric dark correction enabled: true
Nonlinearity correction enabled: false
Boxcar width: 0
XAxis mode: Wavelengths
Number of Pixels in Spectrum: 2048
>>>>>Begin Spectral Data<<<<<
341.393	-30.24
341.776	-30.24
342.16	-30.24
342.543	-70.01
342.927	-94.87
343.31	-92.38
343.693	-81.31
344.077	-79.5
344.46	-69.56
344.843	-58.49
345.226	-39.5
345.61	-19.17
345.993	-6.96
346.376	12.47
346.759	14.51
347.142	45.46
347.525	49.08
347.908	47.05
348.291	92.24
348.674	85.69
349.057	100.38
349.44	125.91
349.823	132.69
350.206	145.35
350.588	187.38
350.971	186.93
351.354	202.07
351.737	235.29
352.119	245.69
352.502	250.21
352.884	266.25
353.267	267.61
353.65	290.66
354.032	278.91
354.414	314.84
354.797	310.77
355.179	314.16
355.562	301.73
355.944	314.38
356.326	314.84
356.709	325.91
357.091	322.07
357.473	318
357.855	309.64
358.238	320.71
358.62	319.58
359.002	307.15
359.384	326.14
359.766	334.95
360.148	330.2
360.53	344.67
360.912	306.47
361.294	327.72
361.676	309.19
362.057	310.99
362.439	310.77
362.821	308.28
363.203	306.93
363.584	300.83
363.966	323.42
364.348	310.32
364.729	303.76
365.111	315.06
365.493	332.01
365.874	327.49
366.256	320.26
366.637	308.51
367.019	295.63
367.4	315.51
367.781	301.28
368.163	300.37
368.544	301.28
368.925	320.26
369.306	294.95
369.688	296.98
370.069	297.89
370.45	309.41
370.831	314.61
371.212	294.95
371.593	317.1
371.974	299.47
372.355	313.25
372.736	312.8
373.117	317.32
373.498	310.99
373.879	300.37
374.26	298.79
374.641	328.62
375.021	287.72
375.402	286.14
375.783	326.36
376.163	306.7
376.544	315.06
376.925	293.37
377.305	298.11
377.686	310.32
378.066	321.84
378.447	321.84
378.827	316.19
379.208	303.54
379.588	314.61
379.968	306.25
380.349	330.88
380.729	341.28
381.109	316.42
381.489	315.51
381.87	335.17
382.25	313.71
382.63	318.45
383.01	341.5
383.39	358.68
383.77	341.05
384.15	355.06
384.53	341.95
384.91	336.53
385.29	348.28
385.67	327.49
386.049	348.06
386.429	363.65
386.809	341.28
387.189	343.76
387.568	343.08
387.948	361.39
388.328	346.02
388.707	356.64
389.087	350.09
389.466	345.8
389.846	359.13
390.225	363.87
390.605	351.45
390.984	336.76
391.363	360.03
391.743	359.35
392.122	367.26
392.501	368.62
392.881	383.99
393.26	360.03
393.639	345.12
394.018	361.39
394.397	390.54
394.776	377.66
395.155	369.75
395.534	390.99
395.913	364.33
396.292	379.24
396.671	386.25
397.05	415.17
397.429	398.45
397.808	404.55
398.186	401.84
398.565	380.6
398.944	408.17
399.323	404.55
399.701	392.35
400.08	396.87
400.458	406.36
400.837	399.35
401.215	394.61
401.594	402.07
401.972	415.17
402.351	419.24
402.729	419.92
403.107	440.03
403.486	422.63
403.864	408.39
404.242	442.97
404.62	434.16
404.999	445.23
405.377	455.17
405.755	441.61
406.133	456.08
406.511	453.82
406.889	454.72
407.267	475.28
407.645	482.06
408.023	459.47
408.401	467.15
408.779	495.17
409.156	481.39
409.534	519.58
409.912	526.58
410.29	515.51
410.667	534.72
411.045	519.35
411.422	543.08
411.8	554.15
412.178	560.03
412.555	554.15
412.933	568.61
413.31	587.15
413.687	568.84
414.065	595.73
414.442	620.37
414.819	634.83
415.197	616.75
415.574	635.96
415.951	652.68
416.328	644.09
416.705	657.88
417.082	677.76
417.46	681.15
417.837	685
418.214	684.32
418.591	700.59
418.967	701.94
419.344	691.78
419.721	718.44
420.098	731.55
420.475	732.9
420.852	767.93
421.228	802.96
421.605	770.87
421.982	815.39
422.358	801.15
422.735	809.51
423.111	849.51
423.488	842.51
423.864	862.84
424.241	862.84
424.617	892.67
424.994	903.07
425.37	908.95
425.746	897.87
426.123	947.14
426.499	936.06
426.875	964.31
427.251	990.75
427.627	1002.95
428.003	1016.96
428.379	1014.7
428.756	1015.83
429.132	1073.46
429.507	1036.17
429.883	1091.77
430.259	1096.74
430.635	1109.84
431.011	1099.67
431.387	1112.78
431.763	1159.33
432.138	1162.27
432.514	1167.47
432.89	1161.82
433.265	1197.98
433.641	1244.08
434.016	1234.81
434.392	1266.45
434.767	1311.87
435.143	1343.96
435.518	1331.53
435.894	1371.08
436.269	1408.37
436.644	1427.12
437.02	1441.81
437.395	1414.02
437.77	1489.27
438.145	1529.72
438.52	1522.71
438.895	1532.43
439.271	1528.59
439.646	1616.27
440.021	1618.08
440.395	1648.81
440.77	1637.74
441.145	1652.88
441.52	1676.61
441.895	1708.92
442.27	1740.56
442.645	1761.35
443.019	1752.54
443.394	1787.11
443.769	1797.74
444.143	1801.8
444.518	1836.83
444.892	1826.89
445.267	1853.55
445.641	1891.07
446.016	1887
446.39	1905.53
446.764	1948.01
447.139	1914.57
447.513	1937.62
447.887	1969.03
448.262	1964.74
448.636	1993.44
449.01	2015.36
449.384	2013.32
449.758	2057.39
450.132	2085.86
450.506	2053.1
450.88	2083.6
451.254	2111.17
451.628	2143.94
452.002	2179.87
452.376	2150.27
452.75	2180.55
453.123	2206.99
453.497	2273.88
453.871	2254.22
454.244	2287.21
454.618	2325.18
454.992	2343.71
455.365	2345.07
455.739	2407.44
456.112	2447.44
456.486	2427.32
456.859	2437.49
457.232	2505.29
457.606	2479.53
457.979	2550.03
458.352	2590.03
458.725	2593.19
459.099	2629.8
459.472	2668.22
459.845	2728.33
460.218	2746.41
460.591	2744.38
460.964	2729.24
461.337	2833.19
461.71	2861.89
462.083	2930.81
462.456	2945.05
462.829	2931.49
463.201	2982.34
463.574	2964.71
463.947	2977.82
464.32	3080.64
464.692	3093.52
465.065	3164.7
465.438	3174.42
465.81	3227.98
466.183	3305.04
466.555	3341.88
466.928	3313.4
467.3	3317.47
467.672	3357.92
468.045	3447.86
468.417	3470.91
468.789	3501.87
469.161	3511.14
469.534	3597.91
469.906	3653.96
470.278	3688.76
470.65	3663.67
471.022	3760.62
471.394	3865.48
471.766	3876.55
472.138	3880.17
472.51	3990.9
472.882	4004.68
473.253	4066.83
473.625	4089.88
473.997	4233.15
474.369	4202.42
474.74	4271.12
475.112	4300.72
475.484	4378.23
475.855	4479.92
476.227	4512.01
476.598	4644.44
476.97	4614.16
477.341	4704.33
477.713	4810.09
478.084	4821.61
478.455	4969.63
478.827	4977.99
479.198	5091.66
479.569	5048.27
479.94	5193.35
480.311	5249.62
480.682	5396.06
481.053	5458.88
481.424	5544.08
481.795	5558.99
482.166	5669.5
482.537	5732.55
482.908	5832.43
483.279	5901.36
483.65	5978.87
484.021	6054.35
484.391	6110.16
484.762	6198.98
485.133	6234.23
485.503	6314.9
485.874	6379.54
486.244	6480.1
486.615	6514
486.985	6642.58
487.356	6732.07
487.726	6755.8
488.097	6864.04
488.467	6920.54
488.837	7033.08
489.207	7057.94
489.578	7133.87
489.948	7253.64
490.318	7278.72
490.688	7299.06
491.058	7416.12
491.428	7497.02
491.798	7580.63
492.168	7758.26
492.538	7766.84
492.908	7794.87
493.278	7880.29
493.648	7920.06
494.017	7965.48
494.387	8067.4
494.757	8108.76
495.126	8206.61
495.496	8144.91
495.866	8201.63
496.235	8259.94
496.605	8337.22
496.974	8283.21
497.344	8402.31
497.713	8471.01
498.082	8536.54
498.452	8564.34
498.821	8573.83
499.19	8631.68
499.559	8695.18
499.928	8699.7
500.298	8753.03
500.667	8807.72
501.036	8741.28
501.405	8902.18
501.774	8871.9
502.143	8913.71
502.512	8933.37
502.88	8957.55
503.249	8927.72
503.618	9017.66
503.987	9045.23
504.356	9139.46
504.724	9064.66
505.093	9086.81
505.462	9176.07
505.83	9184.21
506.199	9253.13
506.567	9301.49
506.936	9327.25
507.304	9333.13
507.672	9368.38
508.041	9385.56
508.409	9478.21
508.777	9473.92
509.145	9514.59
509.514	9523.18
509.882	9492
510.25	9532.45
510.618	9539.9
510.986	9569.96
511.354	9625.33
511.722	9681.6
512.09	9672.78
512.458	9679.34
512.826	9730.63
513.193	9717.53
513.561	9720.69
513.929	9738.09
514.297	9841.37
514.664	9818.09
515.032	9807.24
515.4	9890.18
515.767	9882.95
516.135	9916.39
516.502	9790.75
516.869	9946
517.237	9918.88
517.604	9918.43
517.972	9922.72
518.339	10000.23
518.706	9931.31
519.073	9982.6
519.44	10011.98
519.808	10025.54
520.175	10033.22
520.542	10124.52
520.909	10073.45
521.276	10039.33
521.643	10122.26
522.009	10182.83
522.376	10181.7
522.743	10205.42
523.11	10182.15
523.477	10214.24
523.843	10256.04
524.21	10327.91
524.577	10225.54
524.943	10326.1
525.31	10241.58
525.676	10338.75
526.043	10415.59
526.409	10394.12
526.776	10415.14
527.142	10325.65
527.508	10386.44
527.874	10410.62
528.241	10344.86
528.607	10362.48
528.973	10418.53
529.339	10360.45
529.705	10498.52
530.071	10569.48
530.437	10458.3
530.803	10456.94
531.169	10452.65
531.535	10392.31
531.901	10441.58
532.267	10374.46
532.632	10400.45
532.998	10389.6
533.364	10458.75
533.73	10417.85
534.095	10353.89
534.461	10378.07
534.826	10404.97
535.192	10323.16
535.557	10363.39
535.923	10332.65
536.288	10309.83
536.653	10309.15
537.019	10248.81
537.384	10251.07
537.749	10182.15
538.114	10194.8
538.479	10147.57
538.845	10145.09
539.21	10050.4
539.575	10178.98
539.94	10160.45
540.305	10132.43
540.67	10023.96
541.034	10004.98
541.399	9988.93
541.764	9961.81
542.129	9923.62
542.494	9881.36
542.858	9883.17
543.223	9867.58
543.587	9869.61
543.952	9796.17
544.316	9804.53
544.681	9730.63
545.045	9727.24
545.41	9738.32
545.774	9699.45
546.138	9655.83
546.503	9653.8
546.867	9696.28
547.231	9663.52
547.595	9597.98
547.959	9566.12
548.324	9558.21
548.688	9529.06
549.052	9503.75
549.416	9480.92
549.779	9505.33
550.143	9455.39
550.507	9453.13
550.871	9412.9
551.235	9314.83
551.599	9352.34
551.962	9356.63
552.326	9296.52
552.689	9302.4
553.053	9184.43
553.417	9252.23
553.78	9246.13
554.143	9243.42
554.507	9224.43
554.87	9207.71
555.234	9209.07
555.597	9099.46
555.96	9160.71
556.323	9147.15
556.686	9091.33
557.05	9182.4
557.413	9048.62
557.776	9051.56
558.139	9066.24
558.502	9100.37
558.865	9066.92
559.228	9106.47
559.59	9120.03
559.953	9048.84
560.316	9082.74
560.679	9085
561.041	9053.59
561.404	9101.05
561.767	9093.59
562.129	9035.74
562.492	9074.61
562.854	9073.48
563.217	9053.59
563.579	9102.18
563.941	9117.32
564.304	9107.83
564.666	9095.62
565.028	9185.11
565.39	9129.07
565.753	9112.8
566.115	9213.13
566.477	9192.57
566.839	9153.93
567.201	9205.45
567.563	9177.2
567.925	9216.3
568.287	9162.74
568.648	9182.17
569.01	9183.53
569.372	9237.31
569.734	9178.33
570.095	9299.68
570.457	9306.46
570.819	9250.87
571.18	9351.21
571.542	9287.26
571.903	9266.47
572.265	9240.7
572.626	9401.38
572.987	9354.6
573.349	9371.32
573.71	9379
574.071	9372.68
574.432	9389.63
574.794	9462.62
575.155	9431.88
575.516	9388.95
575.877	9458.1
576.238	9454.26
576.599	9499.23
576.96	9440.7
577.32	9434.6
577.681	9490.41
578.042	9529.06
578.403	9524.09
578.763	9533.35
579.124	9557.08
579.485	9573.12
579.845	9579
580.206	9591.65
580.566	9609.28
580.927	9566.12
581.287	9638.43
581.648	9597.53
582.008	9640.69
582.368	9606.12
582.728	9646.57
583.089	9631.65
583.449	9578.55
583.809	9601.37
584.169	9728.6
584.529	9601.37
584.889	9657.19
585.249	9668.04
585.609	9618.77
585.969	9669.84
586.329	9647.02
586.688	9652.9
587.048	9713.91
587.408	9701.93
587.768	9681.82
588.127	9616.06
588.487	9686.79
588.846	9732.22
589.206	9675.27
589.565	9727.92
589.925	9694.02
590.284	9706.45
590.643	9723.18
591.003	9784.42
591.362	9830.52
591.721	9754.14
592.08	9760.24
592.44	9799.56
592.799	9760.24
593.158	9752.33
593.517	9816.73
593.876	9802.95
594.235	9705.55
594.593	9741.71
594.952	9785.1
595.311	9707.36
595.67	9794.36
596.029	9878.2
596.387	9825.77
596.746	9828.94
597.104	9813.34
597.463	9752.78
597.822	9854.7
598.18	9799.78
598.538	9791.88
598.897	9789.84
599.255	9743.97
599.613	9860.12
599.972	9835.72
600.33	9737.64
600.688	9733.12
601.046	9804.98
601.404	9837.3
601.762	9786
602.12	9832.1
602.478	9864.42
602.836	9872.78
603.194	9737.87
603.552	9833.46
603.91	9803.85
604.268	9899.22
604.625	9804.08
604.983	9830.29
605.341	9846.11
605.698	9882.49
606.056	9865.77
606.413	9810.86
606.771	9834.36
607.128	9878.65
607.485	9855.83
607.843	9765.66
608.2	9845.43
608.557	9933.57
608.914	9857.64
609.272	9932.89
609.629	9940.35
609.986	9994.58
610.343	9957.52
610.7	10060.12
611.057	9964.07
611.414	9902.15
611.771	9969.95
612.127	10015.82
612.484	10042.49
612.841	9949.16
613.198	9992.55
613.554	10028.71
613.911	10068.03
614.267	10014.47
614.624	10119.55
614.98	10116.84
615.337	10101.02
615.693	10048.82
616.05	10084.75
616.406	10025.32
616.762	10061.25
617.118	10040
617.475	10071.87
617.831	10057.86
618.187	10113.22
618.543	10117.97
618.899	10107.8
619.255	10133.56
619.611	10112.32
619.967	10160.68
620.323	10218.53
620.678	10131.08
621.034	10111.87
621.39	10125.43
621.746	10106.67
622.101	10243.84
622.457	10158.19
622.812	10156.39
623.168	10172.88
623.523	10171.53
623.879	10183.5
624.234	10141.24
624.589	10162.94
624.945	10197.06
625.3	10177.63
625.655	10188.7
626.01	10171.75
626.365	10141.02
626.72	10181.02
627.075	10121.58
627.43	10107.8
627.785	10102.6
628.14	10136.05
628.495	10130.4
628.85	10164.52
629.205	10080.91
629.559	10162.26
629.914	10050.63
630.269	9999.33
630.623	10048.82
630.978	10006.78
631.332	10048.59
631.687	10136.5
632.041	10054.24
632.396	10069.16
632.75	9899.22
633.104	10027.8
633.459	9969.27
633.813	9872.55
634.167	9902.83
634.521	9957.07
634.875	10002.27
635.229	9974.02
635.583	9927.46
635.937	9909.16
636.291	9878.88
636.645	9870.74
636.999	9831.42
637.352	9958.65
637.706	9870.74
638.06	9893.57
638.413	9816.96
638.767	9793.91
639.121	9833.68
639.474	9736.96
639.828	9760.46
640.181	9787.36
640.534	9774.47
640.888	9763.4
641.241	9717.53
641.594	9782.16
641.947	9757.53
642.301	9730.18
642.654	9705.32
643.007	9777.41
643.36	9708.71
643.713	9669.62
644.066	9681.6
644.419	9641.37
644.771	9515.95
645.124	9487.7
645.477	9472.56
645.83	9447.93
646.182	9395.05
646.535	9397.99
646.888	9424.88
647.24	9347.37
647.593	9349.18
647.945	9369.29
648.298	9303.98
648.65	9327.71
649.002	9336.29
649.355	9350.53
649.707	9383.98
650.059	9419.23
650.411	9523.63
650.763	9534.93
651.115	9637.3
651.467	9555.27
651.819	9549.4
652.171	9609.06
652.523	9553.46
652.875	9545.78
653.227	9535.16
653.578	9578.55
653.93	9606.34
654.282	9538.55
654.633	9473.47
654.985	9559.57
655.337	9513.24
655.688	9555.27
656.039	9560.24
656.391	9498.1
656.742	9567.02
657.094	9506.91
657.445	9556.85
657.796	9560.92
658.147	9527.25
658.498	9617.19
658.849	9651.77
659.2	9582.84
659.551	9531.77
659.902	9576.29
660.253	9517.31
660.604	9616.74
660.955	9587.59
661.306	9518.89
661.656	9539.9
662.007	9588.49
662.358	9578.55
662.708	9537.87
663.059	9510.98
663.409	9535.84
663.76	9630.07
664.11	9545.1
664.461	9541.71
664.811	9627.59
665.161	9596.85
665.511	9562.73
665.862	9576.97
666.212	9532.45
666.562	9597.3
666.912	9597.76
667.262	9530.41
667.612	9609.96
667.962	9627.59
668.312	9552.11
668.662	9590.98
669.011	9606.57
669.361	9630.75
669.711	9571.09
670.06	9567.47
670.41	9490.87
670.76	9498.55
671.109	9483.63
671.459	9524.09
671.808	9528.83
672.157	9566.12
672.507	9487.7
672.856	9485.44
673.205	9467.36
673.554	9510.07
673.904	9499.45
674.253	9549.62
674.602	9468.04
674.951	9412.68
675.3	9314.83
675.649	9452.68
675.998	9418.33
676.346	9402.06
676.695	9439.79
677.044	9320.7
677.393	9410.64
677.741	9405.44
678.09	9400.47
678.438	9349.4
678.787	9406.35
679.135	9306.92
679.484	9271.44
679.832	9293.36
680.181	9250.42
680.529	9280.02
680.877	9227.82
681.225	9296.07
681.573	9285.45
681.922	9224.43
682.27	9194.15
682.618	9201.83
682.966	9109.86
683.314	9222.62
683.661	9200.7
684.009	9126.81
684.357	9092.23
684.705	9085.68
685.053	9037.32
685.4	9002.97
685.748	8984.66
686.095	9004.1
686.443	8974.95
686.79	8974.95
687.138	8976.08
687.485	8984.44
687.832	8883.2
688.18	8909.41
688.527	8839.81
688.874	8892.69
689.221	8873.26
689.568	8812.47
689.915	8752.81
690.262	8761.62
690.609	8753.71
690.956	8656.76
691.303	8680.94
691.65	8635.3
691.997	8559.82
692.344	8563.43
692.69	8551.91
693.037	8592.36
693.383	8491.12
693.73	8459.93
694.077	8478.69
694.423	8428.75
694.769	8362.99
695.116	8417.22
695.462	8344.46
695.808	8327.51
696.155	8412.7
696.501	8226.04
696.847	8344
697.193	8152.14
697.539	8215.87
697.885	8159.15
698.231	8148.3
698.577	8094.74
698.923	8057.68
699.269	8069.21
699.614	8025.59
699.96	7987.85
700.306	7934.3
700.651	7868.08
700.997	7903.34
701.342	7885.94
701.688	7829.44
702.033	7823.34
702.379	7760.29
702.724	7787.63
703.069	7780.18
703.415	7630.12
703.76	7674.64
704.105	7668.32
704.45	7638.71
704.795	7673.96
705.14	7567.75
705.485	7564.82
705.83	7523.91
706.175	7533.63
706.52	7499.05
706.865	7449.56
707.209	7393.07
707.554	7388.77
707.899	7433.97
708.243	7343.13
708.588	7350.13
708.932	7298.61
709.277	7340.87
709.621	7339.74
709.966	7186.97
710.31	7243.24
710.654	7186.29
710.998	7210.47
711.342	7232.62
711.687	7155.11
712.031	7132.74
712.375	7123.92
712.719	7163.24
713.063	7125.73
713.407	7135.45
713.75	7096.35
714.094	7078.73
714.438	7033.98
714.782	7061.33
715.125	7020.65
715.469	7037.15
715.812	6995.56
716.156	6933.19
716.499	6929.13
716.843	6972.74
717.186	6943.81
717.53	6993.98
717.873	6970.48
718.216	6954.44
718.559	6920.31
718.902	6876.25
719.246	6884.61
719.589	6893.65
719.932	6835.12
720.275	6878.28
720.617	6860.88
720.96	6875.79
721.303	6870.14
721.646	6841.67
721.989	6801.67
722.331	6831.5
722.674	6783.14
723.016	6795.12
723.359	6767.77
723.701	6779.53
724.044	6784.27
724.386	6761.45
724.729	6808
725.071	6760.99
725.413	6758.96
725.755	6756.93
726.097	6787.89
726.439	6734.33
726.782	6749.7
727.124	6716.02
727.465	6673.09
727.807	6727.78
728.149	6665.63
728.491	6662.69
728.833	6688
729.175	6697.27
729.516	6641.45
729.858	6693.2
730.199	6617.72
730.541	6662.01
730.882	6672.64
731.224	6658.17
731.565	6640.55
731.906	6685.74
732.248	6701.11
732.589	6620.43
732.93	6686.87
733.271	6641
733.612	6662.01
733.953	6682.8
734.294	6669.02
734.635	6647.33
734.976	6666.99
735.317	6659.75
735.658	6650.71
735.999	6666.31
736.339	6679.41
736.68	6706.08
737.021	6733.2
737.361	6685.06
737.702	6726.42
738.042	6718.51
738.383	6628.57
738.723	6710.37
739.063	6723.48
739.404	6747.66
739.744	6700.66
740.084	6745.63
740.424	6780.88
740.764	6732.29
741.104	6773.88
741.444	6758.06
741.784	6786.08
742.124	6828.79
742.464	6839.41
742.804	6816.13
743.143	6798.96
743.483	6842.8
743.823	6817.04
744.162	6900.65
744.502	6919.41
744.841	6906.98
745.181	6955.11
745.52	6926.41
745.86	6977.71
746.199	6983.81
746.538	7095.22
746.877	7113.53
747.216	7200.76
747.556	7170.25
747.895	7212.51
748.234	7205.95
748.573	7260.87
748.911	7361.2
749.25	7375.44
749.589	7411.82
749.928	7506.96
750.267	7620.18
750.605	7709.9
750.944	7711.48
751.283	7753.28
751.621	7845.94
751.96	7907.18
752.298	7982.88
752.636	8109.21
752.975	8119.6
753.313	8266.04
753.651	8393.95
753.989	8426.49
754.327	8474.85
754.666	8620.61
755.004	8806.36
755.342	8912.58
755.679	8961.61
756.017	9102.63
756.355	9257.88
756.693	9336.07
757.031	9521.37
757.368	9685.21
757.706	9742.16
758.044	9899.9
758.381	10062.15
758.719	10214.92
759.056	10393.22
759.394	10547.34
759.731	10640.89
760.068	10802.47
760.405	10970.38
760.743	11020.32
761.08	11284.94
761.417	11439.06
761.754	11588.66
762.091	11757.02
762.428	11965.83
762.765	12022.78
763.102	12230.23
763.438	12434.52
763.775	12542.76
764.112	12854.85
764.449	12965.13
764.785	13113.82
765.122	13202.41
765.458	13249.86
765.795	13558.78
766.131	13726.01
766.467	13845.1
766.804	14005.55
767.14	14113.57
767.476	14269.05
767.812	14396.73
768.148	14586.78
768.485	14660.9
768.821	14765.53
769.157	14860.22
769.492	15029.25
769.828	15139.98
770.164	15209.59
770.5	15378.85
770.836	15478.73
771.171	15622.23
771.507	15767.54
771.842	15792.4
772.178	15869
772.513	15963.69
772.849	16120.07
773.184	16086.4
773.519	16311.93
773.855	16382.21
774.19	16424.92
774.525	16465.15
774.86	16600.06
775.195	16671.24
775.53	16757.79
775.865	16696.78
776.2	16755.08
776.535	16766.83
776.87	16811.13
777.205	16897.23
777.539	16841.41
777.874	17027.84
778.209	17007.05
778.543	17068.29
778.878	17003.21
779.212	17147.39
779.547	17182.64
779.881	17234.62
780.215	17185.81
780.55	17277.1
780.884	17308.06
781.218	17221.51
781.552	17246.37
781.886	17240.04
782.22	17322.3
782.554	17326.37
782.888	17214.5
783.222	17218.8
783.556	17260.15
783.889	17236.88
784.223	17159.14
784.557	17158.91
784.89	17328.17
785.224	17204.56
785.557	17085.92
785.891	17133.38
786.224	17262.41
786.558	17263.77
786.891	17063.32
787.224	17069.2
787.557	17056.09
787.891	17118.01
788.224	17197.78
788.557	17102.19
788.89	17164.56
789.223	17102.42
789.556	17088.63
789.888	17011.8
790.221	17013.83
790.554	16877.11
790.887	16943.78
791.219	16915.76
791.552	16853.16
791.884	16757.34
792.217	16849.54
792.549	16729.09
792.882	16754.4
793.214	16676.89
793.546	16775.87
793.879	16668.08
794.211	16543.56
794.543	16646.84
794.875	16533.39
795.207	16622.2
795.539	16599.83
795.871	16538.14
796.203	16461.76
796.535	16428.31
796.867	16436.45
797.198	16445.94
797.53	16356.45
797.862	16359.16
798.193	16331.82
798.525	16238.03
798.856	16282.33
799.188	16109.45
799.519	16112.16
799.85	15953.52
800.182	16094.99
800.513	16049.56
800.844	15981.54
801.175	16004.82
801.506	15996.68
801.837	15916.91
802.168	15922.56
802.499	15915.33
802.83	15778.84
803.161	15729.35
803.491	15740.42
803.822	15765.5
804.153	15681.66
804.483	15485.96
804.814	15446.64
805.145	15509.47
805.475	15574.32
805.805	15535.68
806.136	15452.07
806.466	15447.55
806.796	15450.94
807.126	15337.04
807.457	15310.15
807.787	15309.92
808.117	15299.75
808.447	15178.4
808.777	15219.3
809.107	15172.3
809.436	15119.42
809.766	15066.99
810.096	15076.26
810.426	15003.94
810.755	15023.15
811.085	14976.82
811.414	15008.91
811.744	14896.15
812.073	14822.25
812.403	14912.87
812.732	14787.9
813.061	14827.9
813.39	14727.11
813.719	14779.77
814.049	14783.38
814.378	14714.23
814.707	14688.24
815.036	14690.05
815.365	14559.66
815.693	14490.96
816.022	14454.35
816.351	14442.83
816.68	14389.27
817.008	14530.06
817.337	14375.26
817.665	14344.98
817.994	14385.88
818.322	14353.79
818.651	14194.7
818.979	14280.57
819.307	14325.32
819.636	14280.8
819.964	14125.32
820.292	14197.64
820.62	14150.4
820.948	14138.2
821.276	14249.16
821.604	14146.56
821.932	14206.67
822.259	14202.61
822.587	14190.18
822.915	14107.69
823.243	14211.19
823.57	14123.51
823.898	14149.5
824.225	14198.54
824.553	14137.98
824.88	14204.64
825.207	14127.81
825.535	14161.93
825.862	14252.32
826.189	14136.85
826.516	14227.24
826.843	14204.41
827.17	14297.07
827.497	14209.84
827.824	14197.18
828.151	14183.17
828.478	14194.7
828.805	14301.59
829.131	14260.46
829.458	14163.51
829.785	14037.64
830.111	14191.99
830.438	14179.78
830.764	14212.55
831.09	14249.16
831.417	14066.34
831.743	14183.85
832.069	14132.33
832.395	14104.08
832.722	14278.31
833.048	14057.07
833.374	14069.95
833.7	14052.1
834.026	14081.71
834.351	14071.08
834.677	14086.9
835.003	14124.19
835.329	13991.76
835.654	14062.95
835.98	13946.57
836.306	14002.16
836.631	14031.54
836.956	13937.53
837.282	13944.08
837.607	13965.1
837.932	13842.62
838.258	13925.1
838.583	13827.25
838.908	13878.1
839.233	13843.29
839.558	13854.14
839.883	13719.23
840.208	13775.95
840.533	13763.3
840.858	13707.7
841.182	13780.02
841.507	13738.44
841.832	13588.61
842.156	13574.15
842.481	13552.68
842.805	13590.42
843.13	13565.56
843.454	13498.22
843.778	13481.72
844.103	13396.53
844.427	13453.25
844.751	13422.74
845.075	13296.64
845.399	13305.68
845.723	13235.63
846.047	13272.91
846.371	13201.28
846.695	13233.59
847.019	13089.42
847.343	13010.55
847.666	12913.83
847.99	12886.48
848.313	12842.87
848.637	12825.24
848.96	12802.87
849.284	12805.58
849.607	12628.18
849.931	12652.59
850.254	12581.18
850.577	12472.48
850.9	12427.74
851.223	12470.45
851.546	12347.29
851.869	12311.58
852.192	12309.1
852.515	12186.84
852.838	12145.03
853.161	12126.28
853.483	12117.46
853.806	12060.74
854.129	12013.51
854.451	12057.35
854.774	11895.77
855.096	11837.7
855.419	11833.18
855.741	11844.48
856.063	11784.37
856.385	11694.2
856.708	11782.56
857.03	11675.67
857.352	11620.98
857.674	11611.49
857.996	11503.47
858.318	11532.17
858.64	11472.51
858.961	11493.75
859.283	11417.37
859.605	11355
859.926	11460.98
860.248	11347.09
860.57	11332.63
860.891	11378.27
861.212	11235.45
861.534	11242.46
861.855	11185.51
862.176	11197.71
862.498	11207.66
862.819	11280.2
863.14	11109.58
863.461	11026.65
863.782	11063.93
864.103	11068.23
864.424	11091.5
864.745	11056.47
865.065	11035.01
865.386	10984.61
865.707	10975.57
866.027	10876.59
866.348	10919.3
866.668	10894.9
866.989	10869.81
867.309	10836.37
867.63	10797.95
867.95	10847.44
868.27	10813.54
868.59	10797.95
868.91	10710.27
869.23	10728.35
869.55	10679.76
869.87	10744.17
870.19	10705.52
870.51	10720.66
870.83	10731.96
871.15	10637.5
871.469	10631.18
871.789	10671.4
872.109	10580.56
872.428	10600.44
872.748	10567.67
873.067	10580.1
873.386	10546.21
873.706	10543.95
874.025	10449.71
874.344	10430.5
874.663	10545.3
874.982	10465.3
875.301	10370.39
875.62	10456.04
875.939	10421.46
876.258	10425.08
876.577	10356.83
876.896	10329.49
877.214	10334.23
877.533	10355.48
877.852	10347.11
878.17	10281.35
878.489	10202.49
878.807	10240.9
879.125	10205.65
879.444	10295.59
879.762	10155.71
880.08	10286.55
880.398	10174.01
880.716	10181.47
881.034	10120.91
881.352	10077.74
881.67	10085.88
881.988	10131.3
882.306	10045.65
882.624	10031.87
882.941	10003.62
883.259	9887.92
883.577	9903.51
883.894	9922.49
884.212	9871.65
884.529	9882.49
884.846	9875.26
885.164	9876.17
885.481	9773.8
885.798	9784.87
886.115	9795.49
886.432	9741.48
886.75	9722.72
887.067	9710.3
887.383	9656.06
887.7	9715.27
888.017	9635.04
888.334	9636.17
888.651	9607.93
888.967	9575.16
889.284	9527.7
889.6	9463.3
889.917	9459.68
890.233	9452.22
890.55	9393.92
890.866	9420.36
891.182	9362.28
891.498	9270.76
891.815	9290.19
892.131	9310.31
892.447	9257.65
892.763	9222.62
893.079	9168.16
893.395	9206.58
893.71	9184.89
894.026	9124.32
894.342	9143.98
894.657	9032.57
894.973	8974.27
895.289	8975.4
895.604	9050.65
895.92	8905.57
896.235	8931.11
896.55	8866.02
896.865	8857.21
897.181	8873.71
897.496	8811.56
897.811	8786.93
898.126	8760.72
898.441	8675.52
898.756	8620.15
899.071	8607.95
899.386	8645.46
899.7	8533.6
900.015	8480.27
900.33	8451.12
900.644	8454.51
900.959	8454.74
901.273	8416.54
901.588	8372.03
901.902	8395.08
902.216	8301.07
902.531	8275.31
902.845	8254.51
903.159	8238.7
903.473	8205.02
903.787	8206.15
904.101	8095.87
904.415	8128.19
904.729	8025.14
905.042	8018.14
905.356	8005.93
905.67	7928.2
905.984	7987.4
906.297	7918.93
906.611	7912.15
906.924	7909.89
907.237	7837.35
907.551	7783.57
907.864	7806.84
908.177	7742.66
908.491	7762.1
908.804	7671.93
909.117	7631.03
909.43	7591.93
909.743	7498.38
910.056	7527.3
910.368	7502.67
910.681	7445.5
910.994	7465.38
911.307	7458.15
911.619	7374.31
911.932	7390.36
912.244	7252.28
912.557	7302.9
912.869	7249.8
913.181	7168.67
913.494	7215.22
913.806	7194.88
914.118	7118.95
914.43	7178.16
914.742	7105.62
915.054	7045.73
915.366	7026.3
915.678	6998.73
915.99	6988.56
916.302	6946.75
916.613	6931.16
916.925	6925.06
917.236	6878.51
917.548	6809.13
917.859	6837.6
918.171	6755.12
918.482	6753.76
918.794	6720.09
919.105	6734.33
919.416	6654.56
919.727	6699.3
920.038	6584.95
920.349	6610.72
920.66	6590.15
920.971	6596.25
921.282	6519.42
921.593	6465.41
921.903	6474.67
922.214	6447.56
922.525	6399.42
922.835	6427.44
923.146	6281.69
923.456	6292.31
923.767	6274.23
924.077	6273.1
924.387	6227.9
924.697	6262.02
925.008	6188.13
925.318	6195.13
925.628	6142.03
925.938	6084.18
926.248	6076.72
926.558	6057.06
926.867	6009.38
927.177	6004.63
927.487	6024.29
927.796	5919.66
928.106	5960.79
928.416	5957.17
928.725	5897.51
929.034	5887.57
929.344	5858.19
929.653	5860.23
929.962	5809.83
930.271	5746.11
930.581	5754.24
930.89	5742.94
931.199	5691.64
931.508	5699.1
931.817	5702.72
932.125	5632.44
932.434	5684.41
932.743	5593.79
933.051	5553.12
933.36	5554.02
933.669	5507.69
933.977	5464.76
934.286	5523.06
934.594	5482.84
934.902	5400.8
935.21	5416.4
935.519	5380.01
935.827	5384.53
936.135	5349.28
936.443	5345.89
936.751	5300.47
937.059	5312.67
937.367	5261.82
937.674	5240.81
937.982	5214.37
938.29	5218.66
938.597	5182.96
938.905	5120.59
939.213	5124.88
939.52	5121.49
939.827	5113.58
940.135	5049.4
940.442	5043.53
940.749	5008.27
941.056	4996.52
941.363	4960.14
941.67	4950.42
941.977	4986.8
942.284	4958.56
942.591	4864.77
942.898	4854.6
943.205	4874.04
943.511	4819.12
943.818	4788.84
944.125	4791.55
944.431	4715.17
944.738	4773.7
945.044	4725.34
945.35	4730.09
945.657	4655.29
945.963	4667.04
946.269	4600.83
946.575	4640.82
946.881	4603.54
947.187	4593.82
947.493	4524.9
947.799	4509.98
948.105	4528.74
948.41	4516.76
948.716	4509.75
949.022	4483.54
949.327	4466.37
949.633	4434.73
949.938	4456.65
950.244	4378.46
950.549	4396.76
950.854	4297.78
951.16	4325.13
951.465	4325.8
951.77	4314.51
952.075	4308.86
952.38	4276.31
952.685	4282.64
952.99	4214.85
953.294	4213.94
953.599	4194.73
953.904	4159.93
954.209	4121.06
954.513	4145.24
954.818	4107.73
955.122	4119.03
955.426	4086.71
955.731	4085.13
956.035	4015.76
956.339	4065.7
956.643	4081.74
956.948	4027.96
957.252	3954.97
957.556	3974.63
957.86	3940.5
958.163	3926.49
958.467	3870.45
958.771	3900.73
959.075	3898.7
959.378	3871.13
959.682	3846.49
959.985	3837.46
960.289	3820.96
960.592	3791.13
960.896	3785.71
961.199	3740.96
961.502	3752.71
961.805	3733.73
962.108	3720.62
962.411	3705.48
962.714	3692.6
963.017	3703
963.32	3711.58
963.623	3654.86
963.926	3633.17
964.228	3595.2
964.531	3600.85
964.833	3580.29
965.136	3601.3
965.438	3564.02
965.741	3473.85
966.043	3554.3
966.345	3495.77
966.648	3421.42
966.95	3500.74
967.252	3419.16
967.554	3442.21
967.856	3424.81
968.158	3411.7
968.46	3392.72
968.761	3399.05
969.063	3383
969.365	3380.52
969.666	3352.04
969.968	3329.67
970.269	3304.36
970.571	3287.64
970.872	3293.97
971.174	3277.24
971.475	3258.94
971.776	3212.61
972.077	3212.61
972.378	3230.24
972.679	3206.51
972.98	3183.46
973.281	3161.32
973.582	3148.89
973.883	3173.29
974.183	3125.16
974.484	3137.36
974.785	3114.54
975.085	3076.12
975.386	3060.07
975.686	3052.62
975.986	3100.3
976.287	3039.28
976.587	3020.3
976.887	3013.75
977.187	3021.88
977.487	2986.86
977.787	2962.9
978.087	2931.49
978.387	2985.5
978.687	2944.82
978.987	2933.3
979.286	2893.98
979.586	2879.97
979.885	2883.58
980.185	2848.33
980.484	2843.81
980.784	2863.92
981.083	2827.09
981.382	2830.93
981.682	2764.26
981.981	2774.88
982.28	2796.58
982.579	2758.39
982.878	2745.96
983.177	2752.51
983.475	2737.15
983.774	2738.5
984.073	2689.92
984.372	2689.69
984.67	2667.32
984.969	2682.23
985.267	2660.09
985.566	2662.35
985.864	2630.48
986.162	2638.62
986.461	2589.58
986.759	2597.26
987.057	2585.06
987.355	2569.01
987.653	2538.51
987.951	2519.3
988.249	2500.77
988.547	2507.1
988.844	2487.89
989.142	2507.77
989.44	2505.51
989.737	2490.37
990.035	2460.77
990.332	2432.52
990.63	2437.49
990.927	2413.31
991.224	2456.02
991.521	2408.79
991.819	2384.16
992.116	2394.33
992.413	2373.77
992.71	2384.16
993.006	2359.53
993.303	2347.1
993.6	2347.1
993.897	2269.81
994.193	2315.69
994.49	2316.37
994.787	2295.35
995.083	2269.36
995.379	2259.42
995.676	2276.59
995.972	2258.06
996.268	2244.05
996.565	2162.47
996.861	2161.34
997.157	2232.07
997.453	2160.66
997.749	2185.52
998.044	2164.05
998.34	2148.69
998.636	2130.61
998.932	2127.44
999.227	2143.94
999.523	2129.03
999.818	2108.24
1000.114	2119.08
1000.409	2099.87
1000.704	2061.01
1001	2043.6
1001.295	2036.15
1001.59	2009.03
1001.885	2035.92
1002.18	2033.44
1002.475	1995.7
1002.77	2025.53
1003.065	1994.11
1003.359	1990.27
1003.654	1961.12
1003.949	1942.36
1004.243	1964.74
1004.538	1917.28
1004.832	1953.44
1005.127	1902.37
1005.421	1891.74
1005.715	1868.02
1006.009	1872.99
1006.304	1878.86
1006.598	1879.99
1006.892	1849.03
1007.186	1863.95
1007.48	1831.63
1007.773	1790.96
1008.067	1801.8
1008.361	1777.85
1008.655	1775.14
1008.948	1752.76
1009.242	1734.01
1009.535	1731.3
1009.829	1708.25
1010.122	1703.05
1010.415	1717.96
1010.708	1687.23
1011.001	1685.2
1011.295	1665.08
1011.588	1692.43
1011.881	1660.11
1012.173	1678.87
1012.466	1655.37
1012.759	1628.47
1013.052	1629.38
1013.344	1631.86
1013.637	1608.81
1013.93	1609.72
1014.222	1565.65
1014.514	1611.75
1014.807	1577.18
1015.099	1578.98
1015.391	1527.69
1015.683	1535.14
1015.976	1532.43
1016.268	1506.44
1016.56	1516.39
1016.851	1522.26
1017.143	1497.86
1017.435	1496.05
1017.727	1456.95
1018.018	1467.57
1018.31	1458.99
1018.602	1462.15
1018.893	1455.15
1019.185	1461.92
1019.476	1431.42
1019.767	1454.69
1020.058	1415.15
1020.35	1402.49
1020.641	1369.5
1020.932	1400.23
1021.223	1383.28
1021.514	1373.57
1021.804	1363.4
1022.095	1344.41
1022.386	1342.61
1022.677	1320.46
1022.967	1349.16
1023.258	1303.96
1023.548	1291.53
1023.839	1310.06
1024.129	1284.08
1024.419	1263.51
1024.709	1258.54
1025	1272.78
1025.29	1227.58
1025.58	1261.03
1025.87	1247.24
1026.16	1221.03
1026.449	1234.81
1026.739	1201.59
1027.029	1207.69
1027.319	1210.63
1027.608	1179.22
1027.898	1168.6
1028.187	1180.58
1028.477	1165.44
1028.766	1167.92
1029.055	1122.05
1029.344	1152.1
1029.634	1120.01
1029.923	1136.06
1030.212	1117.3
1030.501	1117.53
1030.79	1111.2
1031.078	1114.82
1031.367	1104.42
1031.656	1083.86
1031.945	1083.4
1032.233	1082.95
1032.522	1063.52
1032.81	1058.77
1033.099	1056.96
1033.387	1052.67
1033.675	1051.77
1033.963	1047.7
1034.251	1008.83
1034.54	1036.85
1034.828	1021.03
1035.116	1012.9
1035.403	1011.09
1035.691	1000.24
1035.979	995.04
1036.267	990.52
1036.554	938.1
1036.842	1002.05
1037.129	960.7
1037.417	950.53
1037.704	939.9
1037.992	922.5
1038.279	951.43
1038.566	921.15
1038.853	921.15
1039.14	921.15
