Data from hue_350_FLMS001491_30.txt Node
Date: Mon Feb 06 15:37:49 GMT 2017
User: dcchb
Spectrometer: FLMS00149
Trigger mode: 0
Integration Time (sec): 2.000000E-2
Scans to average: 10
Electric dark correction enabled: true
Nonlinearity correction enabled: false
Boxcar width: 0
XAxis mode: Wavelengths
Number of Pixels in Spectrum: 2048
>>>>>Begin Spectral Data<<<<<
341.393	-17.8
341.776	-17.8
342.16	-17.8
342.543	-58.25
342.927	-68.42
343.31	-72.48
343.693	-77
344.077	-52.6
344.46	-41.07
344.843	-59.15
345.226	-56.89
345.61	-39.94
345.993	-23.22
346.376	-8.76
346.759	16.78
347.142	37.57
347.525	35.99
347.908	64.69
348.291	77.79
348.674	89.32
349.057	108.98
349.44	143.33
349.823	128.19
350.206	161.41
350.588	203.67
350.971	205.93
351.354	222.2
351.737	224.91
352.119	241.18
352.502	258.13
352.884	254.74
353.267	257
353.65	273.72
354.032	289.54
354.414	295.87
354.797	302.65
355.179	310.33
355.562	329.31
355.944	341.29
356.326	321.86
356.709	328.64
357.091	339.93
357.473	347.62
357.855	351.69
358.238	354.85
358.62	337.22
359.002	356.43
359.384	330.9
359.766	334.74
360.148	342.65
360.53	322.31
360.912	363.66
361.294	325.02
361.676	334.06
362.057	326.15
362.439	332.7
362.821	344
363.203	341.29
363.584	314.62
363.966	332.25
364.348	334.74
364.729	299.48
365.111	304
365.493	297.45
365.874	310.56
366.256	304.68
366.637	310.56
367.019	303.33
367.4	306.26
367.781	300.61
368.163	323.89
368.544	301.29
368.925	321.4
369.306	324.12
369.688	299.71
370.069	317.34
370.45	296.55
370.831	317.79
371.212	305.59
371.593	309.43
371.974	320.95
372.355	335.41
372.736	296.77
373.117	328.41
373.498	316.21
373.879	309.43
374.26	332.03
374.641	303.55
375.021	307.85
375.402	325.02
375.783	326.15
376.163	314.62
376.544	306.72
376.925	324.57
377.305	333.61
377.686	313.95
378.066	329.77
378.447	329.09
378.827	320.05
379.208	324.12
379.588	322.31
379.968	324.34
380.349	324.57
380.729	325.02
381.109	335.41
381.489	327.51
381.87	315.75
382.25	332.25
382.63	342.65
383.01	325.02
383.39	347.39
383.77	327.51
384.15	329.99
384.53	342.19
384.91	331.57
385.29	349.65
385.67	329.54
386.049	358.01
386.429	363.21
386.809	337.67
387.189	327.51
387.568	349.65
387.948	358.92
388.328	344.68
388.707	359.37
389.087	351.23
389.466	364.11
389.846	360.05
390.225	355.98
390.605	369.76
390.984	379.93
391.363	343.78
391.743	365.47
392.122	380.84
392.501	357.56
392.881	347.39
393.26	351.23
393.639	366.83
394.018	367.5
394.397	377.67
394.776	355.75
395.155	351.23
395.534	344.68
395.913	362.98
396.292	384.23
396.671	374.28
397.05	367.73
397.429	370.67
397.808	360.72
398.186	354.17
398.565	376.77
398.944	380.39
399.323	387.84
399.701	379.71
400.08	389.42
400.458	376.09
400.837	385.81
401.215	401.4
401.594	393.94
401.972	392.14
402.351	390.78
402.729	384
403.107	407.05
403.486	415.41
403.864	390.1
404.242	412.7
404.62	418.12
404.999	398.46
405.377	441.85
405.755	407.73
406.133	428.07
406.511	416.32
406.889	413.38
407.267	412.93
407.645	423.32
408.023	429.2
408.401	408.63
408.779	423.55
409.156	435.07
409.534	444.11
409.912	437.33
410.29	447.05
410.667	452.7
411.045	440.27
411.422	431.23
411.8	456.32
412.178	450.44
412.555	457.22
412.933	461.97
413.31	469.42
413.687	465.35
414.065	478.24
414.442	474.39
414.819	472.13
415.197	488.86
415.574	479.37
415.951	489.31
416.328	492.7
416.705	472.13
417.082	491.12
417.46	471.91
417.837	485.69
418.214	497.44
418.591	484.79
418.967	511.68
419.344	502.42
419.721	534.28
420.098	527.05
420.475	524.11
420.852	521.85
421.228	546.26
421.605	541.51
421.982	548.29
422.358	528.4
422.735	525.69
423.111	548.74
423.488	546.26
423.864	545.13
424.241	549.19
424.617	562.98
424.994	574.5
425.37	549.19
425.746	580.38
426.123	565.47
426.499	555.52
426.875	567.5
427.251	570.21
427.627	612.02
428.003	581.96
428.379	599.36
428.756	616.54
429.132	612.7
429.507	607.72
429.883	625.35
430.259	630.32
430.635	645.24
431.011	627.84
431.387	649.53
431.763	649.76
432.138	657.21
432.514	657.21
432.89	650.89
433.265	682.52
433.641	669.42
434.016	682.75
434.392	672.13
434.767	682.07
435.143	693.6
435.518	701.73
435.894	709.64
436.269	709.64
436.644	726.14
437.02	703.31
437.395	718.68
437.77	746.48
438.145	728.4
438.52	729.53
438.895	738.57
439.271	746.03
439.646	746.03
440.021	749.42
440.395	762.07
440.77	759.36
441.145	779.92
441.52	766.59
441.895	781.96
442.27	777.21
442.645	760.26
443.019	804.1
443.394	799.58
443.769	790.77
444.143	792.8
444.518	801.62
444.892	800.94
445.267	817.21
445.641	824.44
446.016	808.17
446.39	853.14
446.764	855.63
447.139	831
447.513	847.94
447.887	845.01
448.262	838.9
448.636	848.62
449.01	853.14
449.384	875.74
449.758	858.79
450.132	893.59
450.506	838.9
450.88	888.62
451.254	869.19
451.628	899.69
452.002	886.59
452.376	910.77
452.75	885.23
453.123	912.8
453.497	924.33
453.871	930.88
454.244	952.35
454.618	937.21
454.992	970.88
455.365	948.96
455.739	962.52
456.112	964.32
456.486	974.27
456.859	1015.85
457.232	1015.17
457.606	1024.89
457.979	1031.22
458.352	1023.08
458.725	1041.61
459.099	1014.27
459.472	1068.95
459.845	1060.59
460.218	1069.63
460.591	1092.46
460.964	1061.27
461.337	1124.09
461.71	1096.07
462.083	1138.56
462.456	1151.44
462.829	1132.91
463.201	1117.99
463.574	1144.21
463.947	1176.07
464.32	1178.1
464.692	1186.92
465.065	1200.48
465.438	1200.7
465.81	1235.28
466.183	1242.51
466.555	1253.58
466.928	1239.35
467.3	1256.75
467.672	1277.54
468.045	1279.12
468.417	1313.69
468.789	1314.37
469.161	1344.88
469.534	1341.72
469.906	1393.47
470.278	1407.93
470.65	1407.25
471.022	1429.85
471.394	1460.13
471.766	1479.34
472.138	1475.5
472.51	1504.65
472.882	1520.24
473.253	1537.19
473.625	1523.63
473.997	1562.05
474.369	1587.36
474.74	1634.36
475.112	1658.32
475.484	1652.22
475.855	1702.16
476.227	1729.73
476.598	1772.67
476.97	1735.38
477.341	1793.23
477.713	1845.88
478.084	1842.72
478.455	1904.41
478.827	1930.4
479.198	1980.34
479.569	1963.17
479.94	2049.04
480.311	2045.65
480.682	2065.76
481.053	2112.77
481.424	2151.19
481.795	2177.17
482.166	2229.83
482.537	2228.25
482.908	2282.93
483.279	2329.03
483.65	2358.64
484.021	2374.68
484.391	2457.84
484.762	2437.28
485.133	2472.53
485.503	2521.8
485.874	2586.66
486.244	2585.07
486.615	2622.36
486.985	2687.44
487.356	2723.83
487.726	2707.78
488.097	2798.85
488.467	2777.16
488.837	2863.71
489.207	2899.42
489.578	2951.17
489.948	2965.63
490.318	3052.63
490.688	3053.76
491.058	3089.69
491.428	3121.56
491.798	3181.67
492.168	3171.5
492.538	3217.15
492.908	3286.75
493.278	3319.07
493.648	3326.75
494.017	3404.49
494.387	3411.94
494.757	3440.64
495.126	3475.67
495.496	3460.76
495.866	3486.97
496.235	3519.74
496.605	3561.09
496.974	3619.4
497.344	3630.47
497.713	3667.76
498.082	3685.16
498.452	3700.3
498.821	3732.84
499.19	3731.26
499.559	3771.93
499.928	3763.57
500.298	3824.14
500.667	3847.41
501.036	3817.13
501.405	3907.52
501.774	3909.33
502.143	3904.81
502.512	3922.89
502.88	4004.47
503.249	4009.67
503.618	4016.67
503.987	4038.14
504.356	4035.88
504.724	4070.01
505.093	4060.06
505.462	4101.19
505.83	4098.48
506.199	4157.46
506.567	4216.22
506.936	4183.45
507.304	4243.11
507.672	4213.96
508.041	4236.78
508.409	4275.42
508.777	4283.33
509.145	4362.2
509.514	4318.36
509.882	4357.46
510.25	4330.79
510.618	4395.87
510.986	4411.47
511.354	4412.14
511.722	4485.14
512.09	4510.45
512.458	4436.1
512.826	4520.16
513.193	4535.76
513.561	4550.67
513.929	4556.32
514.297	4604.91
514.664	4625.7
515.032	4590.22
515.4	4636.09
515.767	4719.48
516.135	4694.62
516.502	4650.1
516.869	4747.73
517.237	4724.68
517.604	4690.1
517.972	4794.51
518.339	4781.63
518.706	4827.27
519.073	4815.98
519.44	4832.47
519.808	4837.22
520.175	4856.43
520.542	4938.23
520.909	4902.75
521.276	4958.12
521.643	5014.84
522.009	4997.44
522.376	5012.35
522.743	5022.3
523.11	5039.47
523.477	5081.96
523.843	5145.46
524.21	5169.64
524.577	5173.71
524.943	5204.67
525.31	5223.65
525.676	5288.28
526.043	5266.58
526.409	5269.07
526.776	5355.17
527.142	5344.77
527.508	5407.15
527.874	5426.81
528.241	5399.91
528.607	5460.7
528.973	5448.05
529.339	5486.92
529.705	5543.64
530.071	5574.37
530.437	5573.24
530.803	5607.37
531.169	5654.6
531.535	5646.46
531.901	5655.73
532.267	5682.17
532.632	5728.27
532.998	5762.62
533.364	5761.49
533.73	5733.47
534.095	5860.24
534.461	5813.91
534.826	5933.01
535.192	5904.53
535.557	5968.04
535.923	5977.53
536.288	6010.75
536.653	6009.62
537.019	6007.58
537.384	6024.98
537.749	6093.23
538.114	6117.64
538.479	6119.67
538.845	6155.83
539.21	6170.52
539.575	6175.71
539.94	6207.8
540.305	6215.49
540.67	6221.81
541.034	6236.95
541.399	6282.6
541.764	6310.17
542.129	6373.22
542.494	6389.04
542.858	6391.53
543.223	6430.17
543.587	6491.64
543.952	6417.74
544.316	6462.26
544.681	6471.75
545.045	6606.21
545.41	6580
545.774	6578.41
546.138	6608.92
546.503	6645.98
546.867	6630.16
547.231	6685.98
547.595	6668.81
547.959	6753.33
548.324	6723.27
548.688	6808.47
549.052	6872.87
549.416	6805.98
549.779	6818.63
550.143	6836.26
550.507	6931.63
550.871	6941.34
551.235	6906.54
551.599	6944.51
551.962	6987.44
552.326	7000.1
552.689	7015.47
553.053	7056.59
553.417	7074.9
553.78	7130.26
554.143	7170.49
554.507	7142.92
554.87	7127.78
555.234	7196.48
555.597	7146.76
555.96	7207.32
556.323	7275.12
556.686	7289.36
557.05	7296.81
557.413	7319.64
557.776	7355.12
558.139	7421.33
558.502	7415.91
558.865	7395.34
559.228	7452.29
559.59	7441.44
559.953	7478.73
560.316	7601.21
560.679	7527.09
561.041	7585.39
561.404	7623.13
561.767	7672.17
562.129	7567.32
562.492	7699.52
562.854	7726.18
563.217	7781.32
563.579	7700.87
563.941	7843.92
564.304	7788.33
564.666	7867.19
565.028	7832.62
565.39	7866.74
565.753	7936.34
566.115	7968.89
566.477	7986.29
566.839	8083.01
567.201	8061.54
567.563	8094.98
567.925	8090.01
568.287	8140.18
568.648	8103.57
569.01	8219.95
569.372	8250.01
569.734	8223.57
570.095	8265.15
570.457	8332.04
570.819	8353.51
571.18	8305.15
571.542	8432.83
571.903	8474.64
572.265	8483.22
572.626	8570.68
572.987	8567.97
573.349	8650.9
573.71	8663.33
574.071	8761.18
574.432	8769.32
574.794	8898.58
575.155	8895.64
575.516	8875.53
575.877	9035.98
576.238	9012.7
576.599	9135.64
576.96	9132.25
577.32	9260.83
577.681	9323.43
578.042	9376.08
578.403	9439.13
578.763	9500.15
579.124	9567.04
579.485	9753.92
579.845	9802.28
580.206	9935.16
580.566	10066.68
580.927	10053.35
581.287	10242.95
581.648	10271.42
582.008	10468.71
582.368	10661.47
582.728	10746.21
583.089	10837.96
583.449	11037.96
583.809	11212.42
584.169	11352.07
584.529	11450.83
584.889	11733.08
585.249	11815.34
585.609	11938.95
585.969	12211.03
586.329	12402.22
586.688	12497.36
587.048	12722.66
587.408	12815.76
587.768	13094.63
588.127	13374.85
588.487	13462.75
588.846	13791.56
589.206	14035.85
589.565	14273.13
589.925	14504.53
590.284	14732.78
590.643	15009.61
591.003	15192.88
591.362	15524.17
591.721	15807.32
592.08	16035.57
592.44	16299.06
592.799	16552.39
593.158	16783.34
593.517	17053.62
593.876	17454.74
594.235	17615.64
594.593	18045.46
594.952	18236.87
595.311	18479.12
595.67	18745.55
596.029	19270.51
596.387	19416.72
596.746	19698.97
597.104	19950.04
597.463	20204.72
597.822	20585.5
598.18	20785.95
598.538	21020.75
598.897	21474.29
599.255	21443.56
599.613	22092.13
599.972	22197.21
600.33	22493.25
600.688	22726.01
601.046	23053.69
601.404	23306.34
601.762	23502.49
602.12	23829.71
602.478	24258.18
602.836	24440.32
603.194	24683.02
603.552	24935.45
603.91	25047.99
604.268	25383.57
604.625	25584.24
604.983	25969.77
605.341	26034.4
605.698	26346.26
606.056	26652.24
606.413	26865.56
606.771	27114.15
607.128	27466
607.485	27584.64
607.843	27795.71
608.2	28027.12
608.557	28409.93
608.914	28439.08
609.272	28799.75
609.629	29065.96
609.986	29338.49
610.343	29321.77
610.7	29793.62
611.057	30004.24
611.414	30037.46
611.771	30319.03
612.127	30512.25
612.484	30629.08
612.841	30866.82
613.198	31130.99
613.554	31349.74
613.911	31463.64
614.267	31614.14
614.624	31830.63
614.98	31887.81
615.337	32135.71
615.693	32266.33
616.05	32498.41
616.406	32752.64
616.762	32634
617.118	32947.66
617.475	33031.28
617.831	33260.2
618.187	33500.19
618.543	33557.59
618.899	33900.63
619.255	33939.73
619.611	33962.33
619.967	34255.88
620.323	34340.85
620.678	34400.51
621.034	34387.85
621.39	34481.64
621.746	34563.44
622.101	35073.48
622.457	34750.33
622.812	34952.13
623.168	35189.19
623.523	35392.12
623.879	35488.84
624.234	35306.7
624.589	35591.21
624.945	35516.41
625.3	35685.22
625.655	35848.38
626.01	35861.03
626.365	36029.62
626.72	35986
627.075	36045.44
627.43	36149.39
627.785	36074.59
628.14	36249.27
628.495	36216.28
628.85	36291.98
629.205	36207.69
629.559	36476.61
629.914	36287.46
630.269	36443.62
630.623	36362.49
630.978	36434.35
631.332	36584.41
631.687	36597.29
632.041	36451.53
632.396	36644.29
632.75	36528.36
633.104	36657.4
633.459	36582.6
633.813	36544.41
634.167	36631.86
634.521	36689.94
634.875	36679.77
635.229	36663.5
635.583	36586.21
635.937	36775.13
636.291	36574.01
636.645	36681.13
636.999	36660.34
637.352	36754.34
637.706	36642.71
638.06	36881.8
638.413	36674.12
638.767	36732.65
639.121	36755.47
639.474	36533.56
639.828	36632.77
640.181	36828.24
640.534	36631.18
640.888	36535.82
641.241	36619.43
641.594	36674.57
641.947	36697.62
642.301	36568.36
642.654	36649.71
643.007	36703.27
643.36	36597.29
643.713	36536.95
644.066	36810.39
644.419	36453.79
644.771	36279.78
645.124	35942.61
645.477	35830.98
645.83	35766.35
646.182	35628.72
646.535	35489.29
646.888	35536.52
647.24	35353.25
647.593	35637.09
647.945	35559.8
648.298	35293.59
648.65	35308.28
649.002	35209.53
649.355	35431.44
649.707	35256.98
650.059	35632.11
650.411	35932.22
650.763	35957.3
651.115	36251.31
651.467	36145.77
651.819	36197.52
652.171	36246.11
652.523	36077.75
652.875	36119.78
653.227	35797.08
653.578	36202.04
653.93	36085.21
654.282	36029.39
654.633	35856.97
654.985	35946.91
655.337	35947.13
655.688	35953.69
656.039	36146.9
656.391	35805.89
656.742	35805.67
657.094	35849.06
657.445	36093.34
657.796	35827.36
658.147	35976.06
658.498	35834.82
658.849	35973.35
659.2	35870.98
659.551	35838.89
659.902	35978.55
660.253	35946.46
660.604	35927.25
660.955	35762.51
661.306	35920.47
661.656	35855.16
662.007	35906.91
662.358	35761.15
662.708	35776.29
663.059	35808.38
663.409	35473.47
663.76	35869.62
664.11	35786.91
664.461	35842.5
664.811	35779.91
665.161	35774.03
665.511	35676.86
665.862	35856.29
666.212	35906.46
666.562	35912.78
666.912	35790.08
667.262	35696.75
667.612	35827.14
667.962	35771.77
668.312	35773.35
668.662	36014.02
669.011	35848.83
669.361	35748.5
669.711	35737.2
670.06	35663.98
670.41	35650.42
670.76	35551.21
671.109	35688.38
671.459	35710.08
671.808	35505.34
672.157	35613.36
672.507	35423.53
672.856	35447.94
673.205	35436.64
673.554	35656.07
673.904	35354.61
674.253	35513.7
674.602	35490.87
674.951	35042.75
675.3	35040.72
675.649	35374.27
675.998	35264.44
676.346	35477.77
676.695	35450.65
677.044	35135.86
677.393	35331.33
677.741	35322.97
678.09	35211.79
678.438	35209.75
678.787	35314.38
679.135	35304.44
679.484	35106.25
679.832	35134.5
680.181	34954.62
680.529	35079.36
680.877	35010.66
681.225	34792.14
681.573	35052.92
681.922	34914.62
682.27	34787.16
682.618	34900.38
682.966	34612.71
683.314	34909.87
683.661	34786.71
684.009	34523.89
684.357	34419.04
684.705	34469.88
685.053	34379.72
685.4	34386.72
685.748	34141.08
686.095	34240.96
686.443	34147.41
686.79	34080.52
687.138	34046.62
687.485	34150.57
687.832	34016.34
688.18	34133.17
688.527	33815.21
688.874	33876.91
689.221	33795.1
689.568	33669.45
689.915	33599.63
690.262	33685.27
690.609	33529.12
690.956	33284.38
691.303	33405.96
691.65	33182.23
691.997	33308.56
692.344	33027.89
692.69	32975.91
693.037	33049.81
693.383	32783.15
693.73	32947.44
694.077	32757.84
694.423	32678.52
694.769	32643.72
695.116	32594.45
695.462	32525.3
695.808	32363.27
696.155	32453.44
696.501	32265.2
696.847	32231.07
697.193	31948.82
697.539	32078.54
697.885	31871.76
698.231	31651.43
698.577	31838.09
698.923	31604.2
699.269	31535.27
699.614	31438.55
699.96	31443.07
700.306	31354.03
700.651	31283.98
700.997	31253.7
701.342	31104.78
701.688	31081.27
702.033	30960.82
702.379	30956.98
702.724	30737.55
703.069	30818.23
703.415	30359.26
703.76	30416.43
704.105	30623.66
704.45	30449.65
704.795	30280.62
705.14	30277.68
705.485	30128.98
705.83	30084.24
706.175	30183.22
706.52	30045.37
706.865	29972.15
707.209	29933.28
707.554	29792.49
707.899	29885.82
708.243	29695.09
708.588	29697.81
708.932	29533.97
709.277	29319.74
709.621	29448.32
709.966	29228.21
710.31	29383.01
710.654	29187.76
710.998	29144.37
711.342	29257.37
711.687	29091.04
712.031	28958.39
712.375	28819.86
712.719	28945.06
713.063	28792.29
713.407	28922.46
713.75	28752.29
714.094	28846.76
714.438	28750.49
714.782	28673.2
715.125	28496.71
715.469	28454.9
715.812	28399.76
716.156	28247.22
716.499	28206.55
716.843	28323.61
717.186	28037.74
717.53	28157.28
717.873	28146.21
718.216	28181.69
718.559	27928.14
718.902	27766.56
719.246	27923.84
719.589	27821.47
719.932	27740.34
720.275	27590.29
720.617	27634.81
720.96	27540.12
721.303	27557.07
721.646	27674.58
721.989	27311.2
722.331	27452.89
722.674	27433.69
723.016	27489.96
723.359	27294.71
723.701	27398.21
724.044	27168.38
724.386	26936.52
724.729	27130.87
725.071	27071.89
725.413	26973.58
725.755	27040.48
726.097	26874.38
726.439	26762.74
726.782	26903.08
727.124	27086.35
727.465	26793.93
727.807	26773.14
728.149	26716.64
728.491	26601.39
728.833	26649.07
729.175	26591.9
729.516	26415.86
729.858	26513.94
730.199	26479.36
730.541	26428.06
730.882	26414.28
731.224	26536.08
731.565	26281.17
731.906	26275.3
732.248	26258.58
732.589	26122.08
732.93	26050.44
733.271	26146.26
733.612	26114.17
733.953	26010.45
734.294	26012.93
734.635	26045.93
734.976	26021.07
735.317	25809.77
735.658	25904.01
735.999	25742.2
736.339	25807.06
736.68	25870.56
737.021	25669.21
737.361	25610.23
737.702	25772.49
738.042	25610.23
738.383	25603.68
738.723	25704.47
739.063	25476.9
739.404	25630.34
739.744	25574.53
740.084	25435.32
740.424	25420.63
740.764	25441.87
741.104	25473.06
741.444	25250.24
741.784	25160.52
742.124	25287.53
742.464	25310.35
742.804	25134.54
743.143	25112.62
743.483	25103.13
743.823	24980.19
744.162	24986.52
744.502	25109.68
744.841	24932.06
745.181	25046.18
745.52	24824.49
745.86	25056.8
746.199	24823.13
746.538	24812.06
746.877	24796.69
747.216	24763.47
747.556	24744.72
747.895	24742
748.234	24596.7
748.573	24612.97
748.911	24599.18
749.25	24544.27
749.589	24379.75
749.928	24420.66
750.267	24430.83
750.605	24445.97
750.944	24360.77
751.283	24195.8
751.621	24222.24
751.96	24137.95
752.298	24192.19
752.636	24148.12
752.975	24018.86
753.313	23969.14
753.651	24004.17
753.989	23851.41
754.327	23808.47
754.666	23894.12
755.004	23715.14
755.342	23731.41
755.679	23643.73
756.017	23561.7
756.355	23699.32
756.693	23523.96
757.031	23552.88
757.368	23555.6
757.706	23387.92
758.044	23253.91
758.381	23316.28
758.719	23191.76
759.056	23170.52
759.394	23146.57
759.731	23063.86
760.068	23084.65
760.405	22959.68
760.743	22755.39
761.08	22835.84
761.417	22726.01
761.754	22711.55
762.091	22632
762.428	22548.84
762.765	22343.65
763.102	22476.3
763.438	22395.17
763.775	22298.68
764.112	22237.66
764.449	22316.53
764.785	22159.93
765.122	22059.14
765.458	21983.89
765.795	22016.88
766.131	21960.16
766.467	21718.13
766.804	21827.51
767.14	21724.23
767.476	21587.74
767.812	21611.92
768.148	21631.35
768.485	21545.03
768.821	21379.83
769.157	21307.07
769.492	21300.74
769.828	21174.19
770.164	21048.09
770.5	20998.15
770.836	20954.53
771.171	20849.45
771.507	20808.1
771.842	20619.63
772.178	20615.11
772.513	20585.73
772.849	20483.13
773.184	20403.36
773.519	20409.46
773.855	20350.71
774.19	20271.61
774.525	20110.26
774.86	20156.59
775.195	20038.4
775.53	19947.78
775.865	19929.25
776.2	19756.15
776.535	19600.22
776.87	19690.16
777.205	19649.71
777.539	19472.99
777.874	19651.29
778.209	19313.9
778.543	19350.73
778.878	19279.78
779.212	19087.46
779.547	19039.33
779.881	19104.64
780.215	18970.41
780.55	18959.78
780.884	18899.9
781.218	18739.45
781.552	18798.43
781.886	18675.72
782.22	18558.44
782.554	18522.51
782.888	18304.43
783.222	18332.68
783.556	18238.45
783.889	18196.19
784.223	18045.68
784.557	18016.98
784.89	17994.39
785.224	17929.98
785.557	17888.85
785.891	17864.67
786.224	17676.43
786.558	17687.28
786.891	17601.4
787.224	17449.77
787.557	17428.75
787.891	17439.6
788.224	17394.4
788.557	17464
788.89	17422.88
789.223	17279.6
789.556	17070.12
789.888	17097.23
790.221	17048.87
790.554	16930.01
790.887	16979.27
791.219	16869.9
791.552	16746.73
791.884	16790.12
792.217	16685.95
792.549	16739.96
792.882	16595.1
793.214	16494.54
793.546	16476.01
793.879	16382
794.211	16279.63
794.543	16381.32
794.875	16259.97
795.207	16232.85
795.539	16188.33
795.871	16207.99
796.203	16009.58
796.535	15972.97
796.867	15917.6
797.198	15920.77
797.53	15880.09
797.862	15765.97
798.193	15733.88
798.525	15578.86
798.856	15734.56
799.188	15578.63
799.519	15430.16
799.85	15355.58
800.182	15391.52
800.513	15389.26
800.844	15261.12
801.175	15335.47
801.506	15267.68
801.837	15198.53
802.168	15213.22
802.499	15059.32
802.83	14968.7
803.161	14983.17
803.491	14989.49
803.822	15071.98
804.153	14821.14
804.483	14811.64
804.814	14692.33
805.145	14671.54
805.475	14655.26
805.805	14619.56
806.136	14660.24
806.466	14601.48
806.796	14550.18
807.126	14413.46
807.457	14435.84
807.787	14413.01
808.117	14325.1
808.447	14354.93
808.777	14354.48
809.107	14315.39
809.436	14234.48
809.766	14221.15
810.096	14191.1
810.426	14131.66
810.755	14099.8
811.085	14064.09
811.414	14085.34
811.744	14015.28
812.073	13928.73
812.403	13884.89
812.732	13780.03
813.061	13786.36
813.39	13724.44
813.719	13724.44
814.049	13774.38
814.378	13640.83
814.707	13607.16
815.036	13669.98
815.365	13553.37
815.693	13466.37
816.022	13458.46
816.351	13343.21
816.68	13413.72
817.008	13417.56
817.337	13240.84
817.665	13185.47
817.994	13289.88
818.322	13240.39
818.651	13167.85
818.979	13073.16
819.307	13147.51
819.636	13097.34
819.964	12990.68
820.292	13077.23
820.62	12990.9
820.948	12955.2
821.276	13001.97
821.604	12976.44
821.932	13078.36
822.259	12986.38
822.587	13020.51
822.915	12936.44
823.243	13010.34
823.57	12988.19
823.898	12929.21
824.225	12931.47
824.553	12874.52
824.88	12952.94
825.207	12972.14
825.535	12907.74
825.862	12927.63
826.189	12887.18
826.516	12930.56
826.843	12915.42
827.17	12830.23
827.497	12965.82
827.824	12945.93
828.151	12921.52
828.478	12961.3
828.805	13041.97
829.131	12849.66
829.458	12801.75
829.785	12799.95
830.111	12785.26
830.438	12911.81
830.764	12931.47
831.09	12884.24
831.417	12890.79
831.743	12863.22
832.069	12884.46
832.395	12807.4
832.722	12893.95
833.048	12820.06
833.374	12767.18
833.7	12721.3
834.026	12699.84
834.351	12725.6
834.677	12759.5
835.003	12784.58
835.329	12813.73
835.654	12699.38
835.98	12634.98
836.306	12658.25
836.631	12619.84
836.956	12673.85
837.282	12649.44
837.607	12611.02
837.932	12522.67
838.258	12512.72
838.583	12482.21
838.908	12504.13
839.233	12510.69
839.558	12419.39
839.883	12381.2
840.208	12362.9
840.533	12385.72
840.858	12360.41
841.182	12341.88
841.507	12405.61
841.832	12345.27
842.156	12205.61
842.481	12261.43
842.805	12188.21
843.13	12176.01
843.454	12120.42
843.778	12062.11
844.103	12086.52
844.427	12083.13
844.751	12066.86
845.075	12017.59
845.399	11925.39
845.723	11870.03
846.047	11887.2
846.371	11846.3
846.695	11892.17
847.019	11614.21
847.343	11756.58
847.666	11673.2
847.99	11645.85
848.313	11624.38
848.637	11506.19
848.96	11505.06
849.284	11466.65
849.607	11387.33
849.931	11331.51
850.254	11303.94
850.577	11170.38
850.9	11114.34
851.223	11111.63
851.546	11044.96
851.869	10995.7
852.192	11031.4
852.515	10930.84
852.838	10870.96
853.161	10925.64
853.483	10851.3
853.806	10842.26
854.129	10811.52
854.451	10687.01
854.774	10696.5
855.096	10679.1
855.419	10656.27
855.741	10605.2
856.063	10524.3
856.385	10571.53
856.708	10441.82
857.03	10416.05
857.352	10441.36
857.674	10427.35
857.996	10428.93
858.318	10352.55
858.64	10408.14
858.961	10310.97
859.283	10254.02
859.605	10242.27
859.926	10241.14
860.248	10209.05
860.57	10172.9
860.891	10204.76
861.212	10092.22
861.534	10109.85
861.855	10087.25
862.176	10092.9
862.498	10064.88
862.819	10016.06
863.14	9962.96
863.461	9932.22
863.782	9902.85
864.103	9907.37
864.424	9910.3
864.745	9920.7
865.065	9807.48
865.386	9853.13
865.707	9865.79
866.027	9790.53
866.348	9844.32
866.668	9884.09
866.989	9815.17
867.309	9627.6
867.63	9774.04
867.95	9712.57
868.27	9705.79
868.59	9703.98
868.91	9606.13
869.23	9612.23
869.55	9609.52
869.87	9592.35
870.19	9624.44
870.51	9590.09
870.83	9541.27
871.15	9496.76
871.469	9526.36
871.789	9589.63
872.109	9471.45
872.428	9564.78
872.748	9511.9
873.067	9434.61
873.386	9512.8
873.706	9478
874.025	9418.34
874.344	9433.25
874.663	9406.59
874.982	9412.24
875.301	9310.55
875.62	9275.29
875.939	9299.47
876.258	9265.35
876.577	9223.77
876.896	9246.59
877.214	9207.5
877.533	9166.37
877.852	9187.16
878.17	9233.49
878.489	9128.86
878.807	9149.19
879.125	9114.39
879.444	9163.66
879.762	9143.32
880.08	9101.96
880.398	9053.83
880.716	9044.79
881.034	9088.18
881.352	9034.4
881.67	9033.04
881.988	9093.83
882.306	9040.95
882.624	8928.41
882.941	8941.97
883.259	8959.37
883.577	8891.12
883.894	8932.7
884.212	8812.93
884.529	8893.38
884.846	8781.52
885.164	8832.14
885.481	8739.26
885.798	8802.54
886.115	8730.9
886.432	8770.45
886.75	8690.45
887.067	8673.5
887.383	8692.26
887.7	8682.77
888.017	8570.9
888.334	8633.5
888.651	8572.94
888.967	8523.45
889.284	8463.34
889.6	8458.82
889.917	8394.86
890.233	8424.92
890.55	8419.95
890.866	8406.39
891.182	8393.51
891.498	8320.29
891.815	8325.04
892.131	8311.93
892.447	8299.95
892.763	8260.4
893.079	8232.61
893.395	8197.36
893.71	8221.76
894.026	8193.29
894.342	8200.97
894.657	8039.17
894.973	8129.56
895.289	8140.41
895.604	8034.2
895.92	7995.78
896.235	7909.68
896.55	7945.38
896.865	7954.88
897.181	7917.14
897.496	7908.1
897.811	7812.05
898.126	7803.92
898.441	7811.15
898.756	7736.35
899.071	7741.55
899.386	7728.21
899.7	7677.14
900.015	7605.05
900.33	7588.56
900.644	7565.73
900.959	7554.21
901.273	7507.2
901.588	7482.35
901.902	7471.95
902.216	7465.62
902.531	7426.3
902.845	7401.9
903.159	7354.67
903.473	7365.96
903.787	7322.12
904.101	7261.56
904.415	7258.4
904.729	7268.11
905.042	7224.05
905.356	7208.68
905.67	7163.03
905.984	7213.88
906.297	7158.51
906.611	7118.06
906.924	7121.68
907.237	7056.59
907.551	7047.33
907.864	7003.94
908.177	6967.1
908.491	6955.13
908.804	6979.76
909.117	6915.58
909.43	6863.15
909.743	6859.99
910.056	6828.13
910.368	6775.7
910.681	6723.72
910.994	6722.14
911.307	6700.9
911.619	6635.59
911.932	6642.14
912.244	6565.76
912.557	6566.44
912.869	6557.85
913.181	6531.41
913.494	6429.49
913.806	6451.86
914.118	6452.09
914.43	6406.89
914.742	6403.28
915.054	6380.45
915.366	6328.03
915.678	6345.43
915.99	6282.38
916.302	6238.31
916.613	6232.66
916.925	6209.38
917.236	6211.19
917.548	6173.68
917.859	6176.39
918.171	6124.42
918.482	6074.47
918.794	6081.7
919.105	6102.49
919.416	5984.08
919.727	6018.66
920.038	5973.23
920.349	5902.27
920.66	5945.89
920.971	5897.08
921.282	5889.62
921.593	5776.85
921.903	5835.61
922.214	5768.72
922.525	5787.47
922.835	5724.2
923.146	5725.33
923.456	5662.05
923.767	5686.46
924.077	5688.04
924.387	5593.36
924.697	5566.46
925.008	5602.17
925.318	5609.63
925.628	5596.07
925.938	5519.69
926.248	5469.74
926.558	5448.73
926.867	5431.78
927.177	5417.32
927.487	5382.97
927.796	5331.67
928.106	5387.94
928.416	5285.79
928.725	5338.22
929.034	5290.54
929.344	5272.46
929.653	5264.78
929.962	5222.52
930.271	5175.74
930.581	5165.34
930.89	5168.06
931.199	5140.71
931.508	5085.8
931.817	5097.78
932.125	5034.05
932.434	5053.71
932.743	4974.61
933.051	4980.04
933.36	4987.95
933.669	4914.96
933.977	4921.51
934.286	4900.49
934.594	4919.02
934.902	4848.29
935.21	4835.64
935.519	4861.62
935.827	4803.32
936.135	4787.5
936.443	4815.98
936.751	4703.44
937.059	4714.06
937.367	4728.97
937.674	4651.01
937.982	4706.15
938.29	4655.75
938.597	4639.71
938.905	4595.19
939.213	4549.09
939.52	4575.53
939.827	4575.53
940.135	4532.59
940.442	4537.79
940.749	4526.27
941.056	4464.35
941.363	4415.76
941.67	4437
941.977	4453.05
942.284	4380.05
942.591	4364.91
942.898	4392.94
943.205	4342.09
943.511	4314.52
943.818	4318.36
944.125	4277.68
944.431	4278.36
944.738	4237.46
945.044	4245.37
945.35	4228.19
945.657	4183.22
945.963	4166.27
946.269	4126.95
946.575	4160.17
946.881	4139.83
947.187	4133.06
947.493	4085.82
947.799	4037.92
948.105	4060.97
948.41	4027.3
948.716	4001.31
949.022	3997.69
949.327	3987.07
949.633	3981.87
949.938	3992.72
950.244	3984.81
950.549	3887.86
950.854	3903.91
951.16	3873.85
951.465	3873.4
951.77	3837.02
952.075	3768.09
952.38	3829.11
952.685	3780.3
952.99	3768.54
953.294	3764.93
953.599	3720.41
953.904	3768.32
954.209	3681.99
954.513	3710.92
954.818	3694.2
955.122	3648.1
955.426	3712.95
955.731	3621.66
956.035	3618.04
956.339	3586.85
956.643	3592.28
956.948	3584.6
957.252	3585.05
957.556	3547.31
957.86	3522.45
958.163	3513.18
958.467	3511.83
958.771	3529.91
959.075	3480.19
959.378	3493.52
959.682	3439.97
959.985	3430.93
960.289	3393.19
960.592	3408.1
960.896	3388.67
961.199	3388.44
961.502	3355
961.805	3360.42
962.108	3312.74
962.411	3338.95
962.714	3294.66
963.017	3319.29
963.32	3282.23
963.623	3303.47
963.926	3247.88
964.228	3233.64
964.531	3183.48
964.833	3202.68
965.136	3171.27
965.438	3183.93
965.741	3168.79
966.043	3144.15
966.345	3121.33
966.648	3117.71
966.95	3128.56
967.252	3094.44
967.554	3077.26
967.856	3067.32
968.158	3039.3
968.46	3047.89
968.761	3063.25
969.063	3046.53
969.365	2970.6
969.666	2995.46
969.968	2961.56
970.269	2948.45
970.571	2961.33
970.872	2965.18
971.174	2912.75
971.475	2903.48
971.776	2876.82
972.077	2885.86
972.378	2879.53
972.679	2870.04
972.98	2867.55
973.281	2820.32
973.582	2806.54
973.883	2817.38
974.183	2779.87
974.484	2833.2
974.785	2801.34
975.085	2752.07
975.386	2807.67
975.686	2755.24
975.986	2753.43
976.287	2736.26
976.587	2717.73
976.887	2719.98
977.187	2704.39
977.487	2690.61
977.787	2646.77
978.087	2646.31
978.387	2650.16
978.687	2622.59
978.987	2630.5
979.286	2564.51
979.586	2583.72
979.885	2535.13
980.185	2565.19
980.484	2554.11
980.784	2547.56
981.083	2543.72
981.382	2505.98
981.682	2499.2
981.981	2510.05
982.28	2463.72
982.579	2460.1
982.878	2485.87
983.177	2461.01
983.475	2455.13
983.774	2425.53
984.073	2428.92
984.372	2397.73
984.67	2407
984.969	2430.5
985.267	2409.71
985.566	2380.11
985.864	2367.68
986.162	2367.45
986.461	2390.95
986.759	2330.16
987.057	2266.89
987.355	2324.74
987.653	2304.85
987.951	2294.01
988.249	2272.54
988.547	2261.47
988.844	2270.05
989.142	2243.84
989.44	2214.46
989.737	2221.02
990.035	2223.27
990.332	2200.45
990.63	2203.39
990.927	2202.48
991.224	2181.69
991.521	2172.43
991.819	2162.94
992.116	2144.86
992.413	2162.26
992.71	2112.32
993.006	2127.91
993.303	2108.48
993.6	2105.54
993.897	2105.54
994.193	2104.41
994.49	2103.05
994.787	2080.68
995.083	2073.67
995.379	2072.32
995.676	2040
995.972	2049.27
996.268	2048.59
996.565	2007.01
996.861	2022.6
997.157	2012.66
997.453	1983.28
997.749	1979.44
998.044	1964.98
998.34	1976.28
998.636	1948.25
998.932	1945.09
999.227	1885.2
999.523	1943.73
999.818	1895.6
1000.114	1880.23
1000.409	1891.76
1000.704	1849.05
1001	1866
1001.295	1848.14
1001.59	1846.34
1001.885	1818.77
1002.18	1828.26
1002.475	1818.77
1002.77	1793.68
1003.065	1791.2
1003.359	1798.43
1003.654	1794.59
1003.949	1771.54
1004.243	1760.24
1004.538	1745.77
1004.832	1748.03
1005.127	1747.36
1005.421	1699.9
1005.715	1696.06
1006.009	1688.15
1006.304	1685.66
1006.598	1692.67
1006.892	1670.52
1007.186	1670.97
1007.48	1652.67
1007.773	1659.9
1008.067	1638.88
1008.361	1633.69
1008.655	1632.1
1008.948	1626.68
1009.242	1593.01
1009.535	1624.42
1009.829	1595.49
1010.122	1572.9
1010.415	1579.9
1010.708	1586.68
1011.001	1558.89
1011.295	1542.16
1011.588	1552.78
1011.881	1517.53
1012.173	1508.72
1012.466	1515.95
1012.759	1493.58
1013.052	1497.19
1013.344	1475.27
1013.637	1480.02
1013.93	1451.54
1014.222	1447.48
1014.514	1450.87
1014.807	1459
1015.099	1439.34
1015.391	1425.1
1015.683	1427.82
1015.976	1426.01
1016.268	1401.15
1016.56	1403.18
1016.851	1371.09
1017.143	1354.37
1017.435	1357.31
1017.727	1369.74
1018.018	1343.75
1018.31	1362.96
1018.602	1361.38
1018.893	1357.08
1019.185	1303.53
1019.476	1319.57
1019.767	1301.27
1020.058	1289.51
1020.35	1273.7
1020.641	1289.74
1020.932	1294.71
1021.223	1293.36
1021.514	1273.24
1021.804	1223.98
1022.095	1240.25
1022.386	1231.89
1022.677	1228.5
1022.967	1202.51
1023.258	1198.44
1023.548	1177.65
1023.839	1208.84
1024.129	1213.58
1024.419	1200.25
1024.709	1176.75
1025	1138.78
1025.29	1190.31
1025.58	1157.77
1025.87	1151.44
1026.16	1140.14
1026.449	1162.96
1026.739	1124.77
1027.029	1116.19
1027.319	1099.91
1027.608	1114.83
1027.898	1108.05
1028.187	1081.84
1028.477	1092.68
1028.766	1086.81
1029.055	1059.92
1029.344	1056.07
1029.634	1055.4
1029.923	1054.27
1030.212	1076.19
1030.501	1053.36
1030.79	1045.9
1031.078	1026.92
1031.367	995.96
1031.656	998.45
1031.945	1014.27
1032.233	1012.01
1032.522	987.15
1032.81	980.6
1033.099	977.66
1033.387	990.76
1033.675	949.86
1033.963	964.1
1034.251	962.74
1034.54	963.65
1034.828	936.53
1035.116	940.6
1035.403	935.4
1035.691	918
1035.979	922.29
1036.267	906.47
1036.554	931.78
1036.842	895.63
1037.129	900.15
1037.417	894.04
1037.704	899.92
1037.992	881.39
1038.279	879.13
1038.566	885.68
1038.853	885.68
1039.14	885.68
