Data from hue_20_FLMS001491_14.txt Node
Date: Mon Feb 06 15:33:41 GMT 2017
User: dcchb
Spectrometer: FLMS00149
Trigger mode: 0
Integration Time (sec): 2.000000E-2
Scans to average: 10
Electric dark correction enabled: true
Nonlinearity correction enabled: false
Boxcar width: 0
XAxis mode: Wavelengths
Number of Pixels in Spectrum: 2048
>>>>>Begin Spectral Data<<<<<
341.393	-13.01
341.776	-13.01
342.16	-13.01
342.543	-56.85
342.927	-54.59
343.31	-65.89
343.693	-62.95
344.077	-59.56
344.46	-58.88
344.843	-64.31
345.226	-69.05
345.61	-19.34
345.993	-24.08
346.376	16.6
346.759	11.85
347.142	44.84
347.525	57.72
347.908	38.29
348.291	75.58
348.674	78.06
349.057	101.11
349.44	135.01
349.823	141.56
350.206	145.18
350.588	198.74
350.971	221.11
351.354	218.62
351.737	231.73
352.119	245.74
352.502	251.39
352.884	265.18
353.267	286.19
353.65	285.29
354.032	299.07
354.414	313.76
354.797	304.95
355.179	309.24
355.562	313.99
355.944	314.21
356.326	333.42
356.709	328.68
357.091	334.55
357.473	342.24
357.855	344.72
358.238	351.95
358.62	350.6
359.002	356.7
359.384	328.23
359.766	315.8
360.148	339.52
360.53	322.58
360.912	345.17
361.294	333.2
361.676	337.04
362.057	341.78
362.439	307.89
362.821	309.7
363.203	307.66
363.584	318.06
363.966	315.8
364.348	333.88
364.729	317.6
365.111	328
365.493	301.11
365.874	304.95
366.256	301.79
366.637	302.24
367.019	301.79
367.4	308.11
367.781	336.59
368.163	310.6
368.544	296.14
368.925	302.24
369.306	301.11
369.688	313.76
370.069	318.28
370.45	295.91
370.831	306.08
371.212	310.37
371.593	316.7
371.974	309.47
372.355	314.44
372.736	324.61
373.117	316.93
373.498	321.45
373.879	304.95
374.26	314.67
374.641	306.08
375.021	308.11
375.402	311.05
375.783	310.15
376.163	315.57
376.544	333.88
376.925	315.34
377.305	317.83
377.686	325.06
378.066	328.68
378.447	327.55
378.827	313.08
379.208	320.09
379.588	331.62
379.968	335.01
380.349	325.29
380.729	324.16
381.109	336.59
381.489	332.52
381.87	323.93
382.25	357.83
382.63	363.03
383.01	336.36
383.39	336.81
383.77	335.91
384.15	316.93
384.53	344.27
384.91	334.33
385.29	332.07
385.67	367.55
386.049	343.37
386.429	315.34
386.809	345.17
387.189	357.83
387.568	335.01
387.948	351.73
388.328	362.35
388.707	361.45
389.087	337.04
389.466	347.89
389.846	357.15
390.225	345.17
390.605	352.63
390.984	371.39
391.363	357.38
391.743	360.99
392.122	344.04
392.501	373.87
392.881	376.81
393.26	344.72
393.639	368.22
394.018	367.32
394.397	367.55
394.776	359.86
395.155	342.91
395.534	379.75
395.913	352.86
396.292	378.62
396.671	386.53
397.05	385.85
397.429	353.31
397.808	381.56
398.186	390.82
398.565	391.05
398.944	378.17
399.323	375.46
399.701	394.66
400.08	386.76
400.458	379.07
400.837	400.77
401.215	400.54
401.594	379.98
401.972	402.57
402.351	386.98
402.729	405.29
403.107	424.27
403.486	405.96
403.864	391.5
404.242	411.61
404.62	410.94
404.999	417.26
405.377	386.08
405.755	405.51
406.133	408.68
406.511	432.18
406.889	410.26
407.267	412.07
407.645	428.11
408.023	417.26
408.401	429.01
408.779	423.59
409.156	405.74
409.534	431.5
409.912	432.63
410.29	431.73
410.667	429.47
411.045	459.3
411.422	429.92
411.8	462.46
412.178	447.32
412.555	445.28
412.933	444.83
413.31	457.94
413.687	459.97
414.065	455.68
414.442	424.49
414.819	452.97
415.197	448.67
415.574	459.52
415.951	476.47
416.328	477.6
416.705	465.4
417.082	463.36
417.46	470.37
417.837	484.83
418.214	485.06
418.591	471.72
418.967	476.24
419.344	482.35
419.721	501.78
420.098	480.99
420.475	492.06
420.852	493.19
421.228	479.18
421.605	487.09
421.982	514.66
422.358	498.16
422.735	499.52
423.111	510.59
423.488	511.95
423.864	512.85
424.241	516.24
424.617	515.34
424.994	541.55
425.37	522.57
425.746	521.22
426.123	528.45
426.499	531.16
426.875	537.49
427.251	541.55
427.627	533.42
428.003	542.68
428.379	533.19
428.756	555.34
429.132	555.11
429.507	580.42
429.883	556.47
430.259	563.47
430.635	573.19
431.011	602.79
431.387	558.73
431.763	593.3
432.138	565.73
432.514	607.77
432.89	614.09
433.265	590.14
433.641	625.62
434.016	603.92
434.392	631.49
434.767	631.04
435.143	636.01
435.518	632.4
435.894	643.7
436.269	636.69
436.644	648.9
437.02	661.55
437.395	630.82
437.77	666.07
438.145	670.59
438.52	679.63
438.895	659.52
439.271	678.73
439.646	684.15
440.021	673.75
440.395	676.69
440.77	680.98
441.145	686.63
441.52	705.17
441.895	723.02
442.27	703.58
442.645	716.69
443.019	710.59
443.394	711.49
443.769	692.51
444.143	696.13
444.518	718.95
444.892	735.22
445.267	725.28
445.641	703.36
446.016	734.54
446.39	742.23
446.764	741.77
447.139	744.26
447.513	732.73
447.887	743.58
448.262	755.56
448.636	763.69
449.01	740.42
449.384	765.95
449.758	781.55
450.132	784.26
450.506	797.59
450.88	775.45
451.254	771.83
451.628	786.74
452.002	798.95
452.376	791.94
452.75	808.44
453.123	799.4
453.497	824.26
453.871	817.03
454.244	841.88
454.618	821.55
454.992	862
455.365	854.54
455.739	869.68
456.112	870.58
456.486	894.09
456.859	883.01
457.232	908.1
457.606	888.66
457.979	901.09
458.352	931.6
458.725	914.88
459.099	945.84
459.472	941.32
459.845	953.29
460.218	979.51
460.591	970.69
460.964	1003.01
461.337	1003.91
461.71	994.2
462.083	1001.2
462.456	1021.54
462.829	1024.25
463.201	1022.22
463.574	1041.88
463.947	1054.31
464.32	1057.25
464.692	1088.21
465.065	1114.42
465.438	1108.77
465.81	1114.65
466.183	1134.08
466.555	1134.98
466.928	1124.59
467.3	1177.92
467.672	1177.24
468.045	1192.38
468.417	1217.02
468.789	1206.39
469.161	1229.9
469.534	1238.03
469.906	1266.51
470.278	1273.74
470.65	1271.03
471.022	1310.57
471.394	1335.88
471.766	1356.45
472.138	1346.73
472.51	1377.01
472.882	1406.84
473.253	1428.76
473.625	1445.48
473.997	1462.43
474.369	1458.82
474.74	1505.6
475.112	1536.78
475.484	1539.49
475.855	1562.77
476.227	1585.14
476.598	1629.21
476.97	1620.17
477.341	1676.89
477.713	1715.53
478.084	1715.31
478.455	1763.67
478.827	1764.57
479.198	1815.42
479.569	1829.88
479.94	1856.32
480.311	1885.7
480.682	1977
481.053	1998.92
481.424	2031.46
481.795	2070.78
482.166	2101.29
482.537	2128.18
482.908	2194.84
483.279	2197.78
483.65	2214.5
484.021	2270.55
484.391	2316.87
484.762	2325.24
485.133	2371.11
485.503	2398.23
485.874	2459.24
486.244	2480.71
486.615	2498.11
486.985	2548.51
487.356	2614.49
487.726	2622.18
488.097	2692.46
488.467	2717.09
488.837	2768.16
489.207	2786.69
489.578	2870.31
489.948	2910.08
490.318	2927.71
490.688	2933.36
491.058	2963.86
491.428	3041.15
491.798	3110.07
492.168	3146
492.538	3099
492.908	3198.21
493.278	3225.1
493.648	3207.25
494.017	3304.19
494.387	3376.96
494.757	3388.03
495.126	3394.59
495.496	3465.32
495.866	3477.3
496.235	3529.27
496.605	3529.95
496.974	3591.42
497.344	3606.56
497.713	3614.92
498.082	3635.26
498.452	3685.43
498.821	3682.04
499.19	3703.96
499.559	3753.67
499.928	3783.05
500.298	3799.32
500.667	3855.36
501.036	3821.02
501.405	3881.13
501.774	3883.61
502.143	3922.03
502.512	3958.41
502.88	3997.28
503.249	3992.31
503.618	4004.29
503.987	4034.12
504.356	4024.4
504.724	4065.53
505.093	4088.8
505.462	4092.65
505.83	4131.52
506.199	4120.67
506.567	4190.05
506.936	4175.13
507.304	4282.02
507.672	4225.52
508.041	4272.75
508.409	4332.19
508.777	4327.67
509.145	4372.41
509.514	4372.41
509.882	4374.45
510.25	4370.83
510.618	4386.42
510.986	4401.11
511.354	4473.88
511.722	4470.72
512.09	4580.09
512.458	4505.29
512.826	4530.38
513.193	4547.78
513.561	4566.31
513.929	4635.46
514.297	4626.19
514.664	4662.8
515.032	4664.61
515.4	4665.74
515.767	4652.86
516.135	4783.25
516.502	4682.01
516.869	4789.58
517.237	4801.1
517.604	4789.13
517.972	4809.69
518.339	4837.26
518.706	4848.33
519.073	4879.52
519.44	4926.97
519.808	4895.11
520.175	4904.38
520.542	4922.23
520.909	4936.92
521.276	4960.19
521.643	5027.76
522.009	5022.57
522.376	5018.95
522.743	5069.12
523.11	5173.97
523.477	5152.73
523.843	5206.74
524.21	5234.09
524.577	5227.53
524.943	5269.79
525.31	5264.82
525.676	5320.64
526.043	5357.92
526.409	5361.31
526.776	5418.26
527.142	5415.32
527.508	5413.06
527.874	5521.99
528.241	5544.36
528.607	5545.49
528.973	5542.33
529.339	5583
529.705	5664.81
530.071	5677.01
530.437	5663.23
530.803	5714.52
531.169	5798.82
531.535	5726.95
531.901	5815.31
532.267	5797.01
532.632	5823
532.998	5840.62
533.364	5852.6
533.73	5887.4
534.095	5996.78
534.461	5980.28
534.826	5978.7
535.192	6019.38
535.557	6034.97
535.923	6045.82
536.288	6076.55
536.653	6099.83
537.019	6103.89
537.384	6123.1
537.749	6142.76
538.114	6159.48
538.479	6154.29
538.845	6163.55
539.21	6249.65
539.575	6276.54
539.94	6279.26
540.305	6311.8
540.67	6339.14
541.034	6364.68
541.399	6362.87
541.764	6430.89
542.129	6404.22
542.494	6474.73
542.858	6491.23
543.223	6521.06
543.587	6539.14
543.952	6558.8
544.316	6595.41
544.681	6565.58
545.045	6632.47
545.41	6696.42
545.774	6633.6
546.138	6661.62
546.503	6701.39
546.867	6738
547.231	6803.76
547.595	6805.57
547.959	6860.48
548.324	6872.46
548.688	6915.4
549.052	6945
549.416	6969.86
549.779	6971.22
550.143	6975.51
550.507	7007.15
550.871	7050.99
551.235	6981.38
551.599	7072.68
551.962	7083.98
552.326	7045.56
552.689	7153.13
553.053	7089.18
553.417	7115.62
553.78	7189.29
554.143	7165.33
554.507	7220.7
554.87	7257.31
555.234	7337.99
555.597	7293.69
555.96	7257.76
556.323	7342.28
556.686	7421.37
557.05	7399.23
557.413	7446
557.776	7411.66
558.139	7550.86
558.502	7556.28
558.865	7587.02
559.228	7563.74
559.59	7557.87
559.953	7575.49
560.316	7696.62
560.679	7687.58
561.041	7733
561.404	7747.24
561.767	7820.46
562.129	7769.61
562.492	7866.33
562.854	7838.76
563.217	7857.52
563.579	7923.28
563.941	7944.3
564.304	7974.8
564.666	7997.85
565.028	8002.6
565.39	8033.11
565.753	8062.94
566.115	8132.09
566.477	8111.98
566.839	8135.03
567.201	8190.39
567.563	8194.46
567.925	8285.76
568.287	8337.05
568.648	8326.21
569.01	8340.9
569.372	8401.23
569.734	8366.88
570.095	8472.64
570.457	8501.34
570.819	8493.66
571.18	8559.65
571.542	8598.74
571.903	8601.68
572.265	8638.74
572.626	8698.63
572.987	8737.5
573.349	8767.78
573.71	8827.44
574.071	8846.19
574.432	8926.19
574.794	9003.93
575.155	9005.51
575.516	9000.77
575.877	9102.01
576.238	9181.1
576.599	9263.81
576.96	9262.68
577.32	9325.5
577.681	9401.43
578.042	9476.23
578.403	9546.29
578.763	9654.31
579.124	9729.79
579.485	9808.88
579.845	9975.88
580.206	9987.63
580.566	10026.95
580.927	10181.3
581.287	10320.51
581.648	10427.4
582.008	10573.61
582.368	10577.67
582.728	10805.01
583.089	10943.77
583.449	11050.66
583.809	11226.92
584.169	11370.42
584.529	11486.8
584.889	11730.19
585.249	11830.07
585.609	12009.95
585.969	12249.04
586.329	12416.27
586.688	12614.23
587.048	12832.76
587.408	12959.76
587.768	13169.7
588.127	13332.86
588.487	13657.82
588.846	13967.87
589.206	14130.57
589.565	14286.28
589.925	14608.08
590.284	14763.1
590.643	15086.93
591.003	15322.63
591.362	15637.88
591.721	15884.65
592.08	16123.97
592.44	16429.05
592.799	16718.53
593.158	16972.31
593.517	17236.03
593.876	17517.83
594.235	17771.38
594.593	18127.53
594.952	18466.28
595.311	18624.92
595.67	18862.43
596.029	19356.2
596.387	19693.37
596.746	19999.12
597.104	20152.79
597.463	20365.44
597.822	20836.84
598.18	21048.36
598.538	21309.6
598.897	21717.95
599.255	21804.5
599.613	22460.53
599.972	22504.37
600.33	22875.2
600.688	23171.02
601.046	23417.34
601.404	23802.18
601.762	23967.6
602.12	24339.8
602.478	24605.78
602.836	24909.05
603.194	24987.69
603.552	25462.93
603.91	25615.7
604.268	26012.52
604.625	26258.39
604.983	26497.26
605.341	26774.08
605.698	27085.71
606.056	27344.24
606.413	27628.3
606.771	28026.71
607.128	28266.47
607.485	28316.42
607.843	28480.71
608.2	28917.76
608.557	29175.83
608.914	29409.04
609.272	29716.38
609.629	29978.29
609.986	30136.26
610.343	30204.95
610.7	30646.98
611.057	30827.08
611.414	30968.1
611.771	31295.32
612.127	31472.94
612.484	31689.21
612.841	31969.2
613.198	32084.68
613.554	32184.34
613.911	32569.64
614.267	32670.43
614.624	32773.93
614.98	33169.62
615.337	33291.2
615.693	33443.06
616.05	33485.32
616.406	33843.5
616.762	33819.77
617.118	33941.35
617.475	34281.01
617.831	34664.5
618.187	34577.72
618.543	34814.32
618.899	34983.36
619.255	35214.31
619.611	35237.82
619.967	35397.59
620.323	35536.57
620.678	35525.49
621.034	35585.83
621.39	35800.51
621.746	35795.09
622.101	36348.97
622.457	36194.18
622.812	36305.36
623.168	36590.1
623.523	36587.84
623.879	36758.68
624.234	36669.87
624.589	36971.1
624.945	36924.33
625.3	37075.28
625.655	37164.77
626.01	37210.42
626.365	37296.75
626.72	37324.54
627.075	37447.93
627.43	37477.98
627.785	37483.63
628.14	37473.46
628.495	37725.43
628.85	37757.98
629.205	37763.63
629.559	37908.48
629.914	37756.17
630.269	37916.84
630.623	37804.3
630.978	37856.96
631.332	37979.21
631.687	38188.02
632.041	37931.53
632.396	38273.44
632.75	38090.62
633.104	38100.79
633.459	38040.45
633.813	38070.96
634.167	38021.25
634.521	38099.66
634.875	38135.37
635.229	38215.14
635.583	38048.36
635.937	38057.63
636.291	38094.69
636.645	38181.24
636.999	38094.92
637.352	38357.51
637.706	38035.26
638.06	38187.57
638.413	38134.01
638.767	38060.12
639.121	38204.29
639.474	38011.75
639.828	38130.17
640.181	38089.94
640.534	38070.28
640.888	38131.75
641.241	37984.41
641.594	38072.54
641.947	38162.71
642.301	38072.77
642.654	38083.84
643.007	38055.14
643.36	38045.88
643.713	38065.99
644.066	38286.78
644.419	38117.06
644.771	37764.3
645.124	37464.65
645.477	37316.63
645.83	37087.03
646.182	37089.97
646.535	36960.93
646.888	37092.46
647.24	36885.68
647.593	37036.41
647.945	37007.49
648.298	36815.18
648.65	36670.55
649.002	36750.54
649.355	37035.06
649.707	36794.39
650.059	37099.91
650.411	37430.98
650.763	37489.73
651.115	37887.69
651.467	37730.41
651.819	37692.44
652.171	37665.32
652.523	37690.18
652.875	37727.47
653.227	37557.08
653.578	37836.17
653.93	37595.49
654.282	37545.33
654.633	37562.05
654.985	37592.78
655.337	37574.25
655.688	37672.78
656.039	37739.22
656.391	37320.02
656.742	37400.47
657.094	37435.72
657.445	37588.26
657.796	37417.87
658.147	37377.2
658.498	37448.83
658.849	37609.51
659.2	37430.75
659.551	37392.34
659.902	37479.79
660.253	37424.2
660.604	37509.85
660.955	37350.3
661.306	37502.39
661.656	37359.57
662.007	37527.25
662.358	37466.91
662.708	37425.56
663.059	37472.56
663.409	37336.07
663.76	37516.85
664.11	37612.44
664.461	37564.99
664.811	37612.44
665.161	37526.57
665.511	37352.56
665.862	37506.68
666.212	37563.63
666.562	37607.7
666.912	37578.09
667.262	37398.44
667.612	37487.02
667.962	37481.83
668.312	37399.79
668.662	37582.16
669.011	37557.98
669.361	37463.29
669.711	37230.08
670.06	37284.77
670.41	37216.3
670.76	37275.95
671.109	37490.86
671.459	37444.09
671.808	37361.15
672.157	37427.14
672.507	37095.85
672.856	37079.8
673.205	37237.54
673.554	37371.32
673.904	37262.85
674.253	37345.33
674.602	37190.99
674.951	36840.49
675.3	36753.48
675.649	37154.38
675.998	37086.58
676.346	37207.48
676.695	37323.64
677.044	37143.3
677.393	37237.09
677.741	37129.74
678.09	37085
678.438	36935.85
678.787	37122.74
679.135	37193.25
679.484	36841.39
679.832	37017.88
680.181	36793.48
680.529	36953.03
680.877	36877.1
681.225	36768.17
681.573	37023.31
681.922	36619.47
682.27	36649.98
682.618	36688.63
682.966	36608.63
683.314	36661.73
683.661	36571.11
684.009	36364.11
684.357	36278.24
684.705	36245.25
685.053	36412.93
685.4	36319.14
685.748	36104.01
686.095	36136.32
686.443	36001.64
686.79	35879.61
687.138	36131.58
687.485	36094.97
687.832	35924.35
688.18	35885.26
688.527	35761.19
688.874	35812.49
689.221	35629.22
689.568	35638.94
689.915	35678.48
690.262	35574.08
690.609	35443.69
690.956	35206.86
691.303	35202.79
691.65	35204.6
691.997	35089.57
692.344	34932.06
692.69	34974.09
693.037	35079.63
693.383	34616.36
693.73	34816.81
694.077	34561.68
694.423	34546.76
694.769	34359.2
695.116	34405.3
695.462	34318.74
695.808	34216.6
696.155	34332.08
696.501	34074.01
696.847	34061.35
697.193	33901.81
697.539	34027.9
697.885	33806.67
698.231	33676.5
698.577	33702.04
698.923	33722.38
699.269	33465.89
699.614	33362.61
699.96	33276.06
700.306	33322.61
700.651	33120.58
700.997	33086.91
701.342	32971.89
701.688	32970.08
702.033	32846.69
702.379	32732.12
702.724	32711.56
703.069	32819.35
703.415	32407.16
703.76	32503.2
704.105	32514.27
704.45	32403.09
704.795	32139.82
705.14	32121.29
705.485	32046.49
705.83	31965.13
706.175	32042.19
706.52	31938.47
706.865	31841.97
707.209	31778.7
707.554	31667.29
707.899	31765.14
708.243	31589.1
708.588	31585.48
708.932	31369.22
709.277	31353.4
709.621	31344.13
709.966	31182.78
710.31	31206.51
710.654	30947.76
710.998	31003.13
711.342	31043.8
711.687	30913.64
712.031	30827.31
712.375	30770.82
712.719	30753.87
713.063	30646.52
713.407	30808.55
713.75	30582.35
714.094	30566.53
714.438	30423.93
714.782	30467.09
715.125	30321.56
715.469	30402.46
715.812	30267.55
716.156	30138.06
716.499	30098.29
716.843	30080.89
717.186	29952.76
717.53	30109.82
717.873	29949.14
718.216	29892.65
718.559	29828.69
718.902	29640.45
719.246	29650.62
719.589	29687
719.932	29584.41
720.275	29378.99
720.617	29530.62
720.96	29468.48
721.303	29422.83
721.646	29404.52
721.989	29235.94
722.331	29437.06
722.674	29261.25
723.016	29269.16
723.359	29087.92
723.701	29204.3
724.044	28823.3
724.386	28863.52
724.729	28885.22
725.071	28942.39
725.413	28872.33
725.755	28866.68
726.097	28814.26
726.439	28621.72
726.782	28653.13
727.124	28709.17
727.465	28482.97
727.807	28498.33
728.149	28438.22
728.491	28445.68
728.833	28423.31
729.175	28230.32
729.516	28231.45
729.858	28190.77
730.199	28195.06
730.541	28155.97
730.882	28174.95
731.224	28234.84
731.565	27977.89
731.906	28023.99
732.248	28012.02
732.589	27972.47
732.93	27818.35
733.271	27842.08
733.612	27782.19
733.953	27884.34
734.294	27691.8
734.635	27562.54
734.976	27765.24
735.317	27558.02
735.658	27515.53
735.999	27513.27
736.339	27398.25
736.68	27436.67
737.021	27481.86
737.361	27279.16
737.702	27449.77
738.042	27254.52
738.383	27372.49
738.723	27207.07
739.063	27254.07
739.404	27157.35
739.744	27171.81
740.084	27104.47
740.424	27176.79
740.764	26977.02
741.104	27039.84
741.444	26978.37
741.784	26873.29
742.124	26886.62
742.464	26915.32
742.804	26850.01
743.143	26753.29
743.483	26788.32
743.823	26600.3
744.162	26650.92
744.502	26663.13
744.841	26460.19
745.181	26723.92
745.52	26562.11
745.86	26603.02
746.199	26550.81
746.538	26625.39
746.877	26532.28
747.216	26498.39
747.556	26365.96
747.895	26379.97
748.234	26292.74
748.573	26275.57
748.911	26248
749.25	26230.14
749.589	26090.26
749.928	26126.64
750.267	26132.97
750.605	25951.96
750.944	25975.46
751.283	25834.22
751.621	25956.7
751.96	25627
752.298	25775.69
752.636	25708.12
752.975	25748.8
753.313	25542.03
753.651	25671.74
753.989	25375.25
754.327	25507.45
754.666	25389.71
755.004	25432.2
755.342	25425.42
755.679	25400.11
756.017	25277.17
756.355	25301.58
756.693	25158.99
757.031	25141.58
757.368	25055.03
757.706	25024.07
758.044	24958.09
758.381	25057.75
758.719	24878.09
759.056	24873.8
759.394	24741.14
759.731	24631.99
760.068	24734.36
760.405	24530.3
760.743	24496.63
761.08	24529.4
761.417	24261.83
761.754	24326.92
762.091	24248.05
762.428	24183.42
762.765	24050.77
763.102	24062.74
763.438	24051.44
763.775	23845.8
764.112	23810.32
764.449	23835.86
764.785	23795.41
765.122	23565.81
765.458	23465.24
765.795	23578.24
766.131	23465.7
766.467	23421.63
766.804	23318.58
767.14	23194.29
767.476	23256.21
767.812	23115.65
768.148	23023.9
768.485	22910.91
768.821	22808.99
769.157	22800.18
769.492	22814.19
769.828	22735.09
770.164	22470.47
770.5	22410.36
770.836	22510.24
771.171	22286.29
771.507	22233.86
771.842	22065.96
772.178	22072.06
772.513	22056.47
772.849	22023.02
773.184	21852.41
773.519	21792.75
773.855	21763.37
774.19	21700.55
774.525	21583.03
774.86	21660.09
775.195	21496.93
775.53	21469.36
775.865	21365.41
776.2	21216.94
776.535	21058.98
776.87	21040
777.205	20942.6
777.539	20785.32
777.874	21009.49
778.209	20728.37
778.543	20688.59
778.878	20515.94
779.212	20567.69
779.547	20443.4
779.881	20457.64
780.215	20441.14
780.55	20336.29
780.884	20199.12
781.218	20220.36
781.552	20105.33
781.886	19942.63
782.22	19788.28
782.554	19778.79
782.888	19674.84
783.222	19637.1
783.556	19479.59
783.889	19516.42
784.223	19356.88
784.557	19303.09
784.89	19350.78
785.224	19263.1
785.557	19110.1
785.891	19053.61
786.224	19034.17
786.558	18949.88
786.891	18852.71
787.224	18681.19
787.557	18647.74
787.891	18668.08
788.224	18737.23
788.557	18578.82
788.89	18551.93
789.223	18476.68
789.556	18357.13
789.888	18299.96
790.221	18336.57
790.554	18031.49
790.887	18151.03
791.219	18072.17
791.552	17991.94
791.884	17943.36
792.217	17938.84
792.549	17880.08
792.882	17729.35
793.214	17599.86
793.546	17728.67
793.879	17615.23
794.211	17444.84
794.543	17553.99
794.875	17447.55
795.207	17431.73
795.539	17283.71
795.871	17368.46
796.203	17152.64
796.535	17104.96
796.867	17063.38
797.198	16994.68
797.53	17050.05
797.862	16863.61
798.193	16939.99
798.525	16765.31
798.856	16808.92
799.188	16641.24
799.519	16565.99
799.85	16520.12
800.182	16497.52
800.513	16516.27
800.844	16295.72
801.175	16431.08
801.506	16326.45
801.837	16311.76
802.168	16222.5
802.499	16204.42
802.83	16081.94
803.161	16034.93
803.491	16134.59
803.822	15968.27
804.153	15996.06
804.483	15852.11
804.814	15759.01
805.145	15809.4
805.475	15705.9
805.805	15759.68
806.136	15730.31
806.466	15710.87
806.796	15521.05
807.126	15475.85
807.457	15428.39
807.787	15363.76
808.117	15378.45
808.447	15267.95
808.777	15313.14
809.107	15255.06
809.436	15246.48
809.766	15164.45
810.096	15131.23
810.426	15044.68
810.755	15071.57
811.085	15096.43
811.414	15075.41
811.744	14906.37
812.073	14845.81
812.403	14817.79
812.732	14773.72
813.061	14822.99
813.39	14579.15
813.719	14655.53
814.049	14712.03
814.378	14675.42
814.707	14574.63
815.036	14562.88
815.365	14535.99
815.693	14345.03
816.022	14393.39
816.351	14329.21
816.68	14299.61
817.008	14346.84
817.337	14156.56
817.665	14080.86
817.994	14183.91
818.322	14188.2
818.651	14043.12
818.979	14058.26
819.307	14095.77
819.636	13999.73
819.964	13882.45
820.292	14004.93
820.62	14012.39
820.948	13931.71
821.276	13903.69
821.604	13926.96
821.932	13966.29
822.259	13918.38
822.587	13914.99
822.915	13792.73
823.243	13967.19
823.57	13844.48
823.898	13936.68
824.225	13820.3
824.553	13829.34
824.88	13836.57
825.207	13806.06
825.535	13791.83
825.862	13779.4
826.189	13885.38
826.516	13858.94
826.843	13875.44
827.17	13837.48
827.497	13947.3
827.824	13845.61
828.151	13946.4
828.478	13793.18
828.805	13895.33
829.131	13804.71
829.458	13819.17
829.785	13710.25
830.111	13745.73
830.438	13750.25
830.764	13777.36
831.09	13894.65
831.417	13659.4
831.743	13805.16
832.069	13776.23
832.395	13642.9
832.722	13768.32
833.048	13668.67
833.374	13759.96
833.7	13648.78
834.026	13668.21
834.351	13749.34
834.677	13670.02
835.003	13724.03
835.329	13710.47
835.654	13562.68
835.98	13488.11
836.306	13556.58
836.631	13439.07
836.956	13510.48
837.282	13552.51
837.607	13449.46
837.932	13435
838.258	13430.48
838.583	13311.39
838.908	13387.54
839.233	13355.68
839.558	13322.01
839.883	13298.51
840.208	13220.09
840.533	13166.31
840.858	13251.95
841.182	13183.93
841.507	13265.96
841.832	13153.65
842.156	13110.49
842.481	13146.42
842.805	13083.82
843.13	13005.41
843.454	12936.48
843.778	12913.88
844.103	12965.86
844.427	12961.11
844.751	12869.82
845.075	12812.42
845.399	12751.4
845.723	12758.86
846.047	12772.19
846.371	12633.66
846.695	12664.4
847.019	12537.62
847.343	12506.89
847.666	12437.06
847.99	12402.94
848.313	12395.25
848.637	12256.73
848.96	12304.63
849.284	12286.56
849.607	12197.52
849.931	12216.05
850.254	12048.82
850.577	12035.71
850.9	11909.84
851.223	11974.7
851.546	11886.11
851.869	11819.68
852.192	11817.87
852.515	11781.48
852.838	11646.12
853.161	11691.54
853.483	11652.9
853.806	11570.42
854.129	11586.23
854.451	11521.38
854.774	11478.67
855.096	11360.25
855.419	11370.65
855.741	11362.06
856.063	11316.64
856.385	11264.66
856.708	11183.53
857.03	11269.41
857.352	11165.91
857.674	11134.27
857.996	11142.18
858.318	11024.44
858.64	11088.17
858.961	11089.3
859.283	10922.75
859.605	10914.84
859.926	10913.71
860.248	10952.81
860.57	10889.53
860.891	10836.2
861.212	10770.89
861.534	10746.03
861.855	10752.81
862.176	10810.21
862.498	10697.9
862.819	10668.29
863.14	10732.7
863.461	10689.31
863.782	10544.45
864.103	10638.69
864.424	10568.63
864.745	10567.5
865.065	10579.48
865.386	10537.67
865.707	10490.67
866.027	10569.31
866.348	10494.74
866.668	10460.61
866.989	10395.98
867.309	10400.05
867.63	10401.63
867.95	10410.45
868.27	10360.73
868.59	10327.74
868.91	10302.43
869.23	10294.52
869.55	10315.08
869.87	10417.9
870.19	10259.94
870.51	10322.09
870.83	10287.74
871.15	10193.28
871.469	10191.02
871.789	10255.2
872.109	10175.2
872.428	10140.62
872.748	10140.85
873.067	10153.73
873.386	10143.11
873.706	10149.21
874.025	10034.41
874.344	10100.4
874.663	10070.57
874.982	10003.45
875.301	9985.83
875.62	9936.33
875.939	9967.29
876.258	9944.92
876.577	9868.31
876.896	9965.26
877.214	9796.68
877.533	9829.67
877.852	9841.65
878.17	9831.93
878.489	9911.7
878.807	9803.23
879.125	9770.24
879.444	9770.92
879.762	9764.36
880.08	9769.56
880.398	9685.49
880.716	9721.2
881.034	9640.98
881.352	9645.72
881.67	9629.22
881.988	9636.23
882.306	9599.62
882.624	9658.15
882.941	9668.09
883.259	9480.3
883.577	9542.22
883.894	9486.18
884.212	9495.44
884.529	9452.73
884.846	9380.87
885.164	9393.3
885.481	9322.57
885.798	9443.01
886.115	9347.42
886.432	9329.35
886.75	9239.63
887.067	9328.89
887.383	9271.27
887.7	9298.16
888.017	9229.01
888.334	9213.42
888.651	9167.54
888.967	9215.45
889.284	9129.35
889.6	9086.41
889.917	9053.65
890.233	9053.42
890.55	8995.34
890.866	9003.03
891.182	8965.06
891.498	8948.56
891.815	8918.28
892.131	8888.45
892.447	8839.19
892.763	8829.47
893.079	8743.15
893.395	8820.66
893.71	8796.7
894.026	8718.06
894.342	8708.34
894.657	8616.6
894.973	8701.34
895.289	8618.63
895.604	8596.03
895.92	8519.2
896.235	8467.67
896.55	8516.26
896.865	8480.78
897.181	8457.73
897.496	8468.35
897.811	8435.58
898.126	8336.83
898.441	8335.92
898.756	8329.15
899.071	8267.68
899.386	8227.23
899.7	8192.65
900.015	8137.51
900.33	8113.78
900.644	8114.46
900.959	8173.67
901.273	8048.93
901.588	8007.8
901.902	7970.96
902.216	7998.31
902.531	7987.46
902.845	7946.1
903.159	7859.33
903.473	7862.72
903.787	7819.55
904.101	7834.02
904.415	7808.26
904.729	7781.14
905.042	7602.84
905.356	7705.21
905.67	7704.53
905.984	7670.41
906.297	7587.02
906.611	7596.28
906.924	7556.96
907.237	7473.35
907.551	7472.9
907.864	7508.15
908.177	7483.07
908.491	7383.41
908.804	7351.09
909.117	7382.05
909.43	7302.05
909.743	7304.31
910.056	7274.71
910.368	7259.57
910.681	7273.13
910.994	7174.15
911.307	7145.9
911.619	7070.65
911.932	7087.14
912.244	7039.01
912.557	7016.64
912.869	7012.57
913.181	6940.71
913.494	6982.74
913.806	6897.54
914.118	6923.53
914.43	6824.78
914.742	6866.36
915.054	6750.43
915.366	6773.71
915.678	6729.19
915.99	6732.8
916.302	6686.48
916.613	6616.2
916.925	6709.75
917.236	6575.29
917.548	6585.69
917.859	6537.55
918.171	6557.89
918.482	6497.56
918.794	6468.4
919.105	6459.36
919.416	6492.36
919.727	6383.66
920.038	6349.08
920.349	6266.15
920.66	6357.67
920.971	6340.72
921.282	6311.12
921.593	6240.39
921.903	6241.74
922.214	6161.74
922.525	6165.13
922.835	6164.91
923.146	6119.71
923.456	6080.39
923.767	6070.9
924.077	6031.13
924.387	6021.86
924.697	6025.7
925.008	5931.92
925.318	5973.28
925.628	5916.78
925.938	5883.79
926.248	5851.92
926.558	5828.42
926.867	5803.34
927.177	5805.37
927.487	5780.51
927.796	5762.43
928.106	5719.5
928.416	5711.36
928.725	5652.83
929.034	5597.01
929.344	5577.13
929.653	5591.36
929.962	5585.04
930.271	5573.06
930.581	5497.81
930.89	5454.42
931.199	5484.47
931.508	5456.68
931.817	5442.44
932.125	5409.45
932.434	5370.35
932.743	5346.17
933.051	5326.29
933.36	5275.67
933.669	5267.31
933.977	5235.22
934.286	5235.67
934.594	5223.24
934.902	5133.52
935.21	5153.41
935.519	5140.08
935.827	5114.54
936.135	5072.06
936.443	5066.18
936.751	5013.07
937.059	5026.41
937.367	4969.01
937.674	4983.02
937.982	4992.51
938.29	4955
938.597	4940.31
938.905	4900.76
939.213	4893.08
939.52	4833.42
939.827	4884.49
940.135	4813.76
940.442	4790.71
940.749	4764.49
941.056	4813.31
941.363	4734.66
941.67	4775.57
941.977	4712.29
942.284	4695.12
942.591	4666.64
942.898	4653.08
943.205	4614.89
943.511	4604.05
943.818	4590.26
944.125	4544.61
944.431	4556.59
944.738	4489.92
945.044	4538.28
945.35	4482.01
945.657	4464.61
945.963	4460.09
946.269	4446.31
946.575	4438.4
946.881	4366.31
947.187	4411.51
947.493	4353.2
947.799	4354.33
948.105	4338.97
948.41	4292.19
948.716	4303.49
949.022	4275.47
949.327	4258.07
949.633	4226.43
949.938	4194.56
950.244	4225.3
950.549	4191.18
950.854	4136.71
951.16	4138.75
951.465	4109.82
951.77	4071.4
952.075	4083.16
952.38	4056.04
952.685	4074.12
952.99	4039.77
953.294	4041.12
953.599	4001.12
953.904	3987.79
954.209	3916.61
954.513	3948.24
954.818	3903.05
955.122	3929.04
955.426	3854.23
955.731	3870.96
956.035	3898.53
956.339	3828.92
956.643	3805.2
956.948	3820.79
957.252	3816.04
957.556	3795.25
957.86	3710.96
958.163	3707.12
958.467	3750.28
958.771	3742.83
959.075	3683.17
959.378	3665.09
959.682	3701.24
959.985	3640.68
960.289	3609.72
960.592	3631.64
960.896	3611.08
961.199	3607.24
961.502	3573.11
961.805	3592.55
962.108	3547.12
962.411	3534.02
962.714	3550.51
963.017	3467.58
963.32	3508.48
963.623	3444.53
963.926	3463.28
964.228	3443.62
964.531	3402.04
964.833	3407.47
965.136	3392.33
965.438	3357.98
965.741	3378.54
966.043	3351.2
966.345	3340.12
966.648	3321.59
966.95	3304.64
967.252	3296.28
967.554	3277.07
967.856	3235.04
968.158	3243.18
968.46	3233.91
968.761	3227.13
969.063	3222.39
969.365	3209.96
969.666	3198.66
969.968	3174.93
970.269	3156.85
970.571	3145.1
970.872	3136.97
971.174	3103.29
971.475	3109.4
971.776	3076.4
972.077	3091.32
972.378	3079.79
972.679	3046.8
972.98	3099
973.281	3056.74
973.582	3020.13
973.883	2959.57
974.183	2982.39
974.484	2952.79
974.785	2950.3
975.085	2920.93
975.386	2965.22
975.686	2899.46
975.986	2881.38
976.287	2884.54
976.587	2837.54
976.887	2891.1
977.187	2853.13
977.487	2842.96
977.787	2831.89
978.087	2774.72
978.387	2799.12
978.687	2764.09
978.987	2755.51
979.286	2747.82
979.586	2763.42
979.885	2738.11
980.185	2730.87
980.484	2670.99
980.784	2706.69
981.083	2678.45
981.382	2694.04
981.682	2689.75
981.981	2642.52
982.28	2653.36
982.579	2600.03
982.878	2620.82
983.177	2634.15
983.475	2620.37
983.774	2597.32
984.073	2574.49
984.372	2541.05
984.67	2565.23
984.969	2537.43
985.267	2543.31
985.566	2533.14
985.864	2503.76
986.162	2525.46
986.461	2498.34
986.759	2496.53
987.057	2482.07
987.355	2458.11
987.653	2470.54
987.951	2432.13
988.249	2408.4
988.547	2425.12
988.844	2373.82
989.142	2388.96
989.44	2378.34
989.737	2415.63
990.035	2338.12
990.332	2344.44
990.63	2378.79
990.927	2328.85
991.224	2321.39
991.521	2299.7
991.819	2290.66
992.116	2284.33
992.413	2261.96
992.71	2271.9
993.006	2243.66
993.303	2254.05
993.6	2221.96
993.897	2246.82
994.193	2204.56
994.49	2212.24
994.787	2198.01
995.083	2164.34
995.379	2144.68
995.676	2154.62
995.972	2153.49
996.268	2144
996.565	2095.64
996.861	2084.56
997.157	2103.77
997.453	2098.35
997.749	2090.44
998.044	2073.26
998.34	2054.51
998.636	2075.07
998.932	2029.2
999.227	2018.35
999.523	2018.58
999.818	1986.26
1000.114	1995.3
1000.409	2024
1000.704	2002.08
1001	1958.69
1001.295	1975.19
1001.59	1955.75
1001.885	1955.53
1002.18	1955.3
1002.475	1925.92
1002.77	1915.75
1003.065	1903.1
1003.359	1884.57
1003.654	1887.51
1003.949	1897.9
1004.243	1869.43
1004.538	1865.59
1004.832	1832.82
1005.127	1809.77
1005.421	1832.59
1005.715	1833.72
1006.009	1824.23
1006.304	1792.14
1006.598	1780.84
1006.892	1766.38
1007.186	1768.64
1007.48	1751.01
1007.773	1734.74
1008.067	1725.93
1008.361	1711.69
1008.655	1722.99
1008.948	1707.17
1009.242	1713.95
1009.535	1712.82
1009.829	1656.78
1010.122	1644.12
1010.415	1669.89
1010.708	1656.33
1011.001	1645.03
1011.295	1657.46
1011.588	1611.36
1011.881	1624.46
1012.173	1625.82
1012.466	1603.22
1012.759	1581.75
1013.052	1607.29
1013.344	1592.37
1013.637	1572.03
1013.93	1562.54
1014.222	1509.21
1014.514	1550.57
1014.807	1512.83
1015.099	1499.72
1015.391	1505.37
1015.683	1506.95
1015.976	1496.78
1016.268	1515.31
1016.56	1473.28
1016.851	1460.85
1017.143	1456.33
1017.435	1418.37
1017.727	1444.81
1018.018	1434.86
1018.31	1443.9
1018.602	1417.46
1018.893	1437.35
1019.185	1396.45
1019.476	1403.9
1019.767	1358.26
1020.058	1388.76
1020.35	1343.34
1020.641	1337.92
1020.932	1346.73
1021.223	1358.26
1021.514	1315.32
1021.804	1309.89
1022.095	1321.65
1022.386	1278.94
1022.677	1283.23
1022.967	1268.99
1023.258	1289.78
1023.548	1271.7
1023.839	1251.82
1024.129	1252.72
1024.419	1266.28
1024.709	1248.65
1025	1242.78
1025.29	1231.48
1025.58	1226.28
1025.87	1216.34
1026.16	1210.46
1026.449	1201.42
1026.739	1184.25
1027.029	1170.69
1027.319	1172.05
1027.608	1156.23
1027.898	1172.05
1028.187	1148.77
1028.477	1125.49
1028.766	1120.75
1029.055	1127.75
1029.344	1117.58
1029.634	1120.52
1029.923	1112.16
1030.212	1067.19
1030.501	1086.17
1030.79	1078.49
1031.078	1083.91
1031.367	1073.97
1031.656	1067.19
1031.945	1081.88
1032.233	1073.74
1032.522	1037.13
1032.81	1054.08
1033.099	1031.94
1033.387	1030.13
1033.675	994.42
1033.963	1027.87
1034.251	1006.17
1034.54	993.75
1034.828	968.66
1035.116	971.6
1035.403	982.9
1035.691	997.81
1035.979	964.37
1036.267	959.85
1036.554	963.01
1036.842	970.47
1037.129	932.73
1037.417	923.46
1037.704	943.8
1037.992	903.13
1038.279	919.17
1038.566	915.1
1038.853	915.1
1039.14	915.1
