Data from hue_160_FLMS001491_00048.txt Node
Date: Tue Feb 07 16:51:15 GMT 2017
User: dcchb
Spectrometer: FLMS00149
Trigger mode: 0
Integration Time (sec): 2.000000E-2
Scans to average: 10
Electric dark correction enabled: true
Nonlinearity correction enabled: false
Boxcar width: 0
XAxis mode: Wavelengths
Number of Pixels in Spectrum: 2048
>>>>>Begin Spectral Data<<<<<
341.393	-13.95
341.776	-13.95
342.16	-13.95
342.543	-67.29
342.927	-66.16
343.31	-78.13
343.693	-70
344.077	-61.18
344.46	-67.29
344.843	-52.6
345.226	-39.04
345.61	-29.55
345.993	-14.63
346.376	1.41
346.759	6.84
347.142	28.3
347.525	52.71
347.908	49.77
348.291	73.95
348.674	71.69
349.057	127.74
349.44	142.65
349.823	144.46
350.206	159.15
350.588	208.64
350.971	210.9
351.354	207.28
351.737	235.08
352.119	236.66
352.502	266.94
352.884	278.69
353.267	265.81
353.65	281.41
354.032	293.38
354.414	290.9
354.797	291.57
355.179	301.97
355.562	342.42
355.944	308.3
356.326	321.63
356.709	325.7
357.091	314.4
357.473	329.09
357.855	331.57
358.238	325.25
358.62	315.98
359.002	338.8
359.384	343.32
359.766	324.12
360.148	319.6
360.53	336.54
360.912	331.12
361.294	317.34
361.676	324.12
362.057	321.63
362.439	339.93
362.821	306.94
363.203	331.8
363.584	301.29
363.966	336.09
364.348	300.39
364.729	325.92
365.111	299.94
365.493	310.56
365.874	296.55
366.256	311.69
366.637	273.72
367.019	278.24
367.4	303.1
367.781	310.78
368.163	292.25
368.544	290.22
368.925	290.44
369.306	321.86
369.688	310.78
370.069	276.21
370.45	305.81
370.831	313.49
371.212	296.32
371.593	308.3
371.974	307.39
372.355	310.1
372.736	317.79
373.117	307.85
373.498	322.53
373.879	321.4
374.26	313.04
374.641	309.43
375.021	319.14
375.402	314.62
375.783	323.44
376.163	314.85
376.544	300.39
376.925	320.95
377.305	326.15
377.686	321.4
378.066	303.78
378.447	312.36
378.827	324.12
379.208	323.89
379.588	320.05
379.968	336.77
380.349	324.57
380.729	336.32
381.109	331.57
381.489	322.53
381.87	314.17
382.25	334.28
382.63	337.67
383.01	353.27
383.39	328.86
383.77	325.47
384.15	344.23
384.53	357.56
384.91	354.4
385.29	342.19
385.67	313.04
386.049	344.91
386.429	357.34
386.809	325.92
387.189	328.86
387.568	336.77
387.948	345.13
388.328	313.49
388.707	334.51
389.087	348.3
389.466	346.71
389.846	333.16
390.225	355.08
390.605	358.69
390.984	353.49
391.363	353.49
391.743	358.69
392.122	374.06
392.501	362.76
392.881	360.27
393.26	363.21
393.639	373.83
394.018	358.01
394.397	375.41
394.776	379.71
395.155	356.21
395.534	377.45
395.913	375.64
396.292	365.7
396.671	384
397.05	368.18
397.429	372.25
397.808	389.65
398.186	382.65
398.565	390.33
398.944	375.64
399.323	364.11
399.701	355.3
400.08	364.57
400.458	375.19
400.837	378.35
401.215	379.26
401.594	382.65
401.972	371.12
402.351	385.81
402.729	396.66
403.107	400.72
403.486	424.68
403.864	408.63
404.242	411.12
404.62	398.92
404.999	422.19
405.377	415.86
405.755	400.5
406.133	414.96
406.511	405.7
406.889	405.7
407.267	417.9
407.645	412.02
408.023	405.02
408.401	440.27
408.779	434.4
409.156	447.28
409.534	437.56
409.912	444.79
410.29	445.47
410.667	452.02
411.045	443.66
411.422	454.28
411.8	449.08
412.178	481.85
412.555	466.26
412.933	460.84
413.31	454.96
413.687	487.28
414.065	449.76
414.442	487.95
414.819	468.74
415.197	478.24
415.574	472.36
415.951	499.25
416.328	470.1
416.705	494.96
417.082	477.33
417.46	520.72
417.837	512.36
418.214	477.56
418.591	530.44
418.967	495.18
419.344	495.86
419.721	513.04
420.098	518.01
420.475	531.12
420.852	523.88
421.228	549.42
421.605	542.87
421.982	544.22
422.358	516.2
422.735	561.62
423.111	545.8
423.488	539.48
423.864	545.58
424.241	546.93
424.617	572.02
424.994	562.08
425.37	553.26
425.746	595.97
426.123	578.57
426.499	572.7
426.875	598.46
427.251	593.26
427.627	606.59
428.003	576.31
428.379	612.47
428.756	590.1
429.132	609.98
429.507	614.73
429.883	620.38
430.259	619.93
430.635	621.51
431.011	616.09
431.387	649.53
431.763	644.56
432.138	680.72
432.514	638.68
432.89	643.43
433.265	675.29
433.641	650.66
434.016	695.41
434.392	674.84
434.767	708.51
435.143	703.77
435.518	687.5
435.894	739.7
436.269	733.37
436.644	726.37
437.02	722.75
437.395	734.95
437.77	741.05
438.145	779.92
438.52	771.79
438.895	776.76
439.271	774.73
439.646	780.15
440.021	782.18
440.395	801.62
440.77	792.58
441.145	816.76
441.52	820.6
441.895	820.83
442.27	839.58
442.645	828.74
443.019	828.74
443.394	829.41
443.769	859.92
444.143	836.87
444.518	857.44
444.892	846.36
445.267	854.72
445.641	889.07
446.016	871.45
446.39	889.98
446.764	902.18
447.139	884.33
447.513	872.8
447.887	906.25
448.262	922.29
448.636	916.64
449.01	932.01
449.384	918.45
449.758	950.77
450.132	965.45
450.506	960.03
450.88	948.05
451.254	965.91
451.628	949.64
452.002	993.25
452.376	986.02
452.75	997.32
453.123	1023.98
453.497	1039.13
453.871	1005
454.244	1016.53
454.618	1043.87
454.992	1047.94
455.365	1021.05
455.739	1071.44
456.112	1069.18
456.486	1113.47
456.859	1095.39
457.232	1119.8
457.606	1127.71
457.979	1141.27
458.352	1183.53
458.725	1178.56
459.099	1208.39
459.472	1206.13
459.845	1218.78
460.218	1245
460.591	1242.51
460.964	1253.81
461.337	1270.31
461.71	1300.36
462.083	1312.34
462.456	1335.61
462.829	1319.34
463.201	1358.89
463.574	1393.24
463.947	1365.67
464.32	1421.26
464.692	1401.15
465.065	1425.33
465.438	1490.41
465.81	1468.49
466.183	1515.04
466.555	1543.29
466.928	1560.69
467.3	1568.83
467.672	1569.05
468.045	1608.83
468.417	1649.96
468.789	1661.48
469.161	1676.85
469.534	1737.19
469.906	1749.84
470.278	1798.88
470.65	1821.93
471.022	1869.16
471.394	1879.56
471.766	1888.37
472.138	1948.48
472.51	2026.44
472.882	2061.02
473.253	2066.67
473.625	2090.17
473.997	2140.79
474.369	2198.42
474.74	2237.06
475.112	2291.75
475.484	2354.57
475.855	2422.37
476.227	2462.82
476.598	2487.67
476.97	2567.67
477.341	2650.38
477.713	2697.16
478.084	2727.22
478.455	2839.53
478.827	2903.03
479.198	2977.83
479.569	3004.27
479.94	3137.38
480.311	3198.62
480.682	3287.88
481.053	3383.24
481.424	3471.6
481.795	3543.69
482.166	3622.11
482.537	3726.96
482.908	3851.48
483.279	3906.17
483.65	4019.39
484.021	4116.78
484.391	4223.22
484.762	4339.38
485.133	4407.62
485.503	4506.83
485.874	4636.77
486.244	4727.84
486.615	4879.48
486.985	4932.81
487.356	5104.1
487.726	5199.92
488.097	5394.72
488.467	5384.32
488.837	5614.82
489.207	5741.6
489.578	5855.04
489.948	5963.97
490.318	6073.12
490.688	6130.74
491.058	6361.7
491.428	6450.96
491.798	6592.2
492.168	6775.25
492.538	6819.76
492.908	6972.75
493.278	7085.97
493.648	7122.58
494.017	7284.16
494.387	7395.57
494.757	7582.68
495.126	7646.18
495.496	7755.33
495.866	7903.8
496.235	8008.21
496.605	8166.4
496.974	8228.31
497.344	8308.09
497.713	8413.39
498.082	8542.2
498.452	8621.75
498.821	8674.4
499.19	8795.53
499.559	8930.67
499.928	9029.65
500.298	9081.17
500.667	9248.4
501.036	9246.14
501.405	9361.17
501.774	9370.88
502.143	9518.22
502.512	9562.52
502.88	9779.01
503.249	9699.46
503.618	9811.55
503.987	9860.59
504.356	9982.84
504.724	10047.25
505.093	10017.19
505.462	10088.83
505.83	10173.8
506.199	10350.52
506.567	10400.91
506.936	10371.31
507.304	10577.86
507.672	10589.16
508.041	10624.18
508.409	10714.13
508.777	10804.97
509.145	10833.9
509.514	10811.98
509.882	10976.27
510.25	10913.44
510.618	11004.96
510.986	11051.29
511.354	11056.26
511.722	11165.64
512.09	11272.98
512.458	11230.72
512.826	11282.92
513.193	11379.64
513.561	11317.73
513.929	11434.11
514.297	11484.5
514.664	11501.22
515.032	11548
515.4	11609.02
515.767	11599.3
516.135	11699.18
516.502	11660.31
516.869	11763.81
517.237	11776.7
517.604	11760.2
517.972	11809.24
518.339	11778.96
518.706	11882.91
519.073	11816.02
519.44	11877.03
519.808	12011.94
520.175	11902.57
520.542	12032.96
520.909	12104.15
521.276	12066.41
521.643	12103.69
522.009	12166.97
522.376	12182.11
522.743	12128.33
523.11	12282.9
523.477	12251.94
523.843	12272.5
524.21	12411.93
524.577	12321.09
524.943	12454.19
525.31	12492.38
525.676	12560.4
526.043	12509.56
526.409	12507.52
526.776	12678.59
527.142	12549.56
527.508	12601.53
527.874	12655.54
528.241	12601.76
528.607	12528.31
528.973	12594.3
529.339	12584.58
529.705	12680.4
530.071	12740.29
530.437	12656.67
530.803	12700.29
531.169	12678.14
531.535	12630.68
531.901	12522.44
532.267	12588.65
532.632	12633.62
532.998	12517.92
533.364	12577.58
533.73	12637.46
534.095	12607.63
534.461	12585.04
534.826	12645.15
535.192	12571.93
535.557	12614.64
535.923	12568.09
536.288	12513.63
536.653	12514.76
537.019	12369.45
537.384	12332.61
537.749	12412.84
538.114	12330.81
538.479	12298.04
538.845	12358.83
539.21	12289.9
539.575	12157.93
539.94	12146.63
540.305	12265.72
540.67	12073.41
541.034	12119.74
541.399	12135.78
541.764	12080.19
542.129	12046.75
542.494	11970.82
542.858	11989.12
543.223	11961.1
543.587	11913.42
543.952	11881.78
544.316	11783.02
544.681	11739.63
545.045	11776.02
545.41	11817.15
545.774	11803.14
546.138	11704.16
546.503	11670.26
546.867	11615.12
547.231	11674.33
547.595	11659.64
547.959	11575.35
548.324	11627.32
548.688	11504.16
549.052	11510.26
549.416	11549.13
549.779	11396.14
550.143	11365.18
550.507	11367.22
550.871	11373.32
551.235	11342.58
551.599	11297.61
551.962	11304.62
552.326	11295.35
552.689	11270.27
553.053	11227.56
553.417	11106.21
553.78	11223.26
554.143	11118.63
554.507	11129.48
554.87	11095.13
555.234	11159.31
555.597	10945.76
555.96	11059.43
556.323	10997.51
556.686	11019.2
557.05	11088.8
557.413	10985.3
557.776	10941.01
558.139	11026.43
558.502	10959.32
558.865	10959.32
559.228	10970.84
559.59	10991.18
559.953	11031.86
560.316	11045.64
560.679	11029.37
561.041	10985.08
561.404	10995.02
561.767	10998.41
562.129	10934.68
562.492	10980.56
562.854	10995.47
563.217	10942.82
563.579	10975.59
563.941	11006.55
564.304	10977.17
564.666	11047.45
565.028	11058.07
565.39	11054
565.753	11035.47
566.115	11110.5
566.477	11034.34
566.839	11018.98
567.201	11091.52
567.563	11111.63
567.925	11155.02
568.287	11118.41
568.648	11080.44
569.01	11095.36
569.372	11091.06
569.734	11129.26
570.095	11185.3
570.457	11112.31
570.819	11226.43
571.18	11142.59
571.542	11215.35
571.903	11224.62
572.265	11248.8
572.626	11217.16
572.987	11234.79
573.349	11163.83
573.71	11295.58
574.071	11354.56
574.432	11206.09
574.794	11285.64
575.155	11289.93
575.516	11260.1
575.877	11291.29
576.238	11272.08
576.599	11275.01
576.96	11283.15
577.32	11271.17
577.681	11369.02
578.042	11410.6
578.403	11322.02
578.763	11289.03
579.124	11319.53
579.485	11345.07
579.845	11321.57
580.206	11293.54
580.566	11354.11
580.927	11326.31
581.287	11353.2
581.648	11348.91
582.008	11310.27
582.368	11343.49
582.728	11369.93
583.089	11355.46
583.449	11333.09
583.809	11309.14
584.169	11224.17
584.529	11308.46
584.889	11372.19
585.249	11253.32
585.609	11166.54
585.969	11287.67
586.329	11268.01
586.688	11270.95
587.048	11282.92
587.408	11192.76
587.768	11188.69
588.127	11156.83
588.487	11178.29
588.846	11195.24
589.206	11165.64
589.565	11178.52
589.925	11146.43
590.284	11216.03
590.643	11088.58
591.003	11157.96
591.362	11219.42
591.721	11173.1
592.08	11157.28
592.44	11179.88
592.799	11121.12
593.158	11112.53
593.517	11173.77
593.876	11104.17
594.235	11119.76
594.593	11116.37
594.952	11090.39
595.311	11032.08
595.67	10978.07
596.029	11143.04
596.387	11100.56
596.746	11089.03
597.104	11018.52
597.463	11041.57
597.822	11097.39
598.18	10995.02
598.538	10975.36
598.897	11115.24
599.255	11037.96
599.613	11113.21
599.972	11139.2
600.33	11061.01
600.688	11023.72
601.046	11042.25
601.404	11137.39
601.762	11047
602.12	11107.79
602.478	11104.17
602.836	11095.36
603.194	11006.09
603.552	11173.32
603.91	11037.51
604.268	11058.3
604.625	10963.84
604.983	11083.61
605.341	11013.55
605.698	11124.28
606.056	11088.8
606.413	11027.56
606.771	11107.11
607.128	11027.34
607.485	11003.38
607.843	11007
608.2	11130.39
608.557	11122.7
608.914	11126.09
609.272	11101.91
609.629	11150.95
609.986	11170.16
610.343	11101.23
610.7	11153.89
611.057	11119.99
611.414	11136.26
611.771	11182.36
612.127	11265.3
612.484	11186.2
612.841	11219.87
613.198	11196.82
613.554	11176.03
613.911	11295.58
614.267	11227.56
614.624	11206.32
614.98	11202.25
615.337	11370.6
615.693	11249.03
616.05	11256.94
616.406	11295.35
616.762	11284.73
617.118	11243.83
617.475	11299.65
617.831	11303.71
618.187	11328.12
618.543	11319.08
618.899	11369.02
619.255	11303.71
619.611	11355.46
619.967	11341.23
620.323	11370.15
620.678	11360.89
621.034	11285.64
621.39	11348.01
621.746	11265.3
622.101	11423.71
622.457	11345.97
622.812	11310.04
623.168	11370.15
623.523	11352.53
623.879	11355.92
624.234	11360.21
624.589	11367.67
624.945	11420.1
625.3	11384.16
625.655	11415.58
626.01	11445.18
626.365	11302.58
626.72	11346.65
627.075	11348.68
627.43	11411.28
627.785	11374.22
628.14	11300.78
628.495	11365.41
628.85	11374.9
629.205	11357.27
629.559	11372.41
629.914	11242.7
630.269	11311.4
630.623	11273.21
630.978	11274.79
631.332	11307.78
631.687	11292.41
632.041	11231.17
632.396	11231.85
632.75	11201.8
633.104	11265.52
633.459	11152.08
633.813	11205.64
634.167	11236.37
634.521	11164.96
634.875	11186.66
635.229	11244.51
635.583	11092.42
635.937	11067.11
636.291	11051.52
636.645	11080.9
636.999	11075.7
637.352	11061.91
637.706	11054.68
638.06	11096.71
638.413	11068.69
638.767	11050.84
639.121	11007.45
639.474	10971.07
639.828	11021.24
640.181	11058.07
640.534	11046.09
640.888	10907.57
641.241	10933.1
641.594	10918.19
641.947	10898.3
642.301	10922.71
642.654	10850.62
643.007	10913.44
643.36	10879.32
643.713	10863.05
644.066	10929.26
644.419	10891.07
644.771	10779.21
645.124	10724.97
645.477	10665.76
645.83	10634.35
646.182	10513.9
646.535	10554.36
646.888	10485.66
647.24	10533.79
647.593	10572.89
647.945	10586.22
648.298	10485.88
648.65	10451.31
649.002	10428.26
649.355	10508.03
649.707	10500.12
650.059	10579.44
650.411	10618.08
650.763	10667.35
651.115	10794.57
651.467	10767.68
651.819	10727.68
652.171	10740.34
652.523	10646.1
652.875	10632.32
653.227	10649.72
653.578	10737.4
653.93	10707.35
654.282	10638.87
654.633	10742.15
654.985	10721.36
655.337	10791.86
655.688	10707.12
656.039	10721.36
656.391	10710.06
656.742	10658.76
657.094	10760.68
657.445	10785.99
657.796	10711.64
658.147	10715.25
658.498	10720.9
658.849	10757.51
659.2	10712.32
659.551	10682.26
659.902	10668.02
660.253	10738.08
660.604	10833.9
660.955	10744.18
661.306	10807.68
661.656	10726.33
662.007	10751.19
662.358	10702.6
662.708	10761.58
663.059	10768.59
663.409	10710.74
663.76	10848.81
664.11	10813.56
664.461	10872.76
664.811	10803.61
665.161	10778.3
665.511	10770.62
665.862	10795.7
666.212	10822.14
666.562	10831.41
666.912	10744.18
667.262	10750.51
667.612	10815.37
667.962	10811.3
668.312	10811.52
668.662	10795.7
669.011	10752.09
669.361	10721.81
669.711	10781.69
670.06	10801.13
670.41	10743.95
670.76	10753.67
671.109	10804.97
671.459	10775.14
671.808	10760.45
672.157	10828.25
672.507	10686.1
672.856	10646.78
673.205	10703.28
673.554	10754.58
673.904	10644.97
674.253	10741.92
674.602	10673
674.951	10567.91
675.3	10514.58
675.649	10621.25
675.998	10570.4
676.346	10623.05
676.695	10681.58
677.044	10585.09
677.393	10542.38
677.741	10581.93
678.09	10555.03
678.438	10527.92
678.787	10621.25
679.135	10539.21
679.484	10503.06
679.832	10510.51
680.181	10388.26
680.529	10547.58
680.877	10478.43
681.225	10477.97
681.573	10549.61
681.922	10337.41
682.27	10378.09
682.618	10358.2
682.966	10285.66
683.314	10422.38
683.661	10299.9
684.009	10227.36
684.357	10246.11
684.705	10236.62
685.053	10209.05
685.4	10200.92
685.748	10193.69
686.095	10145.55
686.443	10098.1
686.79	10118.89
687.138	10114.82
687.485	10105.33
687.832	10079.57
688.18	10098.32
688.527	9947.14
688.874	9970.42
689.221	10003.41
689.568	9918.67
689.915	9879.8
690.262	9920.7
690.609	9896.29
690.956	9810.65
691.303	9832.79
691.65	9758.67
691.997	9802.96
692.344	9710.76
692.69	9701.95
693.037	9656.53
693.383	9551.67
693.73	9623.76
694.077	9600.26
694.423	9518
694.769	9467.6
695.116	9511.44
695.462	9405.68
695.808	9373.82
696.155	9367.27
696.501	9343.09
696.847	9361.84
697.193	9222.19
697.539	9263.54
697.885	9220.38
698.231	9199.36
698.577	9167.95
698.923	9166.82
699.269	9093.6
699.614	9102.42
699.96	8986.26
700.306	8997.79
700.651	8979.93
700.997	8894.96
701.342	8902.65
701.688	8929.99
702.033	8862.2
702.379	8836.43
702.724	8741.52
703.069	8820.62
703.415	8712.14
703.76	8669.43
704.105	8675.53
704.45	8692.71
704.795	8602.99
705.14	8490.45
705.485	8599.83
705.83	8533.62
706.175	8553.96
706.52	8504.24
706.865	8491.36
707.209	8408.2
707.554	8387.18
707.899	8463.79
708.243	8415.43
708.588	8356.67
708.932	8228.99
709.277	8290.46
709.621	8261.08
709.966	8210.01
710.31	8274.42
710.654	8173.63
710.998	8220.18
711.342	8214.08
711.687	8143.35
712.031	8100.86
712.375	8130.69
712.719	8091.6
713.063	8083.01
713.407	8107.87
713.75	8018.83
714.094	8041.88
714.438	8026.96
714.782	8032.39
715.125	7988.32
715.469	7996.46
715.812	7965.27
716.156	7972.28
716.499	7948.32
716.843	7943.35
717.186	7877.82
717.53	7962.11
717.873	7900.87
718.216	7899.06
718.559	7864.71
718.902	7815.44
719.246	7829.68
719.589	7859.51
719.932	7881.88
720.275	7802.79
720.617	7678.95
720.96	7770.25
721.303	7803.02
721.646	7729.8
721.989	7727.99
722.331	7760.08
722.674	7720.53
723.016	7754.43
723.359	7724.6
723.701	7673.98
724.044	7728.67
724.386	7640.08
724.729	7617.26
725.071	7709.68
725.413	7697.71
725.755	7696.8
726.097	7660.42
726.439	7638.5
726.782	7634.21
727.124	7724.15
727.465	7652.06
727.807	7640.08
728.149	7616.58
728.491	7636.69
728.833	7591.27
729.175	7599.86
729.516	7601.21
729.858	7575.68
730.199	7642.79
730.541	7634.21
730.882	7565.51
731.224	7588.78
731.565	7540.88
731.906	7588.78
732.248	7603.47
732.589	7546.3
732.93	7552.4
733.271	7525.51
733.612	7579.29
733.953	7578.84
734.294	7487.32
734.635	7539.07
734.976	7566.64
735.317	7482.57
735.658	7525.51
735.999	7591.5
736.339	7508.33
736.68	7547.2
737.021	7550.14
737.361	7592.63
737.702	7574.32
738.042	7558.5
738.383	7566.41
738.723	7609.35
739.063	7549.24
739.404	7620.2
739.744	7655.45
740.084	7605.96
740.424	7649.12
740.764	7627.88
741.104	7618.61
741.444	7703.36
741.784	7670.36
742.124	7732.96
742.464	7753.3
742.804	7741.32
743.143	7760.98
743.483	7730.25
743.823	7771.83
744.162	7751.94
744.502	7738.61
744.841	7846.18
745.181	7919.17
745.52	7902.22
745.86	7996.46
746.199	7954.2
746.538	7979.06
746.877	7980.19
747.216	8133.85
747.556	8109.67
747.895	8146.06
748.234	8176.34
748.573	8210.69
748.911	8323.68
749.25	8318.26
749.589	8297.01
749.928	8425.15
750.267	8527.52
750.605	8570.45
750.944	8612.03
751.283	8707.17
751.621	8784.23
751.96	8819.71
752.298	8910.56
752.636	9025.58
752.975	9112.36
753.313	9216.99
753.651	9363.43
753.989	9417.44
754.327	9499.24
754.666	9533.82
755.004	9646.58
755.342	9849.06
755.679	9967.48
756.017	10024.65
756.355	10199.79
756.693	10326.34
757.031	10467.8
757.368	10470.74
757.706	10717.74
758.044	10779.66
758.381	10993.67
758.719	11108.46
759.056	11263.26
759.394	11396.82
759.731	11486.99
760.068	11637.49
760.405	11769.69
760.743	11898.73
761.08	12088.78
761.417	12238.15
761.754	12417.81
762.091	12544.13
762.428	12633.62
762.765	12801.3
763.102	13051.01
763.438	13108.41
763.775	13215.75
764.112	13474.28
764.449	13680.6
764.785	13752.92
765.122	13897.32
765.458	13996.75
765.795	14183.41
766.131	14264.99
766.467	14394.93
766.804	14563.06
767.14	14662.72
767.476	14880.8
767.812	14906.11
768.148	15083.73
768.485	15290.95
768.821	15224.51
769.157	15403.95
769.492	15542.25
769.828	15737.27
770.164	15619.53
770.5	15785.86
770.836	15923.25
771.171	15959.18
771.507	16150.59
771.842	16141.33
772.178	16327.31
772.513	16382.22
772.849	16430.36
773.184	16498.15
773.519	16670.35
773.855	16623.57
774.19	16751.48
774.525	16693.18
774.86	16842.78
775.195	16904.7
775.53	16982.21
775.865	17099.72
776.2	17000.29
776.535	17016.56
776.87	17027.18
777.205	17152.6
777.539	17130.23
777.874	17256.78
778.209	17185.59
778.543	17248.87
778.878	17206.61
779.212	17322.99
779.547	17207.29
779.881	17367.74
780.215	17421.52
780.55	17428.98
780.884	17449.09
781.218	17391.69
781.552	17583.77
781.886	17404.34
782.22	17379.26
782.554	17423.55
782.888	17403.44
783.222	17308.98
783.556	17285.48
783.889	17400.5
784.223	17260.17
784.557	17268.08
784.89	17362.76
785.224	17221.98
785.557	17207.51
785.891	17270.56
786.224	17282.99
786.558	17345.36
786.891	17200.73
787.224	17141.75
787.557	17138.36
787.891	17125.03
788.224	17077.8
788.557	17158.7
788.89	17150.34
789.223	17076.9
789.556	17011.13
789.888	17093.84
790.221	17021.76
790.554	16874.19
790.887	16945.15
791.219	16916.22
791.552	16887.97
791.884	16735.44
792.217	16799.61
792.549	16876.9
792.882	16611.37
793.214	16712.61
793.546	16694.98
793.879	16597.81
794.211	16565.5
794.543	16560.53
794.875	16591.94
795.207	16551.49
795.539	16432.17
795.871	16621.31
796.203	16272.85
796.535	16359.17
796.867	16387.42
797.198	16282.79
797.53	16320.76
797.862	16194.21
798.193	16147.65
798.525	16177.71
798.856	16304.71
799.188	16074.89
799.519	16049.13
799.85	15908.79
800.182	15936.36
800.513	15974.78
800.844	15845.52
801.175	15978.62
801.506	15931.84
801.837	15802.13
802.168	15791.51
802.499	15729.59
802.83	15632.87
803.161	15595.8
803.491	15640.78
803.822	15652.53
804.153	15624.96
804.483	15475.13
804.814	15347.22
805.145	15400.33
805.475	15393.32
805.805	15348.81
806.136	15306.77
806.466	15384.28
806.796	15290.05
807.126	15242.37
807.457	15145.42
807.787	15243.5
808.117	15145.65
808.447	15091.19
808.777	15149.26
809.107	15130.28
809.436	15044.86
809.766	14925.31
810.096	14951.98
810.426	14977.06
810.755	14908.14
811.085	14969.61
811.414	14973.67
811.744	14813.23
812.073	14749.95
812.403	14804.86
812.732	14677.86
813.061	14758.09
813.39	14667.92
813.719	14575.27
814.049	14661.59
814.378	14568.71
814.707	14510.41
815.036	14552.67
815.365	14405.33
815.693	14389.06
816.022	14377.08
816.351	14325.33
816.68	14260.92
817.008	14376.63
817.337	14210.76
817.665	14173.02
817.994	14275.16
818.322	14231.77
818.651	14107.26
818.979	14028.39
819.307	14206.46
819.636	14127.59
819.964	14050.76
820.292	14060.93
820.62	14161.27
820.948	14076.75
821.276	14130.31
821.604	13995.17
821.932	14053.92
822.259	13997.2
822.587	14005.56
822.915	13973.47
823.243	14039.01
823.57	13944.32
823.898	13998.33
824.225	13960.14
824.553	13987.03
824.88	13974.83
825.207	14040.82
825.535	13903.87
825.862	14051.21
826.189	14010.76
826.516	14036.07
826.843	14081.27
827.17	14034.04
827.497	14063.64
827.824	14028.16
828.151	14099.12
828.478	14083.3
828.805	14211.21
829.131	14020.48
829.458	14068.39
829.785	14053.25
830.111	14036.52
830.438	14127.14
830.764	14126.24
831.09	14085.79
831.417	13988.39
831.743	14014.15
832.069	14019.8
832.395	13896.64
832.722	14052.34
833.048	13979.12
833.374	13962.18
833.7	13865.45
834.026	13995.62
834.351	13988.39
834.677	13898.67
835.003	13958.56
835.329	13957.43
835.654	13886.25
835.98	13853.48
836.306	13918.11
836.631	13838.56
836.956	13874.49
837.282	13960.82
837.607	13789.75
837.932	13785.46
838.258	13757.66
838.583	13732.8
838.908	13649.64
839.233	13698
839.558	13705.23
839.883	13579.36
840.208	13574.61
840.533	13632.47
840.858	13607.38
841.182	13568.97
841.507	13589.53
841.832	13424.79
842.156	13475.63
842.481	13401.74
842.805	13369.65
843.13	13310.44
843.454	13382.98
843.778	13321.29
844.103	13339.37
844.427	13238.13
844.751	13278.13
845.075	13238.35
845.399	13145.47
845.723	13120.39
846.047	13144.57
846.371	12998.81
846.695	12987.96
847.019	12886.05
847.343	12879.49
847.666	12747.52
847.99	12786.84
848.313	12778.48
848.637	12667.52
848.96	12721.3
849.284	12593.62
849.607	12622.1
849.931	12517.02
850.254	12393.85
850.577	12391.14
850.9	12288.77
851.223	12282.45
851.546	12136.23
851.869	12130.81
852.192	12107.76
852.515	12066.86
852.838	12021.21
853.161	11967.65
853.483	12013.3
853.806	11954.77
854.129	11861.67
854.451	11830.93
854.774	11745.96
855.096	11698.28
855.419	11686.98
855.741	11706.64
856.063	11701.22
856.385	11563.82
856.708	11569.02
857.03	11515.91
857.352	11600.43
857.674	11477.95
857.996	11443.15
858.318	11381.9
858.64	11383.94
858.961	11338.06
859.283	11214.22
859.605	11241.79
859.926	11262.59
860.248	11196.82
860.57	11158.18
860.891	11204.06
861.212	11070.05
861.534	11028.02
861.855	11066.66
862.176	11094.91
862.498	11078.18
862.819	10999.77
863.14	10933.55
863.461	10909.15
863.782	10968.36
864.103	10945.08
864.424	10903.95
864.745	10907.34
865.065	10828.47
865.386	10833.67
865.707	10860.11
866.027	10926.77
866.348	10800.45
866.668	10823.27
866.989	10786.89
867.309	10620.79
867.63	10705.99
867.95	10684.52
868.27	10684.52
868.59	10710.06
868.91	10732.2
869.23	10610.17
869.55	10593
869.87	10660.34
870.19	10625.09
870.51	10585.77
870.83	10606.33
871.15	10543.96
871.469	10501.02
871.789	10495.83
872.109	10550.51
872.428	10523.17
872.748	10519.55
873.067	10463.06
873.386	10374.92
873.706	10426.9
874.025	10371.31
874.344	10343.74
874.663	10402.04
874.982	10318.43
875.301	10304.64
875.62	10324.53
875.939	10303.97
876.258	10223.06
876.577	10206.57
876.896	10238.66
877.214	10235.04
877.533	10248.15
877.852	10110.07
878.17	10115.04
878.489	10181.48
878.807	10194.14
879.125	10041.83
879.444	10131.09
879.762	10061.26
880.08	10098.32
880.398	9974.26
880.716	9964.31
881.034	9957.99
881.352	10013.58
881.67	9962.96
881.988	9931.32
882.306	9874.6
882.624	9852.9
882.941	9861.72
883.259	9817.65
883.577	9822.4
883.894	9706.92
884.212	9775.17
884.529	9730.2
884.846	9752.57
885.164	9717.32
885.481	9704.21
885.798	9796.64
886.115	9591.89
886.432	9672.57
886.75	9592.8
887.067	9579.24
887.383	9607.26
887.7	9583.99
888.017	9482.29
888.334	9543.53
888.651	9460.37
888.967	9506.02
889.284	9464.67
889.6	9395.52
889.917	9345.12
890.233	9417.44
890.55	9334.5
890.866	9301.96
891.182	9296.76
891.498	9221.73
891.815	9227.16
892.131	9193.71
892.447	9116.65
892.763	9140.16
893.079	9139.7
893.395	9004.79
893.71	9049.54
894.026	8998.46
894.342	8990.1
894.657	8941.29
894.973	8929.54
895.289	8916.21
895.604	8847.73
895.92	8835.98
896.235	8815.64
896.55	8772.26
896.865	8715.99
897.181	8700.84
897.496	8720.05
897.811	8686.38
898.126	8663.56
898.441	8581.53
898.756	8544.46
899.071	8479.16
899.386	8534.97
899.7	8390.8
900.015	8440.06
900.33	8352.38
900.644	8317.13
900.959	8393.96
901.273	8324.36
901.588	8267.41
901.902	8257.47
902.216	8175.21
902.531	8164.59
902.845	8189.9
903.159	8144.48
903.473	8107.64
903.787	8044.59
904.101	7997.81
904.415	8021.54
904.729	8024.25
905.042	7931.6
905.356	7947.42
905.67	7880.3
905.984	7892.96
906.297	7840.53
906.611	7814.77
906.924	7828.1
907.237	7733.86
907.551	7765.5
907.864	7737.93
908.177	7681.44
908.491	7678.27
908.804	7581.55
909.117	7536.81
909.43	7559.63
909.743	7516.24
910.056	7479.86
910.368	7367.32
910.681	7401.44
910.994	7352.63
911.307	7316.02
911.619	7309.47
911.932	7285.74
912.244	7237.15
912.557	7202.58
912.869	7140.21
913.181	7150.15
913.494	7133.65
913.806	7065.18
914.118	7048.23
914.43	7025.18
914.742	7012.75
915.054	6996.26
915.366	6986.31
915.678	6908.12
915.99	6905.41
916.302	6827.45
916.613	6877.16
916.925	6842.14
917.236	6820.22
917.548	6764.85
917.859	6762.82
918.171	6672.88
918.482	6693.67
918.794	6733.66
919.105	6687.34
919.416	6592.88
919.727	6612.09
920.038	6560.34
920.349	6536.83
920.66	6504.52
920.971	6490.73
921.282	6463.84
921.593	6387.01
921.903	6405.09
922.214	6345.43
922.525	6322.6
922.835	6321.47
923.146	6300.91
923.456	6227.24
923.767	6247.8
924.077	6241.93
924.387	6196.5
924.697	6135.04
925.008	6097.75
925.318	6091.2
925.628	6091.2
925.938	6054.81
926.248	6036.28
926.558	6073.8
926.867	6001.93
927.177	5930.07
927.487	5966.68
927.796	5869.51
928.106	5881.94
928.416	5885.78
928.725	5883.74
929.034	5799
929.344	5801.94
929.653	5764.65
929.962	5729.17
930.271	5745.22
930.581	5692.34
930.89	5677.2
931.199	5632.68
931.508	5633.81
931.817	5643.98
932.125	5640.81
932.434	5576.18
932.743	5573.92
933.051	5501.83
933.36	5479.69
933.669	5456.86
933.977	5465.9
934.286	5433.36
934.594	5437.43
934.902	5415.51
935.21	5362.4
935.519	5368.05
935.827	5281.73
936.135	5293.93
936.443	5227.04
936.751	5281.73
937.059	5222.07
937.367	5213.7
937.674	5171.67
937.982	5150.88
938.29	5084.67
938.597	5180.03
938.905	5022.52
939.213	5068.4
939.52	5072.69
939.827	4996.08
940.135	4945.01
940.442	4976.87
940.749	4941.85
941.056	4964.9
941.363	4921.28
941.67	4909.31
941.977	4919.93
942.284	4879.02
942.591	4853.04
942.898	4829.31
943.205	4804.22
943.511	4753.6
943.818	4762.19
944.125	4750.21
944.431	4714.51
944.738	4676.09
945.044	4703.66
945.35	4631.8
945.657	4624.34
945.963	4617.56
946.269	4584.79
946.575	4566.72
946.881	4558.81
947.187	4562.87
947.493	4514.51
947.799	4506.83
948.105	4476.1
948.41	4473.84
948.716	4454.63
949.022	4420.73
949.327	4404.01
949.633	4376.89
949.938	4405.36
950.244	4348.64
950.549	4335.76
950.854	4301.86
951.16	4308.19
951.465	4255.31
951.77	4232.49
952.075	4244.24
952.38	4215.99
952.685	4215.54
952.99	4148.42
953.294	4166.27
953.599	4171.47
953.904	4127.41
954.209	4098.93
954.513	4087.86
954.818	4084.69
955.122	4069.78
955.426	4004.02
955.731	4037.01
956.035	3981.87
956.339	3983
956.643	3977.13
956.948	3947.98
957.252	3931.48
957.556	3915.21
957.86	3917.69
958.163	3883.57
958.467	3888.32
958.771	3844.48
959.075	3866.85
959.378	3812.39
959.682	3816.23
959.985	3827.07
960.289	3730.13
960.592	3746.4
960.896	3740.75
961.199	3751.14
961.502	3696.23
961.805	3704.82
962.108	3675.44
962.411	3677.25
962.714	3660.53
963.017	3651.49
963.32	3660.07
963.623	3621.43
963.926	3602.9
964.228	3544.6
964.531	3554.99
964.833	3551.38
965.136	3501.43
965.438	3492.62
965.741	3482.68
966.043	3481.77
966.345	3463.92
966.648	3439.74
966.95	3411.72
967.252	3410.14
967.554	3413.53
967.856	3401.55
968.158	3373.75
968.46	3345.51
968.761	3352.28
969.063	3305.05
969.365	3336.69
969.666	3304.6
969.968	3273.42
970.269	3276.35
970.571	3244.72
970.872	3242.91
971.174	3228.22
971.475	3208.33
971.776	3252.85
972.077	3196.58
972.378	3161.33
972.679	3206.75
972.98	3126.3
973.281	3124.72
973.582	3131.95
973.883	3105.29
974.183	3092.63
974.484	3088.34
974.785	3081.11
975.085	3045.4
975.386	3042.91
975.686	3026.64
975.986	3012.86
976.287	3044.5
976.587	3001.79
976.887	2956.81
977.187	2975.8
977.487	2950.94
977.787	2946.87
978.087	2936.93
978.387	2913.65
978.687	2902.81
978.987	2891.51
979.286	2896.93
979.586	2861
979.885	2829.13
980.185	2842.02
980.484	2848.8
980.784	2792.07
981.083	2802.24
981.382	2803.6
981.682	2794.56
981.981	2757.05
982.28	2745.3
982.579	2699.87
982.878	2744.84
983.177	2712.08
983.475	2657.84
983.774	2707.1
984.073	2678.86
984.372	2656.03
984.67	2641.12
984.969	2614.68
985.267	2616.48
985.566	2609.25
985.864	2600.89
986.162	2578.07
986.461	2589.14
986.759	2562.7
987.057	2538.52
987.355	2544.4
987.653	2526.77
987.951	2522.7
988.249	2511.18
988.547	2528.58
988.844	2498.3
989.142	2488.58
989.44	2446.77
989.737	2467.79
990.035	2449.03
990.332	2455.59
990.63	2400.45
990.927	2419.65
991.224	2402.03
991.521	2386.66
991.819	2380.11
992.116	2322.26
992.413	2375.14
992.71	2350.96
993.006	2317.74
993.303	2320.45
993.6	2292.43
993.897	2276.83
994.193	2293.33
994.49	2295.82
994.787	2223.73
995.083	2260.11
995.379	2239.32
995.676	2232.09
995.972	2219.43
996.268	2225.53
996.565	2214.24
996.861	2183.05
997.157	2176.04
997.453	2193.67
997.749	2163.62
998.044	2167.23
998.34	2151.86
998.636	2135.14
998.932	2111.64
999.227	2132.88
999.523	2104.63
999.818	2078.87
1000.114	2055.14
1000.409	2031.64
1000.704	2068.48
1001	2042.94
1001.295	2027.57
1001.59	2008.14
1001.885	1983.51
1002.18	1985.54
1002.475	1953.23
1002.77	1948.03
1003.065	1978.76
1003.359	1981.47
1003.654	1933.11
1003.949	1918.65
1004.243	1936.05
1004.538	1903.74
1004.832	1887.92
1005.127	1876.84
1005.421	1875.94
1005.715	1868.26
1006.009	1860.8
1006.304	1817.86
1006.598	1820.8
1006.892	1816.96
1007.186	1840.69
1007.48	1784.19
1007.773	1802.72
1008.067	1786.68
1008.361	1776.28
1008.655	1766.56
1008.948	1741.48
1009.242	1733.8
1009.535	1730.41
1009.829	1732.89
1010.122	1716.85
1010.415	1681.14
1010.708	1696.74
1011.001	1672.55
1011.295	1634.59
1011.588	1698.32
1011.881	1643.4
1012.173	1644.31
1012.466	1630.75
1012.759	1621.71
1013.052	1630.52
1013.344	1628.71
1013.637	1595.95
1013.93	1576.74
1014.222	1566.12
1014.514	1562.5
1014.807	1548.49
1015.099	1583.97
1015.391	1541.03
1015.683	1555.5
1015.976	1537.42
1016.268	1487.25
1016.56	1509.17
1016.851	1496.74
1017.143	1488.6
1017.435	1517.53
1017.727	1470.53
1018.018	1447.25
1018.31	1471.2
1018.602	1443.18
1018.893	1441.37
1019.185	1428.49
1019.476	1431.43
1019.767	1408.38
1020.058	1390.98
1020.35	1370.19
1020.641	1359.12
1020.932	1366.12
1021.223	1330.64
1021.514	1368.61
1021.804	1328.38
1022.095	1352.34
1022.386	1329.06
1022.677	1304.65
1022.967	1292.23
1023.258	1312.34
1023.548	1301.04
1023.839	1267.37
1024.129	1266.69
1024.419	1274.15
1024.709	1253.36
1025	1246.13
1025.29	1246.8
1025.58	1222.17
1025.87	1209.74
1026.16	1226.01
1026.449	1203.87
1026.739	1203.19
1027.029	1183.53
1027.319	1179.91
1027.608	1195.51
1027.898	1191.21
1028.187	1171.55
1028.477	1168.16
1028.766	1166.13
1029.055	1131.78
1029.344	1164.09
1029.634	1123.42
1029.923	1108.95
1030.212	1110.76
1030.501	1103.98
1030.79	1122.74
1031.078	1074.6
1031.367	1086.58
1031.656	1115.06
1031.945	1081.38
1032.233	1060.82
1032.522	1045.23
1032.81	1045.9
1033.099	1042.74
1033.387	1028.05
1033.675	1039.8
1033.963	1016.3
1034.251	1030.31
1034.54	1027.37
1034.828	1012.46
1035.116	992.12
1035.403	1002.74
1035.691	978.79
1035.979	980.82
1036.267	978.56
1036.554	962.52
1036.842	941.27
1037.129	949.64
1037.417	948.96
1037.704	954.16
1037.992	940.37
1038.279	922.74
1038.566	913.25
1038.853	913.25
1039.14	913.25
