Data from hue_160_FLMS001491_00082.txt Node
Date: Tue Feb 07 16:51:48 GMT 2017
User: dcchb
Spectrometer: FLMS00149
Trigger mode: 0
Integration Time (sec): 2.000000E-2
Scans to average: 10
Electric dark correction enabled: true
Nonlinearity correction enabled: false
Boxcar width: 0
XAxis mode: Wavelengths
Number of Pixels in Spectrum: 2048
>>>>>Begin Spectral Data<<<<<
341.393	-14.79
341.776	-14.79
342.16	-14.79
342.543	-67.67
342.927	-62.92
343.31	-74.67
343.693	-55.92
344.077	-71.96
344.46	-61.57
344.843	-50.27
345.226	-46.88
345.61	-33.54
345.993	-3.26
346.376	6.68
346.759	30.18
347.142	14.82
347.525	17.75
347.908	55.49
348.291	75.38
348.674	95.04
349.057	102.72
349.44	122.38
349.823	119.9
350.206	169.84
350.588	191.53
350.971	215.04
351.354	209.84
351.737	230.86
352.119	235.38
352.502	276.5
352.884	255.71
353.267	289.84
353.65	274.47
354.032	276.5
354.414	304.07
354.797	307.01
355.179	305.43
355.562	296.39
355.944	336.39
356.326	323.51
356.709	331.19
357.091	325.32
357.473	325.99
357.855	342.49
358.238	345.65
358.62	330.97
359.002	333.9
359.384	342.27
359.766	335.94
360.148	350.63
360.53	337.52
360.912	324.64
361.294	329.38
361.676	352.21
362.057	317.86
362.439	330.29
362.821	335.03
363.203	316.28
363.584	318.08
363.966	303.62
364.348	328.48
364.729	316.28
365.111	324.86
365.493	317.86
365.874	319.21
366.256	308.14
366.637	317.18
367.019	301.81
367.4	303.17
367.781	298.42
368.163	303.62
368.544	298.65
368.925	303.85
369.306	313.57
369.688	296.39
370.069	289.39
370.45	301.36
370.831	309.5
371.212	319.44
371.593	329.61
371.974	300.91
372.355	307.01
372.736	321.7
373.117	312.21
373.498	293.68
373.879	308.82
374.26	298.42
374.641	303.62
375.021	324.19
375.402	311.08
375.783	300.46
376.163	328.71
376.544	322.6
376.925	318.08
377.305	324.86
377.686	325.32
378.066	336.62
378.447	327.58
378.827	308.59
379.208	347.46
379.588	314.24
379.968	332.77
380.349	342.04
380.729	328.71
381.109	343.62
381.489	353.34
381.87	336.84
382.25	339.1
382.63	326.9
383.01	319.44
383.39	314.92
383.77	317.63
384.15	347.91
384.53	341.59
384.91	338.65
385.29	327.12
385.67	351.3
386.049	359.21
386.429	366.9
386.809	341.59
387.189	340.23
387.568	345.65
387.948	344.07
388.328	353.11
388.707	380.46
389.087	342.94
389.466	352.43
389.846	362.38
390.225	373.22
390.605	375.94
390.984	359.89
391.363	368.48
391.743	348.14
392.122	360.8
392.501	370.96
392.881	371.87
393.26	351.3
393.639	369.61
394.018	364.41
394.397	352.21
394.776	371.42
395.155	394.24
395.534	383.62
395.913	382.72
396.292	389.72
396.671	387.91
397.05	394.47
397.429	390.17
397.808	397.4
398.186	386.78
398.565	397.63
398.944	402.6
399.323	382.49
399.701	401.02
400.08	399.66
400.458	400.79
400.837	396.05
401.215	385.2
401.594	397.18
401.972	404.86
402.351	416.84
402.729	418.42
403.107	432.43
403.486	391.76
403.864	419.1
404.242	415.71
404.62	416.16
404.999	431.3
405.377	424.3
405.755	417.07
406.133	436.5
406.511	411.19
406.889	438.53
407.267	429.49
407.645	435.82
408.023	444.86
408.401	448.02
408.779	453
409.156	439.66
409.534	445.99
409.912	443.73
410.29	471.08
410.667	465.43
411.045	462.26
411.422	483.96
411.8	457.52
412.178	479.66
412.555	474.46
412.933	496.16
413.31	487.57
413.687	477.63
414.065	485.31
414.442	484.63
414.819	503.84
415.197	507.68
415.574	497.74
415.951	500
416.328	494.35
416.705	511.53
417.082	515.14
417.46	501.81
417.837	529.83
418.214	516.72
418.591	527.12
418.967	541.36
419.344	525.09
419.721	519.44
420.098	535.71
420.475	537.06
420.852	556.27
421.228	541.58
421.605	569.6
421.982	552.65
422.358	568.47
422.735	586.33
423.111	568.93
423.488	565.08
423.864	581.13
424.241	579.55
424.617	589.04
424.994	597.17
425.37	593.56
425.746	607.12
426.123	626.1
426.499	627.46
426.875	603.28
427.251	619.32
427.627	636.95
428.003	634.46
428.379	648.7
428.756	653.67
429.132	672.65
429.507	636.27
429.883	671.07
430.259	680.56
430.635	699.32
431.011	687.79
431.387	664.29
431.763	688.02
432.138	711.52
432.514	702.93
432.89	685.53
433.265	732.31
433.641	720.79
434.016	728.92
434.392	735.25
434.767	743.84
435.143	776.6
435.518	760.56
435.894	756.49
436.269	778.64
436.644	777.73
437.02	794
437.395	782.48
437.77	815.92
438.145	833.1
438.52	819.54
438.895	805.98
439.271	813.44
439.646	858.64
440.021	857.28
440.395	838.07
440.77	843.95
441.145	884.62
441.52	896.6
441.895	855.25
442.27	885.3
442.645	882.36
443.019	872.65
443.394	907.22
443.769	901.57
444.143	893.44
444.518	920.78
444.892	902.48
445.267	938.18
445.641	947.45
446.016	948.8
446.39	961.01
446.764	954
447.139	941.35
447.513	986.77
447.887	975.47
448.262	976.37
448.636	965.53
449.01	976.82
449.384	1030.16
449.758	1020.67
450.132	1001
450.506	1029.25
450.88	1018.41
451.254	1043.72
451.628	1032.42
452.002	1054.56
452.376	1048.46
452.75	1049.37
453.123	1088.23
453.497	1081
453.871	1124.39
454.244	1117.39
454.618	1135.46
454.992	1145.86
455.365	1134.11
455.739	1170.94
456.112	1157.61
456.486	1207.33
456.859	1190.38
457.232	1204.84
457.606	1223.82
457.979	1262.69
458.352	1283.26
458.725	1262.69
459.099	1311.05
459.472	1304.5
459.845	1328.23
460.218	1333.65
460.591	1353.76
460.964	1356.93
461.337	1365.06
461.71	1423.59
462.083	1463.37
462.456	1421.56
462.829	1450.48
463.201	1461.33
463.574	1489.58
463.947	1512.86
464.32	1542.01
464.692	1545.62
465.065	1560.54
465.438	1615.45
465.81	1642.57
466.183	1649.12
466.555	1702.68
466.928	1688.9
467.3	1692.96
467.672	1735.45
468.045	1783.81
468.417	1784.71
468.789	1820.87
469.161	1818.38
469.534	1887.99
469.906	1911.49
470.278	1957.59
470.65	1985.39
471.022	2029.9
471.394	2053.86
471.766	2140.18
472.138	2133.18
472.51	2182.67
472.882	2208.66
473.253	2262.21
473.625	2331.82
473.997	2349.44
474.369	2396.67
474.74	2481.64
475.112	2509.44
475.484	2572.04
475.855	2611.13
476.227	2661.53
476.598	2759.15
476.97	2795.76
477.341	2862.42
477.713	2960.95
478.084	2999.37
478.455	3084.57
478.827	3157.56
479.198	3269.42
479.569	3284.33
479.94	3427.38
480.311	3480.26
480.682	3565.01
481.053	3663.31
481.424	3802.96
481.795	3887.71
482.166	3952.57
482.537	4015.84
482.908	4210.19
483.279	4280.47
483.65	4341.48
484.021	4443.85
484.391	4579.89
484.762	4670.51
485.133	4793.67
485.503	4860.56
485.874	4986.66
486.244	5131.29
486.615	5213.1
486.985	5395.47
487.356	5520.89
487.726	5625.52
488.097	5762.01
488.467	5809.69
488.837	5994.32
489.207	6091.94
489.578	6215.33
489.948	6379.39
490.318	6498.26
490.688	6633.85
491.058	6738.93
491.428	6834.3
491.798	7006.5
492.168	7189.32
492.538	7252.37
492.908	7445.13
493.278	7557.22
493.648	7696.42
494.017	7779.36
494.387	7922.4
494.757	8017.77
495.126	8162.62
495.496	8246.01
495.866	8321.26
496.235	8500.92
496.605	8614.36
496.974	8681.25
497.344	8848.03
497.713	8863.17
498.082	9022.04
498.452	9156.27
498.821	9207.79
499.19	9250.51
499.559	9394.23
499.928	9474.23
500.298	9649.59
500.667	9695.47
501.036	9693.43
501.405	9870.83
501.774	9955.12
502.143	10028.34
502.512	10092.74
502.88	10130.26
503.249	10189.92
503.618	10278.5
503.987	10354.21
504.356	10459.06
504.724	10491.38
505.093	10620.86
505.462	10598.49
505.83	10737.02
506.199	10842.1
506.567	10938.82
506.936	10899.73
507.304	11070.12
507.672	11118.03
508.041	11102.21
508.409	11257.91
508.777	11278.02
509.145	11389.88
509.514	11328.64
509.882	11465.59
510.25	11530.45
510.618	11557.11
510.986	11590.78
511.354	11571.35
511.722	11690.89
512.09	11844.34
512.458	11850.66
512.826	11887.05
513.193	11986.93
513.561	11990.77
513.929	12007.95
514.297	12116.42
514.664	12144.67
515.032	12183.54
515.4	12213.59
515.767	12256.98
516.135	12337.66
516.502	12185.12
516.869	12409.97
517.237	12414.72
517.604	12298.11
517.972	12497.65
518.339	12483.64
518.706	12491.1
519.073	12568.61
519.44	12614.94
519.808	12634.6
520.175	12641.38
520.542	12778.32
520.909	12734.48
521.276	12617.65
521.643	12824.42
522.009	12854.48
522.376	12883.4
522.743	12889.28
523.11	12945.32
523.477	13040.01
523.843	13108.93
524.21	13124.08
524.577	13215.82
524.943	13207.92
525.31	13187.58
525.676	13229.38
526.043	13247.91
526.409	13314.58
526.776	13345.54
527.142	13319.32
527.508	13342.15
527.874	13287.46
528.241	13388.93
528.607	13308.7
528.973	13393
529.339	13368.36
529.705	13487.91
530.071	13525.2
530.437	13411.98
530.803	13456.95
531.169	13454.91
531.535	13441.13
531.901	13351.87
532.267	13458.76
532.632	13373.56
532.998	13468.02
533.364	13524.29
533.73	13454.46
534.095	13526.1
534.461	13422.37
534.826	13534.91
535.192	13449.04
535.557	13480.68
535.923	13444.29
536.288	13387.12
536.653	13353.67
537.019	13267.12
537.384	13300.57
537.749	13289.72
538.114	13273
538.479	13138.31
538.845	13254.92
539.21	13194.36
539.575	13124.75
539.94	13063.29
540.305	13132.89
540.67	13015.83
541.034	13090.63
541.399	12997.98
541.764	13101.93
542.129	12913.69
542.494	12951.2
542.858	13014.25
543.223	12929.96
543.587	12948.26
543.952	12816.51
544.316	12902.16
544.681	12771.09
545.045	12768.38
545.41	12806.57
545.774	12733.8
546.138	12672.56
546.503	12654.48
546.867	12639.57
547.231	12681.15
547.595	12551.44
547.959	12593.47
548.324	12522.96
548.688	12504.43
549.052	12473.92
549.416	12416.52
549.779	12395.28
550.143	12387.15
550.507	12399.8
550.871	12400.93
551.235	12267.6
551.599	12355.96
551.962	12333.81
552.326	12307.6
552.689	12287.94
553.053	12181.95
553.417	12161.62
553.78	12291.33
554.143	12207.04
554.507	12216.76
554.87	12073.48
555.234	12264.44
555.597	12070.09
555.96	12168.17
556.323	12084.1
556.686	12092.69
557.05	12082.97
557.413	12097.44
557.776	12082.52
558.139	12057.44
558.502	12042.52
558.865	11980.83
559.228	12085.69
559.59	12065.12
559.953	12021.96
560.316	12084.78
560.679	12101.96
561.041	12015.4
561.404	12010.43
561.767	12088.85
562.129	12021.96
562.492	12106.25
562.854	12079.58
563.217	12011.34
563.579	12115.06
563.941	12147.6
564.304	12148.73
564.666	12162.75
565.028	12160.26
565.39	12130.43
565.753	12154.38
566.115	12226.25
566.477	12279.58
566.839	12227.83
567.201	12244.78
567.563	12216.98
567.925	12253.59
568.287	12184.89
568.648	12279.13
569.01	12254.72
569.372	12299.92
569.734	12314.61
570.095	12348.73
570.457	12386.47
570.819	12363.64
571.18	12328.84
571.542	12336.07
571.903	12361.38
572.265	12408.61
572.626	12325.68
572.987	12474.15
573.349	12388.95
573.71	12405.22
574.071	12433.02
574.432	12461.49
574.794	12515.96
575.155	12525.67
575.516	12446.81
575.877	12483.64
576.238	12410.2
576.599	12511.44
576.96	12470.76
577.32	12591.43
577.681	12630.3
578.042	12574.94
578.403	12542.17
578.763	12480.7
579.124	12590.3
579.485	12577.42
579.845	12648.61
580.206	12461.27
580.566	12616.52
580.927	12495.17
581.287	12534.03
581.648	12494.04
582.008	12566.35
582.368	12591.43
582.728	12586.24
583.089	12486.8
583.449	12587.37
583.809	12472.12
584.169	12506.01
584.529	12458.33
584.889	12539.46
585.249	12468.73
585.609	12433.47
585.969	12465.34
586.329	12421.72
586.688	12403.19
587.048	12403.19
587.408	12366.13
587.768	12402.06
588.127	12284.55
588.487	12452.23
588.846	12427.82
589.206	12316.41
589.565	12400.03
589.925	12352.34
590.284	12356.64
590.643	12391.89
591.003	12348.05
591.362	12352.57
591.721	12308.05
592.08	12305.79
592.44	12338.33
592.799	12381.5
593.158	12242.52
593.517	12325
593.876	12329.52
594.235	12245
594.593	12278.9
594.952	12337.43
595.311	12204.78
595.67	12217.21
596.029	12308.05
596.387	12278.67
596.746	12328.62
597.104	12214.04
597.463	12268.28
597.822	12330.42
598.18	12184.89
598.538	12215.63
598.897	12327.49
599.255	12174.5
599.613	12348.73
599.972	12297.2
600.33	12268.73
600.688	12265.57
601.046	12274.38
601.404	12309.41
601.762	12248.17
602.12	12332.46
602.478	12292.01
602.836	12263.76
603.194	12206.59
603.552	12170.65
603.91	12188.51
604.268	12259.69
604.625	12181.05
604.983	12203.87
605.341	12267.6
605.698	12240.48
606.056	12289.52
606.413	12268.73
606.771	12293.59
607.128	12263.99
607.485	12219.01
607.843	12204.78
608.2	12243.42
608.557	12343.53
608.914	12233.93
609.272	12352.57
609.629	12318.45
609.986	12322.06
610.343	12256.53
610.7	12397.99
611.057	12337.88
611.414	12394.83
611.771	12405.22
612.127	12454.49
612.484	12295.62
612.841	12400.48
613.198	12438.67
613.554	12476.18
613.911	12443.19
614.267	12415.17
614.624	12421.95
614.98	12414.72
615.337	12493.13
615.693	12545.33
616.05	12407.48
616.406	12576.52
616.762	12515.96
617.118	12550.76
617.475	12615.84
617.831	12658.55
618.187	12531.32
618.543	12609.74
618.899	12608.38
619.255	12590.3
619.611	12547.37
619.967	12616.97
620.323	12592.34
620.678	12585.11
621.034	12560.47
621.39	12553.92
621.746	12489.29
622.101	12774.25
622.457	12616.52
622.812	12564.99
623.168	12669.17
623.523	12575.39
623.879	12706.01
624.234	12474.38
624.589	12641.83
624.945	12594.37
625.3	12629.17
625.655	12625.78
626.01	12593.02
626.365	12568.38
626.72	12555.96
627.075	12543.53
627.43	12586.24
627.785	12574.49
628.14	12627.59
628.495	12562.06
628.85	12571.32
629.205	12468.73
629.559	12605.67
629.914	12540.59
630.269	12479.35
630.623	12463.08
630.978	12525.45
631.332	12527.03
631.687	12548.27
632.041	12473.25
632.396	12542.85
632.75	12480.93
633.104	12467.14
633.459	12367.71
633.813	12442.96
634.167	12445.45
634.521	12432.79
634.875	12440.03
635.229	12367.26
635.583	12280.71
635.937	12347.15
636.291	12341.05
636.645	12408.16
636.999	12308.5
637.352	12323.42
637.706	12188.96
638.06	12280.48
638.413	12224.89
638.767	12169.3
639.121	12229.41
639.474	12139.47
639.828	12125.91
640.181	12187.6
640.534	12146.93
640.888	12120.49
641.241	12049.08
641.594	12117.55
641.947	12128.4
642.301	12090.43
642.654	12072.13
643.007	12125.68
643.36	12032.81
643.713	12024.67
644.066	12091.33
644.419	11974.28
644.771	11975.41
645.124	11885.24
645.477	11802.98
645.83	11751.46
646.182	11724.34
646.535	11664
646.888	11711.68
647.24	11596.88
647.593	11615.41
647.945	11673.49
648.298	11593.04
648.65	11613.61
649.002	11582.2
649.355	11620.39
649.707	11642.76
650.059	11731.8
650.411	11860.15
650.763	11824.67
651.115	11879.59
651.467	11883.88
651.819	11926.82
652.171	11924.79
652.523	11848.18
652.875	11838.23
653.227	11878.01
653.578	11998.46
653.93	11920.94
654.282	11883.2
654.633	11821.51
654.985	11894.73
655.337	11817.67
655.688	11914.84
656.039	11853.83
656.391	11846.37
656.742	11816.54
657.094	11878.23
657.445	11903.54
657.796	11848.18
658.147	11833.04
658.498	11767.05
658.849	11797.56
659.2	11833.94
659.551	11850.44
659.902	11923.66
660.253	11860.83
660.604	11900.15
660.955	11827.16
661.306	11919.36
661.656	11934.05
662.007	11826.71
662.358	11854.73
662.708	11920.49
663.059	11966.59
663.409	11856.99
663.76	11892.7
664.11	11928.85
664.461	11943.77
664.811	11932.69
665.161	11916.2
665.511	11892.92
665.862	11879.36
666.212	11970.21
666.562	11937.21
666.912	11969.76
667.262	11944.22
667.612	12004.56
667.962	11941.51
668.312	11924.11
668.662	12005.24
669.011	11855.63
669.361	11950.77
669.711	11900.15
670.06	11853.6
670.41	11908.74
670.76	11812.7
671.109	11872.58
671.459	11837.1
671.808	11840.72
672.157	11850.89
672.507	11808.63
672.856	11829.19
673.205	11807.27
673.554	11838.69
673.904	11741.74
674.253	11806.14
674.602	11854.5
674.951	11637.34
675.3	11615.87
675.649	11759.37
675.998	11739.03
676.346	11764.34
676.695	11767.73
677.044	11638.47
677.393	11699.25
677.741	11737.22
678.09	11681.85
678.438	11612.03
678.787	11649.31
679.135	11649.09
679.484	11592.82
679.832	11617.67
680.181	11545.36
680.529	11580.84
680.877	11567.28
681.225	11575.87
681.573	11540.16
681.922	11582.65
682.27	11459.03
682.618	11500.62
682.966	11412.48
683.314	11508.53
683.661	11350.56
684.009	11320.06
684.357	11282.54
684.705	11325.93
685.053	11307.17
685.4	11234.63
685.748	11195.99
686.095	11260.17
686.443	11227.4
686.79	11191.25
687.138	11241.87
687.485	11139.5
687.832	11138.37
688.18	11166.39
688.527	11083.68
688.874	11032.61
689.221	10998.93
689.568	10975.43
689.915	10984.7
690.262	10932.72
690.609	10869.9
690.956	10868.09
691.303	10838.94
691.65	10837.81
691.997	10777.02
692.344	10689.11
692.69	10663.8
693.037	10689.79
693.383	10520.98
693.73	10629.68
694.077	10562.34
694.423	10501.55
694.769	10493.86
695.116	10446.86
695.462	10442.11
695.808	10363.47
696.155	10418.38
696.501	10249.58
696.847	10335.67
697.193	10269.69
697.539	10239.63
697.885	10238.05
698.231	10197.37
698.577	10076.02
698.923	10064.5
699.269	10044.38
699.614	10026.98
699.96	9913.99
700.306	9906.53
700.651	9874.44
700.997	9878.06
701.342	9874.67
701.688	9773.2
702.033	9776.37
702.379	9709.25
702.724	9697.5
703.069	9723.71
703.415	9666.31
703.76	9652.98
704.105	9601.46
704.45	9638.74
704.795	9452.31
705.14	9516.94
705.485	9504.74
705.83	9483.04
706.175	9476.26
706.52	9401.24
706.865	9372.08
707.209	9360.78
707.554	9287.34
707.899	9305.87
708.243	9212.09
708.588	9236.04
708.932	9124.86
709.277	9155.37
709.621	9216.83
709.966	9104.29
710.31	9069.27
710.654	9012.32
710.998	9017.07
711.342	9088.25
711.687	9001.47
712.031	8991.3
712.375	8947.46
712.719	9021.13
713.063	8901.59
713.407	8949.27
713.75	8878.31
714.094	8891.87
714.438	8813.91
714.782	8847.8
715.125	8808.26
715.469	8796.28
715.812	8769.84
716.156	8761.03
716.499	8732.1
716.843	8753.8
717.186	8649.84
717.53	8710.86
717.873	8750.18
718.216	8700.92
718.559	8698.43
718.902	8661.37
719.246	8699.79
719.589	8629.28
719.932	8572.56
720.275	8571.2
720.617	8614.59
720.96	8536.63
721.303	8535.72
721.646	8583.86
721.989	8507.47
722.331	8535.5
722.674	8518.1
723.016	8555.16
723.359	8516.51
723.701	8501.15
724.044	8486.01
724.386	8446.91
724.729	8487.36
725.071	8397.42
725.413	8477.42
725.755	8448.94
726.097	8405.33
726.439	8387.7
726.782	8323.52
727.124	8472.9
727.465	8360.59
727.807	8374.6
728.149	8393.58
728.491	8398.55
728.833	8337.99
729.175	8325.11
729.516	8288.72
729.858	8347.48
730.199	8369.62
730.541	8347.93
730.882	8357.2
731.224	8300.93
731.565	8342.28
731.906	8362.62
732.248	8387.7
732.589	8311.55
732.93	8335.28
733.271	8330.98
733.612	8342.05
733.953	8395.39
734.294	8298.67
734.635	8303.64
734.976	8278.1
735.317	8258.22
735.658	8308.61
735.999	8314.71
736.339	8299.34
736.68	8372.34
737.021	8377.99
737.361	8307.93
737.702	8369.17
738.042	8354.03
738.383	8355.16
738.723	8312.9
739.063	8309.97
739.404	8349.06
739.744	8365.78
740.084	8343.64
740.424	8338.89
740.764	8367.82
741.104	8462.28
741.444	8426.8
741.784	8374.6
742.124	8422.73
742.464	8473.12
742.804	8508.83
743.143	8504.54
743.483	8580.47
743.823	8533.46
744.162	8532.56
744.502	8569.17
744.841	8580.92
745.181	8668.15
745.52	8633.35
745.86	8655.27
746.199	8691.42
746.538	8745.66
746.877	8730.29
747.216	8841.7
747.556	8850.52
747.895	8934.58
748.234	8924.19
748.573	9042.15
748.911	9065.2
749.25	9106.55
749.589	9090.06
749.928	9200.34
750.267	9339.32
750.605	9310.39
750.944	9442.59
751.283	9483.27
751.621	9566.66
751.96	9617.73
752.298	9660.66
752.636	9788.12
752.975	9831.06
753.313	9923.03
753.651	10145.4
753.989	10124.61
754.327	10278.05
754.666	10308.1
755.004	10443.02
755.342	10585.84
755.679	10671.48
756.017	10732.73
756.355	10936.11
756.693	11101.3
757.031	11147.18
757.368	11202.32
757.706	11483.44
758.044	11446.61
758.381	11647.5
758.719	11805.01
759.056	11959.36
759.394	12127.27
759.731	12234.83
760.068	12389.63
760.405	12481.83
760.743	12591.89
761.08	12778.55
761.417	12973.8
761.754	13054.7
762.091	13295.37
762.428	13451.07
762.765	13561.58
763.102	13711.63
763.438	13857.62
763.775	13966.54
764.112	14231.84
764.449	14320.88
764.785	14489.01
765.122	14534.43
765.458	14755.45
765.795	14828.44
766.131	15038.83
766.467	15151.82
766.804	15185.26
767.14	15398.37
767.476	15561.53
767.812	15611.02
768.148	15788.86
768.485	15809.43
768.821	15987.96
769.157	16034.73
769.492	16283.09
769.828	16349.75
770.164	16363.54
770.5	16427.49
770.836	16636.53
771.171	16708.16
771.507	16688.73
771.842	16780.02
772.178	16933.69
772.513	17047.36
772.849	17067.7
773.184	17246
773.519	17273.57
773.855	17245.55
774.19	17352.89
774.525	17396.73
774.86	17541.36
775.195	17575.03
775.53	17598.53
775.865	17590.17
776.2	17546.11
776.535	17606.22
776.87	17717.4
777.205	17728.93
777.539	17725.76
777.874	17874.91
778.209	17783.16
778.543	17859.54
778.878	17755.37
779.212	17840.56
779.547	17890.05
779.881	18033.1
780.215	17917.85
780.55	18014.34
780.884	17987.45
781.218	18000.11
781.552	18052.08
781.886	17994.23
782.22	18020.44
782.554	17970.28
782.888	17928.24
783.222	17828.13
783.556	17840.79
783.889	17876.49
784.223	17814.35
784.557	17781.35
784.89	17894.35
785.224	17899.77
785.557	17857.51
785.891	17800.11
786.224	17836.95
786.558	17809.6
786.891	17675.14
787.224	17703.16
787.557	17709.72
787.891	17693
788.224	17662.26
788.557	17752.65
788.89	17605.54
789.223	17648.25
789.556	17536.62
789.888	17632.43
790.221	17528.93
790.554	17386.34
790.887	17467.69
791.219	17342.95
791.552	17429.27
791.884	17300.01
792.217	17283.74
792.549	17271.31
792.882	17244.42
793.214	17182.5
793.546	17250.52
793.879	17052.11
794.211	17067.7
794.543	17151.09
794.875	17010.53
795.207	17138.66
795.539	16975.95
795.871	17052.11
796.203	16914.94
796.535	16811.66
796.867	16812.11
797.198	16779.35
797.53	16811.21
797.862	16589.52
798.193	16710.65
798.525	16676.3
798.856	16683.76
799.188	16466.36
799.519	16490.31
799.85	16473.37
800.182	16409.87
800.513	16391.79
800.844	16258.91
801.175	16441.28
801.506	16334.84
801.837	16329.87
802.168	16308.17
802.499	16166.26
802.83	16129.87
803.161	16153.15
803.491	16095.75
803.822	16086.48
804.153	16009.42
804.483	15958.8
804.814	15892.82
805.145	15868.18
805.475	15811.01
805.805	15793.61
806.136	15789.99
806.466	15771.01
806.796	15743.44
807.126	15499.38
807.457	15579.6
807.787	15665.03
808.117	15643.11
808.447	15485.82
808.777	15560.17
809.107	15443.11
809.436	15424.81
809.766	15351.81
810.096	15358.37
810.426	15315.66
810.755	15294.87
811.085	15293.51
811.414	15295.77
811.744	15221.65
812.073	15110.24
812.403	15125.61
812.732	15012.39
813.061	15081.76
813.39	15039.96
813.719	14999.96
814.049	15077.02
814.378	15052.16
814.707	14922.22
815.036	14981.43
815.365	14866.85
815.693	14635.67
816.022	14742.56
816.351	14794.77
816.68	14646.3
817.008	14739.4
817.337	14431.84
817.665	14640.19
817.994	14733.53
818.322	14594.09
818.651	14512.06
818.979	14444.72
819.307	14436.36
819.636	14478.39
819.964	14360.65
820.292	14485.85
820.62	14445.85
820.948	14410.6
821.276	14454.89
821.604	14354.78
821.932	14411.27
822.259	14422.8
822.587	14395.45
822.915	14410.82
823.243	14429.58
823.57	14400.2
823.898	14332.41
824.225	14317.72
824.553	14352.97
824.88	14370.37
825.207	14360.2
825.535	14404.49
825.862	14378.96
826.189	14395.91
826.516	14485.85
826.843	14391.61
827.17	14375.12
827.497	14461.67
827.824	14446.53
828.151	14510.93
828.478	14369.47
828.805	14509.58
829.131	14395.23
829.458	14386.87
829.785	14393.65
830.111	14435.23
830.438	14415.79
830.764	14426.41
831.09	14510.03
831.417	14397.04
831.743	14361.78
832.069	14415.34
832.395	14340.32
832.722	14384.16
833.048	14357.94
833.374	14249.02
833.7	14314.55
834.026	14260.32
834.351	14317.26
834.677	14304.84
835.003	14327.43
835.329	14202.69
835.654	14223.71
835.98	14191.39
836.306	14287.44
836.631	14083.37
836.956	14240.66
837.282	14153.43
837.607	14070.94
837.932	14043.6
838.258	14098.29
838.583	14094.22
838.908	13972.87
839.233	14095.12
839.558	13987.56
839.883	13966.31
840.208	13957.5
840.533	13911.85
840.858	13896.03
841.182	13910.04
841.507	13776.26
841.832	13842.02
842.156	13751.18
842.481	13767.9
842.805	13759.31
843.13	13705.76
843.454	13724.06
843.778	13625.53
844.103	13650.62
844.427	13483.16
844.751	13568.13
845.075	13591.41
845.399	13470.28
845.723	13438.87
846.047	13438.42
846.371	13280
846.695	13339.66
847.019	13307.35
847.343	13117.52
847.666	13034.81
847.99	13117.52
848.313	13035.94
848.637	13013.8
848.96	13021.71
849.284	12883.86
849.607	12845.89
849.931	12797.3
850.254	12730.64
850.577	12634.6
850.9	12510.31
851.223	12619.68
851.546	12496.3
851.869	12392.34
852.192	12483.19
852.515	12304.89
852.838	12325
853.161	12300.82
853.483	12214.27
853.806	12174.72
854.129	12175.4
854.451	12082.07
854.774	12068.51
855.096	12012.24
855.419	12032.35
855.741	11982.18
856.063	11887.95
856.385	11880.04
856.708	11759.82
857.03	11753.94
857.352	11787.16
857.674	11758.01
857.996	11707.16
858.318	11626.49
858.64	11675.07
858.961	11621.74
859.283	11515.08
859.605	11547.39
859.926	11562.53
860.248	11541.97
860.57	11478.7
860.891	11396.89
861.212	11453.84
861.534	11372.03
861.855	11358.25
862.176	11390.34
862.498	11342.88
862.819	11373.61
863.14	11232.15
863.461	11290.45
863.782	11190.12
864.103	11221.08
864.424	11214.75
864.745	11215.43
865.065	11187.18
865.386	11044.81
865.707	11078.71
866.027	11099.27
866.348	11097.24
866.668	11091.36
866.989	11098.37
867.309	10965.71
867.63	11006.17
867.95	11016.33
868.27	10834.42
868.59	10899.5
868.91	10924.59
869.23	10936.34
869.55	10880.29
869.87	10924.81
870.19	10911.7
870.51	10921.65
870.83	10837.58
871.15	10756.91
871.469	10776.79
871.789	10851.14
872.109	10712.84
872.428	10717.81
872.748	10734.31
873.067	10709.45
873.386	10705.16
873.706	10662.22
874.025	10591.26
874.344	10583.58
874.663	10633.52
874.982	10578.83
875.301	10557.59
875.62	10504.48
875.939	10565.5
876.258	10610.47
876.577	10476.24
876.896	10420.64
877.214	10438.72
877.533	10490.7
877.852	10381.55
878.17	10397.59
878.489	10436.91
878.807	10423.58
879.125	10344.71
879.444	10277.82
879.762	10368.67
880.08	10282.79
880.398	10217.49
880.716	10306.3
881.034	10258.84
881.352	10292.06
881.67	10177.94
881.988	10206.86
882.306	10172.06
882.624	10115.57
882.941	10097.04
883.259	10094.1
883.577	10067.66
883.894	10006.19
884.212	10087.32
884.529	9920.54
884.846	9978.17
885.164	9939.07
885.481	9902.01
885.798	9977.49
886.115	9874.44
886.432	9840.09
886.75	9864.73
887.067	9809.36
887.383	9730.49
887.7	9801.23
888.017	9762.36
888.334	9752.41
888.651	9724.39
888.967	9734.79
889.284	9565.07
889.6	9628.12
889.917	9626.77
890.233	9574.11
890.55	9475.81
890.866	9567.56
891.182	9451.86
891.498	9433.55
891.815	9438.75
892.131	9463.61
892.447	9389.03
892.763	9320.56
893.079	9315.36
893.395	9357.4
893.71	9282.14
894.026	9232.65
894.342	9226.55
894.657	9111.3
894.973	9177.51
895.289	9175.03
895.604	9113.33
895.92	9020.23
896.235	9007.35
896.55	9003.05
896.865	8983.17
897.181	8926.22
897.496	8905.43
897.811	8880.57
898.126	8812.55
898.441	8877.63
898.756	8740.01
899.071	8751.31
899.386	8669.73
899.7	8663.85
900.015	8638.32
900.33	8623.86
900.644	8509.06
900.959	8620.69
901.273	8488.04
901.588	8468.38
901.902	8421.83
902.216	8398.32
902.531	8383.64
902.845	8359
903.159	8308.38
903.473	8269.06
903.787	8341.83
904.101	8206.92
904.415	8226.13
904.729	8159.69
905.042	8148.16
905.356	8082.63
905.67	8123.53
905.984	8101.61
906.297	7996.53
906.611	8019.35
906.924	7951.33
907.237	7933.93
907.551	7881.5
907.864	7905.68
908.177	7872.46
908.491	7781.84
908.804	7752.92
909.117	7693.03
909.43	7668.63
909.743	7654.84
910.056	7590.66
910.368	7570.55
910.681	7576.2
910.994	7510.44
911.307	7476.77
911.619	7458.69
911.932	7437.9
912.244	7421.4
912.557	7482.19
912.869	7371.01
913.181	7362.19
913.494	7315.19
913.806	7264.12
914.118	7195.42
914.43	7197
914.742	7168.07
915.054	7130.11
915.366	7167.85
915.678	7093.95
915.99	7051.47
916.302	7001.52
916.613	6972.37
916.925	6882.66
917.236	6993.16
917.548	6925.82
917.859	6925.14
918.171	6808.54
918.482	6831.36
918.794	6793.62
919.105	6820.29
919.416	6724.7
919.727	6728.76
920.038	6684.02
920.349	6698.26
920.66	6616
920.971	6633.85
921.282	6640.86
921.593	6538.71
921.903	6544.59
922.214	6501.2
922.525	6494.65
922.835	6459.84
923.146	6454.87
923.456	6426.4
923.767	6376.46
924.077	6352.05
924.387	6374.42
924.697	6246.06
925.008	6240.87
925.318	6192.73
925.628	6252.39
925.938	6219.85
926.248	6156.12
926.558	6161.32
926.867	6057.37
927.177	6047.43
927.487	6061.89
927.796	5981.66
928.106	6001.55
928.416	6004.26
928.725	6023.47
929.034	5899.41
929.344	5987.31
929.653	5865.74
929.962	5869.35
930.271	5852.85
930.581	5858.96
930.89	5801.1
931.199	5746.19
931.508	5759.52
931.817	5737.15
932.125	5727.21
932.434	5691.5
932.743	5672.75
933.051	5662.13
933.36	5592.3
933.669	5557.95
933.977	5601.79
934.286	5571.28
934.594	5520.43
934.902	5474.33
935.21	5468.01
935.519	5443.15
935.827	5461.45
936.135	5388.91
936.443	5338.07
936.751	5365.41
937.059	5381.23
937.367	5321.8
937.674	5337.61
937.982	5258.97
938.29	5211.97
938.597	5186.88
938.905	5164.51
939.213	5203.61
939.52	5138.98
939.827	5160.9
940.135	5106.43
940.442	5121.12
940.749	5046.32
941.056	5080.67
941.363	5055.14
941.67	5012.2
941.977	5028.7
942.284	4961.58
942.591	4987.11
942.898	4980.56
943.205	4884.52
943.511	4871.41
943.818	4845.42
944.125	4815.59
944.431	4804.97
944.738	4816.72
945.044	4750.06
945.35	4757.52
945.657	4750.51
945.963	4709.16
946.269	4680.91
946.575	4686.78
946.881	4643.39
947.187	4632.77
947.493	4630.97
947.799	4618.99
948.105	4590.51
948.41	4586.22
948.716	4543.96
949.022	4569.72
949.327	4522.04
949.633	4477.3
949.938	4474.59
950.244	4449.5
950.549	4401.59
950.854	4409.05
951.16	4402.95
951.465	4407.24
951.77	4360.01
952.075	4350.97
952.38	4338.09
952.685	4333.12
952.99	4233.24
953.294	4272.33
953.599	4249.05
953.904	4245.44
954.209	4186.68
954.513	4194.59
954.818	4136.06
955.122	4134.03
955.426	4165.67
955.731	4109.17
956.035	4087.03
956.339	4095.84
956.643	4073.69
956.948	4052.45
957.252	4025.33
957.556	4012
957.86	3952.79
958.163	3994.15
958.467	3951.66
958.771	3949.18
959.075	3945.11
959.378	3947.14
959.682	3933.58
959.985	3872.57
960.289	3881.38
960.592	3846.58
960.896	3852.23
961.199	3778.56
961.502	3765.23
961.805	3772.23
962.108	3756.64
962.411	3780.37
962.714	3724.1
963.017	3692.69
963.32	3695.4
963.623	3683.65
963.926	3673.02
964.228	3647.94
964.531	3605
964.833	3618.79
965.136	3633.93
965.438	3562.29
965.741	3619.92
966.043	3566.81
966.345	3529.98
966.648	3548.06
966.95	3541.28
967.252	3487.95
967.554	3482.3
967.856	3487.04
968.158	3447.95
968.46	3446.59
968.761	3428.29
969.063	3440.94
969.365	3416.53
969.666	3386.7
969.968	3333.6
970.269	3354.62
970.571	3369.08
970.872	3323.2
971.174	3297.44
971.475	3296.09
971.776	3283.43
972.077	3294.96
972.378	3244.34
972.679	3209.53
972.98	3216.31
973.281	3185.35
973.582	3184.22
973.883	3192.13
974.183	3182.42
974.484	3174.96
974.785	3160.72
975.085	3123.89
975.386	3116.66
975.686	3060.84
975.986	3104.68
976.287	3124.34
976.587	3089.31
976.887	3028.07
977.187	3056.09
977.487	3004.57
977.787	2981.74
978.087	2988.07
978.387	2988.3
978.687	2990.33
978.987	2957.34
979.286	2935.64
979.586	2943.55
979.885	2949.2
980.185	2881.63
980.484	2838.92
980.784	2869.2
981.083	2820.39
981.382	2847.06
981.682	2833.95
981.981	2840.5
982.28	2803.44
982.579	2781.97
982.878	2831.47
983.177	2812.93
983.475	2724.58
983.774	2777.23
984.073	2751.24
984.372	2747.17
984.67	2668.53
984.969	2697.68
985.267	2665.59
985.566	2670.57
985.864	2659.49
986.162	2642.32
986.461	2628.53
986.759	2609.32
987.057	2598.48
987.355	2640.74
987.653	2579.49
987.951	2568.42
988.249	2556.67
988.547	2566.39
988.844	2528.87
989.142	2540.85
989.44	2535.43
989.737	2518.25
990.035	2485.26
990.332	2495.2
990.63	2486.39
990.927	2473.96
991.224	2433.06
991.521	2458.37
991.819	2439.84
992.116	2421.31
992.413	2398.26
992.71	2401.42
993.006	2363.23
993.303	2350.12
993.6	2375.88
993.897	2373.17
994.193	2336.11
994.49	2340.4
994.787	2308.54
995.083	2324.36
995.379	2327.3
995.676	2305.38
995.972	2255.89
996.268	2254.08
996.565	2242.1
996.861	2222.22
997.157	2238.26
997.453	2188.77
997.749	2242.33
998.044	2158.04
998.34	2199.84
998.636	2191.48
998.932	2174.76
999.227	2129.56
999.523	2134.31
999.818	2125.72
1000.114	2109.9
1000.409	2098.38
1000.704	2086.17
1001	2071.49
1001.295	2043.24
1001.59	2049.56
1001.885	2068.55
1002.18	2048.21
1002.475	2047.08
1002.77	2003.01
1003.065	1979.06
1003.359	1987.42
1003.654	1970.47
1003.949	1966.4
1004.243	1962.56
1004.538	1963.01
1004.832	1953.97
1005.127	1914.2
1005.421	1922.56
1005.715	1891.6
1006.009	1921.43
1006.304	1904.26
1006.598	1890.25
1006.892	1877.59
1007.186	1871.26
1007.48	1852.51
1007.773	1844.82
1008.067	1824.94
1008.361	1831.49
1008.655	1798.72
1008.948	1786.29
1009.242	1789.23
1009.535	1763.47
1009.829	1772.96
1010.122	1759.4
1010.415	1732.28
1010.708	1727.77
1011.001	1713.08
1011.295	1698.16
1011.588	1698.84
1011.881	1700.42
1012.173	1689.35
1012.466	1659.07
1012.759	1695.45
1013.052	1655.45
1013.344	1646.86
1013.637	1657.71
1013.93	1654.32
1014.222	1625.4
1014.514	1614.1
1014.807	1608.22
1015.099	1615.23
1015.391	1588.79
1015.683	1556.7
1015.976	1572.74
1016.268	1570.26
1016.56	1556.47
1016.851	1546.08
1017.143	1527.54
1017.435	1513.31
1017.727	1530.03
1018.018	1526.64
1018.31	1490.94
1018.602	1490.71
1018.893	1461.56
1019.185	1452.97
1019.476	1453.42
1019.767	1432.18
1020.058	1411.16
1020.35	1416.14
1020.641	1414.78
1020.932	1362.8
1021.223	1397.38
1021.514	1389.47
1021.804	1378.4
1022.095	1330.94
1022.386	1353.99
1022.677	1326.87
1022.967	1332.97
1023.258	1324.16
1023.548	1314.44
1023.839	1326.65
1024.129	1318.96
1024.419	1302.01
1024.709	1271.51
1025	1269.92
1025.29	1289.81
1025.58	1258.17
1025.87	1254.33
1026.16	1233.77
1026.449	1273.77
1026.739	1265.18
1027.029	1242.13
1027.319	1197.16
1027.608	1201.9
1027.898	1223.37
1028.187	1200.1
1028.477	1170.94
1028.766	1157.16
1029.055	1175.92
1029.344	1153.54
1029.634	1164.16
1029.923	1154.9
1030.212	1109.02
1030.501	1137.72
1030.79	1113.77
1031.078	1114.9
1031.367	1127.78
1031.656	1100.44
1031.945	1079.42
1032.233	1077.16
1032.522	1085.52
1032.81	1073.55
1033.099	1079.19
1033.387	1075.35
1033.675	1068.57
1033.963	1050.27
1034.251	1072.64
1034.54	1036.48
1034.828	1050.04
1035.116	1024.28
1035.403	1038.74
1035.691	1021.12
1035.979	1006.2
1036.267	997.16
1036.554	1013.89
1036.842	987.22
1037.129	976.15
1037.417	965.75
1037.704	975.24
1037.992	967.79
1038.279	947.9
1038.566	948.12
1038.853	948.12
1039.14	948.12
