Data from hue_80_FLMS001491_92.txt Node
Date: Mon Feb 06 15:24:04 GMT 2017
User: dcchb
Spectrometer: FLMS00149
Trigger mode: 0
Integration Time (sec): 2.000000E-2
Scans to average: 10
Electric dark correction enabled: true
Nonlinearity correction enabled: false
Boxcar width: 0
XAxis mode: Wavelengths
Number of Pixels in Spectrum: 2048
>>>>>Begin Spectral Data<<<<<
341.393	-19.63
341.776	-19.63
342.16	-19.63
342.543	-69.35
342.927	-62.34
343.31	-60.54
343.693	-55.56
344.077	-93.98
344.46	-55.79
344.843	-53.53
345.226	-44.94
345.61	-52.17
345.993	-28.67
346.376	-17.15
346.759	-0.2
347.142	42.06
347.525	64.89
347.908	79.8
348.291	82.29
348.674	90.2
349.057	103.3
349.44	126.13
349.823	143.98
350.206	153.47
350.588	190.53
350.971	230.53
351.354	225.33
351.737	233.92
352.119	237.08
352.502	266.24
352.884	258.33
353.267	284.09
353.65	286.8
354.032	279.34
354.414	325.9
354.797	314.37
355.179	308.72
355.562	324.77
355.944	336.52
356.326	336.74
356.709	343.97
357.091	320.47
357.473	345.78
357.855	351.66
358.238	335.84
358.62	348.04
359.002	329.74
359.384	341.04
359.766	357.08
360.148	334.93
360.53	359.57
360.912	332.9
361.294	323.18
361.676	331.32
362.057	324.31
362.439	341.04
362.821	344.65
363.203	322.28
363.584	322.73
363.966	336.97
364.348	338.55
364.729	332.22
365.111	324.77
365.493	313.47
365.874	336.74
366.256	320.92
366.637	301.49
367.019	328.61
367.4	334.26
367.781	296.74
368.163	301.94
368.544	324.77
368.925	308.27
369.306	329.29
369.688	307.36
370.069	323.41
370.45	311.88
370.831	307.59
371.212	315.27
371.593	312.56
371.974	322.51
372.355	321.38
372.736	300.13
373.117	317.76
373.498	328.61
373.879	322.96
374.26	314.14
374.641	303.98
375.021	302.17
375.402	328.61
375.783	336.06
376.163	318.89
376.544	314.6
376.925	342.62
377.305	322.05
377.686	335.16
378.066	335.16
378.447	340.58
378.827	342.39
379.208	350.08
379.588	340.36
379.968	342.39
380.349	325.44
380.729	349.17
381.109	360.47
381.489	350.08
381.87	337.19
382.25	336.52
382.63	339
383.01	340.58
383.39	345.33
383.77	344.88
384.15	359.79
384.53	340.81
384.91	359.79
385.29	332.9
385.67	339.91
386.049	345.56
386.429	362.28
386.809	362.05
387.189	369.74
387.568	351.66
387.948	368.61
388.328	372.9
388.707	346.91
389.087	350.53
389.466	349.4
389.846	362.28
390.225	402.05
390.605	379.68
390.984	372.22
391.363	369.06
391.743	372.67
392.122	393.24
392.501	369.51
392.881	394.14
393.26	402.28
393.639	386.23
394.018	376.97
394.397	392.56
394.776	402.28
395.155	392.79
395.534	404.76
395.913	395.27
396.292	400.24
396.671	375.61
397.05	398.89
397.429	403.63
397.808	407.7
398.186	389.62
398.565	398.66
398.944	403.18
399.323	408.15
399.701	382.84
400.08	391.66
400.458	406.12
400.837	427.59
401.215	399.79
401.594	410.86
401.972	398.21
402.351	422.16
402.729	419.23
403.107	422.39
403.486	416.29
403.864	422.16
404.242	429.17
404.62	422.84
404.999	422.39
405.377	436.63
405.755	431.43
406.133	411.77
406.511	450.86
406.889	457.42
407.267	438.89
407.645	465.55
408.023	444.31
408.401	481.6
408.779	450.86
409.156	460.13
409.534	460.58
409.912	454.93
410.29	480.02
410.667	472.11
411.045	482.95
411.422	481.15
411.8	488.6
412.178	494.25
412.555	492.67
412.933	475.27
413.31	483.41
413.687	484.76
414.065	482.28
414.442	480.24
414.819	498.77
415.197	513.24
415.574	508.04
415.951	487.93
416.328	525.66
416.705	508.72
417.082	511.88
417.46	529.73
417.837	523.18
418.214	534.7
418.591	512.56
418.967	531.77
419.344	541.93
419.721	529.05
420.098	541.71
420.475	566.79
420.852	543.06
421.228	544.42
421.605	558.66
421.982	549.39
422.358	560.69
422.735	562.73
423.111	570.41
423.488	573.35
423.864	579.67
424.241	564.53
424.617	577.41
424.994	586.45
425.37	608.37
425.746	576.74
426.123	606.57
426.499	602.27
426.875	626
427.251	630.07
427.627	602.95
428.003	617.19
428.379	633.23
428.756	631.88
429.132	648.15
429.507	657.64
429.883	661.71
430.259	658.09
430.635	659.45
431.011	658.54
431.387	670.52
431.763	677.07
432.138	669.16
432.514	691.99
432.89	669.39
433.265	696.06
433.641	706
434.016	697.64
434.392	729.73
434.767	705.32
435.143	727.69
435.518	745.32
435.894	736.51
436.269	747.35
436.644	758.43
437.02	758.43
437.395	771.31
437.77	764.75
438.145	778.31
438.52	769.73
438.895	789.61
439.271	792.78
439.646	791.65
440.021	789.16
440.395	816.5
440.77	837.75
441.145	793.23
441.52	846.79
441.895	833.45
442.27	839.55
442.645	831.87
443.019	823.74
443.394	824.19
443.769	857.63
444.143	847.01
444.518	857.18
444.892	860.57
445.267	858.99
445.641	866.45
446.016	880.91
446.39	900.34
446.764	896.5
447.139	868.25
447.513	925.65
447.887	926.78
448.262	886.78
448.636	901.47
449.01	935.14
449.384	938.76
449.758	955.48
450.132	938.99
450.506	953.9
450.88	963.17
451.254	982.38
451.628	977.63
452.002	992.54
452.376	1007.23
452.75	1005.65
453.123	1011.75
453.497	1012.66
453.871	1037.52
454.244	1055.82
454.618	1043.39
454.992	1053.79
455.365	1063.05
455.739	1099.21
456.112	1106.89
456.486	1082.94
456.859	1110.73
457.232	1133.33
457.606	1109.15
457.979	1150.51
458.352	1188.02
458.725	1160.9
459.099	1205.87
459.472	1176.49
459.845	1235.48
460.218	1257.85
460.591	1239.32
460.964	1231.18
461.337	1272.54
461.71	1308.92
462.083	1294.68
462.456	1323.16
462.829	1350.5
463.201	1359.09
463.574	1368.58
463.947	1375.13
464.32	1401.35
464.692	1436.83
465.065	1418.07
465.438	1451.97
465.81	1487.45
466.183	1508.69
466.555	1547.56
466.928	1541.91
467.3	1550.95
467.672	1579.87
468.045	1613.09
468.417	1627.1
468.789	1635.69
469.161	1698.74
469.534	1719.53
469.906	1723.82
470.278	1769.25
470.65	1810.15
471.022	1827.78
471.394	1858.74
471.766	1886.76
472.138	1899.41
472.51	1964.95
472.882	2014.89
473.253	2022.57
473.625	2059.18
473.997	2124.27
474.369	2181.44
474.74	2206.3
475.112	2263.7
475.484	2298.05
475.855	2350.93
476.227	2422.34
476.598	2453.52
476.97	2458.95
477.341	2576.46
477.713	2627.08
478.084	2681.99
478.455	2785.94
478.827	2806.06
479.198	2980.29
479.569	2954.53
479.94	3062.32
480.311	3126.5
480.682	3221.19
481.053	3348.41
481.424	3444.23
481.795	3479.94
482.166	3553.38
482.537	3688.74
482.908	3812.58
483.279	3891.68
483.65	3959.25
484.021	4107.49
484.391	4132.35
484.762	4278.79
485.133	4403.53
485.503	4468.61
485.874	4638.55
486.244	4692.56
486.615	4869.28
486.985	4976.62
487.356	5131.19
487.726	5255.03
488.097	5396.95
488.467	5510.17
488.837	5631.52
489.207	5826.32
489.578	5958.74
489.948	6025.86
490.318	6142.47
490.688	6265.17
491.058	6430.14
491.428	6624.71
491.798	6684.37
492.168	6937.47
492.538	6981.77
492.908	7125.72
493.278	7296.11
493.648	7400.06
494.017	7591.69
494.387	7771.35
494.757	7873.04
495.126	7995.75
495.496	8144.67
495.866	8249.53
496.235	8446.81
496.605	8582.63
496.974	8696.75
497.344	8901.04
497.713	8948.72
498.082	9149.84
498.452	9253.8
498.821	9294.7
499.19	9436.84
499.559	9608.36
499.928	9727.91
500.298	9863.05
500.667	9958.18
501.036	9995.92
501.405	10173.55
501.774	10254.9
502.143	10460.77
502.512	10527.89
502.88	10676.13
503.249	10764.04
503.618	10861.66
503.987	10911.83
504.356	11060.08
504.724	11186.17
505.093	11276.34
505.462	11423.46
505.83	11460.07
506.199	11519.95
506.567	11808.31
506.936	11784.8
507.304	11987.06
507.672	12068.64
508.041	12057.34
508.409	12275.86
508.777	12387.95
509.145	12505.01
509.514	12419.14
509.882	12672.46
510.25	12654.84
510.618	12880.59
510.986	12853.93
511.354	13041.49
511.722	13134.82
512.09	13320.13
512.458	13214.6
512.826	13372.33
513.193	13463.4
513.561	13461.37
513.929	13641.7
514.297	13719.89
514.664	13814.58
515.032	13843.05
515.4	13975.03
515.767	13938.64
516.135	14053.44
516.502	14086.44
516.869	14306.32
517.237	14316.71
517.604	14326.88
517.972	14439.2
518.339	14590.15
518.706	14507.22
519.073	14577.05
519.44	14819.75
519.808	14900.2
520.175	14797.61
520.542	14977.71
520.909	15106.75
521.276	15079.86
521.643	15226.29
522.009	15243.47
522.376	15297.48
522.743	15477.81
523.11	15513.97
523.477	15734.53
523.843	15719.16
524.21	15814.53
524.577	15879.61
524.943	15885.94
525.31	16051.36
525.676	16206.16
526.043	16203.44
526.409	16214.29
526.776	16359.82
527.142	16375.19
527.508	16437.11
527.874	16597.33
528.241	16558.69
528.607	16595.07
528.973	16704.67
529.339	16590.55
529.705	16811.34
530.071	16874.39
530.437	16941.28
530.803	16882.52
531.169	16984.67
531.535	16944.22
531.901	17033.7
532.267	17137.66
532.632	17173.36
532.998	17201.84
533.364	17134.04
533.73	17154.15
534.095	17306.92
534.461	17304.21
534.826	17364.54
535.192	17306.24
535.557	17428.27
535.923	17430.3
536.288	17410.64
536.653	17322.28
537.019	17360.25
537.384	17400.47
537.749	17448.83
538.114	17400.93
538.479	17406.12
538.845	17461.94
539.21	17376.29
539.575	17480.47
539.94	17433.47
540.305	17510.75
540.67	17496.52
541.034	17487.48
541.399	17402.51
541.764	17499.91
542.129	17493.13
542.494	17521.15
542.858	17539.23
543.223	17556.4
543.587	17640.47
543.952	17520.7
544.316	17576.97
544.681	17455.61
545.045	17638.89
545.41	17511.21
545.774	17582.39
546.138	17576.52
546.503	17576.29
546.867	17514.14
547.231	17516.63
547.595	17586.23
547.959	17591.88
548.324	17529.28
548.688	17406.35
549.052	17542.39
549.416	17491.32
549.779	17498.1
550.143	17403.64
550.507	17524.31
550.871	17573.35
551.235	17566.12
551.599	17619.45
551.962	17517.76
552.326	17644.08
552.689	17619.45
553.053	17547.36
553.417	17548.72
553.78	17704.65
554.143	17568.38
554.507	17577.42
554.87	17651.99
555.234	17746.23
555.597	17550.3
555.96	17569.74
556.323	17665.55
556.686	17672.33
557.05	17815.38
557.413	17743.29
557.776	17703.97
558.139	17714.82
558.502	17763.18
558.865	17846.11
559.228	17870.52
559.59	17837.98
559.953	17857.19
560.316	18007.46
560.679	17864.42
561.041	18065.32
561.404	18110.29
561.767	18088.82
562.129	18025.99
562.492	18246.55
562.854	18185.54
563.217	18109.61
563.579	18189.38
563.941	18316.38
564.304	18364.07
564.666	18386.44
565.028	18449.94
565.39	18427.57
565.753	18430.73
566.115	18462.59
566.477	18558.18
566.839	18579.2
567.201	18602.25
567.563	18668.69
567.925	18701.23
568.287	18564.06
568.648	18722.02
569.01	18730.61
569.372	18868.46
569.734	18819.65
570.095	18900.32
570.457	18894.67
570.819	18944.16
571.18	18935.58
571.542	18992.75
571.903	19041.56
572.265	19094.67
572.626	18987.55
572.987	19095.35
573.349	19193.42
573.71	19181.44
574.071	19205.85
574.432	19231.16
574.794	19438.84
575.155	19233.42
575.516	19308.22
575.877	19368.56
576.238	19396.35
576.599	19373.53
576.96	19419.18
577.32	19347.54
577.681	19432.74
578.042	19519.74
578.403	19347.77
578.763	19427.54
579.124	19492.85
579.485	19558.84
579.845	19644.94
580.206	19547.08
580.566	19555.45
580.927	19471.61
581.287	19549.57
581.648	19452.17
582.008	19585.28
582.368	19446.07
582.728	19600.19
583.089	19599.96
583.449	19416.69
583.809	19495.79
584.169	19484.49
584.529	19504.37
584.889	19722.9
585.249	19502.34
585.609	19392.51
585.969	19604.71
586.329	19450.59
586.688	19607.87
587.048	19493.98
587.408	19442.23
587.768	19431.38
588.127	19458.5
588.487	19352.97
588.846	19549.12
589.206	19347.54
589.565	19389.57
589.925	19515.22
590.284	19381.21
590.643	19416.69
591.003	19479.52
591.362	19538.05
591.721	19429.57
592.08	19529.23
592.44	19495.11
592.799	19458.73
593.158	19366.98
593.517	19432.96
593.876	19476.35
594.235	19409.01
594.593	19346.19
594.952	19370.82
595.311	19386.41
595.67	19334.89
596.029	19464.15
596.387	19437.48
596.746	19469.57
597.104	19426.18
597.463	19359.52
597.822	19500.53
598.18	19319.07
598.538	19381.21
598.897	19420.99
599.255	19251.5
599.613	19507.09
599.972	19398.84
600.33	19503.24
600.688	19403.13
601.046	19427.77
601.404	19539.18
601.762	19513.19
602.12	19523.58
602.478	19542.57
602.836	19534.66
603.194	19351.84
603.552	19443.13
603.91	19406.75
604.268	19505.5
604.625	19398.84
604.983	19579.63
605.341	19409.46
605.698	19508.44
606.056	19495.11
606.413	19488.78
606.771	19599.51
607.128	19550.47
607.485	19484.04
607.843	19476.58
608.2	19566.97
608.557	19645.61
608.914	19636.57
609.272	19717.7
609.629	19738.94
609.986	19754.09
610.343	19692.39
610.7	19841.54
611.057	19861.2
611.414	19731.49
611.771	19816
612.127	19878.38
612.484	19840.86
612.841	19783.69
613.198	19779.17
613.554	19808.09
613.911	19944.81
614.267	19921.54
614.624	19886.74
614.98	19865.95
615.337	19960.41
615.693	19896.45
616.05	19856.91
616.406	20073.85
616.762	19998.6
617.118	20015.1
617.475	20018.26
617.831	19939.84
618.187	20103
618.543	19989.11
618.899	20224.13
619.255	20164.24
619.611	20241.08
619.967	20264.81
620.323	20338.02
620.678	20212.6
621.034	20127.18
621.39	20138.93
621.746	20212.15
622.101	20474.07
622.457	20185.26
622.812	20265.03
623.168	20267.07
623.523	20362.66
623.879	20340.28
624.234	20165.37
624.589	20269.78
624.945	20268.87
625.3	20330.34
625.655	20226.84
626.01	20286.73
626.365	20291.7
626.72	20237.24
627.075	20256.9
627.43	20150.23
627.785	20125.6
628.14	20198.14
628.495	20252.6
628.85	20237.01
629.205	20112.72
629.559	20203.79
629.914	20173.28
630.269	20146.17
630.623	20124.24
630.978	20122.44
631.332	20232.04
631.687	20201.3
632.041	20055.55
632.396	20184.13
632.75	20041.99
633.104	20094.42
633.459	19938.94
633.813	20018.26
634.167	19920.63
634.521	20018.94
634.875	20131.93
635.229	19992.72
635.583	19848.09
635.937	19852.61
636.291	19783.24
636.645	19869.56
636.999	19818.26
637.352	19861.2
637.706	19797.93
638.06	19768.55
638.413	19798.83
638.767	19770.58
639.121	19773.97
639.474	19629.12
639.828	19744.59
640.181	19615.33
640.534	19568.1
640.888	19603.13
641.241	19492.17
641.594	19577.59
641.947	19571.27
642.301	19572.39
642.654	19556.35
643.007	19564.49
643.36	19590.93
643.713	19553.41
644.066	19682
644.419	19424.38
644.771	19326.98
645.124	19198.39
645.477	19240.43
645.83	19034.56
646.182	18992.07
646.535	18931.28
646.888	18955.01
647.24	18765.41
647.593	18976.48
647.945	18884.5
648.298	18801.79
648.65	18766.54
649.002	18745.07
649.355	18735.35
649.707	18714.79
650.059	18933.99
650.411	19091.96
650.763	19080.2
651.115	19372.63
651.467	19136.47
651.819	19276.81
652.171	19207.88
652.523	19192.29
652.875	19182.35
653.227	18988.46
653.578	19286.75
653.93	19200.65
654.282	19312.06
654.633	19143.93
654.985	19190.26
655.337	19236.58
655.688	19211.27
656.039	19216.92
656.391	19041.11
656.742	19177.15
657.094	19078.4
657.445	19239.52
657.796	19205.85
658.147	19237.04
658.498	19202.01
658.849	19209.24
659.2	19117.49
659.551	19082.01
659.902	19265.74
660.253	19293.76
660.604	19250.6
660.955	19221.9
661.306	19168.79
661.656	19197.94
662.007	19215.34
662.358	19071.62
662.708	19228
663.059	19210.37
663.409	19126.76
663.76	19284.94
664.11	19298.73
664.461	19303.7
664.811	19221.44
665.161	19222.12
665.511	19192.52
665.862	19263.25
666.212	19302.57
666.562	19305.96
666.912	19237.26
667.262	19204.27
667.612	19174.67
667.962	19234.32
668.312	19266.41
668.662	19290.37
669.011	19209.69
669.361	19213.31
669.711	19177.15
670.06	19108.68
670.41	19163.59
670.76	19186.42
671.109	19232.97
671.459	19133.99
671.808	19186.19
672.157	19206.98
672.507	18997.27
672.856	19131.05
673.205	19175.12
673.554	19255.34
673.904	19079.75
674.253	19084.72
674.602	19096.25
674.951	18803.83
675.3	18809.7
675.649	18948
675.998	18907.33
676.346	18894.45
676.695	19008.57
677.044	18875.24
677.393	18895.58
677.741	18968.8
678.09	18836.6
678.438	18841.34
678.787	18842.92
679.135	18866.65
679.484	18693.1
679.832	18722.47
680.181	18646.54
680.529	18704.17
680.877	18658.29
681.225	18571.29
681.573	18781.68
681.922	18583.95
682.27	18523.38
682.618	18469.83
682.966	18457.17
683.314	18500.33
683.661	18428.47
684.009	18289.49
684.357	18304.63
684.705	18199.78
685.053	18280.9
685.4	18297.4
685.748	18174.69
686.095	18172.21
686.443	18011.98
686.79	18043.17
687.138	18084.52
687.485	18093.79
687.832	17936.73
688.18	18063.96
688.527	17949.84
688.874	17819.9
689.221	17914.81
689.568	17838.88
689.915	17734.25
690.262	17719.79
690.609	17620.13
690.956	17563.86
691.303	17566.8
691.65	17501.04
691.997	17510.98
692.344	17324.77
692.69	17322.51
693.037	17293.13
693.383	17145.57
693.73	17158.22
694.077	17081.84
694.423	17074.83
694.769	17010.65
695.116	16902.18
695.462	16905.12
695.808	16836.42
696.155	16948.06
696.501	16792.58
696.847	16721.4
697.193	16593.72
697.539	16666.03
697.885	16471.69
698.231	16452.48
698.577	16481.4
698.923	16394.85
699.269	16278.7
699.614	16183.11
699.96	16167.51
700.306	16132.03
700.651	16072.83
700.997	16051.36
701.342	15932.04
701.688	15965.94
702.033	15820.86
702.379	15793.74
702.724	15773.85
703.069	15764.36
703.415	15624.7
703.76	15675.32
704.105	15655.66
704.45	15570.92
704.795	15471.71
705.14	15299.96
705.485	15389.23
705.83	15311.94
706.175	15440.75
706.52	15338.83
706.865	15193.53
707.209	15186.97
707.554	15092.06
707.899	15215.22
708.243	15104.72
708.588	15019.29
708.932	14894.33
709.277	14963.02
709.621	14909.47
709.966	14725.52
710.31	14751.28
710.654	14704.27
710.998	14756.7
711.342	14743.6
711.687	14632.19
712.031	14605.75
712.375	14535.92
712.719	14558.29
713.063	14535.69
713.407	14469.48
713.75	14474.9
714.094	14425.64
714.438	14352.65
714.782	14426.99
715.125	14269.48
715.469	14382.02
715.812	14237.39
716.156	14258.18
716.499	14281.23
716.843	14220.9
717.186	14138.87
717.53	14093.89
717.873	14160.79
718.216	14175.93
718.559	14112.65
718.902	13988.36
719.246	14081.69
719.589	14000.11
719.932	13945.65
720.275	14005.31
720.617	14005.54
720.96	13897.97
721.303	13905.88
721.646	13945.2
721.989	13855.71
722.331	13892.54
722.674	13798.31
723.016	13883.51
723.359	13813.22
723.701	13811.19
724.044	13803.06
724.386	13725.54
724.729	13768.25
725.071	13633.79
725.413	13692.78
725.755	13680.57
726.097	13551.08
726.439	13558.32
726.782	13571.87
727.124	13657.97
727.465	13594.93
727.807	13610.97
728.149	13569.84
728.491	13520.35
728.833	13579.33
729.175	13613
729.516	13510.86
729.858	13538.43
730.199	13437.87
730.541	13453.46
730.882	13465.66
731.224	13513.12
731.565	13427.02
731.906	13520.58
732.248	13563.97
732.589	13434.48
732.93	13428.15
733.271	13479.45
733.612	13433.35
733.953	13429.51
734.294	13397.42
734.635	13359
734.976	13399.45
735.317	13473.35
735.658	13474.93
735.999	13405.78
736.339	13352.45
736.68	13443.52
737.021	13416.17
737.361	13317.42
737.702	13424.99
738.042	13370.52
738.383	13441.93
738.723	13385.66
739.063	13428.15
739.404	13409.17
739.744	13421.82
740.084	13327.36
740.424	13396.96
740.764	13398.09
741.104	13534.81
741.444	13420.69
741.784	13386.57
742.124	13507.7
742.464	13499.56
742.804	13481.71
743.143	13456.17
743.483	13681.93
743.823	13527.13
744.162	13527.58
744.502	13606.45
744.841	13562.84
745.181	13620.91
745.52	13608.26
745.86	13727.8
746.199	13751.08
746.538	13685.77
746.877	13830.85
747.216	13840.57
747.556	13839.21
747.895	13943.62
748.234	13994.91
748.573	14032.2
748.911	13976.84
749.25	14109.26
749.589	14135.25
749.928	14175.7
750.267	14271.07
750.605	14356.26
750.944	14427.45
751.283	14484.39
751.621	14519.42
751.96	14508.12
752.298	14627.89
752.636	14741.11
752.975	14810.49
753.313	14777.94
753.651	14992.63
753.989	15068.33
754.327	15147.65
754.666	15183.36
755.004	15333.64
755.342	15432.16
755.679	15565.04
756.017	15623.57
756.355	15817.69
756.693	15764.59
757.031	15898.37
757.368	15990.12
757.706	16090.45
758.044	16240.51
758.381	16322.31
758.719	16450.22
759.056	16631.46
759.394	16688.18
759.731	16687.27
760.068	16800.72
760.405	16902.18
760.743	16949.64
761.08	17234.6
761.417	17214.26
761.754	17325.22
762.091	17449.96
762.428	17470.76
762.765	17543.3
763.102	17743.52
763.438	17789.62
763.775	17845.43
764.112	17982.61
764.449	18076.39
764.785	18097.41
765.122	18300.11
765.458	18247.23
765.795	18376.95
766.131	18379.66
766.467	18475.02
766.804	18519.09
767.14	18517.28
767.476	18706.66
767.812	18629.82
768.148	18712.08
768.485	18794.11
768.821	18769.93
769.157	18846.99
769.492	18973.77
769.828	18954.78
770.164	18869.81
770.5	19059.19
770.836	18876.14
771.171	18995.01
771.507	19143.03
771.842	19047.89
772.178	19058.28
772.513	19073.2
772.849	19051.73
773.184	19166.3
773.519	19240.2
773.855	19126.31
774.19	19140.09
774.525	19110.26
774.86	19189.81
775.195	19187.77
775.53	19139.41
775.865	19088.57
776.2	19063.93
776.535	18949.36
776.87	19053.31
777.205	19017.38
777.539	18983.71
777.874	19016.03
778.209	18927.44
778.543	19002.01
778.878	18821
779.212	18922.02
779.547	18815.8
779.881	18839.98
780.215	18757.73
780.55	18803.15
780.884	18790.72
781.218	18706.88
781.552	18767.44
781.886	18687.22
782.22	18617.62
782.554	18568.81
782.888	18522.71
783.222	18440.67
783.556	18362.48
783.889	18383.05
784.223	18239.55
784.557	18239.55
784.89	18317.29
785.224	18185.09
785.557	18090.85
785.891	18136.27
786.224	18090.17
786.558	18068.25
786.891	17943.51
787.224	17969.73
787.557	17895.38
787.891	17863.97
788.224	17814.7
788.557	17924.3
788.89	17765.89
789.223	17796.62
789.556	17643.18
789.888	17616.97
790.221	17673.69
790.554	17517.99
790.887	17499.91
791.219	17437.31
791.552	17480.25
791.884	17369.06
792.217	17301.04
792.549	17250.87
792.882	17183.31
793.214	17113.48
793.546	17132.23
793.879	16976.76
794.211	16872.13
794.543	17027.15
794.875	16852.69
795.207	16927.49
795.539	16834.39
795.871	16741.73
796.203	16717.33
796.535	16494.06
796.867	16632.81
797.198	16473.49
797.53	16494.06
797.862	16394.63
798.193	16532.47
798.525	16384.68
798.856	16406.15
799.188	16216.78
799.519	16233.5
799.85	16112.37
800.182	16119.38
800.513	16127.06
800.844	15962.32
801.175	16022.66
801.506	15931.81
801.837	15913.06
802.168	15865.15
802.499	15793.74
802.83	15757.13
803.161	15649.11
803.491	15715.32
803.822	15688.2
804.153	15634.42
804.483	15490.92
804.814	15440.53
805.145	15462.67
805.475	15482.78
805.805	15378.15
806.136	15465.16
806.466	15331.83
806.796	15355.33
807.126	15213.64
807.457	15119.86
807.787	15204.37
808.117	15026.98
808.447	15071.27
808.777	15063.14
809.107	15056.36
809.436	15000.99
809.766	14952.18
810.096	14920.77
810.426	14915.34
810.755	14933.19
811.085	14896.13
811.414	14778.62
811.744	14652.52
812.073	14791.05
812.403	14598.51
812.732	14580.89
813.061	14606.2
813.39	14466.31
813.719	14445.3
814.049	14520.55
814.378	14501.12
814.707	14438.97
815.036	14358.97
815.365	14369.82
815.693	14256.15
816.022	14249.82
816.351	14279.88
816.68	14135.02
817.008	14152.65
817.337	14065.65
817.665	13998.08
817.994	14109.49
818.322	14061.81
818.651	14004.41
818.979	13894.8
819.307	14032.43
819.636	13862.94
819.964	13884.63
820.292	13949.94
820.62	13933
820.948	13791.76
821.276	13815.94
821.604	13836.05
821.932	13802.15
822.259	13828.14
822.587	13789.27
822.915	13815.48
823.243	13886.89
823.57	13775.94
823.898	13784.07
824.225	13756.05
824.553	13751.08
824.88	13794.92
825.207	13774.81
825.535	13843.96
825.862	13761.02
826.189	13726.67
826.516	13883.51
826.843	13897.06
827.17	13841.7
827.497	13865.65
827.824	13849.61
828.151	13832.66
828.478	13908.14
828.805	13861.13
829.131	13824.75
829.458	13840.12
829.785	13723.28
830.111	13785.2
830.438	13733.9
830.764	13902.26
831.09	13729.61
831.417	13725.54
831.743	13729.38
832.069	13695.04
832.395	13749.5
832.722	13769.38
833.048	13690.97
833.374	13686.67
833.7	13549.28
834.026	13628.14
834.351	13650.97
834.677	13651.87
835.003	13693.23
835.329	13610.97
835.654	13592.89
835.98	13490.07
836.306	13600.35
836.631	13520.8
836.956	13616.39
837.282	13553.8
837.607	13542.72
837.932	13480.8
838.258	13505.66
838.583	13476.96
838.908	13353.12
839.233	13437.19
839.558	13435.16
839.883	13361.71
840.208	13230.87
840.533	13335.72
840.858	13253.92
841.182	13341.15
841.507	13240.81
841.832	13117.88
842.156	13163.98
842.481	13176.86
842.805	13100.02
843.13	13089.63
843.454	13060.7
843.778	13041.27
844.103	13006.47
844.427	12870.65
844.751	13025
845.075	12933.93
845.399	12875.4
845.723	12768.73
846.047	12841.95
846.371	12750.2
846.695	12719.47
847.019	12587.72
847.343	12576.19
847.666	12482.41
847.99	12446.93
848.313	12442.64
848.637	12439.93
848.96	12373.04
849.284	12290.78
849.607	12149.54
849.931	12138.24
850.254	12123.33
850.577	11964.01
850.9	11967.17
851.223	11917
851.546	11900.96
851.869	11777.8
852.192	11908.19
852.515	11791.13
852.838	11708.19
853.161	11616.67
853.483	11658.48
853.806	11597.46
854.129	11597.24
854.451	11490.8
854.774	11518.6
855.096	11477.47
855.419	11394.76
855.741	11320.41
856.063	11358.6
856.385	11321.31
856.708	11340.07
857.03	11230.24
857.352	11285.83
857.674	11236.57
857.996	11171.94
858.318	11133.52
858.64	11142.11
858.961	11062.34
859.283	10975.78
859.605	10944.37
859.926	11023.92
860.248	10954.32
860.57	10945.05
860.891	10931.72
861.212	10882.45
861.534	10844.04
861.855	10787.32
862.176	10807.88
862.498	10806.3
862.819	10832.06
863.14	10688.56
863.461	10658.51
863.782	10644.04
864.103	10587.77
864.424	10635
864.745	10654.66
865.065	10558.85
865.386	10562.01
865.707	10515.46
866.027	10513.42
866.348	10471.62
866.668	10503.93
866.989	10361.79
867.309	10371.96
867.63	10517.04
867.95	10359.98
868.27	10343.26
868.59	10381.9
868.91	10326.76
869.23	10338.74
869.55	10302.81
869.87	10385.29
870.19	10298.06
870.51	10289.93
870.83	10290.38
871.15	10197.27
871.469	10204.05
871.789	10252.19
872.109	10235.69
872.428	10206.99
872.748	10134
873.067	10132.42
873.386	10129.93
873.706	10180.33
874.025	10066.43
874.344	10049.26
874.663	10158.41
874.982	10003.83
875.301	10016.71
875.62	10037.73
875.939	9967.45
876.258	9920.67
876.577	10010.61
876.896	9914.12
877.214	9908.92
877.533	9967.9
877.852	9879.99
878.17	9900.78
878.489	9861.92
878.807	9887.45
879.125	9842.93
879.444	9868.47
879.762	9791.64
880.08	9827.34
880.398	9740.56
880.716	9789.83
881.034	9711.41
881.352	9685.88
881.67	9707.57
881.988	9707.57
882.306	9694.24
882.624	9648.59
882.941	9601.81
883.259	9540.34
883.577	9568.14
883.894	9527.01
884.212	9478.65
884.529	9505.99
884.846	9499.21
885.164	9442.94
885.481	9370.86
885.798	9424.19
886.115	9410.4
886.432	9414.24
886.75	9327.69
887.067	9329.27
887.383	9275.72
887.7	9353.45
888.017	9251.08
888.334	9296.06
888.651	9232.33
888.967	9210.41
889.284	9204.53
889.6	9121.37
889.917	9004.54
890.233	9071.2
890.55	9085.89
890.866	9062.16
891.182	9044.54
891.498	8989.4
891.815	8970.87
892.131	8871.66
892.447	8880.7
892.763	8869.85
893.079	8818.78
893.395	8799.8
893.71	8783.3
894.026	8776.52
894.342	8819.46
894.657	8694.94
894.973	8669.18
895.289	8572.91
895.604	8642.96
895.92	8569.29
896.235	8515.28
896.55	8529.75
896.865	8486.36
897.181	8505.12
897.496	8527.94
897.811	8458.34
898.126	8402.52
898.441	8358.9
898.756	8376.76
899.071	8278
899.386	8314.61
899.7	8268.06
900.015	8220.83
900.33	8171.56
900.644	8176.76
900.959	8124.33
901.273	8063.77
901.588	8062.42
901.902	8063.32
902.216	7948.52
902.531	7981.29
902.845	7952.36
903.159	7918.24
903.473	7887.05
903.787	7870.78
904.101	7840.5
904.415	7783.33
904.729	7822.65
905.042	7721.41
905.356	7777.45
905.67	7665.59
905.984	7635.31
906.297	7619.71
906.611	7573.84
906.924	7653.39
907.237	7646.15
907.551	7457.01
907.864	7419.27
908.177	7442.77
908.491	7480.96
908.804	7400.51
909.117	7353.51
909.43	7375.88
909.743	7294.53
910.056	7348.08
910.368	7261.08
910.681	7172.95
910.994	7212.04
911.307	7197.81
911.619	7121.87
911.932	7159.84
912.244	7054.76
912.557	7029.67
912.869	7020.63
913.181	7014.08
913.494	6964.82
913.806	6933.63
914.118	6862.45
914.43	6883.69
914.742	6867.64
915.054	6779.06
915.366	6834.65
915.678	6765.73
915.99	6770.25
916.302	6670.36
916.613	6649.57
916.925	6656.58
917.236	6694.54
917.548	6584.71
917.859	6577.03
918.171	6585.17
918.482	6548.1
918.794	6486.41
919.105	6501.33
919.416	6476.24
919.727	6392.63
920.038	6401.22
920.349	6341.33
920.66	6314.66
920.971	6298.85
921.282	6353.53
921.593	6217.72
921.903	6218.4
922.214	6197.61
922.525	6218.85
922.835	6170.49
923.146	6098.17
923.456	6090.72
923.767	6118.96
924.077	6062.02
924.387	6019.53
924.697	6040.55
925.008	5969.14
925.318	5989.02
925.628	5953.09
925.938	5930.49
926.248	5921.68
926.558	5858.18
926.867	5869.93
927.177	5804.4
927.487	5738.86
927.796	5785.86
928.106	5707.9
928.416	5687.79
928.725	5737.28
929.034	5708.8
929.344	5629.03
929.653	5664.96
929.962	5562.37
930.271	5585.19
930.581	5550.62
930.89	5499.09
931.199	5474.91
931.508	5490.28
931.817	5478.08
932.125	5445.08
932.434	5416.61
932.743	5406.21
933.051	5358.98
933.36	5277.18
933.669	5327.35
933.977	5270.62
934.286	5288.93
934.594	5259.1
934.902	5223.17
935.21	5207.57
935.519	5178.42
935.827	5160.57
936.135	5096.84
936.443	5092.32
936.751	5109.5
937.059	5113.57
937.367	5069.73
937.674	5020.46
937.982	5011.42
938.29	4982.72
938.597	5002.61
938.905	4962.61
939.213	4930.52
939.52	4863.63
939.827	4957.41
940.135	4877.41
940.442	4840.35
940.749	4820.92
941.056	4814.36
941.363	4786.34
941.67	4779.56
941.977	4762.39
942.284	4694.82
942.591	4704.31
942.898	4682.39
943.205	4672.22
943.511	4646.69
943.818	4659.34
944.125	4587.03
944.431	4595.16
944.738	4575.28
945.044	4549.29
945.35	4492.79
945.657	4477.65
945.963	4486.46
946.269	4454.37
946.575	4465.67
946.881	4409.18
947.187	4398.33
947.493	4394.04
947.799	4367.15
948.105	4333.25
948.41	4330.99
948.716	4305
949.022	4293.02
949.327	4347.71
949.633	4249.41
949.938	4269.29
950.244	4242.85
950.549	4176.64
950.854	4176.42
951.16	4180.26
951.465	4159.92
951.77	4150.65
952.075	4120.37
952.38	4096.19
952.685	4090.77
952.99	4086.25
953.294	4043.09
953.599	4047.38
953.904	3994.5
954.209	3984.78
954.513	3985.46
954.818	3991.34
955.122	3939.13
955.426	3933.26
955.731	3921.73
956.035	3905.01
956.339	3894.16
956.643	3812.58
956.948	3846.71
957.252	3861.62
957.556	3825.24
957.86	3769.19
958.163	3796.99
958.467	3762.64
958.771	3740.72
959.075	3775.3
959.378	3734.85
959.682	3711.34
959.985	3715.86
960.289	3690.33
960.592	3678.58
960.896	3643.32
961.199	3580.05
961.502	3639.25
961.805	3586.83
962.108	3551.35
962.411	3577.34
962.714	3548.64
963.017	3523.33
963.32	3538.24
963.623	3502.76
963.926	3531.69
964.228	3462.54
964.531	3454.17
964.833	3448.53
965.136	3408.53
965.438	3428.64
965.741	3357.68
966.043	3380.05
966.345	3359.94
966.648	3352.48
966.95	3344.8
967.252	3307.29
967.554	3290.56
967.856	3317
968.158	3272.71
968.46	3242.88
968.761	3246.27
969.063	3214.86
969.365	3206.95
969.666	3212.15
969.968	3173.96
970.269	3212.83
970.571	3194.75
970.872	3175.31
971.174	3115.65
971.475	3100.51
971.776	3142.32
972.077	3111.13
972.378	3082.89
972.679	3069.78
972.98	3069.78
973.281	3042.43
973.582	3057.12
973.883	3035.2
974.183	3030.46
974.484	3018.03
974.785	3004.47
975.085	2957.01
975.386	2947.07
975.686	2889.44
975.986	2942.1
976.287	2898.26
976.587	2892.83
976.887	2917.01
977.187	2882.44
977.487	2876.79
977.787	2863.68
978.087	2858.03
978.387	2839.73
978.687	2813.06
978.987	2800.41
979.286	2816
979.586	2767.64
979.885	2755.89
980.185	2740.75
980.484	2763.12
980.784	2762.22
981.083	2748.2
981.382	2715.89
981.682	2704.82
981.981	2716.79
982.28	2667.75
982.579	2653.07
982.878	2687.87
983.177	2677.7
983.475	2652.39
983.774	2600.64
984.073	2627.08
984.372	2579.85
984.67	2593.86
984.969	2579.4
985.267	2572.62
985.566	2579.17
985.864	2545.27
986.162	2537.14
986.461	2507.76
986.759	2513.63
987.057	2465.95
987.355	2486.29
987.653	2472.51
987.951	2488.32
988.249	2464.14
988.547	2446.74
988.844	2439.96
989.142	2421.89
989.44	2372.85
989.737	2370.59
990.035	2389.8
990.332	2366.07
990.63	2366.07
990.927	2313.41
991.224	2351.15
991.521	2296.69
991.819	2299.18
992.116	2303.92
992.413	2298.5
992.71	2283.58
993.006	2253.53
993.303	2296.47
993.6	2264.15
993.897	2231.16
994.193	2230.48
994.49	2226.18
994.787	2185.28
995.083	2183.93
995.379	2206.07
995.676	2186.86
995.972	2173.76
996.268	2180.54
996.565	2147.32
996.861	2157.71
997.157	2140.54
997.453	2135.11
997.749	2086.3
998.044	2085.62
998.34	2066.19
998.636	2082.01
998.932	2073.19
999.227	2045.4
999.523	2045.85
999.818	2034.1
1000.114	2001.78
1000.409	1995.68
1000.704	2004.95
1001	2018.05
1001.295	1977.15
1001.59	1975.12
1001.885	1970.37
1002.18	1975.8
1002.475	1937.38
1002.77	1919.75
1003.065	1915.68
1003.359	1908.45
1003.654	1911.16
1003.949	1879.75
1004.243	1857.15
1004.538	1867.78
1004.832	1853.76
1005.127	1858.74
1005.421	1821.68
1005.715	1830.94
1006.009	1819.19
1006.304	1827.1
1006.598	1785.07
1006.892	1777.16
1007.186	1777.38
1007.48	1755.01
1007.773	1760.43
1008.067	1736.93
1008.361	1728.57
1008.655	1722.92
1008.948	1725.41
1009.242	1729.7
1009.535	1714.79
1009.829	1696.71
1010.122	1656.48
1010.415	1683.37
1010.708	1630.49
1011.001	1662.36
1011.295	1645.86
1011.588	1638.63
1011.881	1632.98
1012.173	1621.45
1012.466	1610.16
1012.759	1622.13
1013.052	1606.09
1013.344	1591.85
1013.637	1566.99
1013.93	1567.22
1014.222	1576.03
1014.514	1541
1014.807	1537.84
1015.099	1528.12
1015.391	1514.79
1015.683	1507.11
1015.976	1492.42
1016.268	1500.78
1016.56	1488.35
1016.851	1449.71
1017.143	1462.36
1017.435	1477.05
1017.727	1426.43
1018.018	1459.42
1018.31	1425.53
1018.602	1413.32
1018.893	1392.99
1019.185	1406.54
1019.476	1402.93
1019.767	1381.91
1020.058	1395.25
1020.35	1383.95
1020.641	1356.83
1020.932	1339.43
1021.223	1339.2
1021.514	1301.69
1021.804	1331.97
1022.095	1312.08
1022.386	1283.16
1022.677	1303.5
1022.967	1282.03
1023.258	1246.32
1023.548	1309.37
1023.839	1254.23
1024.129	1277.51
1024.419	1249.03
1024.709	1270.05
1025	1242.93
1025.29	1257.85
1025.58	1218.98
1025.87	1215.82
1026.16	1222.37
1026.449	1212.2
1026.739	1203.16
1027.029	1159.55
1027.319	1184.4
1027.608	1178.3
1027.898	1164.74
1028.187	1165.42
1028.477	1150.28
1028.766	1155.25
1029.055	1125.87
1029.344	1119.77
1029.634	1107.12
1029.923	1134.46
1030.212	1101.69
1030.501	1074.8
1030.79	1096.27
1031.078	1097.4
1031.367	1093.56
1031.656	1046.55
1031.945	1053.56
1032.233	1037.29
1032.522	1029.38
1032.81	1055.37
1033.099	1027.8
1033.387	1043.16
1033.675	1014.46
1033.963	1018.76
1034.251	1038.42
1034.54	1027.35
1034.828	1019.66
1035.116	980.79
1035.403	986.44
1035.691	984.18
1035.979	993.67
1036.267	964.97
1036.554	960.45
1036.842	962.04
1037.129	944.86
1037.417	956.16
1037.704	958.42
1037.992	910.74
1038.279	930.63
1038.566	942.6
1038.853	942.6
1039.14	942.6
