Data from hue_240_FLMS001491_00078.txt Node
Date: Tue Feb 07 16:35:56 GMT 2017
User: dcchb
Spectrometer: FLMS00149
Trigger mode: 0
Integration Time (sec): 2.000000E-2
Scans to average: 10
Electric dark correction enabled: true
Nonlinearity correction enabled: false
Boxcar width: 0
XAxis mode: Wavelengths
Number of Pixels in Spectrum: 2048
>>>>>Begin Spectral Data<<<<<
341.393	4.62
341.776	4.62
342.16	4.62
342.543	-62.95
342.927	-70.18
343.31	-79.67
343.693	-58.43
344.077	-65.21
344.46	-61.37
344.843	-57.07
345.226	-26.12
345.61	-37.64
345.993	-2.39
346.376	-10.3
346.759	14.11
347.142	10.49
347.525	47.33
347.908	57.27
348.291	89.36
348.674	87.55
349.057	92.07
349.44	133.43
349.823	152.41
350.206	171.17
350.588	190.38
350.971	204.39
351.354	201.9
351.737	235.35
352.119	231.73
352.502	251.62
352.884	275.8
353.267	259.75
353.65	297.04
354.032	300.2
354.414	304.95
354.797	313.99
355.179	320.54
355.562	318.28
355.944	330.49
356.326	339.07
356.709	317.38
357.091	345.63
357.473	335.23
357.855	318.28
358.238	309.7
358.62	325.29
359.002	330.71
359.384	325.29
359.766	334.78
360.148	342.24
360.53	334.1
360.912	324.38
361.294	340.88
361.676	319.86
362.057	326.87
362.439	327.55
362.821	324.38
363.203	316.47
363.584	316.7
363.966	318.28
364.348	326.42
364.729	321.22
365.111	293.2
365.493	304.27
365.874	324.61
366.256	317.15
366.637	286.65
367.019	315.8
367.4	305.18
367.781	313.31
368.163	336.14
368.544	307.44
368.925	314.21
369.306	317.6
369.688	299.98
370.069	314.21
370.45	309.24
370.831	330.03
371.212	310.37
371.593	324.38
371.974	305.4
372.355	314.67
372.736	309.47
373.117	316.25
373.498	313.76
373.879	319.86
374.26	296.14
374.641	298.62
375.021	312.63
375.402	317.38
375.783	288.9
376.163	307.21
376.544	313.99
376.925	332.97
377.305	328.45
377.686	326.19
378.066	294.78
378.447	304.95
378.827	329.58
379.208	336.36
379.588	335.01
379.968	321.45
380.349	327.32
380.729	317.83
381.109	334.78
381.489	333.42
381.87	340.2
382.25	333.88
382.63	353.08
383.01	328.23
383.39	347.43
383.77	339.75
384.15	352.63
384.53	337.04
384.91	337.72
385.29	325.51
385.67	332.52
386.049	351.5
386.429	353.08
386.809	338.4
387.189	346.76
387.568	360.99
387.948	327.32
388.328	368.22
388.707	331.16
389.087	366.42
389.466	352.18
389.846	395.12
390.225	361.22
390.605	374.55
390.984	347.21
391.363	334.55
391.743	368.68
392.122	365.74
392.501	363.25
392.881	372.74
393.26	367.55
393.639	376.36
394.018	379.98
394.397	384.72
394.776	363.71
395.155	379.98
395.534	377.04
395.913	385.63
396.292	380.2
396.671	392.86
397.05	404.83
397.429	385.63
397.808	374.78
398.186	393.76
398.565	413.65
398.944	375.68
399.323	393.08
399.701	412.97
400.08	408.9
400.458	398.96
400.837	411.84
401.215	418.84
401.594	417.49
401.972	410.71
402.351	421.1
402.729	424.27
403.107	420.65
403.486	422.46
403.864	431.05
404.242	426.75
404.62	437.15
404.999	432.86
405.377	449.35
405.755	443.7
406.133	440.09
406.511	436.25
406.889	444.61
407.267	453.19
407.645	462.46
408.023	453.87
408.401	458.39
408.779	449.58
409.156	476.92
409.534	483.93
409.912	470.37
410.29	477.37
410.667	505.17
411.045	510.59
411.422	512.4
411.8	527.77
412.178	516.47
412.555	518.05
412.933	550.59
413.31	557.15
413.687	542.68
414.065	550.14
414.442	578.84
414.819	572.97
415.197	549.91
415.574	549.91
415.951	589.24
416.328	595.34
416.705	568.67
417.082	589.46
417.46	602.79
417.837	602.57
418.214	605.51
418.591	615.45
418.967	637.6
419.344	611.83
419.721	636.92
420.098	652.51
420.475	650.7
420.852	661.32
421.228	664.94
421.605	670.14
421.982	676.69
422.358	692.74
422.735	694.54
423.111	704.94
423.488	709.68
423.864	726.63
424.241	760.98
424.617	744.49
424.994	765.28
425.37	762.56
425.746	765.73
426.123	764.6
426.499	769.34
426.875	794.88
427.251	781.1
427.627	830.13
428.003	838.49
428.379	841.88
428.756	821.55
429.132	845.95
429.507	842.56
429.883	863.58
430.259	880.3
430.635	901.77
431.011	891.6
431.387	913.52
431.763	923.46
432.138	936.8
432.514	951.71
432.89	957.59
433.265	966.85
433.641	984.48
434.016	999.17
434.392	994.42
434.767	1027.19
435.143	1045.95
435.518	1055.44
435.894	1061.77
436.269	1096.57
436.644	1097.02
437.02	1113.06
437.395	1128.66
437.77	1173.4
438.145	1138.83
438.52	1188.99
438.895	1178.15
439.271	1211.14
439.646	1239.39
440.021	1222.89
440.395	1216.56
440.77	1240.29
441.145	1238.48
441.52	1285.04
441.895	1280.07
442.27	1303.79
442.645	1315.54
443.019	1335.21
443.394	1313.51
443.769	1338.14
444.143	1351.93
444.518	1371.59
444.892	1375.2
445.267	1386.28
445.641	1375.66
446.016	1383.79
446.39	1400.51
446.764	1436.45
447.139	1413.85
447.513	1435.32
447.887	1465.37
448.262	1481.87
448.636	1448.87
449.01	1482.32
449.384	1487.97
449.758	1505.14
450.132	1516.22
450.506	1503.34
450.88	1530.45
451.254	1519.38
451.628	1586.95
452.002	1565.03
452.376	1574.07
452.75	1586.95
453.123	1630.11
453.497	1626.5
453.871	1631.47
454.244	1678.47
454.618	1689.09
454.992	1689.55
455.365	1713.5
455.739	1732.26
456.112	1763.44
456.486	1765.93
456.859	1781.52
457.232	1822.88
457.606	1833.72
457.979	1802.09
458.352	1862.42
458.725	1905.36
459.099	1897.68
459.472	1921.18
459.845	1938.8
460.218	1950.78
460.591	1998.01
460.964	1994.4
461.337	2036.43
461.71	2027.39
462.083	2089.99
462.456	2055.41
462.829	2089.08
463.201	2125.24
463.574	2127.95
463.947	2152.81
464.32	2214.73
464.692	2193.26
465.065	2229.87
465.438	2263.09
465.81	2256.54
466.183	2276.2
466.555	2322.75
466.928	2328.63
467.3	2387.83
467.672	2374.5
468.045	2442.75
468.417	2452.01
468.789	2440.94
469.161	2503.31
469.534	2513.03
469.906	2577.43
470.278	2563.65
470.65	2573.82
471.022	2655.85
471.394	2658.79
471.766	2679.8
472.138	2759.12
472.51	2809.29
472.882	2831.66
473.253	2873.24
473.625	2888.84
473.997	2943.52
474.369	2979.46
474.74	2951.66
475.112	3067.14
475.484	3076.85
475.855	3132.67
476.227	3165.67
476.598	3227.36
476.97	3224.19
477.341	3329.95
477.713	3370.18
478.084	3352.55
478.455	3502.38
478.827	3511.42
479.198	3561.59
479.569	3557.52
479.94	3680.91
480.311	3695.82
480.682	3728.59
481.053	3805.87
481.424	3821.92
481.795	3897.17
482.166	3962.03
482.537	3985.76
482.908	4049.94
483.279	4063.27
483.65	4147.33
484.021	4188.92
484.391	4249.7
484.762	4272.3
485.133	4357.5
485.503	4391.4
485.874	4454.9
486.244	4505.97
486.615	4601.56
486.985	4627.77
487.356	4676.13
487.726	4731.95
488.097	4825.06
488.467	4788.45
488.837	4895.79
489.207	4977.14
489.578	4995
489.948	5057.37
490.318	5080.64
490.688	5115.9
491.058	5151.83
491.428	5257.59
491.798	5268.21
492.168	5355.89
492.538	5324.7
492.908	5461.2
493.278	5465.94
493.648	5462.55
494.017	5550.01
494.387	5631.14
494.757	5652.15
495.126	5686.28
495.496	5715.65
495.866	5746.39
496.235	5813.73
496.605	5876.1
496.974	5874.29
497.344	5931.69
497.713	5960.85
498.082	5927.63
498.452	6030.45
498.821	5994.97
499.19	6082.42
499.559	6071.8
499.928	6125.36
500.298	6137.79
500.667	6184.34
501.036	6143.89
501.405	6271.12
501.774	6268.63
502.143	6314.06
502.512	6293.27
502.88	6322.19
503.249	6379.59
503.618	6366.26
503.987	6450.55
504.356	6434.05
504.724	6472.92
505.093	6449.87
505.462	6482.41
505.83	6569.87
506.199	6516.31
506.567	6611.45
506.936	6598.34
507.304	6665.69
507.672	6685.12
508.041	6697.78
508.409	6770.54
508.777	6838.56
509.145	6832.69
509.514	6844.44
509.882	6813.03
510.25	6829.75
510.618	6824.55
510.986	6863.2
511.354	6919.92
511.722	6949.07
512.09	7065.45
512.458	6963.53
512.826	7091.66
513.193	7052.57
513.561	7022.97
513.929	7057.09
514.297	7095.73
514.664	7074.72
515.032	7108.39
515.4	7217.54
515.767	7207.37
516.135	7236.74
516.502	7152.23
516.869	7324.2
517.237	7229.29
517.604	7185.9
517.972	7291.21
518.339	7286.69
518.706	7279.23
519.073	7323.07
519.44	7340.92
519.808	7357.65
520.175	7354.48
520.542	7464.31
520.909	7494.59
521.276	7465.67
521.643	7502.27
522.009	7483.29
522.376	7535.72
522.743	7511.77
523.11	7571.88
523.477	7649.62
523.843	7632.44
524.21	7682.83
524.577	7704.76
524.943	7729.61
525.31	7730.52
525.676	7762.15
526.043	7836.95
526.409	7821.14
526.776	7879.67
527.142	7896.84
527.508	7892.55
527.874	7895.03
528.241	7967.8
528.607	7914.69
528.973	7982.49
529.339	7885.32
529.705	7941.81
530.071	8010.06
530.437	8024.52
530.803	8081.92
531.169	8018.19
531.535	7991.98
531.901	8053.9
532.267	8021.13
532.632	7972.54
532.998	8044.41
533.364	8055.93
533.73	8102.71
534.095	8067.23
534.461	8106.55
534.826	8105.42
535.192	8164.86
535.557	8131.18
535.923	8110.39
536.288	8118.98
536.653	8150.17
537.019	8155.36
537.384	8107.46
537.749	8078.3
538.114	8122.6
538.479	8089.6
538.845	8101.35
539.21	8048.93
539.575	8096.84
539.94	8092.77
540.305	8149.49
540.67	8041.24
541.034	8109.04
541.399	8075.59
541.764	8113.11
542.129	8134.12
542.494	8119.89
542.858	8128.02
543.223	8108.59
543.587	8102.48
543.952	8058.87
544.316	8147.68
544.681	8066.1
545.045	8096.16
545.41	8055.48
545.774	8064.75
546.138	8023.39
546.503	8110.17
546.867	8095.03
547.231	8037.18
547.595	8073.78
547.959	8101.35
548.324	8078.53
548.688	8028.14
549.052	8016.39
549.416	8078.98
549.779	8031.3
550.143	8043.73
550.507	8051.19
550.871	8093.67
551.235	8053.67
551.599	8037.85
551.962	8024.07
552.326	8084.86
552.689	8084.41
553.053	7967.35
553.417	8021.81
553.78	8089.6
554.143	8043.5
554.507	8102.26
554.87	8062.94
555.234	8150.85
555.597	8016.61
555.96	8092.32
556.323	8079.89
556.686	8098.19
557.05	8170.96
557.413	8116.72
557.776	8133.44
558.139	8164.4
558.502	8150.85
558.865	8149.26
559.228	8183.16
559.59	8164.4
559.953	8143.39
560.316	8279.43
560.679	8178.19
561.041	8229.04
561.404	8243.5
561.767	8295.02
562.129	8247.11
562.492	8345.87
562.854	8255.02
563.217	8295.47
563.579	8339.77
563.941	8347.68
564.304	8358.07
564.666	8419.76
565.028	8410.05
565.39	8394.45
565.753	8418.63
566.115	8484.4
566.477	8488.46
566.839	8451.18
567.201	8569.37
567.563	8514
567.925	8589.03
568.287	8529.82
568.648	8539.54
569.01	8640.78
569.372	8707.67
569.734	8592.42
570.095	8681.68
570.457	8704.05
570.819	8716.25
571.18	8688.01
571.542	8761.45
571.903	8752.64
572.265	8736.59
572.626	8756.25
572.987	8841.22
573.349	8809.81
573.71	8839.64
574.071	8833.76
574.432	8904.95
574.794	8961.45
575.155	8948.34
575.516	8894.78
575.877	8963.7
576.238	8958.51
576.599	9037.6
576.96	8995.12
577.32	9043.48
577.681	9058.17
578.042	9118.05
578.403	9007.55
578.763	9088.45
579.124	9102.46
579.485	9168.9
579.845	9220.65
580.206	9206.64
580.566	9146.98
580.927	9246.64
581.287	9206.86
581.648	9267.65
582.008	9241.89
582.368	9244.6
582.728	9334.54
583.089	9278.95
583.449	9380.19
583.809	9331.6
584.169	9301.55
584.529	9327.54
584.889	9395.56
585.249	9348.78
585.609	9374.77
585.969	9443.69
586.329	9357.14
586.688	9409.79
587.048	9410.47
587.408	9365.05
587.768	9433.98
588.127	9399.17
588.487	9451.15
588.846	9516.23
589.206	9373.86
589.565	9437.36
589.925	9488.21
590.284	9413.64
590.643	9465.84
591.003	9522.79
591.362	9534.99
591.721	9587.64
592.08	9527.76
592.44	9558.27
592.799	9523.46
593.158	9480.08
593.517	9537.93
593.876	9522.11
594.235	9561.43
594.593	9580.86
594.952	9608.43
595.311	9543.35
595.67	9551.94
596.029	9648.88
596.387	9718.26
596.746	9658.83
597.104	9612.28
597.463	9589.9
597.822	9628.55
598.18	9527.31
598.538	9663.35
598.897	9729.11
599.255	9607.98
599.613	9793.74
599.972	9677.36
600.33	9706.06
600.688	9679.62
601.046	9707.87
601.404	9725.72
601.762	9723.46
602.12	9729.79
602.478	9757.36
602.836	9775.89
603.194	9663.8
603.552	9709.9
603.91	9674.42
604.268	9729.33
604.625	9716
604.983	9797.13
605.341	9770.92
605.698	9786.73
606.056	9841.42
606.413	9798.71
606.771	9838.03
607.128	9776.11
607.485	9796.45
607.843	9795.55
608.2	9834.64
608.557	9876.9
608.914	9842.55
609.272	9852.95
609.629	9892.95
609.986	9938.82
610.343	9932.27
610.7	9953.06
611.057	9836.9
611.414	9933.17
611.771	9892.27
612.127	9983.34
612.484	9932.04
612.841	10003.45
613.198	9937.24
613.554	9967.29
613.911	10042.55
614.267	10009.33
614.624	10020.63
614.98	10034.19
615.337	10045.71
615.693	10074.18
616.05	9978.14
616.406	10020.4
616.762	10074.18
617.118	10000.74
617.475	10065.37
617.831	9982.89
618.187	10041.42
618.543	10146.5
618.899	10152.15
619.255	10094.97
619.611	10086.16
619.967	10136.1
620.323	10051.81
620.678	10091.81
621.034	10090.46
621.39	10095.88
621.746	10095.65
622.101	10158.93
622.457	10104.01
622.812	10136.33
623.168	10153.96
623.523	10172.03
623.879	10124.8
624.234	10118.48
624.589	10130.68
624.945	10155.54
625.3	10170.68
625.655	10113.96
626.01	10180.85
626.365	10155.31
626.72	10116.9
627.075	10181.07
627.43	10137.69
627.785	10059.04
628.14	10126.84
628.495	10145.37
628.85	10096.78
629.205	10018.82
629.559	10125.93
629.914	10124.58
630.269	10096.78
630.623	10078.25
630.978	9984.24
631.332	10064.47
631.687	10048.65
632.041	10029.21
632.396	10016.11
632.75	9925.49
633.104	10012.49
633.459	9904.7
633.813	9964.36
634.167	10023.56
634.521	9956.9
634.875	9958.71
635.229	9931.36
635.583	9951.7
635.937	9854.53
636.291	9843.68
636.645	9902.66
636.999	9829.22
637.352	9838.26
637.706	9789.67
638.06	9843
638.413	9772.95
638.767	9755.77
639.121	9781.54
639.474	9697.47
639.828	9782.44
640.181	9788.99
640.534	9745.38
640.888	9709.45
641.241	9678.94
641.594	9694.53
641.947	9751.25
642.301	9716.45
642.654	9724.59
643.007	9733.85
643.36	9698.83
643.713	9650.01
644.066	9648.88
644.419	9688.43
644.771	9648.43
645.124	9514.65
645.477	9443.24
645.83	9467.42
646.182	9361.66
646.535	9318.05
646.888	9310.81
647.24	9304.04
647.593	9349.23
647.945	9313.3
648.298	9275.11
648.65	9317.37
649.002	9258.16
649.355	9360.76
649.707	9272.17
650.059	9381.77
650.411	9472.84
650.763	9443.92
651.115	9520.98
651.467	9563.01
651.819	9474.43
652.171	9556.23
652.523	9545.16
652.875	9510.13
653.227	9441.66
653.578	9486.4
653.93	9529.34
654.282	9456.8
654.633	9335.45
654.985	9491.83
655.337	9426.52
655.688	9411.38
656.039	9456.8
656.391	9417.7
656.742	9413.86
657.094	9415.9
657.445	9435.56
657.796	9441.21
658.147	9421.09
658.498	9429.23
658.849	9412.51
659.2	9499.51
659.551	9437.14
659.902	9476.23
660.253	9458.83
660.604	9483.92
660.955	9411.38
661.306	9454.54
661.656	9421.77
662.007	9514.88
662.358	9448.66
662.708	9422.9
663.059	9428.33
663.409	9419.29
663.76	9483.69
664.11	9459.29
664.461	9425.84
664.811	9451.6
665.161	9439.85
665.511	9455.22
665.862	9435.78
666.212	9483.01
666.562	9401.89
666.912	9504.03
667.262	9438.49
667.612	9492.5
667.962	9440.98
668.312	9397.82
668.662	9482.79
669.011	9436.69
669.361	9396.91
669.711	9405.73
670.06	9377.71
670.41	9366.63
670.76	9364.82
671.109	9347.88
671.459	9413.18
671.808	9349.46
672.157	9364.37
672.507	9353.75
672.856	9339.29
673.205	9368.67
673.554	9337.03
673.904	9326.41
674.253	9394.43
674.602	9318.5
674.951	9247.77
675.3	9205.73
675.649	9285.28
675.998	9242.57
676.346	9297.93
676.695	9316.92
677.044	9238.95
677.393	9231.04
677.741	9283.92
678.09	9259.74
678.438	9199.86
678.787	9154.43
679.135	9200.08
679.484	9162.12
679.832	9174.09
680.181	9135.68
680.529	9201.21
680.877	9140.65
681.225	9133.64
681.573	9191.27
681.922	9069.46
682.27	9065.4
682.618	9078.96
682.966	8982.46
683.314	9014.55
683.661	9011.84
684.009	8947.43
684.357	9024.27
684.705	8930.71
685.053	8933.88
685.4	8959.19
685.748	8895.01
686.095	8848.45
686.443	8902.01
686.79	8824.95
687.138	8831.96
687.485	8850.04
687.832	8818.4
688.18	8846.42
688.527	8756.7
688.874	8719.42
689.221	8656.82
689.568	8662.92
689.915	8614.34
690.262	8580.21
690.609	8596.03
690.956	8559.42
691.303	8565.3
691.65	8530.5
691.997	8582.47
692.344	8484.4
692.69	8475.58
693.037	8431.29
693.383	8321.91
693.73	8370.73
694.077	8364.17
694.423	8311.07
694.769	8283.72
695.116	8292.99
695.462	8260.22
695.808	8191.75
696.155	8272.88
696.501	8211.18
696.847	8178.41
697.193	8080.79
697.539	8134.57
697.885	8049.6
698.231	8120.34
698.577	8073.11
698.923	8012.32
699.269	7935.48
699.614	7957.63
699.96	7898.42
700.306	7921.25
700.651	7882.38
700.997	7834.92
701.342	7830.18
701.688	7822.72
702.033	7815.26
702.379	7778.88
702.724	7761.25
703.069	7744.08
703.415	7601.71
703.76	7630.18
704.105	7666.79
704.45	7616.17
704.795	7603.74
705.14	7505.89
705.485	7502.5
705.83	7514.93
706.175	7491.65
706.52	7502.73
706.865	7416.63
707.209	7488.72
707.554	7409.85
707.899	7453.01
708.243	7373.92
708.588	7390.64
708.932	7289.85
709.277	7351.54
709.621	7322.39
709.966	7268.61
710.31	7314.03
710.654	7204.43
710.998	7243.07
711.342	7272.45
711.687	7212.34
712.031	7154.04
712.375	7114.94
712.719	7119.69
713.063	7186.8
713.407	7114.94
713.75	7110.42
714.094	7055.73
714.438	7012.34
714.782	7072
715.125	7079.23
715.469	7029.97
715.812	7024.32
716.156	7002.85
716.499	6948.84
716.843	6940.93
717.186	6945.68
717.53	6940.26
717.873	6971.89
718.216	6922.18
718.559	6880.37
718.902	6897.32
719.246	6921.05
719.589	6829.98
719.932	6936.41
720.275	6821.39
720.617	6827.94
720.96	6853.93
721.303	6842.4
721.646	6796.53
721.989	6828.62
722.331	6821.84
722.674	6832.69
723.016	6862.97
723.359	6784.55
723.701	6792.01
724.044	6751.11
724.386	6712.24
724.729	6722.63
725.071	6718.79
725.413	6736.64
725.755	6757.21
726.097	6739.81
726.439	6712.01
726.782	6709.08
727.124	6739.81
727.465	6720.37
727.807	6739.36
728.149	6653.94
728.491	6636.76
728.833	6708.62
729.175	6686.48
729.516	6670.88
729.858	6713.14
730.199	6724.67
730.541	6641.51
730.882	6618.23
731.224	6657.78
731.565	6671.56
731.906	6658.68
732.248	6663.43
732.589	6628.63
732.93	6573.71
733.271	6629.08
733.612	6650.32
733.953	6620.49
734.294	6578.46
734.635	6628.85
734.976	6646.7
735.317	6568.74
735.658	6631.11
735.999	6596.31
736.339	6610.32
736.68	6626.59
737.021	6587.95
737.361	6603.99
737.702	6615.07
738.042	6595.41
738.383	6659.58
738.723	6600.83
739.063	6606.03
739.404	6666.14
739.744	6596.99
740.084	6597.67
740.424	6646.03
740.764	6665.91
741.104	6640.6
741.444	6651.68
741.784	6704.33
742.124	6656.2
742.464	6646.48
742.804	6648.51
743.143	6685.35
743.483	6708.17
743.823	6664.1
744.162	6701.62
744.502	6728.51
744.841	6742.29
745.181	6713.14
745.52	6765.57
745.86	6776.19
746.199	6831.11
746.538	6785.91
746.877	6824.78
747.216	6877.21
747.556	6865
747.895	6894.38
748.234	6901.61
748.573	6966.92
748.911	6948.62
749.25	7027.94
749.589	7037.65
749.928	7095.05
750.267	7148.39
750.605	7186.8
750.944	7261.38
751.283	7184.09
751.621	7337.53
751.96	7351.54
752.298	7397.64
752.636	7455.27
752.975	7497.98
753.313	7496.17
753.651	7640.35
753.989	7548.15
754.327	7752.21
754.666	7722.16
755.004	7888.48
755.342	7906.56
755.679	8029.94
756.017	8067.23
756.355	8154.69
756.693	8217.74
757.031	8293.21
757.368	8331.86
757.706	8413.44
758.044	8603.49
758.381	8669.48
758.719	8669.48
759.056	8801.22
759.394	8905.18
759.731	8953.08
760.068	9039.86
760.405	9158.5
760.743	9168.45
761.08	9377.03
761.417	9421.55
761.754	9574.99
762.091	9647.08
762.428	9670.13
762.765	9759.84
763.102	9883.91
763.438	9963.23
763.775	10011.36
764.112	10134.52
764.449	10237.8
764.785	10368.87
765.122	10371.58
765.458	10431.46
765.795	10496.32
766.131	10614.96
766.467	10724.79
766.804	10710.78
767.14	10841.85
767.476	10905.8
767.812	10948.06
768.148	11082.75
768.485	10983.54
768.821	11110.99
769.157	11246.36
769.492	11281.16
769.828	11311.21
770.164	11274.6
770.5	11480.7
770.836	11452.91
771.171	11486.8
771.507	11604.77
771.842	11540.13
772.178	11637.53
772.513	11664.42
772.849	11742.16
773.184	11705.33
773.519	11765.21
773.855	11767.25
774.19	11814.48
774.525	11859
774.86	11870.07
775.195	11919.11
775.53	11915.94
775.865	11942.61
776.2	11858.77
776.535	11876.62
776.87	11909.39
777.205	11886.11
777.539	11931.99
777.874	12066.22
778.209	12033.68
778.543	12011.99
778.878	11881.82
779.212	12018.54
779.547	12011.53
779.881	12068.26
780.215	12004.08
780.55	12019.9
780.884	11940.35
781.218	11953.68
781.552	11994.81
781.886	11938.77
782.22	11993.46
782.554	11921.14
782.888	11855.38
783.222	11834.82
783.556	11814.03
783.889	11798.43
784.223	11736.29
784.557	11819
784.89	11790.98
785.224	11739.23
785.557	11743.07
785.891	11760.02
786.224	11740.58
786.558	11691.09
786.891	11674.59
787.224	11673.92
787.557	11625.33
787.891	11590.75
788.224	11670.07
788.557	11663.52
788.89	11679.34
789.223	11651.77
789.556	11582.39
789.888	11600.92
790.221	11523.86
790.554	11477.09
790.887	11450.42
791.219	11332
791.552	11375.39
791.884	11359.57
792.217	11362.51
792.549	11315.96
792.882	11302.63
793.214	11292.01
793.546	11322.06
793.879	11161.61
794.211	11110.54
794.543	11201.16
794.875	11164.55
795.207	11153.25
795.539	11131.56
795.871	11082.29
796.203	11059.47
796.535	11010.43
796.867	10924.56
797.198	11005.46
797.53	10946.48
797.862	10837.1
798.193	10935.63
798.525	10873.03
798.856	10892.24
799.188	10764.34
799.519	10713.04
799.85	10685.47
800.182	10634.17
800.513	10675.3
800.844	10613.15
801.175	10725.01
801.506	10690.44
801.837	10697.22
802.168	10614.51
802.499	10589.2
802.83	10461.97
803.161	10464.68
803.491	10561.63
803.822	10478.24
804.153	10458.81
804.483	10403.89
804.814	10391.24
805.145	10342.88
805.475	10346.95
805.805	10324.8
806.136	10335.87
806.466	10274.4
806.796	10265.82
807.126	10168.87
807.457	10165.48
807.787	10205.48
808.117	10152.83
808.447	10059.27
808.777	10165.71
809.107	10068.76
809.436	10076.22
809.766	10113.05
810.096	10049.55
810.426	9988.08
810.755	9951.25
811.085	9992.38
811.414	9929.56
811.744	9891.59
812.073	9900.4
812.403	9919.39
812.732	9821.99
813.061	9793.97
813.39	9803.23
813.719	9801.42
814.049	9825.38
814.378	9795.55
814.707	9682.33
815.036	9740.86
815.365	9642.33
815.693	9564.37
816.022	9671.93
816.351	9588.77
816.68	9611.6
817.008	9587.19
817.337	9521.66
817.665	9494.76
817.994	9523.69
818.322	9458.83
818.651	9425.39
818.979	9437.36
819.307	9490.47
819.636	9451.6
819.964	9307.65
820.292	9473.75
820.62	9396.24
820.948	9369.8
821.276	9444.82
821.604	9416.57
821.932	9381.55
822.259	9394.43
822.587	9287.31
822.915	9346.97
823.243	9362.11
823.57	9392.85
823.898	9375.22
824.225	9306.52
824.553	9317.82
824.88	9396.91
825.207	9352.62
825.535	9382.23
825.862	9346.29
826.189	9411.15
826.516	9463.58
826.843	9430.59
827.17	9381.32
827.497	9448.66
827.824	9346.75
828.151	9483.24
828.478	9385.39
828.805	9387.65
829.131	9415.22
829.458	9340.87
829.785	9348.78
830.111	9349.01
830.438	9435.78
830.764	9362.56
831.09	9349.91
831.417	9338.38
831.743	9315.79
832.069	9339.29
832.395	9297.26
832.722	9377.03
833.048	9330.25
833.374	9293.41
833.7	9310.36
834.026	9319.18
834.351	9290.48
834.677	9302.23
835.003	9295.22
835.329	9250.03
835.654	9261.55
835.98	9292.06
836.306	9286.18
836.631	9235.11
836.956	9229.01
837.282	9259.97
837.607	9318.95
837.932	9203.47
838.258	9201.44
838.583	9191.27
838.908	9104.49
839.233	9182.23
839.558	9159.86
839.883	9134.32
840.208	9073.98
840.533	9066.08
840.858	9125.28
841.182	9073.76
841.507	9035.79
841.832	9005.29
842.156	8986.3
842.481	9061.56
842.805	8997.15
843.13	8966.87
843.454	8911.73
843.778	8914.67
844.103	8859.07
844.427	8896.36
844.751	8837.83
845.075	8917.38
845.399	8780.43
845.723	8786.76
846.047	8837.15
846.371	8676.03
846.695	8699.53
847.019	8663.15
847.343	8680.55
847.666	8562.13
847.99	8544.28
848.313	8488.92
848.637	8448.46
848.96	8447.33
849.284	8460.44
849.607	8356.26
849.931	8384.74
850.254	8287.11
850.577	8257.51
850.9	8241.69
851.223	8266.1
851.546	8165.53
851.869	8152.88
852.192	8162.82
852.515	8060.45
852.838	8001.47
853.161	8049.15
853.483	8011.41
853.806	7994.69
854.129	8009.61
854.451	7944.07
854.774	7927.8
855.096	7817.07
855.419	7885.77
855.741	7869.27
856.063	7765.77
856.385	7840.57
856.708	7738.43
857.03	7726.9
857.352	7753.12
857.674	7720.12
857.996	7665.89
858.318	7650.52
858.64	7608.03
858.961	7579.11
859.283	7516.29
859.605	7522.16
859.926	7550.41
860.248	7524.87
860.57	7528.04
860.891	7492.11
861.212	7440.36
861.534	7464.54
861.855	7424.31
862.176	7414.82
862.498	7435.61
862.819	7461.15
863.14	7384.31
863.461	7411.66
863.782	7302.96
864.103	7370.07
864.424	7334.14
864.745	7412.33
865.065	7289.62
865.386	7298.66
865.707	7276.07
866.027	7292.34
866.348	7262.96
866.668	7295.5
866.989	7232.9
867.309	7219.57
867.63	7199.23
867.95	7220.47
868.27	7145
868.59	7213.92
868.91	7177.09
869.23	7155.16
869.55	7129.18
869.87	7210.76
870.19	7108.16
870.51	7145
870.83	7146.35
871.15	7076.52
871.469	7099.57
871.789	7095.73
872.109	7036.52
872.428	7043.53
872.748	7039.01
873.067	7027.03
873.386	7096.64
873.706	7011.67
874.025	6971.67
874.344	7004.89
874.663	6990.42
874.982	6933.7
875.301	6975.96
875.62	6930.54
875.939	6895.06
876.258	6886.25
876.577	6897.54
876.896	6858.68
877.214	6889.18
877.533	6839.47
877.852	6890.77
878.17	6902.29
878.489	6835.63
878.807	6831.33
879.125	6767.83
879.444	6887.83
879.762	6839.69
880.08	6722.41
880.398	6818.45
880.716	6806.25
881.034	6771.45
881.352	6770.32
881.67	6747.27
881.988	6725.12
882.306	6724.67
882.624	6701.84
882.941	6636.76
883.259	6657.1
883.577	6592.24
883.894	6619.59
884.212	6606.93
884.529	6614.16
884.846	6587.27
885.164	6512.7
885.481	6511.57
885.798	6556.31
886.115	6502.53
886.432	6483.09
886.75	6429.76
887.067	6473.15
887.383	6508.85
887.7	6513.15
888.017	6394.06
888.334	6449.65
888.651	6380.04
888.967	6359.25
889.284	6374.85
889.6	6387.73
889.917	6325.36
890.233	6334.4
890.55	6233.16
890.866	6300.27
891.182	6263.66
891.498	6217.34
891.815	6216.88
892.131	6207.85
892.447	6153.84
892.763	6195.19
893.079	6180.73
893.395	6142.54
893.71	6145.25
894.026	6076.1
894.342	6101.41
894.657	6018.02
894.973	6047.17
895.289	6020.51
895.604	6012.14
895.92	5985.25
896.235	5953.39
896.55	5950.45
896.865	5921.98
897.181	5962.88
897.496	5914.75
897.811	5889.21
898.126	5896.44
898.441	5830.68
898.756	5812.38
899.071	5842.21
899.386	5827.74
899.7	5728.08
900.015	5769.66
900.33	5667.07
900.644	5686.73
900.959	5704.81
901.273	5675.66
901.588	5628.88
901.902	5597.47
902.216	5587.07
902.531	5620.52
902.845	5545.49
903.159	5486.51
903.473	5561.53
903.787	5527.41
904.101	5543.23
904.415	5502.1
904.729	5452.16
905.042	5432.5
905.356	5399.5
905.67	5366.06
905.984	5389.56
906.297	5382.1
906.611	5299.85
906.924	5326.51
907.237	5294.87
907.551	5308.89
907.864	5257.36
908.177	5293.29
908.491	5224.14
908.804	5209.45
909.117	5169
909.43	5083.36
909.743	5074.99
910.056	5140.75
910.368	5071.6
910.681	5023.92
910.994	5010.14
911.307	5043.58
911.619	4991.15
911.932	5034.32
912.244	4977.37
912.557	4961.32
912.869	4938.05
913.181	4888.11
913.494	4899.41
913.806	4889.46
914.118	4868.45
914.43	4790.71
914.742	4846.3
915.054	4800.88
915.366	4776.47
915.678	4731.5
915.99	4704.83
916.302	4735.79
916.613	4687.89
916.925	4682.01
917.236	4663.25
917.548	4658.73
917.859	4642.46
918.171	4610.83
918.482	4591.16
918.794	4556.82
919.105	4610.15
919.416	4531.73
919.727	4579.64
920.038	4528.79
920.349	4513.2
920.66	4489.47
920.971	4434.78
921.282	4487.66
921.593	4447.44
921.903	4365.18
922.214	4358.4
922.525	4355.46
922.835	4399.53
923.146	4311.62
923.456	4327.22
923.767	4304.17
924.077	4290.16
924.387	4280.21
924.697	4264.39
925.008	4248.8
925.318	4212.42
925.628	4209.25
925.938	4176.71
926.248	4194.79
926.558	4167.67
926.867	4150.72
927.177	4148.46
927.487	4109.82
927.796	4064.4
928.106	4091.29
928.416	4066.66
928.725	4039.54
929.034	4031.86
929.344	4030.73
929.653	4013.78
929.962	3986.89
930.271	3929.94
930.581	3949.6
930.89	3922.71
931.199	3924.29
931.508	3879.09
931.817	3901.92
932.125	3889.04
932.434	3849.72
932.743	3804.29
933.051	3844.74
933.36	3863.27
933.669	3830.96
933.977	3769.94
934.286	3776.95
934.594	3776.95
934.902	3719.32
935.21	3745.54
935.519	3729.04
935.827	3712.09
936.135	3698.53
936.443	3652.66
936.751	3669.15
937.059	3637.29
937.367	3634.58
937.674	3623.73
937.982	3580.57
938.29	3585.32
938.597	3564.98
938.905	3579.44
939.213	3557.29
939.52	3481.36
939.827	3523.4
940.135	3510.29
940.442	3477.3
940.749	3430.97
941.056	3492.66
941.363	3415.15
941.67	3399.56
941.977	3400.24
942.284	3391.87
942.591	3363.85
942.898	3354.36
943.205	3404.53
943.511	3343.51
943.818	3324.76
944.125	3308.71
944.431	3274.14
944.738	3272.78
945.044	3296.96
945.35	3269.39
945.657	3246.12
945.963	3213.8
946.269	3217.42
946.575	3183.52
946.881	3144.65
947.187	3159.11
947.493	3179.68
947.799	3146.91
948.105	3144.42
948.41	3125.89
948.716	3122.73
949.022	3115.5
949.327	3092.67
949.633	3062.17
949.938	3076.85
950.244	3089.96
950.549	3025.56
950.854	3022.62
951.16	2992.56
951.465	3014.93
951.77	2967.03
952.075	2974.48
952.38	2919.57
952.685	2957.99
952.99	2917.31
953.294	2922.06
953.599	2918.67
953.904	2916.41
954.209	2883.19
954.513	2915.95
954.818	2849.29
955.122	2850.42
955.426	2848.84
955.731	2851.32
956.035	2769.74
956.339	2804.77
956.643	2815.39
956.948	2781.72
957.252	2754.6
957.556	2773.13
957.86	2745.79
958.163	2783.3
958.467	2724.77
958.771	2721.16
959.075	2679.12
959.378	2673.25
959.682	2672.12
959.985	2663.53
960.289	2667.83
960.592	2656.53
960.896	2655.62
961.199	2624.89
961.502	2648.16
961.805	2626.02
962.108	2585.79
962.411	2585.34
962.714	2550.99
963.017	2564.1
963.32	2592.57
963.623	2550.99
963.926	2558.9
964.228	2545.57
964.531	2503.99
964.833	2497.21
965.136	2507.38
965.438	2486.81
965.741	2487.72
966.043	2459.47
966.345	2484.55
966.648	2470.54
966.95	2435.97
967.252	2443.88
967.554	2423.09
967.856	2421.96
968.158	2376.53
968.46	2369.3
968.761	2383.31
969.063	2361.84
969.365	2374.5
969.666	2369.08
969.968	2291.79
970.269	2298.57
970.571	2331.79
970.872	2329.76
971.174	2301.73
971.475	2291.11
971.776	2296.99
972.077	2272.81
972.378	2254.73
972.679	2242.53
972.98	2223.54
973.281	2230.32
973.582	2248.4
973.883	2200.49
974.183	2202.3
974.484	2214.5
974.785	2155.75
975.085	2168.4
975.386	2141.96
975.686	2179.93
975.986	2146.03
976.287	2158.23
976.587	2136.31
976.887	2193.71
977.187	2143.77
977.487	2116.43
977.787	2109.65
978.087	2106.48
978.387	2104.9
978.687	2086.6
978.987	2086.37
979.286	2070.55
979.586	2050.44
979.885	2021.97
980.185	2017.9
980.484	2021.06
980.784	2018.8
981.083	1993.04
981.382	2002.53
981.682	1992.14
981.981	1991.91
982.28	1973.38
982.579	1968.86
982.878	1946.49
983.177	1943.1
983.475	1934.51
983.774	1910.78
984.073	1923.89
984.372	1925.25
984.67	1902.87
984.969	1891.12
985.267	1894.06
985.566	1911.01
985.864	1856.1
986.162	1880.5
986.461	1860.84
986.759	1872.14
987.057	1847.06
987.355	1809.99
987.653	1814.97
987.951	1815.87
988.249	1837.56
988.547	1831.46
988.844	1828.3
989.142	1793.95
989.44	1777.23
989.737	1795.53
990.035	1768.87
990.332	1760.73
990.63	1777.23
990.927	1753.27
991.224	1739.71
991.521	1734.29
991.819	1717.79
992.116	1730
992.413	1698.13
992.71	1718.25
993.006	1681.64
993.303	1695.42
993.6	1716.89
993.897	1676.44
994.193	1675.99
994.49	1671.69
994.787	1643.22
995.083	1646.16
995.379	1634.41
995.676	1639.83
995.972	1640.06
996.268	1600.51
996.565	1594.18
996.861	1583.79
997.157	1569.78
997.453	1611.36
997.749	1576.1
998.044	1548.76
998.34	1579.27
998.636	1582.88
998.932	1522.09
999.227	1549.66
999.523	1542.88
999.818	1508.53
1000.114	1543.34
1000.409	1505.14
1000.704	1514.41
1001	1513.51
1001.295	1500.62
1001.59	1482.77
1001.885	1475.77
1002.18	1497.46
1002.475	1480.29
1002.77	1486.84
1003.065	1431.25
1003.359	1420.17
1003.654	1435.32
1003.949	1434.41
1004.243	1404.13
1004.538	1406.62
1004.832	1412.72
1005.127	1423.11
1005.421	1391.47
1005.715	1385.37
1006.009	1366.39
1006.304	1382.44
1006.598	1381.08
1006.892	1352.38
1007.186	1366.16
1007.48	1345.37
1007.773	1319.61
1008.067	1348.54
1008.361	1323.91
1008.655	1313.74
1008.948	1298.6
1009.242	1312.15
1009.535	1302.66
1009.829	1319.16
1010.122	1278.03
1010.415	1278.94
1010.708	1265.6
1011.001	1264.25
1011.295	1284.36
1011.588	1245.94
1011.881	1229.9
1012.173	1246.62
1012.466	1244.81
1012.759	1207.52
1013.052	1262.44
1013.344	1201.65
1013.637	1188.54
1013.93	1182.67
1014.222	1221.76
1014.514	1178.15
1014.807	1164.36
1015.099	1145.15
1015.391	1170.24
1015.683	1164.14
1015.976	1146.28
1016.268	1167.53
1016.56	1151.71
1016.851	1139.96
1017.143	1130.01
1017.435	1101.54
1017.727	1102.67
1018.018	1105.15
1018.31	1079.62
1018.602	1094.31
1018.893	1092.05
1019.185	1092.5
1019.476	1048.43
1019.767	1089.34
1020.058	1041.2
1020.35	1063.57
1020.641	1075.78
1020.932	1053.4
1021.223	1021.99
1021.514	1047.75
1021.804	1029.68
1022.095	1011.15
1022.386	1015.67
1022.677	999.17
1022.967	1020.19
1023.258	1008.21
1023.548	1010.02
1023.839	972.05
1024.129	982.22
1024.419	965.72
1024.709	990.36
1025	976.34
1025.29	976.12
1025.58	954.2
1025.87	941.09
1026.16	943.12
1026.449	934.31
1026.739	913.97
1027.029	916.01
1027.319	917.81
1027.608	932.28
1027.898	902
1028.187	912.62
1028.477	871.71
1028.766	920.07
1029.055	880.53
1029.344	883.47
1029.634	896.35
1029.923	889.34
1030.212	891.83
1030.501	882.79
1030.79	850.92
1031.078	850.7
1031.367	881.21
1031.656	830.59
1031.945	861.77
1032.233	825.61
1032.522	826.52
1032.81	841.88
1033.099	831.04
1033.387	812.51
1033.675	810.47
1033.963	817.7
1034.251	800.76
1034.54	796.91
1034.828	793.52
1035.116	809.34
1035.403	773.64
1035.691	798.95
1035.979	772.96
1036.267	738.16
1036.554	756.69
1036.842	787.2
1037.129	743.81
1037.417	756.46
1037.704	760.3
1037.992	753.3
1038.279	751.72
1038.566	754.66
1038.853	754.66
1039.14	754.66
