Data from hue_260_FLMS001491_00038.txt Node
Date: Tue Feb 07 15:58:55 GMT 2017
User: dcchb
Spectrometer: FLMS00149
Trigger mode: 0
Integration Time (sec): 2.000000E-2
Scans to average: 10
Electric dark correction enabled: true
Nonlinearity correction enabled: false
Boxcar width: 0
XAxis mode: Wavelengths
Number of Pixels in Spectrum: 2048
>>>>>Begin Spectral Data<<<<<
341.393	11.43
341.776	11.43
342.16	11.43
342.543	-74.67
342.927	-70.61
343.31	-79.42
343.693	-70.83
344.077	-61.57
344.46	-62.47
344.843	-55.46
345.226	-45.97
345.61	-8.23
345.993	-15.24
346.376	2.39
346.759	-5.07
347.142	36.06
347.525	39.22
347.908	36.28
348.291	78.32
348.674	92.33
349.057	119.67
349.44	128.03
349.823	140.24
350.206	157.19
350.588	196.96
350.971	174.13
351.354	241.25
351.737	241.93
352.119	236.51
352.502	259.33
352.884	261.82
353.267	271.53
353.65	306.56
354.032	305.43
354.414	312.66
354.797	294.58
355.179	319.89
355.562	300.68
355.944	325.54
356.326	327.8
356.709	320.12
357.091	330.51
357.473	325.54
357.855	323.51
358.238	333
358.62	322.15
359.002	346.78
359.384	326.67
359.766	335.26
360.148	336.39
360.53	315.83
360.912	320.34
361.294	324.86
361.676	330.97
362.057	315.6
362.439	325.09
362.821	322.15
363.203	325.54
363.584	317.18
363.966	305.66
364.348	318.76
364.729	321.02
365.111	311.76
365.493	320.8
365.874	325.32
366.256	300.23
366.637	323.28
367.019	315.6
367.4	326.45
367.781	318.08
368.163	329.84
368.544	321.25
368.925	281.48
369.306	308.14
369.688	322.83
370.069	298.88
370.45	295.71
370.831	311.53
371.212	293.45
371.593	316.73
371.974	325.09
372.355	330.06
372.736	312.21
373.117	307.01
373.498	299.78
373.879	298.88
374.26	311.53
374.641	302.94
375.021	300.23
375.402	342.27
375.783	309.05
376.163	306.11
376.544	331.42
376.925	318.31
377.305	316.28
377.686	314.47
378.066	310.18
378.447	315.15
378.827	354.47
379.208	324.41
379.588	319.44
379.968	340.01
380.349	314.92
380.729	330.29
381.109	332.55
381.489	338.88
381.87	340.23
382.25	323.28
382.63	321.7
383.01	315.37
383.39	340.68
383.77	330.74
384.15	329.16
384.53	364.19
384.91	342.04
385.29	349.04
385.67	352.66
386.049	341.36
386.429	328.93
386.809	330.06
387.189	349.95
387.568	355.37
387.948	332.77
388.328	342.04
388.707	347.91
389.087	365.99
389.466	365.77
389.846	362.83
390.225	374.13
390.605	366.22
390.984	385.88
391.363	354.69
391.743	383.85
392.122	381.81
392.501	377.52
392.881	376.84
393.26	356.5
393.639	356.5
394.018	343.62
394.397	363.06
394.776	375.71
395.155	361.02
395.534	362.83
395.913	373
396.292	394.92
396.671	389.72
397.05	371.64
397.429	389.72
397.808	386.56
398.186	401.7
398.565	388.59
398.944	398.08
399.323	413.9
399.701	392.21
400.08	394.92
400.458	417.97
400.837	403.73
401.215	418.65
401.594	411.19
401.972	410.96
402.351	421.36
402.729	421.81
403.107	404.18
403.486	430.4
403.864	432.21
404.242	424.75
404.62	441.02
404.999	417.74
405.377	455.48
405.755	450.28
406.133	454.13
406.511	447.12
406.889	456.61
407.267	468.82
407.645	468.59
408.023	490.74
408.401	454.58
408.779	484.86
409.156	501.81
409.534	496.39
409.912	499.77
410.29	507.91
410.667	507.46
411.045	520.34
411.422	528.25
411.8	533.22
412.178	515.14
412.555	547.46
412.933	557.4
413.31	557.63
413.687	558.98
414.065	540.68
414.442	560.56
414.819	559.21
415.197	586.55
415.574	584.52
415.951	590.39
416.328	592.65
416.705	602.15
417.082	630.84
417.46	591.75
417.837	627.46
418.214	635.82
418.591	627.46
418.967	660
419.344	659.09
419.721	677.4
420.098	666.1
420.475	650.51
420.852	708.36
421.228	716.49
421.605	700.45
421.982	713.78
422.358	721.69
422.735	738.64
423.111	726.89
423.488	743.61
423.864	760.11
424.241	769.15
424.617	770.28
424.994	786.77
425.37	785.64
425.746	807.56
426.123	812.99
426.499	822.48
426.875	831.07
427.251	859.09
427.627	875.13
428.003	888.69
428.379	871.06
428.756	900.22
429.132	912.19
429.507	900.44
429.883	929.37
430.259	909.26
430.635	957.39
431.011	958.75
431.387	941.8
431.763	961.91
432.138	970.95
432.514	985.41
432.89	981.57
433.265	1050.27
433.641	1069.03
434.016	1054.11
434.392	1068.35
434.767	1104.73
435.143	1082.36
435.518	1098.63
435.894	1131.85
436.269	1154.9
436.644	1172.98
437.02	1210.49
437.395	1205.29
437.77	1241.45
438.145	1248
438.52	1276.93
438.895	1281.22
439.271	1278.06
439.646	1287.1
440.021	1322.35
440.395	1311.51
440.77	1326.65
441.145	1357.83
441.52	1374.1
441.895	1362.13
442.27	1398.96
442.645	1398.73
443.019	1438.51
443.394	1409.81
443.769	1455.23
444.143	1447.09
444.518	1454.55
444.892	1468.11
445.267	1464.72
445.641	1509.69
446.016	1516.92
446.39	1518.51
446.764	1512.4
447.139	1519.41
447.513	1523.7
447.887	1543.59
448.262	1558.28
448.636	1586.75
449.01	1589.69
449.384	1599.63
449.758	1583.81
450.132	1609.58
450.506	1627.43
450.88	1649.8
451.254	1632.85
451.628	1658.16
452.002	1695.68
452.376	1706.52
452.75	1724.6
453.123	1737.93
453.497	1778.84
453.871	1769.35
454.244	1789.23
454.618	1810.02
454.992	1816.35
455.365	1815.22
455.739	1889.34
456.112	1880.08
456.486	1886.86
456.859	1947.19
457.232	1923.47
457.606	1930.92
457.979	1945.84
458.352	2001.66
458.725	2009.57
459.099	2001.66
459.472	2027.64
459.845	2056.34
460.218	2117.13
460.591	2111.03
460.964	2101.54
461.337	2146.51
461.71	2197.36
462.083	2190.13
462.456	2205.27
462.829	2209.56
463.201	2252.05
463.574	2267.19
463.947	2256.34
464.32	2340.18
464.692	2339.95
465.065	2357.35
465.438	2398.03
465.81	2412.72
466.183	2483.9
466.555	2483.45
466.928	2506.05
467.3	2495.43
467.672	2560.06
468.045	2600.74
468.417	2604.8
468.789	2608.87
469.161	2673.73
469.534	2665.14
469.906	2725.71
470.278	2729.77
470.65	2751.92
471.022	2778.59
471.394	2839.15
471.766	2901.97
472.138	2931.12
472.51	2945.81
472.882	2986.04
473.253	3017
473.625	3109.42
473.997	3097.22
474.369	3142.87
474.74	3161.85
475.112	3209.08
475.484	3236.2
475.855	3311.23
476.227	3333.82
476.598	3372.47
476.97	3422.18
477.341	3491.56
477.713	3524.1
478.084	3506.93
478.455	3655.85
478.827	3610.2
479.198	3694.72
479.569	3784.21
479.94	3830.76
480.311	3823.3
480.682	3927.93
481.053	3994.37
481.424	4007.48
481.795	4079.34
482.166	4137.65
482.537	4181.26
482.908	4234.37
483.279	4224.2
483.65	4308.71
484.021	4391.42
484.391	4437.75
484.762	4462.38
485.133	4512.1
485.503	4547.13
485.874	4652.66
486.244	4655.37
486.615	4799.55
486.985	4815.37
487.356	4891.75
487.726	4868.02
488.097	4926.78
488.467	5008.36
488.837	5038.41
489.207	5098.07
489.578	5183.27
489.948	5171.74
490.318	5279.31
490.688	5280.44
491.058	5358.86
491.428	5436.37
491.798	5444.73
492.168	5538.06
492.538	5501.9
492.908	5611.5
493.278	5671.16
493.648	5646.31
494.017	5723.59
494.387	5805.4
494.757	5816.47
495.126	5854.21
495.496	5895.34
495.866	5918.62
496.235	6002.23
496.605	5975.79
496.974	6008.33
497.344	6058.05
497.713	6066.18
498.082	6062.57
498.452	6170.59
498.821	6151.6
499.19	6153.41
499.559	6197.03
499.928	6282.9
500.298	6300.53
500.667	6331.94
501.036	6331.94
501.405	6308.66
501.774	6371.03
502.143	6399.73
502.512	6427.3
502.88	6414.87
503.249	6491.03
503.618	6467.98
503.987	6504.59
504.356	6566.28
504.724	6570.58
505.093	6597.47
505.462	6574.87
505.83	6622.55
506.199	6636.56
506.567	6758.59
506.936	6693.96
507.304	6704.81
507.672	6724.92
508.041	6763.79
508.409	6805.37
508.777	6831.13
509.145	6856.44
509.514	6817.8
509.882	6876.78
510.25	6871.13
510.618	6935.54
510.986	6926.72
511.354	6994.07
511.722	6990
512.09	6984.8
512.458	6936.44
512.826	7072.71
513.193	7042.65
513.561	7087.62
513.929	7113.84
514.297	7141.63
514.664	7165.59
515.032	7158.58
515.4	7178.47
515.767	7228.41
516.135	7198.13
516.502	7158.81
516.869	7270.22
517.237	7192.93
517.604	7191.8
517.972	7211.46
518.339	7254.63
518.706	7237.45
519.073	7300.73
519.44	7262.99
519.808	7354.96
520.175	7351.8
520.542	7434.51
520.909	7410.33
521.276	7390.44
521.643	7481.06
522.009	7484
522.376	7484
522.743	7470.67
523.11	7545.01
523.477	7555.63
523.843	7530.55
524.21	7589.53
524.577	7571
524.943	7569.65
525.31	7629.31
525.676	7676.99
526.043	7581.17
526.409	7698.91
526.776	7649.42
527.142	7665.01
527.508	7775.29
527.874	7802.18
528.241	7768.74
528.607	7716.99
528.973	7762.18
529.339	7766.25
529.705	7866.36
530.071	7886.25
530.437	7921.5
530.803	7900.71
531.169	7860.94
531.535	7902.74
531.901	7906.81
532.267	7842.63
532.632	7854.16
532.998	7920.37
533.364	7932.8
533.73	7924.89
534.095	7947.94
534.461	7966.25
534.826	7883.08
535.192	7876.98
535.557	7940.94
535.923	7883.54
536.288	7899.58
536.653	7921.05
537.019	7916.3
537.384	7885.12
537.749	7900.94
538.114	7905.91
538.479	7947.49
538.845	7928.28
539.21	7843.31
539.575	7860.71
539.94	7874.27
540.305	7876.53
540.67	7889.19
541.034	7878.11
541.399	7834.95
541.764	7894.16
542.129	7940.03
542.494	7846.47
542.858	7901.84
543.223	7870.43
543.587	7849.64
543.952	7813.48
544.316	7839.69
544.681	7792.69
545.045	7839.02
545.41	7847.38
545.774	7854.38
546.138	7814.84
546.503	7803.09
546.867	7788.85
547.231	7816.42
547.595	7842.41
547.959	7847.15
548.324	7834.05
548.688	7771.45
549.052	7804.67
549.416	7836.53
549.779	7803.99
550.143	7779.58
550.507	7820.94
550.871	7788.62
551.235	7760.6
551.599	7832.92
551.962	7808.28
552.326	7715.86
552.689	7808.96
553.053	7764.44
553.417	7722.64
553.78	7832.24
554.143	7734.61
554.507	7832.01
554.87	7798.11
555.234	7808.28
555.597	7821.62
555.96	7847.83
556.323	7798.57
556.686	7771
557.05	7811.22
557.413	7823.2
557.776	7872.69
558.139	7869.3
558.502	7812.8
558.865	7841.95
559.228	7932.8
559.59	7878.34
559.953	7874.27
560.316	7894.83
560.679	7916.98
561.041	7918.79
561.404	7980.26
561.767	8010.31
562.129	8008.28
562.492	7983.87
562.854	7980.48
563.217	7915.17
563.579	7982.52
563.941	8082.85
564.304	8090.76
564.666	8098.67
565.028	8102.74
565.39	8042.4
565.753	8167.37
566.115	8086.69
566.477	8138.44
566.839	8165.11
567.201	8247.59
567.563	8264.99
567.925	8253.47
568.287	8231.1
568.648	8212.34
569.01	8261.15
569.372	8376.18
569.734	8364.65
570.095	8463.41
570.457	8434.48
570.819	8442.17
571.18	8398.78
571.542	8421.83
571.903	8473.58
572.265	8505.67
572.626	8486.91
572.987	8459.79
573.349	8547.47
573.71	8543.41
574.071	8511.54
574.432	8608.26
574.794	8603.06
575.155	8607.13
575.516	8648.26
575.877	8687.36
576.238	8646.23
576.599	8724.42
576.96	8740.91
577.32	8681.25
577.681	8760.35
578.042	8755.6
578.403	8769.84
578.763	8818.88
579.124	8805.55
579.485	8850.29
579.845	8875.37
580.206	8857.3
580.566	8886.45
580.927	8942.26
581.287	8929.61
581.648	8929.38
582.008	8970.74
582.368	8977.97
582.728	8988.14
583.089	9020.91
583.449	9051.64
583.809	8963.51
584.169	8973.9
584.529	9053.45
584.889	9118.53
585.249	9090.96
585.609	9077.4
585.969	9090.51
586.329	9107.91
586.688	9090.51
587.048	9114.92
587.408	9092.54
587.768	9135.03
588.127	9132.54
588.487	9168.93
588.846	9254.35
589.206	9169.83
589.565	9170.73
589.925	9240.79
590.284	9293.67
590.643	9298.19
591.003	9247.57
591.362	9303.16
591.721	9281.69
592.08	9320.79
592.44	9304.06
592.799	9346.1
593.158	9318.98
593.517	9315.81
593.876	9327.57
594.235	9360.78
594.593	9401.69
594.952	9351.97
595.311	9335.25
595.67	9368.47
596.029	9429.26
596.387	9428.81
596.746	9453.66
597.104	9366.21
597.463	9432.87
597.822	9432.87
598.18	9407.56
598.538	9393.1
598.897	9492.98
599.255	9413.89
599.613	9593.1
599.972	9544.96
600.33	9490.27
600.688	9458.86
601.046	9477.62
601.404	9595.13
601.762	9524.17
602.12	9546.54
602.478	9547.22
602.836	9561.68
603.194	9542.48
603.552	9520.33
603.91	9526.43
604.268	9552.19
604.625	9532.53
604.983	9557.39
605.341	9515.13
605.698	9575.69
606.056	9602.59
606.413	9604.17
606.771	9566.2
607.128	9590.16
607.485	9485.98
607.843	9596.48
608.2	9596.94
608.557	9652.53
608.914	9551.74
609.272	9689.59
609.629	9735.46
609.986	9692.08
610.343	9657.05
610.7	9716.26
611.057	9716.71
611.414	9700.66
611.771	9773.66
612.127	9805.97
612.484	9713.54
612.841	9766.65
613.198	9714.45
613.554	9778.85
613.911	9764.16
614.267	9795.8
614.624	9808.46
614.98	9811.39
615.337	9847.55
615.693	9866.31
616.05	9734.79
616.406	9854.78
616.762	9790.38
617.118	9786.76
617.475	9828.12
617.831	9848.46
618.187	9808.46
618.543	9936.59
618.899	9916.7
619.255	9858.4
619.611	9872.18
619.967	9860.21
620.323	9931.17
620.678	9862.92
621.034	9918.06
621.39	9894.56
621.746	9818.63
622.101	9982.92
622.457	9881
622.812	9912.63
623.168	9928
623.523	9986.08
623.879	10017.04
624.234	9867.66
624.589	9992.86
624.945	9888
625.3	9929.58
625.655	9936.59
626.01	9949.47
626.365	10014.1
626.72	9939.07
627.075	9907.21
627.43	9858.85
627.785	9893.43
628.14	9864.95
628.495	9847.1
628.85	9894.78
629.205	9812.07
629.559	9835.57
629.914	9764.84
630.269	9838.29
630.623	9796.71
630.978	9791.06
631.332	9854.33
631.687	9758.29
632.041	9782.47
632.396	9785.41
632.75	9763.49
633.104	9778.63
633.459	9784.28
633.813	9789.47
634.167	9713.54
634.521	9735.92
634.875	9646.88
635.229	9639.65
635.583	9688.23
635.937	9669.93
636.291	9687.78
636.645	9619.54
636.999	9626.31
637.352	9609.82
637.706	9585.41
638.06	9629.48
638.413	9600.55
638.767	9564.85
639.121	9575.02
639.474	9594.68
639.828	9557.62
640.181	9552.42
640.534	9557.39
640.888	9539.76
641.241	9503.15
641.594	9454.34
641.947	9436.04
642.301	9500.22
642.654	9440.78
643.007	9476.94
643.36	9494.11
643.713	9490.73
644.066	9496.83
644.419	9379.54
644.771	9352.2
645.124	9284.4
645.477	9214.8
645.83	9238.53
646.182	9204.86
646.535	9207.57
646.888	9197.63
647.24	9114.69
647.593	9171.19
647.945	9109.72
648.298	9146.55
648.65	9071.53
649.002	9105.2
649.355	9122.83
649.707	9098.19
650.059	9248.25
650.411	9227.68
650.763	9266.78
651.115	9400.11
651.467	9307.45
651.819	9261.13
652.171	9338.19
652.523	9290.28
652.875	9422.03
653.227	9207.57
653.578	9347.68
653.93	9331.18
654.282	9302.26
654.633	9181.81
654.985	9263.61
655.337	9313.78
655.688	9321.46
656.039	9287.11
656.391	9244.18
656.742	9266.1
657.094	9245.53
657.445	9294.12
657.796	9295.25
658.147	9246.21
658.498	9237.17
658.849	9331.18
659.2	9263.61
659.551	9220.22
659.902	9266.1
660.253	9203.27
660.604	9256.15
660.955	9301.8
661.306	9316.27
661.656	9272.88
662.007	9238.3
662.358	9264.29
662.708	9276.72
663.059	9285.31
663.409	9243.5
663.76	9289.15
664.11	9277.4
664.461	9313.33
664.811	9326.66
665.161	9336.38
665.511	9250.05
665.862	9261.8
666.212	9257.51
666.562	9317.85
666.912	9300.67
667.262	9309.26
667.612	9244.86
667.962	9256.38
668.312	9252.77
668.662	9281.01
669.011	9267.91
669.361	9219.09
669.711	9236.49
670.06	9240.34
670.41	9285.76
670.76	9243.05
671.109	9299.09
671.459	9196.27
671.808	9211.18
672.157	9263.61
672.507	9156.27
672.856	9175.93
673.205	9113.79
673.554	9132.99
673.904	9159.21
674.253	9258.87
674.602	9184.29
674.951	9007.35
675.3	8963.51
675.649	9118.31
675.998	9116.05
676.346	9161.69
676.695	9172.32
677.044	9062.94
677.393	9068.36
677.741	9099.77
678.09	9063.39
678.438	9029.95
678.787	9047.35
679.135	9048.25
679.484	9047.12
679.832	9090.96
680.181	8931.42
680.529	9005.77
680.877	8921.47
681.225	8986.56
681.573	8963.73
681.922	8946.56
682.27	8876.28
682.618	8854.36
682.966	8901.59
683.314	8875.6
683.661	8831.53
684.009	8797.18
684.357	8824.3
684.705	8730.75
685.053	8713.57
685.4	8718.99
685.748	8766.68
686.095	8714.7
686.443	8743.63
686.79	8680.12
687.138	8700.69
687.485	8666.11
687.832	8634.93
688.18	8547.7
688.527	8600.35
688.874	8582.73
689.221	8547.92
689.568	8502.05
689.915	8528.49
690.262	8552.9
690.609	8462.73
690.956	8473.58
691.303	8465.89
691.65	8364.43
691.997	8365.56
692.344	8292.56
692.69	8284.43
693.037	8287.14
693.383	8258.44
693.73	8293.24
694.077	8144.55
694.423	8158.1
694.769	8127.6
695.116	8177.54
695.462	8076.52
695.808	8052.34
696.155	8060.48
696.501	8050.08
696.847	7943.87
697.193	7927.15
697.539	7966.7
697.885	7942.29
698.231	7892.57
698.577	7885.57
698.923	7824.1
699.269	7849.41
699.614	7708.17
699.96	7731.9
700.306	7708.17
700.651	7698.91
700.997	7687.16
701.342	7659.13
701.688	7633.37
702.033	7574.84
702.379	7604.9
702.724	7541.4
703.069	7551.57
703.415	7492.81
703.76	7448.74
704.105	7498.24
704.45	7500.72
704.795	7397.67
705.14	7379.82
705.485	7381.18
705.83	7304.79
706.175	7367.62
706.52	7320.61
706.865	7277.68
707.209	7287.62
707.554	7276.09
707.899	7222.08
708.243	7182.76
708.588	7194.74
708.932	7142.09
709.277	7198.81
709.621	7171.01
709.966	7093.95
710.31	7053.05
710.654	7039.94
710.998	7011.24
711.342	7044.69
711.687	6972.83
712.031	7011.02
712.375	6936.22
712.719	6979.15
713.063	6935.09
713.407	6928.31
713.75	6933.05
714.094	6899.15
714.438	6818.7
714.782	6837.69
715.125	6823
715.469	6855.31
715.812	6797.01
716.156	6795.2
716.499	6761.31
716.843	6822.09
717.186	6741.19
717.53	6805.37
717.873	6754.3
718.216	6698.93
718.559	6726.96
718.902	6705.94
719.246	6729.89
719.589	6658.48
719.932	6722.44
720.275	6724.7
720.617	6679.05
720.96	6684.25
721.303	6672.27
721.646	6691.48
721.989	6610.12
722.331	6675.88
722.674	6710.46
723.016	6683.12
723.359	6613.06
723.701	6639.95
724.044	6546.17
724.386	6597.47
724.729	6577.58
725.071	6585.26
725.413	6589.11
725.755	6553.63
726.097	6564.02
726.439	6496.45
726.782	6495.32
727.124	6536
727.465	6522.44
727.807	6554.98
728.149	6481.76
728.491	6511.59
728.833	6502.78
729.175	6511.59
729.516	6463.01
729.858	6520.86
730.199	6539.84
730.541	6472.73
730.882	6517.7
731.224	6522.67
731.565	6416.46
731.906	6504.36
732.248	6478.83
732.589	6388.21
732.93	6486.28
733.271	6477.47
733.612	6467.98
733.953	6511.82
734.294	6482.89
734.635	6482.44
734.976	6476.79
735.317	6433.63
735.658	6485.15
735.999	6510.01
736.339	6456.91
736.68	6497.36
737.021	6432.95
737.361	6430.47
737.702	6521.09
738.042	6445.16
738.383	6425.49
738.723	6471.6
739.063	6489
739.404	6500.3
739.744	6469.79
740.084	6493.52
740.424	6536.68
740.764	6533.51
741.104	6485.38
741.444	6536.45
741.784	6536.68
742.124	6572.84
742.464	6512.05
742.804	6591.82
743.143	6548.43
743.483	6540.97
743.823	6606.06
744.162	6582.33
744.502	6631.82
744.841	6609.67
745.181	6650.8
745.52	6652.38
745.86	6723.34
746.199	6745.26
746.538	6743.68
746.877	6824.35
747.216	6765.82
747.556	6811.93
747.895	6818.03
748.234	6876.56
748.573	6891.92
748.911	6935.54
749.25	6987.29
749.589	7001.98
749.928	7069.09
750.267	7154.52
750.605	7175.76
750.944	7216.89
751.283	7269.99
751.621	7323.1
751.96	7314.96
752.298	7409.42
752.636	7509.53
752.975	7578.68
753.313	7636.99
753.651	7738.91
753.989	7809.41
754.327	7822.29
754.666	7876.53
755.004	8021.39
755.342	8121.72
755.679	8208.05
756.017	8256.41
756.355	8387.48
756.693	8463.41
757.031	8516.97
757.368	8624.53
757.706	8744.08
758.044	8825.66
758.381	8975.03
758.719	9082.83
759.056	9191.52
759.394	9364.17
759.731	9329.6
760.068	9516.71
760.405	9581.34
760.743	9740.44
761.08	9829.47
761.417	9968.23
761.754	10093.2
762.091	10214.1
762.428	10303.36
762.765	10388.55
763.102	10601.43
763.438	10626.51
763.775	10747.64
764.112	10928.43
764.449	11009.56
764.785	11045.26
765.122	11154.41
765.458	11287.29
765.795	11400.96
766.131	11517.56
766.467	11570.9
766.804	11776.77
767.14	11769.54
767.476	11974.05
767.812	12051.79
768.148	12137.89
768.485	12260.37
768.821	12250.43
769.157	12463.53
769.492	12547.82
769.828	12616.74
770.164	12566.58
770.5	12693.8
770.836	12751.2
771.171	12782.16
771.507	12851.31
771.842	12964.76
772.178	13014.93
772.513	13072.1
772.849	13172.66
773.184	13124.08
773.519	13305.54
773.855	13247.24
774.19	13331.75
774.525	13346.67
774.86	13450.85
775.195	13519.77
775.53	13477.96
775.865	13500.79
776.2	13421.24
776.535	13551.41
776.87	13598.64
777.205	13592.09
777.539	13574.23
777.874	13677.28
778.209	13597.06
778.543	13668.24
778.878	13564.97
779.212	13723.16
779.547	13609.03
779.881	13751.18
780.215	13745.98
780.55	13824.4
780.884	13703.27
781.218	13768.13
781.552	13865.53
781.886	13789.82
782.22	13761.12
782.554	13766.32
782.888	13650.84
783.222	13726.32
783.556	13643.84
783.889	13676.15
784.223	13705.08
784.557	13683.16
784.89	13650.39
785.224	13586.44
785.557	13607.23
785.891	13539.43
786.224	13609.71
786.558	13693.1
786.891	13463.05
787.224	13491.52
787.557	13549.6
787.891	13563.61
788.224	13496.04
788.557	13599.09
788.89	13539.43
789.223	13501.24
789.556	13515.25
789.888	13400.9
790.221	13469.6
790.554	13354.58
790.887	13341.02
791.219	13346.89
791.552	13391.19
791.884	13242.49
792.217	13234.81
792.549	13276.61
792.882	13129.95
793.214	13122.95
793.546	13136.05
793.879	13096.51
794.211	13075.72
794.543	13077.75
794.875	12962.05
795.207	13089.5
795.539	12995.72
795.871	13040.69
796.203	12887.92
796.535	12873.91
796.867	12827.81
797.198	12888.38
797.53	12870.98
797.862	12781.71
798.193	12788.04
798.525	12717.53
798.856	12724.54
799.188	12608.38
799.519	12644.54
799.85	12515.96
800.182	12613.81
800.513	12599.12
800.844	12526.58
801.175	12547.37
801.506	12503.3
801.837	12436.18
802.168	12388.95
802.499	12378.56
802.83	12332.91
803.161	12336.75
803.491	12264.44
803.822	12278.22
804.153	12260.37
804.483	12160.94
804.814	12140.82
805.145	12108.96
805.475	12117.55
805.805	12124.55
806.136	12081.17
806.466	11994.39
806.796	12087.04
807.126	11905.35
807.457	11954.39
807.787	11916.2
808.117	11889.08
808.447	11828.29
808.777	11953.03
809.107	11885.69
809.436	11779.25
809.766	11762.3
810.096	11716.88
810.426	11706.03
810.755	11692.48
811.085	11666.94
811.414	11657.45
811.744	11611.8
812.073	11616.32
812.403	11523.21
812.732	11575.64
813.061	11533.61
813.39	11413.16
813.719	11442.99
814.049	11471.69
814.378	11532.25
814.707	11407.28
815.036	11413.39
815.365	11332.48
815.693	11243
816.022	11378.36
816.351	11245.03
816.68	11212.04
817.008	11234.86
817.337	11219.72
817.665	11109.67
817.994	11145.6
818.322	11172.71
818.651	11164.58
818.979	11077.35
819.307	11166.16
819.636	11140.85
819.964	11054.07
820.292	11073.06
820.62	11063.34
820.948	10946.73
821.276	10974.98
821.604	11032.61
821.932	11024.7
822.259	11027.86
822.587	11011.14
822.915	10990.57
823.243	11052.49
823.57	10973.85
823.898	10989.67
824.225	10951.25
824.553	10979.95
824.88	11003.68
825.207	11047.97
825.535	11023.79
825.862	11057.92
826.189	10950.57
826.516	11052.94
826.843	11080.51
827.17	11075.99
827.497	11036.45
827.824	11099.95
828.151	11063.34
828.478	11064.02
828.805	11045.49
829.131	11084.13
829.458	11019.27
829.785	11037.58
830.111	11012.72
830.438	11104.47
830.764	11058.37
831.09	11116.9
831.417	11008.88
831.743	11004.58
832.069	11003
832.395	10945.6
832.722	11003
833.048	10975.88
833.374	11012.27
833.7	10877.58
834.026	10862.44
834.351	10913.29
834.677	10925.49
835.003	10918.94
835.329	10898.15
835.654	10855.21
835.98	10808.43
836.306	10851.59
836.631	10867.86
836.956	10807.98
837.282	10884.59
837.607	10785.38
837.932	10760.3
838.258	10830.58
838.583	10799.39
838.908	10831.71
839.233	10720.07
839.558	10707.87
839.883	10692.73
840.208	10627.42
840.533	10664.71
840.858	10643.01
841.182	10589.91
841.507	10621.99
841.832	10600.75
842.156	10589.45
842.481	10562.11
842.805	10559.4
843.13	10572.05
843.454	10491.83
843.778	10410.47
844.103	10424.49
844.427	10348.1
844.751	10357.37
845.075	10325.28
845.399	10343.81
845.723	10340.42
846.047	10350.82
846.371	10248.9
846.695	10226.75
847.019	10083.93
847.343	10079.18
847.666	10027.89
847.99	10033.54
848.313	10011.39
848.637	9900.88
848.96	9932.07
849.284	9911.05
849.607	9812.3
849.931	9824.95
850.254	9787.44
850.577	9727.33
850.9	9630.61
851.223	9611.63
851.546	9598.29
851.869	9549.25
852.192	9610.27
852.515	9532.08
852.838	9494.57
853.161	9488.69
853.483	9371.41
853.806	9362.14
854.129	9409.15
854.451	9292.54
854.774	9249.83
855.096	9306.1
855.419	9206.89
855.741	9247.12
856.063	9170.96
856.385	9141.36
856.708	9170.28
857.03	9036.5
857.352	9091.41
857.674	8992.66
857.996	9022.94
858.318	8947.46
858.64	8962.15
858.961	8975.03
859.283	8961.93
859.605	8887.13
859.926	8937.07
860.248	8882.83
860.57	8847.8
860.891	8882.38
861.212	8804.19
861.534	8758.77
861.855	8764.19
862.176	8742.72
862.498	8690.52
862.819	8736.85
863.14	8676.28
863.461	8707.47
863.782	8658.2
864.103	8679.22
864.424	8622.27
864.745	8681.71
865.065	8507.25
865.386	8527.81
865.707	8569.85
866.027	8546.12
866.348	8494.59
866.668	8541.15
866.989	8545.67
867.309	8449.4
867.63	8424.99
867.95	8451.66
868.27	8351.77
868.59	8402.84
868.91	8388.16
869.23	8367.14
869.55	8316.07
869.87	8426.12
870.19	8393.8
870.51	8366.91
870.83	8293.92
871.15	8266.12
871.469	8241.72
871.789	8307.03
872.109	8348.38
872.428	8202.62
872.748	8290.08
873.067	8237.42
873.386	8272
873.706	8227.26
874.025	8154.26
874.344	8218.89
874.663	8181.83
874.982	8177.31
875.301	8127.15
875.62	8115.39
875.939	8122.4
876.258	8154.71
876.577	8067.03
876.896	8071.1
877.214	8065.23
877.533	8073.59
877.852	8026.13
878.17	8033.36
878.489	7982.52
878.807	8062.51
879.125	8034.49
879.444	8022.06
879.762	8013.02
880.08	8007.6
880.398	8001.27
880.716	7940.03
881.034	7884.44
881.352	7892.35
881.67	7846.7
881.988	7863.2
882.306	7853.25
882.624	7867.72
882.941	7793.82
883.259	7769.64
883.577	7742.07
883.894	7770.32
884.212	7772.8
884.529	7694.39
884.846	7715.18
885.164	7753.6
885.481	7583.2
885.798	7670.43
886.115	7603.54
886.432	7663.65
886.75	7594.96
887.067	7629.31
887.383	7515.18
887.7	7558.35
888.017	7524.9
888.334	7563.09
888.651	7514.96
888.967	7478.12
889.284	7431.34
889.6	7416.88
889.917	7451.23
890.233	7365.13
890.55	7410.78
890.866	7417.11
891.182	7313.16
891.498	7296.66
891.815	7317.22
892.131	7218.47
892.447	7231.8
892.763	7257.11
893.079	7124.69
893.395	7183.89
893.71	7158.58
894.026	7131.92
894.342	7101.86
894.657	7063.22
894.973	7081.3
895.289	7070.45
895.604	7004.91
895.92	6968.08
896.235	6941.87
896.55	6975.54
896.865	6910.23
897.181	6888.99
897.496	6904.35
897.811	6853.73
898.126	6830.46
898.441	6769.21
898.756	6819.16
899.071	6738.03
899.386	6760.63
899.7	6684.47
900.015	6652.61
900.33	6649.22
900.644	6607.19
900.959	6634.75
901.273	6552.27
901.588	6543.46
901.902	6540.29
902.216	6535.55
902.531	6457.13
902.845	6440.64
903.159	6418.49
903.473	6457.13
903.787	6333.29
904.101	6340.07
904.415	6357.02
904.729	6363.12
905.042	6253.07
905.356	6287.65
905.67	6276.57
905.984	6306.4
906.297	6196.35
906.611	6213.98
906.924	6200.87
907.237	6205.61
907.551	6149.8
907.864	6107.09
908.177	6098.5
908.491	6058.95
908.804	6010.14
909.117	5999.74
909.43	5983.47
909.743	5927.65
910.056	5909.35
910.368	5857.83
910.681	5879.75
910.994	5891.05
911.307	5861.67
911.619	5787.77
911.932	5802.46
912.244	5778.05
912.557	5783.93
912.869	5751.16
913.181	5716.81
913.494	5669.13
913.806	5699.86
914.118	5639.3
914.43	5654.89
914.742	5632.07
915.054	5576.7
915.366	5541.9
915.678	5551.62
915.99	5486.99
916.302	5463.26
916.613	5390.72
916.925	5382.36
917.236	5385.07
917.548	5390.49
917.859	5314.34
918.171	5383.04
918.482	5356.82
918.794	5274.34
919.105	5275.24
919.416	5244.73
919.727	5244.28
920.038	5218.52
920.349	5189.37
920.66	5167.45
920.971	5100.11
921.282	5133.1
921.593	5079.09
921.903	5066.21
922.214	5065.53
922.525	5070.05
922.835	5008.36
923.146	4991.41
923.456	5011.75
923.767	4908.47
924.077	4983.72
924.387	4894.91
924.697	4904.4
925.008	4855.14
925.318	4849.27
925.628	4890.39
925.938	4832.54
926.248	4818.76
926.558	4843.84
926.867	4794.13
927.177	4774.69
927.487	4783.05
927.796	4710.29
928.106	4689.27
928.416	4697.86
928.725	4678.65
929.034	4641.81
929.344	4667.8
929.653	4628.48
929.962	4595.03
930.271	4563.85
930.581	4561.14
930.89	4538.54
931.199	4533.34
931.508	4500.57
931.817	4497.18
932.125	4466.68
932.434	4447.24
932.743	4394.36
933.051	4424.42
933.36	4326.57
933.669	4390.75
933.977	4308.26
934.286	4346.23
934.594	4366.57
934.902	4292.67
935.21	4297.42
935.519	4278.66
935.827	4265.55
936.135	4267.59
936.443	4206.34
936.751	4187.14
937.059	4212.67
937.367	4185.55
937.674	4171.54
937.982	4172.67
938.29	4135.84
938.597	4127.02
938.905	4084.54
939.213	4046.8
939.52	4033.02
939.827	4042.51
940.135	4039.12
940.442	3995.28
940.749	3976.29
941.056	3971.1
941.363	3925.9
941.67	3944.43
941.977	3897.2
942.284	3871.66
942.591	3882.74
942.898	3849.29
943.205	3871.89
943.511	3845.45
943.818	3826.92
944.125	3783.3
944.431	3800.71
944.738	3776.75
945.044	3742.63
945.35	3745.11
945.657	3723.19
945.963	3730.42
946.269	3704.66
946.575	3725
946.881	3632.8
947.187	3653.36
947.493	3677.77
947.799	3607.72
948.105	3595.96
948.41	3579.69
948.716	3546.25
949.022	3530.2
949.327	3557.1
949.633	3532.01
949.938	3556.19
950.244	3513.26
950.549	3496.08
950.854	3459.7
951.16	3449.3
951.465	3442.97
951.77	3410.88
952.075	3400.04
952.38	3416.99
952.685	3388.74
952.99	3365.46
953.294	3348.06
953.599	3325.01
953.904	3316.2
954.209	3290.89
954.513	3305.35
954.818	3288.4
955.122	3270.32
955.426	3250.44
955.731	3277.78
956.035	3237.33
956.339	3164.34
956.643	3196.43
956.948	3146.03
957.252	3155.3
957.556	3178.8
957.86	3171.57
958.163	3146.71
958.467	3140.61
958.771	3103.55
959.075	3104.68
959.378	3097.67
959.682	3053.15
959.985	3052.25
960.289	3051.57
960.592	3033.49
960.896	3025.58
961.199	3002.99
961.502	2992.59
961.805	3007.96
962.108	2994.4
962.411	2971.35
962.714	2965.25
963.017	2970.44
963.32	2922.76
963.623	2903.78
963.926	2883.44
964.228	2895.64
964.531	2891.8
964.833	2876.66
965.136	2886.38
965.438	2829.88
965.741	2836.89
966.043	2819.71
966.345	2812.26
966.648	2801.64
966.95	2750.11
967.252	2745.82
967.554	2748.76
967.856	2751.69
968.158	2709.21
968.46	2713.95
968.761	2714.86
969.063	2713.5
969.365	2655.88
969.666	2663.33
969.968	2657.68
970.269	2647.52
970.571	2670.79
970.872	2668.76
971.174	2594.86
971.475	2650.68
971.776	2580.85
972.077	2592.83
972.378	2625.82
972.679	2571.36
972.98	2562.09
973.281	2547.63
973.582	2558.48
973.883	2537.24
974.183	2489.78
974.484	2526.16
974.785	2475.77
975.085	2489.33
975.386	2470.57
975.686	2479.61
975.986	2414.07
976.287	2472.15
976.587	2438.93
976.887	2429.89
977.187	2427.63
977.487	2393.74
977.787	2414.53
978.087	2386.05
978.387	2363.45
978.687	2324.59
978.987	2365.49
979.286	2346.96
979.586	2340.63
979.885	2336.56
980.185	2301.99
980.484	2320.29
980.784	2297.24
981.083	2246.4
981.382	2278.71
981.682	2259.28
981.981	2251.14
982.28	2277.13
982.579	2241.42
982.878	2207.07
983.177	2224.48
983.475	2223.57
983.774	2181.76
984.073	2187.41
984.372	2173.4
984.67	2139.96
984.969	2150.81
985.267	2163.91
985.566	2127.98
985.864	2132.95
986.162	2111.71
986.461	2093.86
986.759	2109
987.057	2084.82
987.355	2064.48
987.653	2063.12
987.951	2024.25
988.249	2044.59
988.547	2061.09
988.844	2024.93
989.142	2027.19
989.44	2010.02
989.737	2004.59
990.035	2042.11
990.332	1992.62
990.63	1987.19
990.927	1960.08
991.224	1973.86
991.521	1953.75
991.819	1953.3
992.116	1928.21
992.413	1967.08
992.71	1922.34
993.006	1911.04
993.303	1906.29
993.6	1933.64
993.897	1899.96
994.193	1864.48
994.49	1843.92
994.787	1878.72
995.083	1847.31
995.379	1865.84
995.676	1845.05
995.972	1838.04
996.268	1820.42
996.565	1810.47
996.861	1809.8
997.157	1824.71
997.453	1808.89
997.749	1778.61
998.044	1775.22
998.34	1762.11
998.636	1770.25
998.932	1753.75
999.227	1695.45
999.523	1703.36
999.818	1710.82
1000.114	1694.32
1000.409	1680.53
1000.704	1690.03
1001	1668.78
1001.295	1670.82
1001.59	1669.91
1001.885	1616.36
1002.18	1653.87
1002.475	1632.17
1002.77	1633.53
1003.065	1601.89
1003.359	1604.6
1003.654	1599.63
1003.949	1591.05
1004.243	1570.03
1004.538	1557.6
1004.832	1589.69
1005.127	1568.9
1005.421	1545.85
1005.715	1535.45
1006.009	1557.37
1006.304	1523.02
1006.598	1545.4
1006.892	1534.1
1007.186	1507.66
1007.48	1493.42
1007.773	1481.67
1008.067	1495.23
1008.361	1469.24
1008.655	1473.53
1008.948	1446.42
1009.242	1458.85
1009.535	1421.33
1009.829	1429.02
1010.122	1421.33
1010.415	1407.32
1010.708	1417.49
1011.001	1407.32
1011.295	1439.86
1011.588	1374.55
1011.881	1347.66
1012.173	1376.59
1012.466	1387.66
1012.759	1386.76
1013.052	1364.84
1013.344	1375.01
1013.637	1326.87
1013.93	1333.65
1014.222	1344.5
1014.514	1292.3
1014.807	1306.31
1015.099	1295.23
1015.391	1322.35
1015.683	1275.35
1015.976	1272.86
1016.268	1256.59
1016.56	1260.43
1016.851	1257.72
1017.143	1234.9
1017.435	1242.81
1017.727	1210.72
1018.018	1202.58
1018.31	1235.57
1018.602	1203.94
1018.893	1208.46
1019.185	1196.93
1019.476	1210.26
1019.767	1176.37
1020.058	1160.77
1020.35	1162.81
1020.641	1172.07
1020.932	1155.35
1021.223	1127.33
1021.514	1171.85
1021.804	1126.43
1022.095	1138.63
1022.386	1121.91
1022.677	1124.62
1022.967	1110.38
1023.258	1101.12
1023.548	1085.97
1023.839	1077.39
1024.129	1081.91
1024.419	1031.51
1024.709	1054.79
1025	1033.09
1025.29	1052.08
1025.58	1069.93
1025.87	1048.46
1026.16	1024.05
1026.449	1034.9
1026.739	1001.46
1027.029	1017.95
1027.319	1013.21
1027.608	977.73
1027.898	1001.68
1028.187	986.09
1028.477	1007.33
1028.766	1004.85
1029.055	978.86
1029.344	971.85
1029.634	963.94
1029.923	951.51
1030.212	963.49
1030.501	957.84
1030.79	929.37
1031.078	957.62
1031.367	916.49
1031.656	936.15
1031.945	920.33
1032.233	921.01
1032.522	909.71
1032.81	905.41
1033.099	881.23
1033.387	906.77
1033.675	899.31
1033.963	880.1
1034.251	888.47
1034.54	860.9
1034.828	834.91
1035.116	862.7
1035.403	841.46
1035.691	867.45
1035.979	838.07
1036.267	835.36
1036.554	829.03
1036.842	831.29
1037.129	824.29
1037.417	821.12
1037.704	804.63
1037.992	800.78
1038.279	804.17
1038.566	795.36
1038.853	795.36
1039.14	795.36
