Data from hue_36_FLMS001491_00069.txt Node
Date: Tue Feb 07 17:30:09 GMT 2017
User: dcchb
Spectrometer: FLMS00149
Trigger mode: 0
Integration Time (sec): 2.000000E-2
Scans to average: 10
Electric dark correction enabled: true
Nonlinearity correction enabled: false
Boxcar width: 0
XAxis mode: Wavelengths
Number of Pixels in Spectrum: 2048
>>>>>Begin Spectral Data<<<<<
341.393	-17.2
341.776	-17.2
342.16	-17.2
342.543	-77.31
342.927	-62.4
343.31	-89.07
343.693	-72.12
344.077	-76.86
344.46	-66.47
344.843	-60.59
345.226	-21.95
345.61	-32.8
345.993	-12.23
346.376	-5
346.759	-2.74
347.142	11.27
347.525	45.17
347.908	63.25
348.291	85.17
348.674	117.26
349.057	117.71
349.44	136.69
349.823	146.86
350.206	151.15
350.588	193.64
350.971	209.91
351.354	246.74
351.737	228.89
352.119	262.56
352.502	265.95
352.884	284.48
353.267	287.87
353.65	299.17
354.032	314.99
354.414	315.22
354.797	312.73
355.179	309.12
355.562	312.05
355.944	329.23
356.326	340.98
356.709	333.07
357.091	335.78
357.473	330.81
357.855	322.9
358.238	346.18
358.62	341.88
359.002	326.97
359.384	333.52
359.766	342.11
360.148	347.76
360.53	343.47
360.912	334.43
361.294	331.04
361.676	311.15
362.057	310.92
362.439	319.06
362.821	326.74
363.203	301.21
363.584	321.55
363.966	317.03
364.348	321.32
364.729	291.04
365.111	327.65
365.493	319.96
365.874	319.96
366.256	303.24
366.637	316.57
367.019	321.77
367.4	312.51
367.781	313.86
368.163	319.96
368.544	324.71
368.925	336.91
369.306	331.94
369.688	306.63
370.069	310.47
370.45	314.31
370.831	314.54
371.212	319.06
371.593	326.74
371.974	304.6
372.355	308.21
372.736	315.44
373.117	305.05
373.498	321.32
373.879	320.19
374.26	314.77
374.641	310.25
375.021	324.93
375.402	309.34
375.783	327.19
376.163	339.62
376.544	321.09
376.925	321.09
377.305	333.75
377.686	329
378.066	319.29
378.447	306.86
378.827	320.19
379.208	323.58
379.588	337.36
379.968	311.83
380.349	315.67
380.729	331.94
381.109	307.99
381.489	323.35
381.87	330.13
382.25	348.44
382.63	339.4
383.01	342.11
383.39	346.18
383.77	336.91
384.15	342.11
384.53	337.59
384.91	315.67
385.29	344.82
385.67	331.94
386.049	341.66
386.429	365.84
386.809	363.35
387.189	352.96
387.568	357.93
387.948	356.12
388.328	327.65
388.707	371.49
389.087	351.83
389.466	359.28
389.846	353.18
390.225	364.93
390.605	343.01
390.984	350.25
391.363	372.84
391.743	381.66
392.122	366.97
392.501	371.26
392.881	360.41
393.26	373.07
393.639	380.3
394.018	383.24
394.397	363.35
394.776	374.65
395.155	375.56
395.534	375.78
395.913	388.21
396.292	373.97
396.671	368.1
397.05	386.18
397.429	374.65
397.808	369.45
398.186	376.91
398.565	401.09
398.944	373.07
399.323	405.84
399.701	379.17
400.08	381.88
400.458	379.85
400.837	393.63
401.215	418.27
401.594	365.61
401.972	392.05
402.351	400.41
402.729	408.55
403.107	381.43
403.486	406.51
403.864	430.24
404.242	416.46
404.62	411.71
404.999	405.61
405.377	389.11
405.755	413.52
406.133	419.17
406.511	422.56
406.889	426.63
407.267	400.64
407.645	427.76
408.023	418.94
408.401	437.02
408.779	442.45
409.156	416.46
409.534	429.79
409.912	440.64
410.29	438.83
410.667	426.63
411.045	442.67
411.422	465.95
411.8	439.28
412.178	442.22
412.555	439.28
412.933	473.18
413.31	459.17
413.687	445.16
414.065	466.17
414.442	450.81
414.819	459.85
415.197	473.41
415.574	475.67
415.951	472.73
416.328	469.79
416.705	455.55
417.082	470.92
417.46	481.77
417.837	468.89
418.214	490.58
418.591	484.48
418.967	491.03
419.344	486.29
419.721	485.61
420.098	500.98
420.475	481.54
420.852	489.68
421.228	505.95
421.605	476.34
421.982	503.24
422.358	529.68
422.735	530.13
423.111	535.1
423.488	521.77
423.864	520.86
424.241	521.54
424.617	518.15
424.994	521.99
425.37	526.74
425.746	527.87
426.123	540.52
426.499	544.59
426.875	551.6
427.251	538.49
427.627	551.82
428.003	565.83
428.379	570.13
428.756	574.87
429.132	568.77
429.507	566.06
429.883	583.46
430.259	561.99
430.635	611.93
431.011	576.91
431.387	594.31
431.763	587.98
432.138	590.69
432.514	629.79
432.89	622.1
433.265	604.7
433.641	624.59
434.016	620.97
434.392	632.05
434.767	604.7
435.143	637.24
435.518	669.33
435.894	664.59
436.269	638.15
436.644	651.48
437.02	648.32
437.395	657.58
437.77	672.27
438.145	679.95
438.52	687.19
438.895	665.72
439.271	685.6
439.646	672.5
440.021	697.13
440.395	701.42
440.77	708.65
441.145	695.55
441.52	723.79
441.895	714.08
442.27	717.69
442.645	724.92
443.019	716.11
443.394	717.92
443.769	723.57
444.143	727.64
444.518	739.61
444.892	737.58
445.267	755.88
445.641	766.28
446.016	758.6
446.39	754.98
446.764	770.12
447.139	761.99
447.513	768.31
447.887	778.26
448.262	779.16
448.636	783
449.01	801.53
449.384	799.95
449.758	785.49
450.132	795.66
450.506	810.12
450.88	806.73
451.254	817.13
451.628	821.19
452.002	804.24
452.376	837.92
452.75	866.16
453.123	849.44
453.497	842.89
453.871	867.07
454.244	874.98
454.618	879.72
454.992	907.52
455.365	879.5
455.739	915.2
456.112	901.87
456.486	912.72
456.859	917.46
457.232	938.7
457.606	951.13
457.979	930.12
458.352	948.42
458.725	964.47
459.099	958.82
459.472	983.45
459.845	1006.95
460.218	1028.19
460.591	1010.34
460.964	1011.47
461.337	1028.42
461.71	1077.23
462.083	1065.48
462.456	1049.44
462.829	1074.29
463.201	1072.94
463.574	1072.26
463.947	1095.54
464.32	1124.01
464.692	1130.34
465.065	1135.54
465.438	1154.74
465.81	1152.26
466.183	1175.31
466.555	1206.72
466.928	1227.06
467.3	1221.18
467.672	1232.48
468.045	1242.2
468.417	1285.81
468.789	1275.42
469.161	1298.69
469.534	1340.5
469.906	1347.51
470.278	1385.7
470.65	1404.23
471.022	1434.96
471.394	1450.78
471.766	1472.02
472.138	1496.66
472.51	1520.16
472.882	1556.54
473.253	1556.54
473.625	1619.14
473.997	1634.73
474.369	1649.42
474.74	1703.2
475.112	1725.58
475.484	1779.81
475.855	1793.14
476.227	1849.87
476.598	1887.61
476.97	1928.73
477.341	1957.21
477.713	2004.66
478.084	2056.87
478.455	2095.74
478.827	2130.31
479.198	2207.82
479.569	2267.26
479.94	2307.03
480.311	2324.43
480.682	2427.03
481.053	2486.01
481.424	2555.38
481.795	2601.26
482.166	2652.78
482.537	2748.37
482.908	2790.18
483.279	2888.71
483.65	2924.19
484.021	2994.02
484.391	3081.25
484.762	3136.61
485.133	3197.4
485.503	3331.41
485.874	3408.92
486.244	3457.96
486.615	3565.53
486.985	3635.36
487.356	3719.87
487.726	3816.82
488.097	3902.92
488.467	3970.71
488.837	4079.41
489.207	4187.21
489.578	4303.81
489.948	4367.77
490.318	4455.22
490.688	4560.98
491.058	4603.01
491.428	4714.2
491.798	4756.68
492.168	4962.33
492.538	5006.62
492.908	5080.74
493.278	5227.18
493.648	5267.63
494.017	5377.91
494.387	5428.53
494.757	5561.63
495.126	5669.2
495.496	5701.97
495.866	5760.95
496.235	5833.26
496.605	5984.22
496.974	6090.43
497.344	6177.66
497.713	6246.36
498.082	6339.92
498.452	6438.45
498.821	6461.5
499.19	6546.24
499.559	6582.62
499.928	6733.13
500.298	6782.84
500.667	6907.59
501.036	7009.73
501.405	6997.53
501.774	7117.07
502.143	7178.54
502.512	7180.35
502.88	7260.35
503.249	7362.49
503.618	7402.04
503.987	7499.66
504.356	7571.52
504.724	7625.08
505.093	7720.67
505.462	7807
505.83	7880.67
506.199	7932.64
506.567	8016.26
506.936	8042.47
507.304	8173.77
507.672	8243.14
508.041	8280.66
508.409	8359.53
508.777	8453.31
509.145	8458.28
509.514	8511.61
509.882	8610.37
510.25	8654.66
510.618	8683.13
510.986	8715.45
511.354	8769.23
511.722	8902.34
512.09	8966.52
512.458	8949.79
512.826	9070.47
513.193	9123.57
513.561	9183.69
513.929	9171.26
514.297	9357.69
514.664	9374.41
515.032	9409.22
515.4	9513.39
515.767	9484.69
516.135	9662.32
516.502	9621.19
516.869	9799.26
517.237	9786.16
517.604	9769.21
517.972	9888.07
518.339	9994.29
518.706	9986.15
519.073	9995.19
519.44	10082.87
519.808	10173.04
520.175	10182.3
520.542	10316.99
520.909	10410.77
521.276	10368.96
521.643	10476.98
522.009	10555.85
522.376	10577.55
522.743	10633.59
523.11	10743.64
523.477	10784.32
523.843	10865
524.21	11014.6
524.577	11032.45
524.943	11079.23
525.31	11157.87
525.676	11261.14
526.043	11364.19
526.409	11368.71
526.776	11489.16
527.142	11550.63
527.508	11558.76
527.874	11725.77
528.241	11651.42
528.607	11735.93
528.973	11864.29
529.339	11858.42
529.705	11986.78
530.071	12052.76
530.437	12125.75
530.803	12202.59
531.169	12254.56
531.535	12297.95
531.901	12332.53
532.267	12359.42
532.632	12458.18
532.998	12546.31
533.364	12591.51
533.73	12602.35
534.095	12704.72
534.461	12795.57
534.826	12765.74
535.192	12877.83
535.557	13010.25
535.923	13010.25
536.288	13023.58
536.653	13078.72
537.019	13056.8
537.384	13170.92
537.749	13224.26
538.114	13302.45
538.479	13302.67
538.845	13298.15
539.21	13361.88
539.575	13461.09
539.94	13516.9
540.305	13579.95
540.67	13504.7
541.034	13623.34
541.399	13701.31
541.764	13669.44
542.129	13790.8
542.494	13828.31
542.858	13888.42
543.223	14007.97
543.587	14033.73
543.952	14067.62
544.316	14044.35
544.681	14118.47
545.045	14177.9
545.41	14257.45
545.774	14246.6
546.138	14319.14
546.503	14420.84
546.867	14405.92
547.231	14474.17
547.595	14523.43
547.959	14671.45
548.324	14645.46
548.688	14692.92
549.052	14791.45
549.416	14841.62
549.779	14809.98
550.143	14892.24
550.507	15008.62
550.871	15017.43
551.235	15087.03
551.599	15163.87
551.962	15096.98
552.326	15086.58
552.689	15235.28
553.053	15238.67
553.417	15284.99
553.78	15497.87
554.143	15398.44
554.507	15597.3
554.87	15650.63
555.234	15729.5
555.597	15676.17
555.96	15625.78
556.323	15684.76
556.686	15831.19
557.05	15826.45
557.413	15957.74
557.776	15974.02
558.139	16040.45
558.502	16071.87
558.865	16182.82
559.228	16272.31
559.59	16364.29
559.953	16302.14
560.316	16439.54
560.679	16429.14
561.041	16610.16
561.404	16614.9
561.767	16720.66
562.129	16672.53
562.492	16854.44
562.854	16849.02
563.217	16869.58
563.579	16895.8
563.941	17024.38
564.304	17042.91
564.666	17201.1
565.028	17242.68
565.39	17253.53
565.753	17303.25
566.115	17496.01
566.477	17492.39
566.839	17522.9
567.201	17683.35
567.563	17646.74
567.925	17889.9
568.287	17866.85
568.648	17855.77
569.01	18005.83
569.372	18130.34
569.734	18034.07
570.095	18143.45
570.457	18211.24
570.819	18301.19
571.18	18446.27
571.542	18408.08
571.903	18453.05
572.265	18648.52
572.626	18628.18
572.987	18807.84
573.349	18770.33
573.71	18966.03
574.071	18924.67
574.432	19078.79
574.794	19248.05
575.155	19283.98
575.516	19274.49
575.877	19423.42
576.238	19592.9
576.599	19684.43
576.96	19768.94
577.32	19836.51
577.681	20072.66
578.042	20070.86
578.403	20195.82
578.763	20241.93
579.124	20372.09
579.485	20662.48
579.845	20692.99
580.206	20790.84
580.566	20952.87
580.927	21119.64
581.287	21279.86
581.648	21330.03
582.008	21632.4
582.368	21769.79
582.728	21867.19
583.089	22010.01
583.449	22291.59
583.809	22374.75
584.169	22611.81
584.529	22704.69
584.889	23050.67
585.249	23134.96
585.609	23361.84
585.969	23565.23
586.329	23722.06
586.688	24027.36
587.048	24186.91
587.408	24264.19
587.768	24496.73
588.127	24830.96
588.487	24882.48
588.846	25339.64
589.206	25267.33
589.565	25578.51
589.925	26013.75
590.284	25960.65
590.643	26304.36
591.003	26576.45
591.362	26881.07
591.721	27000.62
592.08	27262.08
592.44	27623.88
592.799	27703.2
593.158	27951.33
593.517	28087.14
593.876	28407.36
594.235	28420.69
594.593	28784.3
594.952	29047.8
595.311	29104.74
595.67	29395.36
596.029	29813.2
596.387	29979.07
596.746	30227.65
597.104	30322.79
597.463	30532.73
597.822	30966.39
598.18	30944.92
598.538	31157.34
598.897	31544.23
599.255	31403.89
599.613	32103.99
599.972	31976.31
600.33	32381.49
600.688	32368.39
601.046	32663.29
601.404	32956.62
601.762	33008.14
602.12	33341.47
602.478	33475.7
602.836	33592.99
603.194	33634.79
603.552	33906.2
603.91	33944.39
604.268	34247.21
604.625	34344.83
604.983	34567.2
605.341	34584.15
605.698	34867.3
606.056	35174.19
606.413	35129.67
606.771	35329.21
607.128	35568.75
607.485	35578.25
607.843	35719.03
608.2	36012.36
608.557	36115.41
608.914	36215.29
609.272	36579.35
609.629	36709.06
609.986	36899.34
610.343	36727.14
610.7	37224.08
611.057	37215.94
611.414	37357.63
611.771	37424.98
612.127	37759.66
612.484	37676.27
612.841	38022.7
613.198	37863.83
613.554	37997.84
613.911	38364.39
614.267	38241
614.624	38603.02
614.98	38560.99
615.337	38791.27
615.693	38779.97
616.05	38787.65
616.406	38974.31
616.762	39152.61
617.118	39079.17
617.475	39353.51
617.831	39334.53
618.187	39587.86
618.543	39586.73
618.899	39863.33
619.255	39796.67
619.611	39755.31
619.967	39981.97
620.323	40094.96
620.678	40091.57
621.034	40136.77
621.39	40285.92
621.746	40106.26
622.101	40667.38
622.457	40376.99
622.812	40662.18
623.168	40650.2
623.523	40758.67
623.879	40873.02
624.234	40652.24
624.589	40904.66
624.945	41013.36
625.3	41080.25
625.655	40920.48
626.01	41058.78
626.365	41135.39
626.72	41055.39
627.075	41105.11
627.43	41116.4
627.785	41085.45
628.14	41138.55
628.495	41219.9
628.85	41197.08
629.205	41196.63
629.559	41335.83
629.914	41223.07
630.269	41260.81
630.623	41259.68
630.978	41269.62
631.332	41393.69
631.687	41476.85
632.041	41326.34
632.396	41387.13
632.75	41247.7
633.104	41504.19
633.459	41075.73
633.813	41210.19
634.167	41167.02
634.521	41117.99
634.875	41334.03
635.229	41247.47
635.583	41143.3
635.937	41141.26
636.291	41084.77
636.645	41106.46
636.999	41004.54
637.352	41286.12
637.706	41024.88
638.06	41136.74
638.413	41036.63
638.767	40959.12
639.121	41024.66
639.474	40927.71
639.828	40908.27
640.181	41094.94
640.534	40964.54
640.888	40776.3
641.241	40645
641.594	40842.06
641.947	40860.59
642.301	40851.78
642.654	40953.25
643.007	40917.09
643.36	40878.67
643.713	40880.7
644.066	41017.42
644.419	40701.73
644.771	40472.13
645.124	40034.17
645.477	40084.34
645.83	39906.27
646.182	39699.94
646.535	39626.05
646.888	39755.54
647.24	39496.56
647.593	39760.28
647.945	39669.89
648.298	39420.4
648.65	39436
649.002	39283.01
649.355	39452.27
649.707	39521.19
650.059	39589.89
650.411	39995.53
650.763	39989.2
651.115	40341.06
651.467	40362.3
651.819	40402.3
652.171	40093.38
652.523	40137.9
652.875	40125.92
653.227	39983.78
653.578	40252.7
653.93	40171.57
654.282	40145.58
654.633	39881.86
654.985	39953.5
655.337	40028.52
655.688	40046.83
656.039	40245.69
656.391	39755.31
656.742	39831.01
657.094	39910.33
657.445	40058.58
657.796	39912.82
658.147	39795.31
658.498	39965.02
658.849	40009.99
659.2	39952.37
659.551	39740.62
659.902	39804.8
660.253	39715.09
660.604	39781.52
660.955	39546.05
661.306	39908.75
661.656	39725.71
662.007	39716.67
662.358	39821.3
662.708	39734.07
663.059	39804.8
663.409	39679.15
663.76	39857.45
664.11	39708.76
664.461	39739.94
664.811	39840.96
665.161	39763.67
665.511	39728.42
665.862	39675.31
666.212	39764.58
666.562	39687.29
666.912	39739.04
667.262	39662.21
667.612	39600.06
667.962	39671.92
668.312	39645.48
668.662	39804.57
669.011	39605.26
669.361	39706.5
669.711	39717.8
670.06	39529.78
670.41	39496.79
670.76	39370.91
671.109	39636.44
671.459	39516.9
671.808	39541.98
672.157	39716.44
672.507	39338.6
672.856	39343.57
673.205	39439.39
673.554	39422.21
673.904	39372.27
674.253	39636.67
674.602	39450.46
674.951	38840.08
675.3	38731.38
675.649	39339.05
675.998	39266.51
676.346	39257.24
676.695	39450.69
677.044	39093.41
677.393	39188.32
677.741	39203.69
678.09	39081.66
678.438	39122.11
678.787	39129.11
679.135	39228.32
679.484	38982
679.832	39043.69
680.181	38794.88
680.529	38942
680.877	38874.2
681.225	38852.96
681.573	39008.66
681.922	38701.78
682.27	38661.55
682.618	38689.58
682.966	38480.09
683.314	38675.56
683.661	38390.83
684.009	38366.87
684.357	38206.2
684.705	38239.64
685.053	38389.02
685.4	38269.25
685.748	38085.98
686.095	37972.76
686.443	37967.11
686.79	37830.84
687.138	37848.69
687.485	38011.85
687.832	37845.98
688.18	37716.95
688.527	37520.57
688.874	37599.44
689.221	37532.54
689.568	37339.1
689.915	37339.1
690.262	37445.99
690.609	37374.36
690.956	37194.7
691.303	37171.2
691.65	36916.52
691.997	36920.58
692.344	36755.16
692.69	36865.67
693.037	36634.49
693.383	36491.44
693.73	36446.25
694.077	36252.13
694.423	36286.93
694.769	36082.64
695.116	36142.98
695.462	36164.9
695.808	36006.71
696.155	36091.9
696.501	35735.53
696.847	35753.83
697.193	35553.84
697.539	35783.21
697.885	35387.06
698.231	35406.27
698.577	35333.73
698.923	35253.51
699.269	35109.33
699.614	34940.97
699.96	34988.43
700.306	35026.4
700.651	34809.23
700.997	34655.33
701.342	34634.77
701.688	34625.28
702.033	34487.65
702.379	34436.13
702.724	34329.46
703.069	34422.34
703.415	33980.77
703.76	34073.43
704.105	34085.63
704.45	33955.24
704.795	33731.97
705.14	33741.91
705.485	33713.89
705.83	33614.46
706.175	33539.43
706.52	33458.98
706.865	33434.35
707.209	33296.95
707.554	33217.18
707.899	33264.63
708.243	33021.93
708.588	33028.03
708.932	32831.2
709.277	32891.08
709.621	32791.2
709.966	32584.43
710.31	32748.04
710.654	32283.87
710.998	32466.01
711.342	32500.81
711.687	32322.96
712.031	32228.73
712.375	32164.1
712.719	32225.11
713.063	32190.54
713.407	32137.66
713.75	31972.69
714.094	31951.9
714.438	31877.55
714.782	31862.64
715.125	31687.5
715.469	31746.03
715.812	31603.66
716.156	31353.27
716.499	31523.44
716.843	31447.73
717.186	31354.85
717.53	31429.43
717.873	31399.82
718.216	31266.95
718.559	31102.66
718.902	30944.47
719.246	30896.33
719.589	30942.66
719.932	30785.83
720.275	30753.06
720.617	30942.43
720.96	30671.26
721.303	30664.02
721.646	30742.89
721.989	30571.37
722.331	30616.12
722.674	30505.61
723.016	30553.52
723.359	30520.07
723.701	30524.82
724.044	30329.12
724.386	30151.27
724.729	30222.91
725.071	30270.14
725.413	30190.14
725.755	30174.55
726.097	30038.28
726.439	29907.89
726.782	29907.21
727.124	30045.96
727.465	29876.93
727.807	29939.3
728.149	29766.87
728.491	29725.74
728.833	29665.86
729.175	29651.17
729.516	29587.67
729.858	29531.17
730.199	29559.19
730.541	29392.65
730.882	29422.47
731.224	29438.75
731.565	29358.3
731.906	29231.07
732.248	29314.23
732.589	29108.81
732.93	29071.52
733.271	29093.22
733.612	29111.3
733.953	29219.99
734.294	28861.13
734.635	28810.29
734.976	29017.97
735.317	28835.6
735.658	28739.56
735.999	28805.09
736.339	28776.84
736.68	28785.43
737.021	28774.36
737.361	28540.46
737.702	28613.46
738.042	28646.9
738.383	28580.01
738.723	28651.87
739.063	28460.92
739.404	28538.43
739.744	28385.21
740.084	28286.46
740.424	28361.03
740.764	28201.04
741.104	28334.59
741.444	28197.2
741.784	28171.89
742.124	28165.33
742.464	28055.51
742.804	28015.05
743.143	27937.77
743.483	28063.64
743.823	27786.13
744.162	27763.76
744.502	27810.99
744.841	27764.89
745.181	27840.14
745.52	27688.06
745.86	27770.99
746.199	27580.49
746.538	27620.04
746.877	27653.71
747.216	27628.4
747.556	27500.04
747.895	27510.66
748.234	27353.83
748.573	27321.29
748.911	27323.55
749.25	27329.42
749.589	27184.34
749.928	27080.84
750.267	27192.7
750.605	27107.06
750.944	27054.85
751.283	26917.23
751.621	27036.32
751.96	26753.39
752.298	26869.1
752.636	26852.83
752.975	26696.44
753.313	26697.12
753.651	26851.24
753.989	26531.7
754.327	26539.84
754.666	26454.19
755.004	26491.03
755.342	26507.3
755.679	26388.43
756.017	26217.14
756.355	26279.73
756.693	26254.42
757.031	26262.11
757.368	26074.09
757.706	26039.51
758.044	25924.49
758.381	25948.22
758.719	25910.25
759.056	25765.17
759.394	25787.54
759.731	25653.53
760.068	25550.26
760.405	25477.95
760.743	25388.68
761.08	25447.44
761.417	25373.77
761.754	25347.33
762.091	25176.26
762.428	25099.65
762.765	25037.28
763.102	24985.53
763.438	24932.88
763.775	24818.3
764.112	24838.19
764.449	24846.78
764.785	24713.22
765.122	24524.98
765.458	24459.67
765.795	24453.57
766.131	24367.92
766.467	24241.14
766.804	24280.46
767.14	24087.25
767.476	23993.47
767.812	23969.29
768.148	24070.98
768.485	23858.33
768.821	23560.48
769.157	23566.81
769.492	23630.31
769.828	23514.83
770.164	23369.07
770.5	23255.18
770.836	23327.49
771.171	23206.14
771.507	23109.19
771.842	22972.48
772.178	23030.78
772.513	22822.2
772.849	22863.55
773.184	22706.27
773.519	22811.12
773.855	22575.65
774.19	22502.2
774.525	22415.88
774.86	22427.18
775.195	22276.45
775.53	22234.19
775.865	22093.63
776.2	21989.9
776.535	21832.17
776.87	21853.41
777.205	21823.8
777.539	21600.31
777.874	21739.74
778.209	21501.33
778.543	21369.81
778.878	21370.48
779.212	21445.74
779.547	21222.69
779.881	21298.17
780.215	21053.2
780.55	21094.78
780.884	20996.03
781.218	20810.5
781.552	20926.88
781.886	20798.07
782.22	20624.06
782.554	20498.42
782.888	20434.01
783.222	20375.71
783.556	20245.09
783.889	20265.65
784.223	20128.26
784.557	20096.62
784.89	20092.78
785.224	19969.62
785.557	19866.57
785.891	19785.44
786.224	19808.94
786.558	19832.9
786.891	19503.19
787.224	19509.74
787.557	19500.48
787.891	19351.1
788.224	19411.89
788.557	19358.33
788.89	19250.54
789.223	19203.76
789.556	19078.79
789.888	18951.11
790.221	18955.41
790.554	18761.51
790.887	18810.78
791.219	18783.66
791.552	18672.02
791.884	18600.61
792.217	18544.12
792.549	18455.31
792.882	18288.53
793.214	18299.83
793.546	18379.15
793.879	18244.92
794.211	18101.19
794.543	18215.31
794.875	18067.75
795.207	18204.24
795.539	17983.68
795.871	17933.06
796.203	17811.48
796.535	17756.34
796.867	17653.29
797.198	17660.98
797.53	17659.62
797.862	17493.52
798.193	17602.22
798.525	17403.13
798.856	17380.08
799.188	17231.38
799.519	17212.4
799.85	17129.01
800.182	17160.2
800.513	17090.14
800.844	16945.06
801.175	17105.96
801.506	17054.89
801.837	16978.06
802.168	16924.05
802.499	16853.99
802.83	16669.82
803.161	16711.62
803.491	16644.28
803.822	16663.26
804.153	16590.5
804.483	16392.54
804.814	16345.98
805.145	16418.98
805.475	16298.07
805.805	16190.28
806.136	16335.59
806.466	16257.62
806.796	16263.27
807.126	16089.94
807.457	16025.31
807.787	15986.9
808.117	15933.79
808.447	15921.14
808.777	15859.67
809.107	15808.14
809.436	15740.57
809.766	15806.56
810.096	15678.88
810.426	15666.23
810.755	15694.25
811.085	15559.79
811.414	15522.5
811.744	15460.58
812.073	15395.95
812.403	15369.51
812.732	15329.96
813.061	15331.09
813.39	15201.38
813.719	15299.46
814.049	15244.32
814.378	15155.73
814.707	15120.7
815.036	15123.19
815.365	15010.65
815.693	14944.21
816.022	14989.41
816.351	14913.7
816.68	14838.9
817.008	14821.73
817.337	14742.86
817.665	14663.54
817.994	14679.36
818.322	14643.65
818.651	14580.61
818.979	14586.03
819.307	14518.01
819.636	14508.52
819.964	14417.45
820.292	14553.71
820.62	14468.52
820.948	14529.76
821.276	14513.71
821.604	14390.78
821.932	14442.53
822.259	14448.63
822.587	14409.76
822.915	14507.61
823.243	14330.22
823.57	14360.72
823.898	14340.16
824.225	14283.21
824.553	14236.66
824.88	14349.2
825.207	14341.52
825.535	14338.13
825.862	14303.32
826.189	14287.51
826.516	14384.45
826.843	14396.43
827.17	14426.49
827.497	14337.45
827.824	14386.03
828.151	14359.37
828.478	14343.1
828.805	14421.51
829.131	14352.36
829.458	14342.87
829.785	14238.02
830.111	14278.24
830.438	14322.08
830.764	14295.19
831.09	14293.38
831.417	14236.21
831.743	14261.74
832.069	14375.86
832.395	14297.22
832.722	14285.25
833.048	14183.55
833.374	14198.92
833.7	14169.99
834.026	14069.88
834.351	14225.59
834.677	14259.26
835.003	14153.95
835.329	14167.73
835.654	14138.36
835.98	14070.11
836.306	14144.68
836.631	14045.25
836.956	14094.29
837.282	14082.09
837.607	13948.76
837.932	13958.93
838.258	13953.5
838.583	13907.63
838.908	13899.49
839.233	13871.7
839.558	13832.6
839.883	13859.27
840.208	13807.52
840.533	13741.08
840.858	13702.89
841.182	13720.74
841.507	13669.44
841.832	13661.99
842.156	13613.4
842.481	13535.21
842.805	13630.35
843.13	13643.45
843.454	13537.02
843.778	13409.11
844.103	13507.41
844.427	13465.83
844.751	13448.66
845.075	13399.39
845.399	13346.06
845.723	13223.35
846.047	13280.98
846.371	13167.76
846.695	13145.61
847.019	13067.42
847.343	13039.85
847.666	12890.03
847.99	12917.37
848.313	12822.01
848.637	12869.24
848.96	12801.44
849.284	12738.62
849.607	12640.32
849.931	12577.04
850.254	12522.58
850.577	12458.63
850.9	12437.16
851.223	12292.76
851.546	12305.18
851.869	12280.33
852.192	12337.05
852.515	12190.16
852.838	12108.58
853.161	12174.34
853.483	12085.53
853.806	12010.28
854.129	11974.35
854.451	11940.67
854.774	11823.84
855.096	11912.2
855.419	11868.36
855.741	11777.97
856.063	11628.14
856.385	11722.15
856.708	11632.66
857.03	11609.16
857.352	11591.76
857.674	11547.46
857.996	11518.31
858.318	11455.04
858.64	11507.92
858.961	11424.98
859.283	11376.62
859.605	11415.72
859.926	11288.49
860.248	11325.55
860.57	11214.14
860.891	11273.35
861.212	11202.84
861.534	11176.18
861.855	11156.29
862.176	11169.85
862.498	11129.85
862.819	11134.14
863.14	11087.14
863.461	11087.14
863.782	11003.52
864.103	11022.73
864.424	10980.93
864.745	11006.69
865.065	10936.41
865.386	10913.13
865.707	10944.77
866.027	10940.25
866.348	10918.1
866.668	10868.61
866.989	10861.83
867.309	10790.42
867.63	10781.38
867.95	10792.46
868.27	10712.91
868.59	10768.73
868.91	10675.62
869.23	10704.55
869.55	10630.2
869.87	10668.39
870.19	10659.35
870.51	10686.24
870.83	10701.84
871.15	10541.62
871.469	10569.86
871.789	10558.11
872.109	10592.01
872.428	10537.32
872.748	10514.27
873.067	10484.22
873.386	10445.57
873.706	10536.64
874.025	10424.56
874.344	10331.9
874.663	10396.31
874.982	10382.52
875.301	10351.79
875.62	10358.8
875.939	10307.05
876.258	10356.31
876.577	10278.57
876.896	10310.44
877.214	10266.14
877.533	10196.54
877.852	10196.99
878.17	10259.59
878.489	10162.42
878.807	10198.8
879.125	10148.86
879.444	10151.34
879.762	10058.69
880.08	10125.36
880.398	10081.29
880.716	10086.94
881.034	10092.59
881.352	10025.02
881.67	9972.59
881.988	10030.22
882.306	9959.26
882.624	9952.03
882.941	9905.02
883.259	9872.93
883.577	9851.92
883.894	9884.91
884.212	9833.39
884.529	9748.42
884.846	9714.74
885.164	9791.8
885.481	9747.96
885.798	9758.13
886.115	9655.99
886.432	9674.75
886.75	9649.21
887.067	9673.16
887.383	9579.61
887.7	9597.01
888.017	9548.2
888.334	9535.99
888.651	9456.22
888.967	9583.67
889.284	9430.23
889.6	9449.21
889.917	9343.68
890.233	9415.54
890.55	9304.59
890.866	9346.17
891.182	9325.38
891.498	9244.25
891.815	9266.17
892.131	9183.23
892.447	9208.09
892.763	9170.13
893.079	9152.73
893.395	9091.03
893.71	9018.72
894.026	9065.27
894.342	9007.64
894.657	8979.17
894.973	8987.76
895.289	9038.38
895.604	8933.07
895.92	8908.21
896.235	8841.55
896.55	8810.59
896.865	8861.43
897.181	8811.49
897.496	8808.1
897.811	8695.34
898.126	8729.23
898.441	8577.83
898.756	8606.98
899.071	8644.26
899.386	8582.12
899.7	8445.4
900.015	8491.95
900.33	8446.53
900.644	8466.42
900.959	8411.05
901.273	8357.27
901.588	8330.6
901.902	8214.9
902.216	8221
902.531	8271.62
902.845	8278.4
903.159	8176.93
903.473	8105.75
903.787	8091.06
904.101	8039.99
904.415	8079.76
904.729	8074.34
905.042	8037.05
905.356	7980.78
905.67	7994.34
905.984	7962.93
906.297	7930.61
906.611	7860.1
906.924	7888.35
907.237	7764.51
907.551	7777.39
907.864	7746.43
908.177	7781.01
908.491	7761.12
908.804	7647
909.117	7608.81
909.43	7597.96
909.743	7510.73
910.056	7536.95
910.368	7458.98
910.681	7387.8
910.994	7470.74
911.307	7384.18
911.619	7377.63
911.932	7363.85
912.244	7270.52
912.557	7348.71
912.869	7254.7
913.181	7255.15
913.494	7188.26
913.806	7153
914.118	7181.7
914.43	7128.15
914.742	7101.48
915.054	7041.14
915.366	7069.39
915.678	6972.67
915.99	7004.31
916.302	6939.68
916.613	6901.03
916.925	6874.59
917.236	6901.49
917.548	6818.1
917.859	6835.5
918.171	6746.91
918.482	6710.3
918.794	6728.83
919.105	6660.59
919.416	6636.86
919.727	6650.64
920.038	6615.17
920.349	6572.23
920.66	6542.85
920.971	6531.33
921.282	6481.84
921.593	6433.02
921.903	6432.12
922.214	6334.04
922.525	6400.03
922.835	6309.86
923.146	6339.47
923.456	6289.98
923.767	6224.21
924.077	6225.34
924.387	6203.65
924.697	6186.48
925.008	6212.46
925.318	6123.2
925.628	6118
925.938	6096.76
926.248	6056.31
926.558	6013.15
926.867	6005.69
927.177	5980.61
927.487	6008.85
927.796	5898.57
928.106	5956.2
928.416	5915.97
928.725	5888.63
929.034	5798.46
929.344	5841.4
929.653	5809.54
929.962	5821.06
930.271	5729.54
930.581	5734.96
930.89	5687.05
931.199	5677.79
931.508	5683.44
931.817	5668.07
932.125	5632.59
932.434	5563.67
932.743	5543.1
933.051	5516.44
933.36	5468.98
933.669	5496.78
933.977	5471.92
934.286	5472.37
934.594	5447.74
934.902	5341.07
935.21	5362.54
935.519	5347.85
935.827	5257.01
936.135	5337.46
936.443	5275.99
936.751	5242.55
937.059	5257.69
937.367	5221.76
937.674	5191.7
937.982	5158.25
938.29	5135.43
938.597	5119.61
938.905	5073.51
939.213	5054.53
939.52	5035.77
939.827	5019.73
940.135	4984.7
940.442	4992.38
940.749	4979.73
941.056	4959.39
941.363	4904.7
941.67	4896.57
941.977	4885.94
942.284	4887.3
942.591	4829.45
942.898	4826.51
943.205	4803.69
943.511	4781.09
943.818	4762.33
944.125	4700.19
944.431	4690.92
944.738	4714.2
945.044	4689.34
945.35	4654.76
945.657	4629.45
945.963	4612.05
946.269	4581.09
946.575	4573.64
946.881	4538.16
947.187	4573.18
947.493	4490.7
947.799	4504.49
948.105	4487.31
948.41	4460.65
948.716	4485.28
949.022	4439.18
949.327	4436.01
949.633	4413.42
949.938	4377.03
950.244	4319.18
950.549	4291.16
950.854	4267.66
951.16	4304.94
951.465	4231.27
951.77	4275.34
952.075	4209.35
952.38	4193.76
952.685	4152.86
952.99	4167.77
953.294	4166.19
953.599	4111.05
953.904	4073.54
954.209	4105.63
954.513	4095.23
954.818	4057.04
955.122	4048.23
955.426	4030.15
955.731	4031.05
956.035	3979.98
956.339	3996.48
956.643	3992.18
956.948	3945.63
957.252	3951.96
957.556	3925.52
957.86	3879.19
958.163	3869.7
958.467	3879.87
958.771	3866.08
959.075	3874.9
959.378	3784.96
959.682	3794.45
959.985	3772.75
960.289	3787.89
960.592	3754.45
960.896	3707.67
961.199	3711.74
961.502	3711.96
961.805	3680.55
962.108	3669.25
962.411	3667.22
962.714	3615.02
963.017	3606.66
963.32	3615.02
963.623	3543.61
963.926	3592.65
964.228	3510.84
964.531	3562.14
964.833	3538.64
965.136	3515.59
965.438	3494.34
965.741	3425.42
966.043	3495.7
966.345	3439.43
966.648	3436.04
966.95	3408.24
967.252	3399.2
967.554	3377.28
967.856	3358.98
968.158	3323.05
968.46	3351.07
968.761	3342.48
969.063	3341.13
969.365	3333.44
969.666	3299.77
969.968	3241.47
970.269	3247.12
970.571	3229.04
970.872	3240.56
971.174	3210.06
971.475	3226.55
971.776	3192.2
972.077	3164.41
972.378	3188.14
972.679	3127.8
972.98	3127.12
973.281	3114.47
973.582	3100.46
973.883	3125.99
974.183	3080.79
974.484	3045.54
974.785	3044.41
975.085	3052.32
975.386	3064.75
975.686	3005.77
975.986	2988.59
976.287	2990.18
976.587	2982.94
976.887	2986.79
977.187	2970.74
977.487	2956.05
977.787	2921.25
978.087	2907.92
978.387	2891.87
978.687	2882.83
978.987	2850.29
979.286	2874.47
979.586	2841.93
979.885	2860.69
980.185	2852.33
980.484	2775.04
980.784	2833.8
981.083	2798.09
981.382	2808.49
981.682	2751.76
981.981	2745.66
982.28	2732.1
982.579	2725.1
982.878	2754.02
983.177	2690.52
983.475	2689.39
983.774	2669.96
984.073	2676.06
984.372	2664.08
984.67	2630.64
984.969	2625.21
985.267	2612.56
985.566	2633.57
985.864	2569.85
986.162	2580.24
986.461	2579.11
986.759	2548.83
987.057	2502.73
987.355	2516.52
987.653	2525.33
987.951	2499.12
988.249	2495.27
988.547	2492.34
988.844	2474.26
989.142	2487.36
989.44	2460.47
989.737	2436.29
990.035	2403.75
990.332	2425.9
990.63	2421.38
990.927	2424.54
991.224	2393.36
991.521	2394.49
991.819	2365.79
992.116	2361.04
992.413	2328.95
992.71	2329.4
993.006	2303.19
993.303	2317.65
993.6	2330.76
993.897	2302.74
994.193	2260.03
994.49	2265.45
994.787	2249.18
995.083	2268.16
995.379	2230.65
995.676	2214.15
995.972	2200.14
996.268	2209.86
996.565	2209.86
996.861	2196.07
997.157	2158.79
997.453	2176.41
997.749	2188.61
998.044	2133.25
998.34	2143.87
998.636	2139.12
998.932	2151.55
999.227	2097.54
999.523	2094.61
999.818	2072.91
1000.114	2058
1000.409	2048.96
1000.704	2023.87
1001	2013.93
1001.295	2010.77
1001.59	1993.37
1001.885	1997.89
1002.18	1985.46
1002.475	1992.24
1002.77	1961.73
1003.065	1951.11
1003.359	1944.55
1003.654	1963.54
1003.949	1913.37
1004.243	1925.34
1004.538	1898.23
1004.832	1912.92
1005.127	1889.19
1005.421	1873.37
1005.715	1853.03
1006.009	1850.32
1006.304	1841.51
1006.598	1826.36
1006.892	1841.05
1007.186	1829.08
1007.48	1796.08
1007.773	1783.88
1008.067	1787.95
1008.361	1759.93
1008.655	1767.83
1008.948	1794.27
1009.242	1760.6
1009.535	1756.99
1009.829	1723.77
1010.122	1710.44
1010.415	1685.8
1010.708	1713.82
1011.001	1676.31
1011.295	1695.52
1011.588	1672.02
1011.881	1674.73
1012.173	1673.15
1012.466	1651.23
1012.759	1619.82
1013.052	1639.02
1013.344	1629.76
1013.637	1594.96
1013.93	1596.09
1014.222	1602.19
1014.514	1580.27
1014.807	1582.08
1015.099	1554.73
1015.391	1540.95
1015.683	1538.01
1015.976	1542.76
1016.268	1528.29
1016.56	1520.61
1016.851	1511.34
1017.143	1483.55
1017.435	1505.02
1017.727	1483.77
1018.018	1463.44
1018.31	1472.93
1018.602	1459.37
1018.893	1431.57
1019.185	1412.82
1019.476	1461.63
1019.767	1420.5
1020.058	1411.69
1020.35	1403.1
1020.641	1375.53
1020.932	1376.66
1021.223	1377.34
1021.514	1347.51
1021.804	1350.22
1022.095	1347.73
1022.386	1320.16
1022.677	1315.42
1022.967	1316.1
1023.258	1333.27
1023.548	1295.08
1023.839	1296.21
1024.129	1271.58
1024.419	1307.96
1024.709	1272.03
1025	1291.46
1025.29	1227.51
1025.58	1235.42
1025.87	1224.12
1026.16	1234.74
1026.449	1209.88
1026.739	1216.66
1027.029	1222.54
1027.319	1223.44
1027.608	1190.67
1027.898	1182.09
1028.187	1175.08
1028.477	1184.12
1028.766	1186.83
1029.055	1140.05
1029.344	1159.94
1029.634	1142.77
1029.923	1131.47
1030.212	1139.15
1030.501	1111.35
1030.79	1116.78
1031.078	1106.38
1031.367	1103.45
1031.656	1084.91
1031.945	1087.63
1032.233	1076.33
1032.522	1074.97
1032.81	1053.5
1033.099	1044.46
1033.387	1045.14
1033.675	1053.73
1033.963	1025.03
1034.251	1019.61
1034.54	1021.19
1034.828	1014.63
1035.116	1020.96
1035.403	1014.18
1035.691	1001.53
1035.979	1009.21
1036.267	991.36
1036.554	993.17
1036.842	976.67
1037.129	975.31
1037.417	946.39
1037.704	945.48
1037.992	946.39
1038.279	917.01
1038.566	929.44
1038.853	929.44
1039.14	929.44
