Data from hue_28_FLMS001491_00039.txt Node
Date: Tue Feb 07 17:17:12 GMT 2017
User: dcchb
Spectrometer: FLMS00149
Trigger mode: 0
Integration Time (sec): 2.000000E-2
Scans to average: 10
Electric dark correction enabled: true
Nonlinearity correction enabled: false
Boxcar width: 0
XAxis mode: Wavelengths
Number of Pixels in Spectrum: 2048
>>>>>Begin Spectral Data<<<<<
341.393	1.41
341.776	1.41
342.16	1.41
342.543	-42.43
342.927	-58.02
343.31	-69.77
343.693	-64.8
344.077	-74.97
344.46	-44.46
344.843	-48.98
345.226	-53.5
345.61	-40.62
345.993	-11.69
346.376	-11.69
346.759	25.37
347.142	23.78
347.525	54.29
347.908	51.35
348.291	83.9
348.674	86.38
349.057	95.42
349.44	117.34
349.823	151.92
350.206	191.01
350.588	204.8
350.971	216.77
351.354	221.29
351.737	223.1
352.119	252.71
352.502	260.39
352.884	280.95
353.267	290.9
353.65	311.46
354.032	318.24
354.414	322.76
354.797	314.62
355.179	335.19
355.562	319.14
355.944	313.04
356.326	342.65
356.709	359.14
357.091	334.74
357.473	357.56
357.855	343.78
358.238	322.53
358.62	343.55
359.002	330.9
359.384	331.35
359.766	336.54
360.148	354.4
360.53	334.51
360.912	346.26
361.294	330.67
361.676	361.63
362.057	330.22
362.439	334.06
362.821	348.07
363.203	329.77
363.584	327.73
363.966	345.58
364.348	331.8
364.729	315.53
365.111	334.96
365.493	325.7
365.874	317.56
366.256	318.01
366.637	325.7
367.019	321.63
367.4	316.88
367.781	322.31
368.163	322.76
368.544	316.21
368.925	313.95
369.306	307.85
369.688	323.66
370.069	307.62
370.45	320.95
370.831	325.92
371.212	306.72
371.593	317.56
371.974	326.15
372.355	313.27
372.736	311.91
373.117	321.18
373.498	332.25
373.879	310.1
374.26	323.66
374.641	315.98
375.021	311.23
375.402	329.77
375.783	321.86
376.163	329.54
376.544	339.93
376.925	332.7
377.305	348.52
377.686	325.25
378.066	337.22
378.447	326.6
378.827	342.87
379.208	327.05
379.588	308.97
379.968	329.99
380.349	345.36
380.729	334.51
381.109	339.03
381.489	327.96
381.87	320.73
382.25	339.71
382.63	345.81
383.01	332.03
383.39	332.7
383.77	347.17
384.15	358.24
384.53	327.28
384.91	361.63
385.29	344.23
385.67	352.36
386.049	377.9
386.429	366.37
386.809	355.75
387.189	362.31
387.568	351.69
387.948	374.51
388.328	355.75
388.707	363.44
389.087	377.9
389.466	381.29
389.846	344.45
390.225	366.15
390.605	373.83
390.984	390.55
391.363	370.89
391.743	369.76
392.122	385.81
392.501	358.69
392.881	388.07
393.26	382.65
393.639	386.71
394.018	389.2
394.397	364.57
394.776	388.97
395.155	373.83
395.534	385.58
395.913	383.78
396.292	389.2
396.671	409.54
397.05	382.65
397.429	386.49
397.808	384.68
398.186	402.08
398.565	404.34
398.944	386.49
399.323	409.31
399.701	402.31
400.08	401.18
400.458	390.55
400.837	409.31
401.215	399.14
401.594	412.02
401.972	413.38
402.351	399.14
402.729	401.63
403.107	426.94
403.486	419.25
403.864	428.07
404.242	422.19
404.62	425.58
404.999	410.22
405.377	428.52
405.755	410.67
406.133	395.3
406.511	426.03
406.889	438.46
407.267	427.39
407.645	428.29
408.023	438.01
408.401	442.08
408.779	421.29
409.156	434.4
409.534	435.3
409.912	456.54
410.29	436.43
410.667	454.96
411.045	435.98
411.422	443.21
411.8	461.06
412.178	476.43
412.555	452.47
412.933	463.55
413.31	479.59
413.687	481.63
414.065	477.11
414.442	492.92
414.819	483.66
415.197	493.6
415.574	492.02
415.951	494.28
416.328	481.17
416.705	492.7
417.082	468.74
417.46	504.22
417.837	488.41
418.214	513.72
418.591	499.93
418.967	523.43
419.344	508.52
419.721	510.55
420.098	508.97
420.475	525.24
420.852	516.65
421.228	528.4
421.605	528.63
421.982	535.64
422.358	521.85
422.735	515.3
423.111	521.17
423.488	540.16
423.864	568.4
424.241	541.96
424.617	551.45
424.994	553.71
425.37	556.88
425.746	540.83
426.123	547.39
426.499	554.17
426.875	555.07
427.251	569.53
427.627	547.39
428.003	578.12
428.379	582.87
428.756	618.57
429.132	600.27
429.507	595.52
429.883	607.05
430.259	616.76
430.635	616.99
431.011	600.72
431.387	618.57
431.763	621.51
432.138	621.06
432.514	628.51
432.89	634.39
433.265	651.34
433.641	644.33
434.016	664.45
434.392	652.92
434.767	649.76
435.143	642.3
435.518	663.32
435.894	684.56
436.269	664.22
436.644	684.33
437.02	677.55
437.395	683.65
437.77	727.49
438.145	685.24
438.52	705.57
438.895	718.68
439.271	712.13
439.646	713.48
440.021	721.62
440.395	720.26
440.77	713.03
441.145	734.05
441.52	757.32
441.895	745.12
442.27	756.65
442.645	753.48
443.019	748.74
443.394	738.79
443.769	765.46
444.143	769.53
444.518	781.5
444.892	744.9
445.267	792.8
445.641	779.47
446.016	795.06
446.39	785.8
446.764	791.9
447.139	777.44
447.513	786.48
447.887	802.75
448.262	784.67
448.636	806.59
449.01	829.64
449.384	818.57
449.758	817.89
450.132	833.71
450.506	836.42
450.88	836.19
451.254	856.76
451.628	866.02
452.002	861.5
452.376	883.42
452.75	862.41
453.123	868.73
453.497	869.64
453.871	892.24
454.244	892.91
454.618	898.11
454.992	910.77
455.365	927.72
455.739	947.38
456.112	931.78
456.486	943.08
456.859	955.51
457.232	970.88
457.606	966.13
457.979	996.87
458.352	998.67
458.725	1025.57
459.099	1033.7
459.472	1021.27
459.845	1049.07
460.218	1050.65
460.591	1051.55
460.964	1056.53
461.337	1068.28
461.71	1078.45
462.083	1099.91
462.456	1087.49
462.829	1101.27
463.201	1114.38
463.574	1115.28
463.947	1127.94
464.32	1147.14
464.692	1177.65
465.065	1192.12
465.438	1187.37
465.81	1188.95
466.183	1234.83
466.555	1227.14
466.928	1250.19
467.3	1255.62
467.672	1260.36
468.045	1298.78
468.417	1289.51
468.789	1279.8
469.161	1297.2
469.534	1349.85
469.906	1386.23
470.278	1381.94
470.65	1409.74
471.022	1455.39
471.394	1465.55
471.766	1460.36
472.138	1452.45
472.51	1509.62
472.882	1538.32
473.253	1558.66
473.625	1573.57
473.997	1620.58
474.369	1602.73
474.74	1638.66
475.112	1662.39
475.484	1713.68
475.855	1731.08
476.227	1775.38
476.598	1759.78
476.97	1817.64
477.341	1866.67
477.713	1874.81
478.084	1891.53
478.455	1923.62
478.827	1954.36
479.198	2052.21
479.569	2062.15
479.94	2108.25
480.311	2139.66
480.682	2196.61
481.053	2246.33
481.424	2264.18
481.795	2314.57
482.166	2379.43
482.537	2398.64
482.908	2453.55
483.279	2494.91
483.65	2534.68
484.021	2598.41
484.391	2642.47
484.762	2692.64
485.133	2694.22
485.503	2747.33
485.874	2805.41
486.244	2854.67
486.615	2933.54
486.985	2956.59
487.356	3041.78
487.726	3041.33
488.097	3109.13
488.467	3149.8
488.837	3223.93
489.207	3294.43
489.578	3350.48
489.948	3370.59
490.318	3448.1
490.688	3452.17
491.058	3523.58
491.428	3573.75
491.798	3596.12
492.168	3708.43
492.538	3734.65
492.908	3764.93
493.278	3857.36
493.648	3900.29
494.017	3933.51
494.387	3975.77
494.757	4033.17
495.126	4073.62
495.496	4083.34
495.866	4143.22
496.235	4246.72
496.605	4228.87
496.974	4255.54
497.344	4322.88
497.713	4380.73
498.082	4398.13
498.452	4452.14
498.821	4446.27
499.19	4474.97
499.559	4557
499.928	4595.64
500.298	4569.2
500.667	4614.4
501.036	4691.91
501.405	4717.67
501.774	4702.76
502.143	4746.37
502.512	4804.68
502.88	4846.71
503.249	4887.39
503.618	4882.87
503.987	4920.15
504.356	5003.09
504.724	4957.89
505.093	5057.1
505.462	5033.14
505.83	5054.61
506.199	5133.93
506.567	5215.51
506.936	5186.13
507.304	5197.43
507.672	5266.13
508.041	5218.9
508.409	5299.8
508.777	5355.62
509.145	5369.63
509.514	5349.52
509.882	5431.33
510.25	5381.16
510.618	5516.3
510.986	5439.01
511.354	5516.07
511.722	5576.63
512.09	5690.3
512.458	5626.35
512.826	5643.98
513.193	5671.55
513.561	5646.91
513.929	5715.39
514.297	5746.57
514.664	5777.98
515.032	5794.03
515.4	5848.94
515.767	5864.99
516.135	5890.98
516.502	5891.43
516.869	5921.48
517.237	5998.54
517.604	5917.42
517.972	6035.6
518.339	6049.16
518.706	6040.35
519.073	6118.09
519.44	6102.95
519.808	6158.99
520.175	6081.03
520.542	6211.64
520.909	6252.77
521.276	6206.45
521.643	6285.09
522.009	6290.74
522.376	6301.13
522.743	6382.49
523.11	6438.08
523.477	6437.85
523.843	6486.21
524.21	6560.79
524.577	6524.86
524.943	6563.73
525.31	6636.49
525.676	6630.39
526.043	6653.89
526.409	6694.34
526.776	6769.82
527.142	6857.73
527.508	6834
527.874	6912.42
528.241	6923.49
528.607	6906.54
528.973	6954
529.339	7019.53
529.705	7052.07
530.071	7088.91
530.437	7164.16
530.803	7148.8
531.169	7199.64
531.535	7169.59
531.901	7282.58
532.267	7235.57
532.632	7316.47
532.998	7305.18
533.364	7387.43
533.73	7398.28
534.095	7523.02
534.461	7486.64
534.826	7494.1
535.192	7550.37
535.557	7584.26
535.923	7617.94
536.288	7636.92
536.653	7713.75
537.019	7675.56
537.384	7695.67
537.749	7801.66
538.114	7797.82
538.479	7765.95
538.845	7823.35
539.21	7830.59
539.575	7885.27
539.94	7939.06
540.305	7964.14
540.67	7944.93
541.034	8006.85
541.399	8014.99
541.764	8095.89
542.129	8053.86
542.494	8113.29
542.858	8178.6
543.223	8190.58
543.587	8243.23
543.952	8231.03
544.316	8337.46
544.681	8357.35
545.045	8318.93
545.41	8412.72
545.774	8478.93
546.138	8470.79
546.503	8482.09
546.867	8438.93
547.231	8580.17
547.595	8571.81
547.959	8687.51
548.324	8641.64
548.688	8680.28
549.052	8711.92
549.416	8754.63
549.779	8713.73
550.143	8744.91
550.507	8781.29
550.871	8889.99
551.235	8850.9
551.599	8893.83
551.962	8946.49
552.326	8993.04
552.689	8924.57
553.053	8939.03
553.417	8968.86
553.78	9064.9
554.143	8998.01
554.507	9138.8
554.87	9193.49
555.234	9228.51
555.597	9218.35
555.96	9199.59
556.323	9291.34
556.686	9320.72
557.05	9349.19
557.413	9417.89
557.776	9381.28
558.139	9426.02
558.502	9478.9
558.865	9498.34
559.228	9609.3
559.59	9583.31
559.953	9536.75
560.316	9698.33
560.679	9690.42
561.041	9762.06
561.404	9725.45
561.767	9763.42
562.129	9762.96
562.492	9854.94
562.854	9866.46
563.217	9953.47
563.579	9926.35
563.941	9992.11
564.304	10037.08
564.666	10121.82
565.028	10075.5
565.39	10141.94
565.753	10115.72
566.115	10094.03
566.477	10234.59
566.839	10237.3
567.201	10298.09
567.563	10357.52
567.925	10437.97
568.287	10346.23
568.648	10505.32
569.01	10478.88
569.372	10532.89
569.734	10491.98
570.095	10681.58
570.457	10689.94
570.819	10708.25
571.18	10776.72
571.542	10833.44
571.903	10772.88
572.265	10879.09
572.626	10894.23
572.987	10989.6
573.349	11029.6
573.71	11033.89
574.071	11091.06
574.432	11180.55
574.794	11299.42
575.155	11355.69
575.516	11369.02
575.877	11444.95
576.238	11555.46
576.599	11531.28
576.96	11724.04
577.32	11829.58
577.681	11870.93
578.042	11943.7
578.403	12028.21
578.763	12090.59
579.124	12345.04
579.485	12382.56
579.845	12535.55
580.206	12528.99
580.566	12667.29
580.927	12822.77
581.287	13003.33
581.648	13062.09
582.008	13284.68
582.368	13410.1
582.728	13533.26
583.089	13647.61
583.449	13785.23
583.809	13937.54
584.169	14145
584.529	14321.71
584.889	14561.93
585.249	14777.52
585.609	14910.85
585.969	15173.67
586.329	15361.91
586.688	15619.76
587.048	15775.23
587.408	15998.96
587.768	16239.18
588.127	16414.31
588.487	16679.62
588.846	17130.91
589.206	17092.04
589.565	17408.86
589.925	17758.46
590.284	17967.72
590.643	18330.87
591.003	18563.86
591.362	18927.69
591.721	19003.4
592.08	19400.68
592.44	19729.93
592.799	19933.54
593.158	20232.29
593.517	20475.45
593.876	20842.9
594.235	20997.24
594.593	21351.81
594.952	21728.98
595.311	21914.51
595.67	22151.79
596.029	22664.55
596.387	23031.54
596.746	23343.85
597.104	23489.16
597.463	23850.28
597.822	24179.76
598.18	24364.61
598.538	24659.97
598.897	25064.93
599.255	25221.31
599.613	25819.72
599.972	25861.52
600.33	26205.24
600.688	26579.02
601.046	26770.2
601.404	27234.14
601.762	27371.77
602.12	27809.49
602.478	28038.87
602.836	28327
603.194	28460.78
603.552	28734.44
603.91	28895.34
604.268	29436.12
604.625	29437.93
604.983	29863.23
605.341	29938.25
605.698	30447.62
606.056	30716.76
606.413	30962.86
606.771	31345.67
607.128	31556.29
607.485	31528.94
607.843	31897.52
608.2	32151.75
608.557	32460.45
608.914	32558.75
609.272	32941.56
609.629	33086.87
609.986	33372.29
610.343	33497.03
610.7	33964.81
611.057	33977.24
611.414	34132.72
611.771	34442.09
612.127	34716.21
612.484	34924.34
612.841	35189.64
613.198	35179.02
613.554	35357.09
613.911	35790.3
614.267	35734.48
614.624	35983.52
614.98	36126.11
615.337	36658.98
615.693	36549.38
616.05	36629.6
616.406	36981.91
616.762	36995.47
617.118	37097.84
617.475	37311.84
617.831	37575.34
618.187	37701.44
618.543	37870.7
618.899	38205.61
619.255	38290.12
619.611	38235.66
619.967	38472.04
620.323	38756.1
620.678	38483.79
621.034	38581.87
621.39	38729.43
621.746	38778.92
622.101	39438.34
622.457	39019.37
622.812	39245.35
623.168	39376.2
623.523	39463.65
623.879	39704.55
624.234	39500.94
624.589	39686.02
624.945	39803.08
625.3	40019.12
625.655	39850.53
626.01	40115.16
626.365	40115.61
626.72	40200.13
627.075	40231.77
627.43	40181.15
627.785	40186.57
628.14	40372.55
628.495	40511.76
628.85	40481.03
629.205	40423.63
629.559	40767.57
629.914	40683.05
630.269	40709.04
630.623	40685.31
630.978	40648.48
631.332	40746.33
631.687	40879.66
632.041	40841.69
632.396	40868.81
632.75	40899.09
633.104	41095.47
633.459	40889.15
633.813	40949.94
634.167	40949.94
634.521	40852.77
634.875	41116.94
635.229	40968.24
635.583	40821.36
635.937	40857.29
636.291	40941.8
636.645	40954.46
636.999	40961.92
637.352	40977.28
637.706	40827.68
638.06	41084.63
638.413	41030.16
638.767	40997.4
639.121	40892.99
639.474	40736.84
639.828	40834.69
640.181	40924.86
640.534	40899.09
640.888	40713.11
641.241	40629.27
641.594	40687.35
641.947	40933.9
642.301	40802.15
642.654	40770.06
643.007	40760.57
643.36	40774.58
643.713	40767.35
644.066	40905.65
644.419	40529.61
644.771	40404.87
645.124	40104.31
645.477	40018.89
645.83	39834.49
646.182	39676.08
646.535	39570.09
646.888	39671.1
647.24	39463.2
647.593	39610.99
647.945	39722.85
648.298	39510.2
648.65	39350.21
649.002	39401.73
649.355	39505.91
649.707	39490.09
650.059	39681.27
650.411	40095.95
650.763	40153.13
651.115	40505.43
651.467	40310.18
651.819	40314.7
652.171	40192.67
652.523	40125.33
652.875	40301.6
653.227	40259.11
653.578	40431.76
653.93	40380.92
654.282	40236.51
654.633	40116.52
654.985	40205.33
655.337	40103.86
655.688	40264.31
656.039	40337.75
656.391	40029.06
656.742	40120.13
657.094	40161.26
657.445	40346.11
657.796	40217.76
658.147	40159.9
658.498	40080.58
658.849	40272.9
659.2	40159.68
659.551	40133.24
659.902	40156.06
660.253	39996.07
660.604	40132.11
660.955	39817.09
661.306	40142.96
661.656	40140.92
662.007	40123.07
662.358	40112.9
662.708	39962.85
663.059	39996.29
663.409	39720.82
663.76	40045.78
664.11	40002.17
664.461	40073.81
664.811	39919.01
665.161	40040.13
665.511	39889.86
665.862	39940.02
666.212	40042.85
666.562	39968.5
666.912	39939.35
667.262	39884.21
667.612	39902.28
667.962	39790.87
668.312	39897.76
668.662	40098.66
669.011	39922.85
669.361	39878.33
669.711	39812.57
670.06	39913.13
670.41	39807.6
670.76	39666.81
671.109	39764.89
671.459	39717.88
671.808	39719.92
672.157	39708.62
672.507	39592.69
672.856	39436.53
673.205	39662.52
673.554	39779.8
673.904	39671.56
674.253	39832
674.602	39771.67
674.951	39199.25
675.3	38901.18
675.649	39560.6
675.998	39518.34
676.346	39577.32
676.695	39690.09
677.044	39321.28
677.393	39535.06
677.741	39519.92
678.09	39586.36
678.438	39380.26
678.787	39486.25
679.135	39445.8
679.484	39156.99
679.832	39274.05
680.181	39002.19
680.529	39223.66
680.877	39107.95
681.225	39080.84
681.573	39296.88
681.922	39045.58
682.27	38976.88
682.618	38985.47
682.966	38688.3
683.314	38891.46
683.661	38870.22
684.009	38583.67
684.357	38561.75
684.705	38520.85
685.053	38617.8
685.4	38548.65
685.748	38315.89
686.095	38296.45
686.443	38169
686.79	38197.7
687.138	38209.9
687.485	38070.92
687.832	37954.31
688.18	38037.02
688.527	37946.18
688.874	37864.15
689.221	37731.72
689.568	37639.52
689.915	37553.65
690.262	37672.96
690.609	37459.41
690.956	37511.61
691.303	37439.75
691.65	37183.26
691.997	37220.77
692.344	37023.94
692.69	37018.74
693.037	37053.77
693.383	36785.53
693.73	36891.52
694.077	36652.43
694.423	36705.53
694.769	36501.7
695.116	36491.98
695.462	36443.84
695.808	36202.49
696.155	36387.12
696.501	36034.82
696.847	36164.08
697.193	35843.18
697.539	35978.55
697.885	35722.73
698.231	35770.42
698.577	35634.15
698.923	35516.18
699.269	35349.86
699.614	35135.86
699.96	35227.83
700.306	35148.28
700.651	34988.97
700.997	34949.19
701.342	34831.23
701.688	34840.04
702.033	34749.65
702.379	34613.38
702.724	34494.29
703.069	34595.08
703.415	34341.07
703.76	34283.22
704.105	34383.56
704.45	34253.39
704.795	33972.5
705.14	34058.37
705.485	34014.53
705.83	33679.4
706.175	33921.2
706.52	33729.57
706.865	33496.58
707.209	33630.36
707.554	33436.69
707.899	33512.17
708.243	33272.18
708.588	33331.16
708.932	33161.22
709.277	33144.5
709.621	33113.76
709.966	32928.23
710.31	32994.22
710.654	32627.22
710.998	32857.95
711.342	32745.18
711.687	32623.15
712.031	32563.49
712.375	32444.4
712.719	32561.46
713.063	32382.48
713.407	32379.77
713.75	32281.24
714.094	32253.67
714.438	32031.76
714.782	32109.95
715.125	31937.97
715.469	31955.83
715.812	31805.32
716.156	31661.6
716.499	31780.92
716.843	31704.53
717.186	31496.86
717.53	31663.4
717.873	31645.33
718.216	31573.46
718.559	31535.05
718.902	31270.87
719.246	31282.17
719.589	31177.99
719.932	31220.48
720.275	31159.46
720.617	31039.24
720.96	30982.97
721.303	31067.04
721.646	31064.78
721.989	30723.09
722.331	30960.37
722.674	30870.21
723.016	30817.55
723.359	30780.94
723.701	30820.49
724.044	30560.38
724.386	30520.16
724.729	30581.85
725.071	30583.89
725.413	30443.32
725.755	30368.07
726.097	30357.9
726.439	30261.41
726.782	30245.14
727.124	30346.6
727.465	30229.77
727.807	30237.45
728.149	30024.8
728.491	30020.06
728.833	30069.32
729.175	29860.97
729.516	29996.78
729.858	29817.35
730.199	29845.6
730.541	29843.11
730.882	29594.08
731.224	29788.43
731.565	29593.18
731.906	29543.01
732.248	29584.14
732.589	29522.67
732.93	29418.72
733.271	29409.68
733.612	29375.33
733.953	29437.02
734.294	29319.74
734.635	29142.57
734.976	29309.79
735.317	29150.25
735.658	29149.35
735.999	29017.37
736.339	29017.82
736.68	29117.93
737.021	29021.21
737.361	28875.23
737.702	29032.29
738.042	28911.16
738.383	28832.97
738.723	28871.61
739.063	28790.94
739.404	28724.05
739.744	28805.85
740.084	28533.77
740.424	28580.32
740.764	28456.94
741.104	28682.47
741.444	28444.96
741.784	28443.83
742.124	28511.62
742.464	28464.84
742.804	28313.21
743.143	28239.09
743.483	28289.71
743.823	28139.66
744.162	28147.56
744.502	28139.88
744.841	28001.58
745.181	28113.67
745.52	28061.69
745.86	28020.56
746.199	27974.01
746.538	28002.71
746.877	28030.73
747.216	27944.63
747.556	27858.98
747.895	27873.9
748.234	27763.62
748.573	27737.41
748.911	27785.99
749.25	27681.36
749.589	27534.02
749.928	27522.27
750.267	27570.63
750.605	27567.02
750.944	27499.9
751.283	27351.88
751.621	27381.94
751.96	27356.63
752.298	27246.35
752.636	27294.03
752.975	27182.84
753.313	26946.01
753.651	27200.92
753.989	27012.68
754.327	26833.25
754.666	26893.13
755.004	26888.62
755.342	26907.6
755.679	26871.21
756.017	26644.1
756.355	26739.24
756.693	26502.18
757.031	26599.81
757.368	26446.37
757.706	26537.44
758.044	26393.26
758.381	26412.92
758.719	26233.72
759.056	26332.47
759.394	26201.18
759.731	26130.44
760.068	26092.03
760.405	25984.91
760.743	25913.95
761.08	25883.9
761.417	25831.69
761.754	25753.96
762.091	25808.42
762.428	25568.65
762.765	25434.87
763.102	25536.56
763.438	25295.89
763.775	25366.62
764.112	25300.63
764.449	25254.76
764.785	25196.91
765.122	25025.16
765.458	24996.69
765.795	24795.56
766.131	24726.41
766.467	24674.21
766.804	24569.35
767.14	24450.49
767.476	24526.19
767.812	24413.88
768.148	24371.17
768.485	24253.43
768.821	24083.27
769.157	24046.2
769.492	23992.87
769.828	23907.45
770.164	23808.47
770.5	23657.74
770.836	23688.02
771.171	23607.35
771.507	23516.5
771.842	23368.71
772.178	23417.75
772.513	23326.9
772.849	23307.69
773.184	23249.84
773.519	23109.28
773.855	23111.77
774.19	22968.04
774.525	22849.63
774.86	22924.2
775.195	22781.6
775.53	22733.92
775.865	22515.17
776.2	22458.68
776.535	22235.18
776.87	22230.88
777.205	22192.69
777.539	22065.69
777.874	22096.2
778.209	21916.32
778.543	21954.51
778.878	21713.84
779.212	21833.15
779.547	21604.01
779.881	21694.85
780.215	21577.57
780.55	21569.66
780.884	21340.96
781.218	21396.56
781.552	21292.15
781.886	21225.26
782.22	21168.99
782.554	21038.15
782.888	20950.69
783.222	20790.7
783.556	20653.07
783.889	20662.56
784.223	20549.35
784.557	20591.15
784.89	20533.98
785.224	20336.47
785.557	20331.27
785.891	20238.39
786.224	20147.1
786.558	20204.5
786.891	19950.27
787.224	19901.23
787.557	19825.98
787.891	19812.19
788.224	19873.21
788.557	19806.54
788.89	19660.33
789.223	19694.23
789.556	19478.41
789.888	19350.28
790.221	19308.48
790.554	19236.84
790.887	19229.16
791.219	19194.58
791.552	19049.27
791.884	18975.6
792.217	19030.97
792.549	18890.63
792.882	18725.21
793.214	18645.67
793.546	18772.22
793.879	18623.75
794.211	18544.65
794.543	18567.03
794.875	18519.8
795.207	18573.13
795.539	18392.57
795.871	18379.01
796.203	18195.96
796.535	18159.8
796.867	18132.24
797.198	18071.22
797.53	17980.15
797.862	17972.01
798.193	18012.92
798.525	17833.03
798.856	17865.58
799.188	17640.5
799.519	17602.08
799.85	17587.16
800.182	17511.69
800.513	17521.4
800.844	17370.67
801.175	17429.2
801.506	17397.11
801.837	17266.72
802.168	17188.98
802.499	17260.85
802.83	17130.68
803.161	17036.44
803.491	17048.2
803.822	16991.02
804.153	16845.49
804.483	16821.08
804.814	16718.26
805.145	16643.23
805.475	16711.71
805.805	16650.92
806.136	16653.18
806.466	16573.86
806.796	16545.38
807.126	16428.78
807.457	16424.71
807.787	16329.57
808.117	16359.63
808.447	16276.24
808.777	16310.36
809.107	16193.3
809.436	16072.4
809.766	16164.6
810.096	16126.86
810.426	15959.41
810.755	15966.64
811.085	16053.65
811.414	15875.8
811.744	15753.31
812.073	15682.81
812.403	15693.66
812.732	15694.33
813.061	15772.52
813.39	15480.1
813.719	15595.8
814.049	15674.67
814.378	15539.99
814.707	15522.13
815.036	15450.5
815.365	15414.57
815.693	15328.92
816.022	15231.75
816.351	15157.85
816.68	15116.72
817.008	15171.18
817.337	15054.35
817.665	15048.02
817.994	15022.71
818.322	14982.94
818.651	14977.52
818.979	14877.63
819.307	14918.08
819.636	14870.85
819.964	14783.85
820.292	14843.06
820.62	14878.31
820.948	14810.74
821.276	14828.59
821.604	14716.05
821.932	14769.61
822.259	14801.7
822.587	14801.48
822.915	14744.98
823.243	14784.07
823.57	14610.52
823.898	14773.91
824.225	14718.09
824.553	14699.56
824.88	14713.57
825.207	14658.65
825.535	14682.83
825.862	14734.81
826.189	14554.02
826.516	14792.89
826.843	14738.43
827.17	14715.15
827.497	14641.71
827.824	14723.74
828.151	14661.82
828.478	14634.02
828.805	14769.61
829.131	14619.56
829.458	14650.97
829.785	14648.03
830.111	14586.34
830.438	14673.34
830.764	14662.72
831.09	14647.58
831.417	14614.59
831.743	14638.09
832.069	14683.96
832.395	14573.23
832.722	14763.74
833.048	14542.72
833.374	14575.49
833.7	14432.67
834.026	14528.26
834.351	14528.49
834.677	14461.15
835.003	14495.95
835.329	14508.38
835.654	14448.26
835.98	14354.93
836.306	14354.03
836.631	14352.67
836.956	14407.14
837.282	14430.41
837.607	14382.5
837.932	14234.71
838.258	14334.59
838.583	14250.76
838.908	14145.22
839.233	14151.1
839.558	14181.38
839.883	14171.66
840.208	14057.09
840.533	14076.3
840.858	14119.01
841.182	14032.46
841.507	14051.89
841.832	13962.85
842.156	13969.41
842.481	13939.13
842.805	13886.7
843.13	13829.52
843.454	13762.86
843.778	13814.38
844.103	13733.03
844.427	13661.84
844.751	13707.49
845.075	13675.18
845.399	13629.3
845.723	13531.45
846.047	13603.99
846.371	13449.42
846.695	13432.92
847.019	13270.22
847.343	13316.54
847.666	13250.33
847.99	13239.03
848.313	13206.04
848.637	13110.9
848.96	13131.46
849.284	13032.48
849.607	12960.62
849.931	12863.9
850.254	12750.91
850.577	12687.86
850.9	12697.35
851.223	12655.54
851.546	12595.43
851.869	12612.61
852.192	12612.83
852.515	12565.83
852.838	12469.79
853.161	12475.66
853.483	12334.87
853.806	12327.19
854.129	12347.3
854.451	12171.26
854.774	12168.1
855.096	12147.31
855.419	12080.64
855.741	12082.9
856.063	12036.58
856.385	11947.09
856.708	11943.7
857.03	11866.19
857.352	11925.84
857.674	11857.82
857.996	11779.63
858.318	11663.25
858.64	11693.76
858.961	11659.41
859.283	11694.21
859.605	11653.54
859.926	11685.85
860.248	11546.87
860.57	11566.08
860.891	11626.42
861.212	11564.27
861.534	11410.15
861.855	11388.46
862.176	11443.37
862.498	11429.81
862.819	11471.39
863.14	11378.51
863.461	11334.45
863.782	11275.92
864.103	11327.44
864.424	11284.05
864.745	11214.45
865.065	11212.42
865.386	11154.34
865.707	11251.06
866.027	11124.06
866.348	11197.5
866.668	11084.74
866.989	11125.19
867.309	11036.83
867.63	11063.27
867.95	11045.19
868.27	10960.22
868.59	10990.73
868.91	11053.33
869.23	10964.74
869.55	10897.85
869.87	11001.8
870.19	10869.38
870.51	10908.02
870.83	10984.63
871.15	10908.92
871.469	10877.06
871.789	10897.17
872.109	10824.18
872.428	10790.51
872.748	10875.93
873.067	10769.94
873.386	10800.68
873.706	10780.56
874.025	10707.12
874.344	10699.44
874.663	10664.63
874.982	10656.27
875.301	10587.35
875.62	10613.56
875.939	10619.66
876.258	10630.96
876.577	10540.34
876.896	10539.21
877.214	10540.57
877.533	10579.21
877.852	10512.1
878.17	10487.01
878.489	10515.94
878.807	10468.93
879.125	10397.98
879.444	10403.85
879.762	10413.12
880.08	10291.99
880.398	10285.89
880.716	10337.64
881.034	10273.91
881.352	10306.45
881.67	10198.66
881.988	10256.96
882.306	10164.99
882.624	10195.72
882.941	10155.95
883.259	10204.08
883.577	10140.13
883.894	10063.29
884.212	10039.34
884.529	10034.37
884.846	10088.6
885.164	10021.49
885.481	10007.25
885.798	9979
886.115	9896.52
886.432	9892
886.75	9827.14
887.067	9838.44
887.383	9804.77
887.7	9854.03
888.017	9782.62
888.334	9816.3
888.651	9715.51
888.967	9790.53
889.284	9707.15
889.6	9684.77
889.917	9563.19
890.233	9614.27
890.55	9583.31
890.866	9596.87
891.182	9544.21
891.498	9491.11
891.815	9454.5
892.131	9414.5
892.447	9402.52
892.763	9384.67
893.079	9386.93
893.395	9331.56
893.71	9359.13
894.026	9297.44
894.342	9274.61
894.657	9241.4
894.973	9165.01
895.289	9156.43
895.604	9162.3
895.92	9088.18
896.235	9052.93
896.55	8994.85
896.865	9005.24
897.181	8964.34
897.496	8969.76
897.811	8909.2
898.126	8866.49
898.441	8821.75
898.756	8867.85
899.071	8826.72
899.386	8798.7
899.7	8687.29
900.015	8696.55
900.33	8577.68
900.644	8657
900.959	8617.46
901.273	8544.69
901.588	8479.38
901.902	8501.75
902.216	8454.07
902.531	8437.12
902.845	8418.14
903.159	8397.8
903.473	8343.34
903.787	8310.35
904.101	8320.06
904.415	8372.27
904.729	8250.24
905.042	8219.05
905.356	8227.64
905.67	8155.32
905.984	8119.39
906.297	8148.77
906.611	8026.96
906.924	8050.69
907.237	8030.35
907.551	7978.83
907.864	7903.8
908.177	7969.34
908.491	7969.34
908.804	7844.6
909.117	7809.57
909.43	7734.09
909.743	7700.42
910.056	7695.22
910.368	7695.22
910.681	7683.02
910.994	7627.65
911.307	7594.21
911.619	7551.27
911.932	7545.17
912.244	7483.02
912.557	7485.74
912.869	7383.82
913.181	7419.07
913.494	7425.62
913.806	7313.99
914.118	7327.1
914.43	7277.15
914.742	7270.6
915.054	7202.8
915.366	7155.35
915.678	7176.14
915.99	7147.44
916.302	7097.72
916.613	7141.34
916.925	7079.42
917.236	7069.02
917.548	6979.31
917.859	6920.1
918.171	6922.36
918.482	6947.22
918.794	6837.39
919.105	6824.51
919.416	6878.75
919.727	6838.52
920.038	6788.13
920.349	6689.37
920.66	6662.48
920.971	6699.99
921.282	6652.54
921.593	6601.24
921.903	6592.65
922.214	6547.68
922.525	6550.62
922.835	6517.85
923.146	6487.12
923.456	6455.25
923.767	6409.83
924.077	6425.65
924.387	6352.43
924.697	6390.4
925.008	6325.31
925.318	6255.03
925.628	6336.84
925.938	6218.65
926.248	6250.74
926.558	6156.28
926.867	6200.12
927.177	6133
927.487	6099.78
927.796	6089.16
928.106	6041.93
928.416	5991.31
928.725	6038.32
929.034	6036.73
929.344	6037.19
929.653	5969.17
929.962	5899.79
930.271	5807.59
930.581	5914.25
930.89	5820.69
931.199	5829.51
931.508	5784.09
931.817	5827.47
932.125	5770.75
932.434	5721.04
932.743	5610.08
933.051	5646.01
933.36	5616.63
933.669	5583.41
933.977	5581.38
934.286	5568.95
934.594	5526.69
934.902	5523.08
935.21	5535.96
935.519	5466.13
935.827	5437.65
936.135	5430.42
936.443	5413.47
936.751	5381.84
937.059	5301.39
937.367	5333.25
937.674	5350.2
937.982	5312.91
938.29	5288.28
938.597	5245.34
938.905	5190.65
939.213	5184.55
939.52	5171.22
939.827	5158.56
940.135	5102.52
940.442	5071.79
940.749	5110.2
941.056	5101.39
941.363	4992.02
941.67	5052.8
941.977	4963.32
942.284	4975.07
942.591	4888.29
942.898	4933.71
943.205	4891.68
943.511	4880.38
943.818	4902.07
944.125	4869.08
944.431	4829.08
944.738	4844.22
945.044	4827.95
945.35	4747.28
945.657	4739.37
945.963	4724.9
946.269	4700.72
946.575	4666.83
946.881	4594.29
947.187	4707.5
947.493	4595.42
947.799	4620.5
948.105	4587.05
948.41	4576.43
948.716	4582.08
949.022	4515.64
949.327	4528.52
949.633	4440.17
949.938	4451.92
950.244	4459.15
950.549	4399.71
950.854	4369.89
951.16	4385.03
951.465	4359.49
951.77	4344.58
952.075	4335.54
952.38	4350
952.685	4312.94
952.99	4255.54
953.294	4292.37
953.599	4212.15
953.904	4192.71
954.209	4175.99
954.513	4192.71
954.818	4176.67
955.122	4151.13
955.426	4147.52
955.731	4100.06
956.035	4112.72
956.339	4044.02
956.643	4023.23
956.948	4027.97
957.252	3994.53
957.556	4024.81
957.86	3997.92
958.163	3984.36
958.467	3960.86
958.771	3971.93
959.075	3903.46
959.378	3911.59
959.682	3940.52
959.985	3863.01
960.289	3837.47
960.592	3833.85
960.896	3828.2
961.199	3808.54
961.502	3803.8
961.805	3744.36
962.108	3714.08
962.411	3781.65
962.714	3735.78
963.017	3696
963.32	3718.15
963.623	3693.52
963.926	3696.23
964.228	3653.75
964.531	3650.13
964.833	3649.23
965.136	3601.77
965.438	3597.7
965.741	3568.55
966.043	3542.34
966.345	3567.42
966.648	3486.07
966.95	3484.03
967.252	3510.7
967.554	3508.89
967.856	3483.58
968.158	3415.56
968.46	3434.99
968.761	3363.81
969.063	3443.81
969.365	3385.05
969.666	3400.42
969.968	3342.79
970.269	3345.96
970.571	3328.78
970.872	3316.58
971.174	3275.22
971.475	3259.41
971.776	3271.16
972.077	3256.69
972.378	3228.9
972.679	3218.05
972.98	3229.12
973.281	3184.61
973.582	3162.23
973.883	3178.73
974.183	3172.4
974.484	3202.46
974.785	3121.78
975.085	3100.09
975.386	3116.58
975.686	3079.3
975.986	3065.29
976.287	3066.42
976.587	3013.31
976.887	3067.55
977.187	3044.5
977.487	2980.54
977.787	2983.48
978.087	2983.48
978.387	3011.5
978.687	2955.68
978.987	2953.2
979.286	2931.05
979.586	2944.84
979.885	2942.13
980.185	2887.21
980.484	2874.56
980.784	2863.94
981.083	2849.47
981.382	2861.68
981.682	2859.42
981.981	2794.33
982.28	2819.19
982.579	2780.32
982.878	2745.52
983.177	2765.41
983.475	2728.35
983.774	2758.85
984.073	2734
984.372	2719.31
984.67	2686.31
984.969	2703.71
985.267	2659.87
985.566	2684.96
985.864	2658.74
986.162	2675.47
986.461	2653.09
986.759	2610.38
987.057	2619.65
987.355	2599.54
987.653	2583.94
987.951	2577.16
988.249	2568.35
988.547	2562.93
988.844	2585.07
989.142	2564.28
989.44	2501.01
989.737	2516.83
990.035	2464.85
990.332	2477.73
990.63	2478.18
990.927	2453.1
991.224	2456.94
991.521	2417.85
991.819	2428.02
992.116	2421.91
992.413	2394.57
992.71	2397.73
993.006	2389.15
993.303	2347.34
993.6	2375.59
993.897	2344.85
994.193	2337.17
994.49	2329.26
994.787	2332.42
995.083	2301.01
995.379	2287
995.676	2265.53
995.972	2289.49
996.268	2244.74
996.565	2237.51
996.861	2233.22
997.157	2235.48
997.453	2211.3
997.749	2192.77
998.044	2175.37
998.34	2184.41
998.636	2178.98
998.932	2160.45
999.227	2162.94
999.523	2124.75
999.818	2096.72
1000.114	2134.46
1000.409	2118.19
1000.704	2091.3
1001	2073.67
1001.295	2071.41
1001.59	2083.39
1001.885	2066.89
1002.18	2072.09
1002.475	2004.98
1002.77	2007.69
1003.065	2025.99
1003.359	2018.08
1003.654	1965.65
1003.949	1976.28
1004.243	1977.86
1004.538	1955.03
1004.832	1941.25
1005.127	1927.69
1005.421	1922.04
1005.715	1895.15
1006.009	1922.04
1006.304	1920.68
1006.598	1845.21
1006.892	1871.19
1007.186	1849.27
1007.48	1825.09
1007.773	1835.04
1008.067	1832.32
1008.361	1806.79
1008.655	1812.44
1008.948	1778.09
1009.242	1778.31
1009.535	1771.99
1009.829	1774.7
1010.122	1767.47
1010.415	1785.09
1010.708	1738.54
1011.001	1745.1
1011.295	1718.88
1011.588	1744.87
1011.881	1720.01
1012.173	1689.28
1012.466	1707.13
1012.759	1674.81
1013.052	1647.02
1013.344	1669.62
1013.637	1648.15
1013.93	1641.14
1014.222	1630.97
1014.514	1628.04
1014.807	1614.48
1015.099	1593.01
1015.391	1595.27
1015.683	1548.72
1015.976	1565.67
1016.268	1580.13
1016.56	1543.29
1016.851	1528.83
1017.143	1568.6
1017.435	1526.8
1017.727	1510.53
1018.018	1494.48
1018.31	1473.46
1018.602	1482.5
1018.893	1483.86
1019.185	1427.14
1019.476	1463.07
1019.767	1442.5
1020.058	1478.21
1020.35	1451.09
1020.641	1419.68
1020.932	1408.83
1021.223	1416.74
1021.514	1383.3
1021.804	1374.94
1022.095	1388.95
1022.386	1341.04
1022.677	1369.06
1022.967	1341.72
1023.258	1360.47
1023.548	1334.26
1023.839	1289.51
1024.129	1294.94
1024.419	1322.28
1024.709	1299.68
1025	1277.09
1025.29	1286.8
1025.58	1268.27
1025.87	1287.48
1026.16	1277.31
1026.449	1265.79
1026.739	1257.42
1027.029	1232.11
1027.319	1224.88
1027.608	1217.88
1027.898	1214.94
1028.187	1202.51
1028.477	1190.08
1028.766	1191.89
1029.055	1180.36
1029.344	1173.81
1029.634	1163.64
1029.923	1137.43
1030.212	1145.34
1030.501	1142.4
1030.79	1148.05
1031.078	1117.77
1031.367	1090.2
1031.656	1111.89
1031.945	1077.99
1032.233	1101.72
1032.522	1108.5
1032.81	1086.13
1033.099	1068.05
1033.387	1061.95
1033.675	1063.53
1033.963	1057.66
1034.251	1047.94
1034.54	1034.15
1034.828	1045.9
1035.116	1032.57
1035.403	1027.15
1035.691	1027.6
1035.979	1022.4
1036.267	1006.36
1036.554	1004.1
1036.842	1013.14
1037.129	1002.97
1037.417	978.79
1037.704	967.71
1037.992	959.81
1038.279	953.93
1038.566	960.03
1038.853	960.03
1039.14	960.03
