Data from hue_100_FLMS001491_00093.txt Node
Date: Tue Feb 07 17:03:54 GMT 2017
User: dcchb
Spectrometer: FLMS00149
Trigger mode: 0
Integration Time (sec): 2.000000E-2
Scans to average: 10
Electric dark correction enabled: true
Nonlinearity correction enabled: false
Boxcar width: 0
XAxis mode: Wavelengths
Number of Pixels in Spectrum: 2048
>>>>>Begin Spectral Data<<<<<
341.393	-0.01
341.776	-0.01
342.16	-0.01
342.543	-48.37
342.927	-68.03
343.31	-70.29
343.693	-77.98
344.077	-65.55
344.46	-44.31
344.843	-45.89
345.226	-40.01
345.61	-42.72
345.993	-18.32
346.376	-3.4
346.759	18.97
347.142	6.77
347.525	40.44
347.908	58.97
348.291	100.77
348.674	94.45
349.057	88.12
349.44	126.76
349.823	162.02
350.206	167.67
350.588	183.26
350.971	210.15
351.354	226.19
351.737	227.1
352.119	237.04
352.502	284.5
352.884	265.52
353.267	277.94
353.65	289.02
354.032	304.84
354.414	312.75
354.797	295.57
355.179	303.48
355.562	307.1
355.944	316.36
356.326	329.24
356.709	345.74
357.091	356.36
357.473	342.8
357.855	347.32
358.238	325.18
358.62	346.19
359.002	328.56
359.384	325.63
359.766	330.6
360.148	355.23
360.53	334.67
360.912	351.16
361.294	335.8
361.676	355.91
362.057	339.86
362.439	324.5
362.821	334.89
363.203	331.95
363.584	326.3
363.966	317.94
364.348	321.33
364.729	325.4
365.111	321.11
365.493	317.04
365.874	323.59
366.256	332.86
366.637	319.07
367.019	328.79
367.4	334.21
367.781	313.65
368.163	333.31
368.544	311.39
368.925	325.4
369.306	326.53
369.688	323.59
370.069	309.13
370.45	298.28
370.831	321.79
371.212	309.81
371.593	309.36
371.974	300.54
372.355	319.3
372.736	319.3
373.117	321.79
373.498	324.5
373.879	336.02
374.26	315.91
374.641	336.25
375.021	303.03
375.402	327.43
375.783	330.82
376.163	340.32
376.544	325.4
376.925	322.46
377.305	315.91
377.686	347.55
378.066	306.42
378.447	333.54
378.827	323.37
379.208	324.95
379.588	332.86
379.968	330.6
380.349	330.82
380.729	341.67
381.109	324.5
381.489	322.69
381.87	361.78
382.25	336.25
382.63	339.86
383.01	354.33
383.39	350.26
383.77	365.85
384.15	324.5
384.53	341.45
384.91	365.4
385.29	354.55
385.67	330.82
386.049	344.84
386.429	366.3
386.809	383.7
387.189	370.37
387.568	347.55
387.948	356.81
388.328	354.33
388.707	353.87
389.087	357.26
389.466	370.82
389.846	362.46
390.225	372.63
390.605	368.79
390.984	386.42
391.363	372.18
391.743	365.63
392.122	368.56
392.501	379.64
392.881	376.25
393.26	399.07
393.639	390.71
394.018	380.31
394.397	387.55
394.776	373.31
395.155	393.65
395.534	407.43
395.913	418.73
396.292	402.46
396.671	393.87
397.05	406.75
397.429	393.65
397.808	414.21
398.186	385.51
398.565	403.59
398.944	412.4
399.323	413.99
399.701	410.82
400.08	423.48
400.458	421.9
400.837	406.08
401.215	417.38
401.594	417.38
401.972	430.93
402.351	409.92
402.729	433.19
403.107	420.99
403.486	446.75
403.864	428.45
404.242	464.38
404.62	442.69
404.999	437.49
405.377	443.14
405.755	446.3
406.133	438.84
406.511	455.57
406.889	443.36
407.267	474.1
407.645	450.14
408.023	500.31
408.401	468.45
408.779	438.62
409.156	488.79
409.534	485.17
409.912	489.01
410.29	473.19
410.667	476.13
411.045	463.7
411.422	486.75
411.8	485.17
412.178	475.23
412.555	503.02
412.933	517.49
413.31	501.67
413.687	513.87
414.065	517.03
414.442	525.62
414.819	512.74
415.197	520.88
415.574	519.29
415.951	532.85
416.328	521.1
416.705	540.31
417.082	533.98
417.46	549.35
417.837	550.93
418.214	527.2
418.591	534.89
418.967	557.26
419.344	555.9
419.721	549.58
420.098	588.9
420.475	565.62
420.852	578.05
421.228	571.5
421.605	587.77
421.982	599.29
422.358	594.32
422.735	604.72
423.111	607.65
423.488	613.08
423.864	613.3
424.241	621.66
424.617	633.87
424.994	627.99
425.37	617.6
425.746	611.27
426.123	624.83
426.499	634.09
426.875	643.58
427.251	649.01
427.627	627.99
428.003	659.63
428.379	648.1
428.756	665.51
429.132	704.6
429.507	690.82
429.883	667.54
430.259	681.55
430.635	702.11
431.011	712.51
431.387	728.33
431.763	699.85
432.138	699.63
432.514	722.23
432.89	758.38
433.265	755.9
433.641	758.84
434.016	763.81
434.392	758.38
434.767	783.47
435.143	750.02
435.518	776.69
435.894	766.75
436.269	809.23
436.644	815.78
437.02	826.63
437.395	818.72
437.77	817.37
438.145	838.16
438.52	851.94
438.895	849.23
439.271	849.46
439.646	876.12
440.021	893.52
440.395	865.27
440.77	875.22
441.145	882.45
441.52	893.75
441.895	889.45
442.27	903.92
442.645	905.05
443.019	897.36
443.394	905.5
443.769	903.69
444.143	934.2
444.518	917.02
444.892	947.98
445.267	947.98
445.641	969.45
446.016	960.64
446.39	957.93
446.764	957.93
447.139	980.98
447.513	949.57
447.887	966.06
448.262	1011.94
448.636	1008.77
449.01	983.46
449.384	1015.78
449.758	1023.69
450.132	1031.15
450.506	1017.59
450.88	1029.56
451.254	1084.03
451.628	1060.97
452.002	1081.99
452.376	1088.09
452.75	1098.94
453.123	1103.23
453.497	1092.61
453.871	1086.51
454.244	1172.38
454.618	1135.78
454.992	1163.57
455.365	1159.28
455.739	1169.45
456.112	1209.45
456.486	1234.08
456.859	1217.13
457.232	1228.65
457.606	1243.12
457.979	1261.42
458.352	1286.51
458.725	1298.48
459.099	1302.55
459.472	1344.58
459.845	1349.55
460.218	1353.62
460.591	1382.1
460.964	1398.37
461.337	1414.19
461.71	1433.17
462.083	1460.96
462.456	1465.26
462.829	1474.07
463.201	1494.86
463.574	1503.22
463.947	1535.09
464.32	1552.71
464.692	1544.58
465.065	1603.79
465.438	1621.41
465.81	1655.99
466.183	1661.41
466.555	1701.64
466.928	1757.91
467.3	1743.22
467.672	1758.81
468.045	1806.04
468.417	1834.97
468.789	1839.94
469.161	1883.78
469.534	1894.17
469.906	1939.82
470.278	1963.55
470.65	2008.52
471.022	2063.89
471.394	2109.76
471.766	2099.37
472.138	2163.09
472.51	2242.19
472.882	2247.84
473.253	2261.17
473.625	2341.17
473.997	2387.95
474.369	2411.45
474.74	2467.94
475.112	2532.57
475.484	2606.02
475.855	2670.88
476.227	2689.41
476.598	2770.53
476.97	2826.35
477.341	2944.09
477.713	3005.1
478.084	3024.09
478.455	3141.37
478.827	3202.61
479.198	3276.06
479.569	3346.56
479.94	3458.88
480.311	3549.95
480.682	3663.62
481.053	3766.44
481.424	3873.33
481.795	3935.25
482.166	4048.24
482.537	4142.93
482.908	4303.38
483.279	4375.46
483.65	4480.09
484.021	4580.66
484.391	4728.45
484.762	4831.05
485.133	4892.51
485.503	5068.1
485.874	5230.58
486.244	5302.22
486.615	5455.44
486.985	5602.55
487.356	5703.56
487.726	5863.79
488.097	5997.57
488.467	6078.92
488.837	6278.92
489.207	6393.72
489.578	6623.31
489.948	6707.15
490.318	6842.97
490.688	6993.47
491.058	7136.3
491.428	7318.21
491.798	7485.44
492.168	7719.33
492.538	7783.28
492.908	7905.09
493.278	8054.01
493.648	8142.37
494.017	8333.33
494.387	8515.69
494.757	8581
495.126	8750.94
495.496	8877.04
495.866	9041.33
496.235	9187.54
496.605	9379.4
496.974	9420.08
497.344	9628.89
497.713	9755.44
498.082	9908.65
498.452	10025.48
498.821	10087.4
499.19	10172.15
499.559	10343.89
499.928	10482.65
500.298	10493.27
500.667	10713.83
501.036	10676.54
501.405	10890.32
501.774	10921.05
502.143	11094.61
502.512	11110.88
502.88	11284.43
503.249	11432
503.618	11458.89
503.987	11537.08
504.356	11662.96
504.724	11823.63
505.093	11881.26
505.462	11992.66
505.83	12027.24
506.199	12071.08
506.567	12303.17
506.936	12262.04
507.304	12430.85
507.672	12573.89
508.041	12590.16
508.409	12595.13
508.777	12794.45
509.145	12878.29
509.514	12827.9
509.882	12953.54
510.25	13038.29
510.618	13130.04
510.986	13143.6
511.354	13210.71
511.722	13413.42
512.09	13450.03
512.458	13392.63
512.826	13525.51
513.193	13561.44
513.561	13622
513.929	13688.89
514.297	13798.95
514.664	13864.03
515.032	13898.15
515.4	14021.76
515.767	14031.71
516.135	14128.43
516.502	14021.99
516.869	14214.75
517.237	14229.89
517.604	14214.75
517.972	14240.52
518.339	14389.21
518.706	14317.12
519.073	14405.71
519.44	14498.81
519.808	14554.18
520.175	14480.51
520.542	14649.77
520.909	14676.21
521.276	14595.99
521.643	14797.11
522.009	14770.9
522.376	14912.81
522.743	14873.04
523.11	14986.26
523.477	15104.67
523.843	15030.55
524.21	15215.63
524.577	15231.45
524.943	15232.58
525.31	15320.94
525.676	15384.21
526.043	15387.15
526.409	15413.59
526.776	15510.76
527.142	15450.2
527.508	15531.55
527.874	15583.98
528.241	15608.84
528.607	15592.8
528.973	15707.14
529.339	15621.5
529.705	15750.08
530.071	15820.81
530.437	15795.73
530.803	15810.64
531.169	15812.68
531.535	15765.67
531.901	15742.62
532.267	15838.44
532.632	15786.92
532.998	15786.24
533.364	15844.09
533.73	15847.7
534.095	15825.56
534.461	15867.14
534.826	15871.66
535.192	15863.3
535.557	15888.38
535.923	15821.49
536.288	15830.08
536.653	15889.06
537.019	15727.26
537.384	15772.68
537.749	15714.37
538.114	15769.29
538.479	15755.73
538.845	15734.71
539.21	15661.49
539.575	15604.32
539.94	15612.91
540.305	15683.64
540.67	15527.26
541.034	15580.37
541.399	15623.76
541.764	15550.09
542.129	15525
542.494	15477.09
542.858	15551.22
543.223	15450.65
543.587	15491.1
543.952	15428.28
544.316	15345.8
544.681	15336.76
545.045	15312.8
545.41	15412.91
545.774	15374.72
546.138	15284.1
546.503	15346.7
546.867	15143.09
547.231	15242.75
547.595	15207.72
547.959	15214.28
548.324	15122.3
548.688	15051.12
549.052	15060.83
549.416	15108.97
549.779	15007.73
550.143	14976.99
550.507	15066.03
550.871	15032.13
551.235	14964.34
551.599	14979.48
551.962	15002.98
552.326	14913.94
552.689	14980.16
553.053	14792.14
553.417	14796.21
553.78	14921.63
554.143	14867.62
554.507	14811.57
554.87	14904.68
555.234	14962.98
555.597	14746.49
555.96	14690.9
556.323	14772.7
556.686	14722.54
557.05	14765.47
557.413	14746.49
557.776	14711.46
558.139	14778.13
558.502	14668.07
558.865	14650.45
559.228	14730.45
559.59	14688.64
559.953	14707.17
560.316	14768.19
560.679	14761.86
561.041	14888.41
561.404	14746.94
561.767	14936.77
562.129	14866.04
562.492	14938.8
562.854	14868.52
563.217	14842.99
563.579	14838.92
563.941	14883.21
564.304	14886.37
564.666	14981.74
565.028	14928.41
565.39	15024.68
565.753	14978.8
566.115	15055.41
566.477	15030.78
566.839	15097.44
567.201	15071.91
567.563	15183.09
567.925	15149.19
568.287	15175.41
568.648	15174.73
569.01	15159.81
569.372	15332.92
569.734	15210.89
570.095	15159.59
570.457	15273.48
570.819	15312.58
571.18	15265.57
571.542	15347.38
571.903	15294.27
572.265	15220.38
572.626	15305.35
572.987	15225.8
573.349	15351.45
573.71	15310.09
574.071	15333.82
574.432	15425.79
574.794	15541.5
575.155	15470.09
575.516	15426.47
575.877	15445.23
576.238	15468.96
576.599	15527.04
576.96	15456.53
577.32	15511.67
577.681	15510.09
578.042	15583.08
578.403	15534.27
578.763	15570.65
579.124	15564.1
579.485	15560.03
579.845	15647.71
580.206	15538.11
580.566	15578.79
580.927	15548.73
581.287	15591.89
581.648	15514.38
582.008	15623.08
582.368	15513.48
582.728	15516.87
583.089	15572.23
583.449	15487.71
583.809	15420.6
584.169	15410.43
584.529	15453.82
584.889	15644.32
585.249	15484.1
585.609	15442.52
585.969	15577.43
586.329	15501.95
586.688	15533.59
587.048	15482.52
587.408	15476.64
587.768	15442.52
588.127	15442.07
588.487	15336.31
588.846	15455.4
589.206	15328.4
589.565	15311
589.925	15390.99
590.284	15326.36
590.643	15358.9
591.003	15401.84
591.362	15423.31
591.721	15382.18
592.08	15356.42
592.44	15380.82
592.799	15267.38
593.158	15358.23
593.517	15303.09
593.876	15398.9
594.235	15294.27
594.593	15356.64
594.952	15379.47
595.311	15232.58
595.67	15277.55
596.029	15271.67
596.387	15351.67
596.746	15407.26
597.104	15226.03
597.463	15298.57
597.822	15281.62
598.18	15214.73
598.538	15238
598.897	15257.44
599.255	15188.97
599.613	15392.8
599.972	15263.09
600.33	15296.76
600.688	15213.15
601.046	15246.59
601.404	15297.66
601.762	15266.03
602.12	15343.09
602.478	15311.9
602.836	15390.77
603.194	15227.83
603.552	15301.73
603.91	15141.96
604.268	15300.15
604.625	15256.53
604.983	15263.77
605.341	15214.28
605.698	15255.63
606.056	15316.65
606.413	15306.25
606.771	15232.81
607.128	15344.22
607.485	15294.27
607.843	15273.03
608.2	15356.19
608.557	15391.9
608.914	15341.28
609.272	15396.64
609.629	15477.55
609.986	15531.1
610.343	15416.3
610.7	15444.1
611.057	15424.67
611.414	15426.25
611.771	15470.54
612.127	15533.59
612.484	15415.17
612.841	15485
613.198	15416.98
613.554	15495.62
613.911	15504.66
614.267	15594.38
614.624	15546.92
614.98	15530.42
615.337	15629.18
615.693	15499.24
616.05	15574.49
616.406	15734.26
616.762	15559.35
617.118	15639.57
617.475	15620.59
617.831	15712.57
618.187	15596.19
618.543	15661.04
618.899	15632.8
619.255	15781.27
619.611	15710.53
619.967	15778.1
620.323	15830.3
620.678	15845.44
621.034	15695.84
621.39	15749.18
621.746	15721.38
622.101	15861.04
622.457	15661.27
622.812	15783.53
623.168	15788.5
623.523	15770.19
623.879	15772.45
624.234	15687.03
624.589	15788.5
624.945	15775.39
625.3	15795.05
625.655	15745.11
626.01	15657.88
626.365	15717.31
626.72	15753.92
627.075	15759.8
627.43	15728.61
627.785	15557.77
628.14	15697.88
628.495	15655.85
628.85	15716.18
629.205	15686.58
629.559	15705.56
629.914	15628.73
630.269	15742.17
630.623	15647.26
630.978	15559.58
631.332	15723.87
631.687	15628.73
632.041	15654.04
632.396	15604.77
632.75	15484.55
633.104	15569.29
633.459	15421.95
633.813	15485.68
634.167	15472.12
634.521	15520.71
634.875	15544.21
635.229	15472.57
635.583	15360.03
635.937	15426.47
636.291	15405.23
636.645	15396.42
636.999	15364.55
637.352	15363.65
637.706	15235.07
638.06	15335.18
638.413	15294.05
638.767	15205.46
639.121	15239.59
639.474	15100.61
639.828	15212.24
640.181	15199.36
640.534	15152.58
640.888	15100.38
641.241	15125.69
641.594	15137.89
641.947	15169.76
642.301	15130.21
642.654	15146.93
643.007	15080.27
643.36	15046.6
643.713	15067.84
644.066	15078.46
644.419	14996.43
644.771	14905.36
645.124	14797.34
645.477	14828.52
645.83	14654.97
646.182	14672.14
646.535	14511.47
646.888	14668.75
647.24	14477.8
647.593	14609.77
647.945	14614.74
648.298	14584.01
648.65	14597.79
649.002	14461.98
649.355	14524.12
649.707	14548.08
650.059	14568.19
650.411	14768.41
650.763	14785.13
651.115	14947.39
651.467	14852.93
651.819	14941.51
652.171	14967.73
652.523	14839.6
652.875	14767.96
653.227	14683.67
653.578	14875.98
653.93	14960.95
654.282	14812.93
654.633	14756.89
654.985	14796.43
655.337	14784.91
655.688	14817.45
656.039	14772.03
656.391	14755.98
656.742	14710.11
657.094	14873.49
657.445	14895.41
657.796	14813.61
658.147	14908.75
658.498	14857.67
658.849	14869.2
659.2	14900.84
659.551	14788.3
659.902	14880.95
660.253	14930.44
660.604	14914.4
660.955	14737.45
661.306	14905.58
661.656	14934.73
662.007	14914.85
662.358	14948.97
662.708	14940.16
663.059	14918.46
663.409	14767.06
663.76	14969.08
664.11	15021.51
664.461	14992.81
664.811	14869.43
665.161	14944.9
665.511	14881.85
665.862	14875.07
666.212	14891.12
666.562	15002.08
666.912	14860.39
667.262	14908.29
667.612	14883.21
667.962	14976.99
668.312	14965.92
668.662	15028.07
669.011	14950.55
669.361	14899.48
669.711	14878.92
670.06	14862.87
670.41	14911.68
670.76	14838.01
671.109	14892.02
671.459	14836.21
671.808	14744.91
672.157	14869.43
672.507	14743.33
672.856	14784
673.205	14819.26
673.554	14805.25
673.904	14770.22
674.253	14831.69
674.602	14883.44
674.951	14521.19
675.3	14428.08
675.649	14769.32
675.998	14600.05
676.346	14695.42
676.695	14690.9
677.044	14594.4
677.393	14678.02
677.741	14664.91
678.09	14545.14
678.438	14577
678.787	14620.84
679.135	14558.25
679.484	14445.71
679.832	14474.18
680.181	14423.79
680.529	14456.78
680.877	14419.49
681.225	14477.35
681.573	14431.92
681.922	14321.64
682.27	14258.14
682.618	14356.22
682.966	14297.01
683.314	14293.17
683.661	14235.77
684.009	14142.66
684.357	14177.01
684.705	14143.57
685.053	14076.23
685.4	14076.68
685.748	13953.52
686.095	13919.85
686.443	14009.34
686.79	13911.03
687.138	13933.86
687.485	13979.05
687.832	13924.37
688.18	13856.57
688.527	13747.87
688.874	13789.23
689.221	13753.3
689.568	13677.14
689.915	13722.56
690.262	13648.67
690.609	13631.94
690.956	13653.19
691.303	13524.38
691.65	13439.86
691.997	13520.08
692.344	13381.78
692.69	13387.2
693.037	13355.57
693.383	13306.08
693.73	13201.45
694.077	13212.29
694.423	13082.58
694.769	13108.79
695.116	13116.03
695.462	13050.72
695.808	13006.65
696.155	13065.63
696.501	12854.79
696.847	12857.73
697.193	12804.39
697.539	12798.07
697.885	12779.99
698.231	12660.9
698.577	12651.18
698.923	12635.13
699.269	12549.26
699.614	12517.85
699.96	12420.22
700.306	12371.86
700.651	12348.14
700.997	12297.29
701.342	12319.66
701.688	12228.36
702.033	12168.93
702.379	12161.02
702.724	12167.8
703.069	12133.68
703.415	11954.47
703.76	12009.39
704.105	11882.84
704.45	11884.19
704.795	11888.94
705.14	11863.85
705.485	11810.75
705.83	11722.84
706.175	11830.18
706.52	11721.94
706.865	11699.11
707.209	11690.07
707.554	11626.12
707.899	11586.8
708.243	11508.16
708.588	11492.11
708.932	11481.04
709.277	11435.62
709.621	11394.49
709.966	11330.31
710.31	11398.56
710.654	11274.27
710.998	11244.44
711.342	11235.62
711.687	11205.11
712.031	11153.36
712.375	11175.51
712.719	11179.8
713.063	11134.38
713.407	11177.77
713.75	11151.11
714.094	11123.08
714.438	11060.26
714.782	11032.01
715.125	10972.35
715.469	11022.75
715.812	10933.71
716.156	10892.13
716.499	10943.88
716.843	10895.29
717.186	10776.2
717.53	10851.9
717.873	10834.05
718.216	10872.92
718.559	10778.01
718.902	10760.61
719.246	10765.8
719.589	10715.86
719.932	10702.53
720.275	10684.9
720.617	10751.79
720.96	10658.24
721.303	10668.86
721.646	10701.63
721.989	10566.04
722.331	10644.45
722.674	10652.14
723.016	10606.26
723.359	10552.7
723.701	10580.72
724.044	10531.01
724.386	10541.18
724.729	10508.41
725.071	10532.36
725.413	10502.08
725.755	10504.12
726.097	10394.06
726.439	10452.82
726.782	10493.27
727.124	10511.57
727.465	10386.38
727.807	10399.71
728.149	10368.3
728.491	10375.31
728.833	10440.62
729.175	10372.59
729.516	10415.98
729.858	10348.64
730.199	10373.72
730.541	10283.11
730.882	10302.99
731.224	10384.8
731.565	10333.95
731.906	10362.88
732.248	10292.6
732.589	10317.45
732.93	10272.03
733.271	10301.41
733.612	10307.96
733.953	10409.66
734.294	10296.21
734.635	10248.3
734.976	10250.11
735.317	10295.76
735.658	10300.28
735.999	10300.05
736.339	10276.1
736.68	10380.05
737.021	10309.77
737.361	10226.38
737.702	10337.57
738.042	10312.94
738.383	10320.17
738.723	10397.68
739.063	10286.5
739.404	10416.66
739.744	10381.63
740.084	10352.48
740.424	10389.77
740.764	10311.35
741.104	10461.63
741.444	10400.84
741.784	10482.2
742.124	10452.14
742.464	10493.27
742.804	10429.99
743.143	10521.29
743.483	10573.49
743.823	10492.14
744.162	10493.04
744.502	10553.15
744.841	10525.36
745.181	10666.82
745.52	10668.63
745.86	10674.73
746.199	10655.07
746.538	10742.98
746.877	10861.4
747.216	10855.97
747.556	10956.08
747.895	10971.67
748.234	11016.42
748.573	10980.26
748.911	11109.52
749.25	11179.8
749.589	11235.85
749.928	11273.59
750.267	11451.66
750.605	11381.83
750.944	11526.24
751.283	11533.92
751.621	11680.36
751.96	11704.08
752.298	11856.62
752.636	11887.36
752.975	12003.06
753.313	12049.61
753.651	12289.83
753.989	12378.64
754.327	12398.76
754.666	12516.94
755.004	12606.43
755.342	12864.73
755.679	12939.76
756.017	13010.94
756.355	13187.89
756.693	13266.3
757.031	13485.06
757.368	13584.26
757.706	13719.17
758.044	13834.2
758.381	14076
758.719	14245.04
759.056	14352.38
759.394	14504.24
759.731	14536.1
760.068	14780.61
760.405	14887.05
760.743	15037.78
761.08	15171.34
761.417	15291.79
761.754	15441.16
762.091	15631.89
762.428	15800.7
762.765	15967.02
763.102	16123.63
763.438	16224.64
763.775	16458.76
764.112	16582.37
764.449	16775.14
764.785	16917.06
765.122	16980.78
765.458	17110.72
765.795	17284.5
766.131	17444.72
766.467	17602.91
766.804	17675.23
767.14	17779.86
767.476	17972.17
767.812	18098.04
768.148	18159.06
768.485	18284.48
768.821	18248.77
769.157	18490.12
769.492	18656.67
769.828	18735.76
770.164	18758.14
770.5	18898.47
770.836	19021.41
771.171	19019.6
771.507	19110.9
771.842	19226.6
772.178	19296.65
772.513	19428.85
772.849	19399.48
773.184	19432.24
773.519	19605.57
773.855	19616.65
774.19	19638.11
774.525	19724.89
774.86	19918.56
775.195	19866.36
775.53	19985.45
775.865	19823.65
776.2	19927.82
776.535	19806.24
776.87	20007.37
777.205	19972.12
777.539	20098.44
777.874	20002.62
778.209	19935.28
778.543	20108.61
778.878	19970.99
779.212	20000.82
779.547	20042.4
779.881	20198.55
780.215	20009.63
780.55	20179.79
780.884	20062.28
781.218	20079.23
781.552	20060.25
781.886	20108.84
782.22	20064.54
782.554	20029.74
782.888	19918.33
783.222	19986.35
783.556	19882.4
783.889	19859.12
784.223	19788.17
784.557	19778
784.89	19896.64
785.224	19851.89
785.557	19700.48
785.891	19765.57
786.224	19581.84
786.558	19794.27
786.891	19577.55
787.224	19605.57
787.557	19566.7
787.891	19535.29
788.224	19485.8
788.557	19623.88
788.89	19517.44
789.223	19544.33
789.556	19446.48
789.888	19466.37
790.221	19408.52
790.554	19336.43
790.887	19247.39
791.219	19256.88
791.552	19200.61
791.884	19133.04
792.217	19082.42
792.549	19104.57
792.882	18968.3
793.214	19014.63
793.546	18924.91
793.879	18936.66
794.211	18755.2
794.543	18860.28
794.875	18763.11
795.207	18854.41
795.539	18790.45
795.871	18784.35
796.203	18599.5
796.535	18589.1
796.867	18560.63
797.198	18517.47
797.53	18543.91
797.862	18327.41
798.193	18417.35
798.525	18326.96
798.856	18355.89
799.188	18120.64
799.519	18170.81
799.85	18020.98
800.182	18101.43
800.513	18104.37
800.844	17967.2
801.175	17958.84
801.506	18072.73
801.837	17966.07
802.168	17866.18
802.499	17772.4
802.83	17719.52
803.161	17628.9
803.491	17693.08
803.822	17741.21
804.153	17619.41
804.483	17435.23
804.814	17339.19
805.145	17378.06
805.475	17396.82
805.805	17288.57
806.136	17373.09
806.466	17367.44
806.796	17223.71
807.126	17182.36
807.457	17130.16
807.787	17138.07
808.117	17091.51
808.447	17061.01
808.777	16999.31
809.107	17010.84
809.436	16883.61
809.766	16860.79
810.096	16810.62
810.426	16666.21
810.755	16718.42
811.085	16794.12
811.414	16694.24
811.744	16603.62
812.073	16608.59
812.403	16587.57
812.732	16450.63
813.061	16470.51
813.39	16397.75
813.719	16415.37
814.049	16534.92
814.378	16336.28
814.707	16339.44
815.036	16447.24
815.365	16227.81
815.693	16172.67
816.022	16130.64
816.351	16160.24
816.68	15969.06
817.008	16087.02
817.337	16017.19
817.665	15935.39
817.994	15967.93
818.322	15904.43
818.651	15919.12
818.979	15861.26
819.307	15903.52
819.636	15891.09
819.964	15649.52
820.292	15846.57
820.62	15742.4
820.948	15767.71
821.276	15845.67
821.604	15670.53
821.932	15722.06
822.259	15697.65
822.587	15715.28
822.915	15722.06
823.243	15791.44
823.57	15697.43
823.898	15730.42
824.225	15620.59
824.553	15639.12
824.88	15668.95
825.207	15717.31
825.535	15660.37
825.862	15711.66
826.189	15594.15
826.516	15713.92
826.843	15742.4
827.17	15713.7
827.497	15765.45
827.824	15748.72
828.151	15720.02
828.478	15712.12
828.805	15751.44
829.131	15694.94
829.458	15765.67
829.785	15585.11
830.111	15661.04
830.438	15776.52
830.764	15698.33
831.09	15733.58
831.417	15614.04
831.743	15737.43
832.069	15675.51
832.395	15614.04
832.722	15694.49
833.048	15596.64
833.374	15683.87
833.7	15528.84
834.026	15604.1
834.351	15604.77
834.677	15485.68
835.003	15602.74
835.329	15567.03
835.654	15545.34
835.98	15435.06
836.306	15552.8
836.631	15495.4
836.956	15496.98
837.282	15517.77
837.607	15437.32
837.932	15348.06
838.258	15339.92
838.583	15329.98
838.908	15193.94
839.233	15409.98
839.558	15207.72
839.883	15147.61
840.208	15205.69
840.533	15144.67
840.858	15106.26
841.182	15172.69
841.507	15096.09
841.832	15071.45
842.156	15062.19
842.481	15079.14
842.805	15030.55
843.13	14988.97
843.454	14960.27
843.778	14859.03
844.103	14784.23
844.427	14851.8
844.751	14907.84
845.075	14685.48
845.399	14661.07
845.723	14600.96
846.047	14645.93
846.371	14536.55
846.695	14577.91
847.019	14361.42
847.343	14310.12
847.666	14211.82
847.99	14301.76
848.313	14222.44
848.637	14133.17
848.96	14147.86
849.284	14009.79
849.607	13910.35
849.931	14007.98
850.254	13902.9
850.577	13774.09
850.9	13698.38
851.223	13677.82
851.546	13585.17
851.869	13544.49
852.192	13616.58
852.515	13462.68
852.838	13457.71
853.161	13375.23
853.483	13372.52
853.806	13272.41
854.129	13236.47
854.451	13243.93
854.774	13140.43
855.096	13049.13
855.419	13024.73
855.741	13062.24
856.063	13001
856.385	12902.92
856.708	12937.05
857.03	12832.87
857.352	12929.14
857.674	12848.24
857.996	12782.02
858.318	12624.74
858.64	12674.45
858.961	12677.84
859.283	12603.72
859.605	12580.9
859.926	12547.45
860.248	12526.66
860.57	12475.82
860.891	12495.02
861.212	12442.14
861.534	12372.77
861.855	12384.29
862.176	12315.37
862.498	12367.57
862.819	12310.17
863.14	12245.77
863.461	12337.51
863.782	12255.03
864.103	12161.93
864.424	12189.95
864.745	12185.65
865.065	12103.85
865.386	12064.53
865.707	12026.11
866.027	11984.53
866.348	12047.35
866.668	12036.28
866.989	11986.34
867.309	11953.8
867.63	11942.04
867.95	11944.98
868.27	11849.17
868.59	11830.64
868.91	11783.18
869.23	11835.38
869.55	11779.34
869.87	11833.35
870.19	11747.47
870.51	11757.64
870.83	11853.23
871.15	11773.91
871.469	11734.14
871.789	11781.6
872.109	11690.75
872.428	11635.61
872.748	11718.1
873.067	11616.86
873.386	11659.79
873.706	11652.33
874.025	11565.33
874.344	11475.39
874.663	11504.54
874.982	11568.27
875.301	11563.3
875.62	11494.15
875.939	11439.69
876.258	11462.06
876.577	11411.89
876.896	11380.03
877.214	11359.46
877.533	11249.41
877.852	11370.08
878.17	11320.59
878.489	11282.85
878.807	11288.95
879.125	11308.62
879.444	11255.74
879.762	11300.25
880.08	11195.85
880.398	11159.24
880.716	11162.86
881.034	11178.9
881.352	11171.22
881.67	11105.68
881.988	11068.85
882.306	10997.44
882.624	10986.82
882.941	10970.77
883.259	10967.38
883.577	10999.92
883.894	10831.34
884.212	10867.04
884.529	10886.25
884.846	10878.8
885.164	10808.29
885.481	10794.28
885.798	10835.18
886.115	10662.08
886.432	10724.22
886.75	10644.23
887.067	10695.07
887.383	10675.64
887.7	10636.09
888.017	10627.73
888.334	10496.66
888.651	10538.69
888.967	10474.06
889.284	10468.19
889.6	10484.23
889.917	10332.82
890.233	10372.82
890.55	10338.7
890.866	10306.83
891.182	10254.18
891.498	10253.5
891.815	10211.24
892.131	10184.58
892.447	10159.04
892.763	10094.41
893.079	10132.37
893.395	10079.27
893.71	10063.68
894.026	10011.47
894.342	9978.71
894.657	9892.16
894.973	9913.4
895.289	9931.93
895.604	9863.46
895.92	9772.84
896.235	9637.7
896.55	9778.94
896.865	9740.97
897.181	9701.88
897.496	9704.59
897.811	9588.66
898.126	9578.72
898.441	9577.81
898.756	9543.01
899.071	9401.32
899.386	9473.18
899.7	9417.82
900.015	9386.63
900.33	9298.05
900.644	9305.96
900.959	9315.67
901.273	9233.87
901.588	9201.33
901.902	9191.16
902.216	9144.83
902.531	9122.68
902.845	9136.02
903.159	9030.26
903.473	9015.79
903.787	8941.9
904.101	8925.4
904.415	8919.75
904.729	8885.18
905.042	8836.59
905.356	8818.51
905.67	8789.81
905.984	8736.25
906.297	8714.56
906.611	8699.42
906.924	8685.63
907.237	8650.38
907.551	8642.24
907.864	8567.44
908.177	8523.15
908.491	8529.71
908.804	8426.66
909.117	8422.82
909.43	8354.57
909.743	8290.39
910.056	8331.29
910.368	8281.58
910.681	8240
910.994	8191.41
911.307	8218.75
911.619	8104.41
911.932	8136.5
912.244	8026.44
912.557	7997.97
912.869	7982.6
913.181	7962.26
913.494	8015.14
913.806	7823.96
914.118	7855.6
914.43	7812.89
914.742	7905.09
915.054	7785.32
915.366	7766.11
915.678	7721.59
915.99	7634.14
916.302	7596.85
916.613	7614.02
916.925	7547.13
917.236	7541.26
917.548	7538.09
917.859	7555.27
918.171	7459.22
918.482	7393.69
918.794	7463.07
919.105	7331.54
919.416	7351.88
919.727	7333.8
920.038	7320.02
920.349	7292.9
920.66	7191.21
920.971	7220.14
921.282	7179.23
921.593	7109.63
921.903	7106.92
922.214	7083.87
922.525	7021.72
922.835	6968.16
923.146	6967.71
923.456	6932.68
923.767	6966.36
924.077	6884.78
924.387	6909.18
924.697	6848.17
925.008	6807.72
925.318	6745.8
925.628	6750.54
925.938	6713.26
926.248	6661.73
926.558	6652.92
926.867	6668.51
927.177	6595.29
927.487	6579.47
927.796	6534.5
928.106	6560.04
928.416	6463.77
928.725	6438.01
929.034	6421.96
929.344	6428.97
929.653	6417.9
929.962	6375.86
930.271	6379.03
930.581	6286.83
930.89	6302.42
931.199	6238.01
931.508	6255.41
931.817	6230.56
932.125	6193.95
932.434	6173.83
932.743	6118.24
933.051	6097.9
933.36	6101.97
933.669	6012.48
933.977	6026.49
934.286	5993.27
934.594	5962.54
934.902	5942.88
935.21	5937
935.519	5902.43
935.827	5898.81
936.135	5801.42
936.443	5797.12
936.751	5779.27
937.059	5773.17
937.367	5667.63
937.674	5741.08
937.982	5737.69
938.29	5655.66
938.597	5725.49
938.905	5632.61
939.213	5573.85
939.52	5562.55
939.827	5578.82
940.135	5505.83
940.442	5556
940.749	5481.88
941.056	5527.3
941.363	5406.17
941.67	5374.31
941.977	5391.71
942.284	5395.55
942.591	5293.18
942.898	5357.13
943.205	5317.81
943.511	5271.94
943.818	5290.02
944.125	5228.1
944.431	5234.42
944.738	5228.55
945.044	5179.74
945.35	5125.5
945.657	5130.92
945.963	5100.42
946.269	5073.52
946.575	5078.27
946.881	5007.99
947.187	5046.86
947.493	5009.35
947.799	4985.39
948.105	4948.78
948.41	4913.3
948.716	4951.27
949.022	4899.07
949.327	4888.22
949.633	4856.13
949.938	4847.32
950.244	4844.6
950.549	4804.15
950.854	4773.42
951.16	4784.04
951.465	4748.34
951.77	4712.63
952.075	4685.51
952.38	4629.92
952.685	4649.58
952.99	4595.57
953.294	4607.1
953.599	4606.64
953.904	4553.09
954.209	4529.81
954.513	4515.12
954.818	4499.3
955.122	4493.2
955.426	4466.08
955.731	4434.22
956.035	4440.77
956.339	4376.59
956.643	4401
956.948	4363.03
957.252	4323.94
957.556	4331.85
957.86	4322.58
958.163	4306.99
958.467	4283.04
958.771	4266.54
959.075	4261.57
959.378	4231.51
959.682	4204.17
959.985	4184.51
960.289	4153.55
960.592	4147.67
960.896	4136.83
961.199	4125.75
961.502	4117.39
961.805	4081.23
962.108	4068.35
962.411	4006.66
962.714	4033.33
963.017	4006.66
963.32	4013.67
963.623	3966.44
963.926	4000.11
964.228	3932.09
964.531	3952.2
964.833	3889.83
965.136	3887.34
965.438	3818.64
965.741	3843.73
966.043	3858.87
966.345	3800.56
966.648	3799.89
966.95	3782.26
967.252	3736.38
967.554	3742.03
967.856	3699.1
968.158	3707.01
968.46	3688.02
968.761	3663.17
969.063	3668.14
969.365	3637.86
969.666	3635.37
969.968	3606.44
970.269	3576.84
970.571	3563.51
970.872	3607.8
971.174	3535.03
971.475	3555.6
971.776	3547.92
972.077	3499.78
972.378	3507.69
972.679	3527.58
972.98	3457.52
973.281	3474.24
973.582	3449.16
973.883	3435.83
974.183	3438.99
974.484	3362.61
974.785	3397.86
975.085	3379.56
975.386	3327.13
975.686	3363.06
975.986	3322.84
976.287	3295.94
976.587	3245.78
976.887	3279.9
977.187	3284.42
977.487	3229.28
977.787	3214.59
978.087	3220.92
978.387	3224.08
978.687	3185.89
978.987	3216.17
979.286	3205.78
979.586	3135.04
979.885	3144.76
980.185	3135.5
980.484	3100.47
980.784	3097.31
981.083	3051.43
981.382	3095.05
981.682	3080.36
981.981	3013.92
982.28	3053.46
982.579	2997.65
982.878	2996.52
983.177	2971.43
983.475	2991.55
983.774	2944.77
984.073	2955.16
984.372	2924.88
984.67	2915.39
984.969	2912.23
985.267	2862.96
985.566	2894.15
985.864	2887.37
986.162	2888.72
986.461	2804.88
986.759	2843.07
987.057	2828.61
987.355	2796.75
987.653	2788.16
987.951	2774.15
988.249	2775.28
988.547	2762.4
988.844	2744.77
989.142	2707.26
989.44	2694.38
989.737	2708.39
990.035	2694.38
990.332	2672.68
990.63	2669.29
990.927	2606.7
991.224	2622.74
991.521	2639.01
991.819	2586.13
992.116	2585.68
992.413	2585.68
992.71	2557.66
993.006	2543.42
993.303	2545
993.6	2511.56
993.897	2514.72
994.193	2541.16
994.49	2469.75
994.787	2501.84
995.083	2454.16
995.379	2454.16
995.676	2448.96
995.972	2426.81
996.268	2433.14
996.565	2409.19
996.861	2400.83
997.157	2413.26
997.453	2416.65
997.749	2382.07
998.044	2343.43
998.34	2359.47
998.636	2331.68
998.932	2317.21
999.227	2295.52
999.523	2303.43
999.818	2268.85
1000.114	2293.26
1000.409	2234.28
1000.704	2232.47
1001	2239.7
1001.295	2229.31
1001.59	2216.65
1001.885	2230.21
1002.18	2205.13
1002.475	2175.07
1002.77	2156.99
1003.065	2140.49
1003.359	2115.86
1003.654	2132.81
1003.949	2104.11
1004.243	2127.16
1004.538	2065.24
1004.832	2095.52
1005.127	2069.31
1005.421	2076.32
1005.715	2046.26
1006.009	2049.88
1006.304	2061.85
1006.598	2024.79
1006.892	2026.6
1007.186	1985.24
1007.48	1989.31
1007.773	1992.7
1008.067	1961.52
1008.361	1962.42
1008.655	1945.47
1008.948	1946.15
1009.242	1919.48
1009.535	1886.49
1009.829	1909.09
1010.122	1875.87
1010.415	1901.63
1010.708	1860.73
1011.001	1830.22
1011.295	1820.5
1011.588	1834.51
1011.881	1801.29
1012.173	1790.22
1012.466	1808.75
1012.759	1812.37
1013.052	1775.08
1013.344	1769.2
1013.637	1757.91
1013.93	1732.6
1014.222	1723.33
1014.514	1705.03
1014.807	1731.24
1015.099	1710.9
1015.391	1688.98
1015.683	1692.6
1015.976	1674.74
1016.268	1652.82
1016.56	1629.55
1016.851	1647.17
1017.143	1621.19
1017.435	1643.33
1017.727	1605.14
1018.018	1578.7
1018.31	1588.64
1018.602	1590.45
1018.893	1581.41
1019.185	1550.91
1019.476	1544.13
1019.767	1537.8
1020.058	1546.84
1020.35	1529.44
1020.641	1489.44
1020.932	1508.19
1021.223	1481.08
1021.514	1483.56
1021.804	1464.58
1022.095	1435.65
1022.386	1456.22
1022.677	1441.76
1022.967	1438.37
1023.258	1409.21
1023.548	1409.67
1023.839	1405.82
1024.129	1407.86
1024.419	1396.11
1024.709	1372.15
1025	1340.29
1025.29	1347.75
1025.58	1315.43
1025.87	1319.95
1026.16	1316.79
1026.449	1304.36
1026.739	1300.52
1027.029	1298.48
1027.319	1279.27
1027.608	1297.58
1027.898	1304.36
1028.187	1282.89
1028.477	1256.68
1028.766	1253.96
1029.055	1222.78
1029.344	1238.37
1029.634	1236.56
1029.923	1225.26
1030.212	1232.95
1030.501	1207.64
1030.79	1191.82
1031.078	1203.8
1031.367	1192.5
1031.656	1182.33
1031.945	1157.7
1032.233	1161.09
1032.522	1143.68
1032.81	1145.94
1033.099	1162.89
1033.387	1122.89
1033.675	1133.29
1033.963	1121.99
1034.251	1072.05
1034.54	1101.43
1034.828	1112.05
1035.116	1057.36
1035.403	1064.36
1035.691	1047.42
1035.979	1052.84
1036.267	1060.97
1036.554	1067.08
1036.842	1039.51
1037.129	1031.82
1037.417	1025.27
1037.704	1027.98
1037.992	1011.48
1038.279	1012.84
1038.566	995.89
1038.853	995.89
1039.14	995.89
