Data from hue_130_FLMS001491_00036.txt Node
Date: Tue Feb 07 16:57:31 GMT 2017
User: dcchb
Spectrometer: FLMS00149
Trigger mode: 0
Integration Time (sec): 2.000000E-2
Scans to average: 10
Electric dark correction enabled: true
Nonlinearity correction enabled: false
Boxcar width: 0
XAxis mode: Wavelengths
Number of Pixels in Spectrum: 2048
>>>>>Begin Spectral Data<<<<<
341.393	-13.62
341.776	-13.62
342.16	-13.62
342.543	-58.36
342.927	-50.45
343.31	-87.51
343.693	-53.84
344.077	-54.07
344.46	-64.69
344.843	-51.58
345.226	-36.89
345.61	-26.04
345.993	-38.02
346.376	-19.94
346.759	20.96
347.142	17.57
347.525	44.46
347.908	60.28
348.291	65.7
348.674	100.51
349.057	123.1
349.44	133.73
349.823	130.11
350.206	152.03
350.588	198.36
350.971	197.9
351.354	226.83
351.737	220.95
352.119	241.75
352.502	251.69
352.884	274.51
353.267	274.74
353.65	292.82
354.032	284.91
354.414	316.77
354.797	297.56
355.179	326.26
355.562	342.53
355.944	327.39
356.326	335.75
356.709	314.29
357.091	322.19
357.473	342.53
357.855	319.71
358.238	353.15
358.62	338.92
359.002	362.87
359.384	332.14
359.766	333.27
360.148	353.83
360.53	312.25
360.912	339.37
361.294	348.63
361.676	346.15
362.057	324
362.439	346.15
362.821	330.33
363.203	329.2
363.584	305.7
363.966	328.07
364.348	326.26
364.729	321.74
365.111	319.71
365.493	305.25
365.874	319.03
366.256	324.45
366.637	299.37
367.019	301.4
367.4	294.85
367.781	286.26
368.163	294.85
368.544	315.87
368.925	305.47
369.306	315.19
369.688	317
370.069	318.13
370.45	302.31
370.831	293.5
371.212	312.7
371.593	312.48
371.974	294.4
372.355	316.32
372.736	323.78
373.117	318.81
373.498	333.72
373.879	320.16
374.26	300.95
374.641	323.32
375.021	316.77
375.402	323.55
375.783	331.01
376.163	316.32
376.544	320.16
376.925	315.19
377.305	345.92
377.686	320.84
378.066	332.82
378.447	322.65
378.827	324.23
379.208	322.19
379.588	332.59
379.968	317.9
380.349	340.27
380.729	324.45
381.109	354.74
381.489	339.82
381.87	332.36
382.25	338.92
382.63	337.79
383.01	334.85
383.39	339.6
383.77	342.53
384.15	338.47
384.53	338.47
384.91	359.93
385.29	358.35
385.67	351.35
386.049	349.99
386.429	346.6
386.809	346.83
387.189	340.05
387.568	354.51
387.948	361.06
388.328	369.65
388.707	350.67
389.087	346.15
389.466	354.96
389.846	355.64
390.225	364.91
390.605	364.68
390.984	370.78
391.363	386.15
391.743	372.59
392.122	375.75
392.501	373.72
392.881	378.01
393.26	368.07
393.639	373.27
394.018	381.63
394.397	399.48
394.776	380.05
395.155	384.57
395.534	381.85
395.913	377.11
396.292	375.75
396.671	402.42
397.05	402.42
397.429	394.51
397.808	408.29
398.186	395.41
398.565	399.26
398.944	358.13
399.323	393.83
399.701	404
400.08	388.41
400.458	401.29
400.837	395.19
401.215	413.49
401.594	391.8
401.972	412.59
402.351	390.44
402.729	420.95
403.107	409.88
403.486	392.02
403.864	412.14
404.242	416.88
404.62	416.43
404.999	421.85
405.377	409.88
405.755	423.21
406.133	415.75
406.511	425.02
406.889	434.96
407.267	439.25
407.645	425.92
408.023	429.08
408.401	462.3
408.779	438.58
409.156	445.36
409.534	446.71
409.912	463.66
410.29	454.85
410.667	458.69
411.045	448.52
411.422	472.7
411.8	478.8
412.178	446.71
412.555	492.36
412.933	484.9
413.31	462.08
413.687	477.9
414.065	488.52
414.442	503.21
414.819	486.48
415.197	476.77
415.574	521.06
415.951	494.39
416.328	507.95
416.705	492.59
417.082	502.08
417.46	526.48
417.837	514.05
418.214	509.99
418.591	500.72
418.967	530.78
419.344	539.82
419.721	546.6
420.098	547.05
420.475	526.03
420.852	508.63
421.228	534.84
421.605	549.99
421.982	554.05
422.358	545.01
422.735	549.08
423.111	559.93
423.488	553.15
423.864	559.7
424.241	558.8
424.617	565.35
424.994	577.1
425.37	576.2
425.746	575.75
426.123	599.02
426.499	576.43
426.875	582.98
427.251	600.61
427.627	631.34
428.003	590.89
428.379	621.4
428.756	618.01
429.132	601.96
429.507	634.05
429.883	646.71
430.259	631.11
430.635	630.66
431.011	653.03
431.387	649.42
431.763	671.56
432.138	675.41
432.514	675.86
432.89	665.69
433.265	696.2
433.641	683.09
434.016	708.17
434.392	709.3
434.767	697.1
435.143	718.12
435.518	734.61
435.894	749.53
436.269	720.15
436.644	757.89
437.02	754.95
437.395	750.43
437.77	776.42
438.145	767.61
438.52	769.87
438.895	765.35
439.271	781.84
439.646	812.35
440.021	802.41
440.395	777.1
440.77	785.23
441.145	801.28
441.52	812.13
441.895	818
442.27	823.88
442.645	821.16
443.019	828.4
443.394	832.46
443.769	863.65
444.143	850.54
444.518	867.04
444.892	898.22
445.267	855.06
445.641	865.01
446.016	881.28
446.39	895.29
446.764	874.95
447.139	873.82
447.513	886.47
447.887	887.6
448.262	905.23
448.636	893.25
449.01	917.89
449.384	916.3
449.758	940.26
450.132	947.49
450.506	941.39
450.88	973.93
451.254	938.22
451.628	956.75
452.002	976.19
452.376	971.22
452.75	1018.45
453.123	1031.1
453.497	1031.33
453.871	1025.23
454.244	1028.39
454.618	1054.83
454.992	1069.29
455.365	1051.89
455.739	1084.43
456.112	1101.84
456.486	1116.98
456.859	1102.74
457.232	1141.61
457.606	1129.18
457.979	1131.21
458.352	1141.83
458.725	1182.51
459.099	1194.26
459.472	1198.33
459.845	1209.86
460.218	1251.44
460.591	1257.31
460.964	1262.96
461.337	1272.45
461.71	1297.54
462.083	1298.44
462.456	1331.89
462.829	1344.09
463.201	1343.86
463.574	1338.21
463.947	1387.7
464.32	1409.62
464.692	1437.65
465.065	1427.48
465.438	1474.26
465.81	1462.96
466.183	1509.06
466.555	1543.63
466.928	1532.11
467.3	1573.46
467.672	1591.31
468.045	1610.97
468.417	1630.41
468.789	1685.55
469.161	1680.13
469.534	1716.73
469.906	1755.38
470.278	1773.68
470.65	1812.55
471.022	1853.45
471.394	1893.91
471.766	1917.18
472.138	1957.63
472.51	1983.85
472.882	2091.19
473.253	2057.74
473.625	2120.57
473.997	2158.53
474.369	2204.41
474.74	2222.94
475.112	2300.9
475.484	2330.5
475.855	2410.5
476.227	2401.46
476.598	2523.27
476.97	2559.2
477.341	2653.43
477.713	2682.36
478.084	2718.29
478.455	2850.94
478.827	2915.12
479.198	2977.04
479.569	3059.75
479.94	3142.23
480.311	3201.89
480.682	3290.25
481.053	3413.19
481.424	3519.62
481.795	3595.56
482.166	3659.51
482.537	3773.63
482.908	3880.29
483.279	3992.15
483.65	4103.34
484.021	4210.91
484.391	4292.49
484.762	4357.12
485.133	4511.46
485.503	4591.24
485.874	4711.23
486.244	4840.04
486.615	4966.14
486.985	5076.87
487.356	5236.64
487.726	5292.91
488.097	5493.36
488.467	5626.69
488.837	5703.75
489.207	5836.4
489.578	6039.11
489.948	6168.59
490.318	6322.49
490.688	6386.22
491.058	6511.41
491.428	6697.17
491.798	6860.55
492.168	7029.14
492.538	7120.89
492.908	7238.4
493.278	7371.05
493.648	7551.84
494.017	7613.98
494.387	7747.99
494.757	7943.01
495.126	8070.69
495.496	8166.28
495.866	8240.63
496.235	8446.95
496.605	8500.51
496.974	8668.19
497.344	8792.48
497.713	8800.39
498.082	9049.88
498.452	9179.59
498.821	9201.96
499.19	9320.15
499.559	9450.54
499.928	9553.82
500.298	9633.36
500.667	9773.02
501.036	9766.92
501.405	9976.86
501.774	10016.18
502.143	10142.05
502.512	10185.44
502.88	10346.11
503.249	10335.26
503.618	10535.49
503.987	10597.4
504.356	10723.5
504.724	10760.11
505.093	10797.4
505.462	10889.37
505.83	10960.79
506.199	11066.55
506.567	11177.28
506.936	11289.36
507.304	11401.23
507.672	11361.68
508.041	11480.09
508.409	11551.73
508.777	11730.03
509.145	11810.03
509.514	11769.13
509.882	11883.92
510.25	11850.48
510.618	11982.23
510.986	11941.32
511.354	12072.17
511.722	12174.31
512.09	12290.69
512.458	12262.67
512.826	12312.39
513.193	12342.9
513.561	12399.62
513.929	12478.26
514.297	12595.09
514.664	12706.05
515.032	12672.6
515.4	12770
515.767	12814.52
516.135	12880.96
516.502	12787.86
516.869	13000.73
517.237	12969.09
517.604	12925.71
517.972	12992.37
518.339	13089.99
518.706	13047.06
519.073	13162.54
519.44	13238.24
519.808	13314.4
520.175	13185.59
520.542	13381.06
520.909	13424
521.276	13319.14
521.643	13545.8
522.009	13447.27
522.376	13469.87
522.743	13593.71
523.11	13660.6
523.477	13758.68
523.843	13708.51
524.21	13888.84
524.577	13897.21
524.943	13919.58
525.31	13921.84
525.676	13969.75
526.043	13997.99
526.409	14078.44
526.776	14090.65
527.142	14063.98
527.508	14159.57
527.874	14162.96
528.241	14168.16
528.607	14155.5
528.973	14213.58
529.339	14176.52
529.705	14259.23
530.071	14350.53
530.437	14374.03
530.803	14409.96
531.169	14301.94
531.535	14306.91
531.901	14301.49
532.267	14381.94
532.632	14346.91
532.998	14306.01
533.364	14292
533.73	14304.43
534.095	14277.31
534.461	14387.59
534.826	14399.79
535.192	14345.33
535.557	14371.32
535.923	14270.75
536.288	14308.95
536.653	14255.84
537.019	14243.18
537.384	14240.7
537.749	14272.79
538.114	14165.45
538.479	14127.03
538.845	14130.87
539.21	14108.73
539.575	14186.46
539.94	14092.23
540.305	14042.06
540.67	14037.77
541.034	14023.53
541.399	14075.96
541.764	13964.77
542.129	13970.88
542.494	13898.56
542.858	13959.35
543.223	13891.78
543.587	13814.72
543.952	13835.29
544.316	13827.15
544.681	13697.44
545.045	13771.33
545.41	13746.47
545.774	13734.95
546.138	13668.28
546.503	13612.01
546.867	13589.64
547.231	13593.94
547.595	13645.46
547.959	13551.45
548.324	13511.68
548.688	13507.84
549.052	13471.68
549.416	13447.27
549.779	13391.91
550.143	13436.2
550.507	13410.44
550.871	13383.55
551.235	13305.36
551.599	13315.53
551.962	13266.71
552.326	13274.62
552.689	13214.29
553.053	13097.23
553.417	13187.17
553.78	13288.18
554.143	13131.8
554.507	13184.91
554.87	13176.32
555.234	13227.84
555.597	13096.1
555.96	13123.89
556.323	13085.25
556.686	13149.65
557.05	13075.98
557.413	13143.33
557.776	13026.72
558.139	13075.98
558.502	13105.36
558.865	13004.57
559.228	13116.66
559.59	13092.48
559.953	13097.68
560.316	13154.85
560.679	13152.59
561.041	13105.14
561.404	13065.14
561.767	13180.39
562.129	13135.64
562.492	13177
562.854	13196.66
563.217	13066.04
563.579	13085.48
563.941	13167.05
564.304	13159.6
564.666	13193.49
565.028	13230.78
565.39	13242.31
565.753	13339.25
566.115	13277.79
566.477	13195.53
566.839	13299.03
567.201	13310.33
567.563	13288.86
567.925	13342.42
568.287	13406.82
568.648	13310.78
569.01	13326.82
569.372	13461.51
569.734	13358.46
570.095	13392.81
570.457	13466.03
570.819	13444.56
571.18	13426.03
571.542	13516.65
571.903	13480.49
572.265	13486.59
572.626	13525.46
572.987	13496.99
573.349	13487.5
573.71	13446.6
574.071	13546.25
574.432	13555.07
574.794	13678.23
575.155	13575.18
575.516	13544.67
575.877	13603.2
576.238	13612.01
576.599	13632.81
576.96	13551.9
577.32	13643.43
577.681	13599.36
578.042	13686.82
578.403	13680.94
578.763	13634.16
579.124	13569.53
579.485	13626.7
579.845	13689.75
580.206	13627.16
580.566	13601.17
580.927	13616.08
581.287	13647.95
581.648	13551.9
582.008	13641.17
582.368	13631
582.728	13670.77
583.089	13635.74
583.449	13596.42
583.809	13671.45
584.169	13682.52
584.529	13660.6
584.889	13685.69
585.249	13640.94
585.609	13553.49
585.969	13617.89
586.329	13539.47
586.688	13537.67
587.048	13574.5
587.408	13537.67
587.768	13474.39
588.127	13381.51
588.487	13465.13
588.846	13582.86
589.206	13409.76
589.565	13473.04
589.925	13518.91
590.284	13478.69
590.643	13453.15
591.003	13549.42
591.362	13504
591.721	13453.38
592.08	13498.12
592.44	13463.09
592.799	13473.71
593.158	13468.97
593.517	13505.13
593.876	13397.11
594.235	13459.25
594.593	13423.32
594.952	13416.99
595.311	13360.5
595.67	13450.89
596.029	13430.1
596.387	13471.91
596.746	13498.35
597.104	13341.74
597.463	13390.1
597.822	13399.59
598.18	13318.69
598.538	13334.73
598.897	13387.84
599.255	13220.84
599.613	13416.77
599.972	13381.51
600.33	13321.85
600.688	13333.38
601.046	13382.42
601.404	13400.72
601.762	13353.49
602.12	13396.88
602.478	13296.32
602.836	13352.81
603.194	13328.63
603.552	13347.84
603.91	13283.66
604.268	13372.47
604.625	13229.43
604.983	13370.67
605.341	13343.32
605.698	13417.22
606.056	13433.71
606.413	13426.26
606.771	13426.94
607.128	13422.19
607.485	13338.58
607.843	13372.7
608.2	13464.67
608.557	13379.25
608.914	13425.13
609.272	13470.1
609.629	13532.02
609.986	13502.41
610.343	13432.81
610.7	13485.01
611.057	13503.77
611.414	13472.13
611.771	13560.26
612.127	13552.58
612.484	13601.85
612.841	13621.51
613.198	13541.96
613.554	13550.1
613.911	13628.29
614.267	13609.3
614.624	13581.28
614.98	13622.86
615.337	13701.28
615.693	13656.99
616.05	13713.03
616.406	13699.47
616.762	13702.18
617.118	13678.23
617.475	13592.81
617.831	13733.37
618.187	13725.46
618.543	13687.72
618.899	13832.35
619.255	13793.48
619.611	13779.69
619.967	13766.36
620.323	13842.29
620.678	13772.46
621.034	13758
621.39	13689.3
621.746	13806.59
622.101	13927.71
622.457	13782.63
622.812	13746.47
623.168	13781.5
623.523	13798.22
623.879	13764.33
624.234	13800.71
624.589	13764.55
624.945	13813.37
625.3	13845
625.655	13785.34
626.01	13700.15
626.365	13759.13
626.72	13760.49
627.075	13763.42
627.43	13687.95
627.785	13737.89
628.14	13779.92
628.495	13755.51
628.85	13746.25
629.205	13616.99
629.559	13772.01
629.914	13692.46
630.269	13672.58
630.623	13669.64
630.978	13679.36
631.332	13678.45
631.687	13696.98
632.041	13629.19
632.396	13602.07
632.75	13617.89
633.104	13595.52
633.459	13581.96
633.813	13588.96
634.167	13547.61
634.521	13618.12
634.875	13545.8
635.229	13536.54
635.583	13501.06
635.937	13508.51
636.291	13533.82
636.645	13504
636.999	13378.35
637.352	13382.42
637.706	13400.27
638.06	13467.16
638.413	13306.49
638.767	13373.6
639.121	13324.34
639.474	13298.8
639.828	13274.62
640.181	13228.52
640.534	13280.95
640.888	13280.72
641.241	13144.23
641.594	13274.62
641.947	13316.66
642.301	13237.11
642.654	13139.71
643.007	13200.73
643.36	13180.16
643.713	13181.29
644.066	13236.21
644.419	13165.02
644.771	13125.93
645.124	13010.67
645.477	13016.78
645.83	12900.17
646.182	12874.63
646.535	12825.82
646.888	12880.51
647.24	12668.99
647.593	12792.83
647.945	12792.83
648.298	12756.44
648.65	12640.74
649.002	12671.93
649.355	12832.15
649.707	12714.41
650.059	12837.8
650.411	12986.04
650.763	12878.02
651.115	13040.5
651.467	13039.6
651.819	12987.85
652.171	12982.43
652.523	13031.69
652.875	12981.3
653.227	12922.54
653.578	13013.61
653.93	12966.83
654.282	12937.23
654.633	12910.56
654.985	13035.98
655.337	12885.93
655.688	12947.4
656.039	12924.58
656.391	12930.45
656.742	12988.75
657.094	12933.16
657.445	13021.52
657.796	13011.13
658.147	13038.47
658.498	12991.24
658.849	12988.3
659.2	12973.39
659.551	12996.21
659.902	13071.92
660.253	13037.57
660.604	13029.88
660.955	12977
661.306	13037.34
661.656	13053.61
662.007	13019.04
662.358	13012.48
662.708	12970.45
663.059	13077.34
663.409	12936.78
663.76	13008.64
664.11	13027.62
664.461	13144.68
664.811	12977.68
665.161	13010.45
665.511	13050.67
665.862	13041.86
666.212	13072.59
666.562	12996.89
666.912	13016.55
667.262	13056.78
667.612	12955.54
667.962	13081.18
668.312	13075.08
668.662	13162.08
669.011	13045.7
669.361	13039.37
669.711	13011.58
670.06	13031.47
670.41	13010.67
670.76	12938.81
671.109	13083.22
671.459	13002.31
671.808	13062.2
672.157	13007.96
672.507	12883.9
672.856	12988.53
673.205	12958.25
673.554	12990.34
673.904	13025.82
674.253	13003.44
674.602	12939.26
674.951	12763.9
675.3	12668.76
675.649	12899.49
675.998	12897.01
676.346	12886.84
676.695	12921.86
677.044	12838.48
677.393	12784.24
677.741	12875.31
678.09	12768.65
678.438	12713.73
678.787	12840.96
679.135	12784.01
679.484	12701.08
679.832	12722.55
680.181	12694.75
680.529	12755.31
680.877	12680.29
681.225	12569.78
681.573	12759.61
681.922	12565.94
682.27	12568.65
682.618	12634.41
682.966	12502.44
683.314	12492.72
683.661	12566.62
684.009	12463.12
684.357	12422.89
684.705	12434.19
685.053	12377.02
685.4	12338.15
685.748	12343.8
686.095	12390.58
686.443	12244.14
686.79	12254.54
687.138	12295.67
687.485	12264.48
687.832	12156.23
688.18	12140.64
688.527	12173.86
688.874	12144.93
689.221	11995.33
689.568	12013.64
689.915	11971.83
690.262	11975.22
690.609	11925.73
690.956	11870.37
691.303	11928.67
691.65	11863.59
691.997	11823.59
692.344	11727.54
692.69	11736.81
693.037	11751.27
693.383	11589.24
693.73	11581.56
694.077	11531.84
694.423	11565.06
694.769	11504.73
695.116	11397.16
695.462	11434.45
695.808	11368.23
696.155	11460.21
696.501	11286.43
696.847	11334.56
697.193	11190.38
697.539	11316.26
697.885	11148.35
698.231	11059.77
698.577	11101.8
698.923	11025.64
699.269	11016.38
699.614	10908.81
699.96	10918.98
700.306	10936.83
700.651	10854.8
700.997	10830.85
701.342	10821.13
701.688	10744.75
702.033	10693.22
702.379	10630.17
702.724	10607.12
703.069	10636.05
703.415	10478.76
703.76	10563.96
704.105	10487.58
704.45	10479.89
704.795	10389.73
705.14	10412.78
705.485	10422.27
705.83	10400.12
706.175	10263.4
706.52	10326.23
706.865	10240.58
707.209	10226.12
707.554	10206.68
707.899	10220.24
708.243	10086.68
708.588	10082.84
708.932	10031.77
709.277	10074.48
709.621	10051.43
709.966	10026.12
710.31	10007.59
710.654	9907.71
710.998	9933.69
711.342	9886.01
711.687	9835.39
712.031	9814.6
712.375	9796.97
712.719	9788.39
713.063	9748.61
713.407	9810.76
713.75	9767.14
714.094	9759.46
714.438	9706.35
714.782	9735.96
715.125	9664.1
715.469	9707.26
715.812	9625.23
716.156	9512.91
716.499	9588.84
716.843	9577.54
717.186	9527.15
717.53	9556.08
717.873	9568.51
718.216	9496.64
718.559	9526.7
718.902	9453.71
719.246	9493.48
719.589	9422.29
719.932	9333.94
720.275	9394.5
720.617	9474.04
720.96	9352.24
721.303	9376.42
721.646	9391.33
721.989	9291.45
722.331	9300.94
722.674	9350.21
723.016	9334.39
723.359	9377.32
723.701	9328.74
724.044	9302.75
724.386	9283.09
724.729	9234.28
725.071	9228.4
725.413	9219.14
725.755	9244.22
726.097	9187.5
726.439	9130.1
726.782	9196.99
727.124	9178.91
727.465	9163.54
727.807	9215.52
728.149	9184.56
728.491	9160.15
728.833	9157.22
729.175	9110.21
729.516	9148.4
729.858	9175.3
730.199	9073.6
730.541	9145.01
730.882	9110.66
731.224	9102.3
731.565	9114.28
731.906	9086.48
732.248	9156.76
732.589	9095.07
732.93	9099.59
733.271	9153.15
733.612	9096.88
733.953	9154.05
734.294	9056.2
734.635	9037.45
734.976	9030.21
735.317	9101.63
735.658	9059.37
735.999	9060.72
736.339	9052.81
736.68	9091.46
737.021	9137.78
737.361	9087.16
737.702	9085.81
738.042	9086.94
738.383	9090.78
738.723	9131.68
739.063	9010.78
739.404	9161.51
739.744	9138.01
740.084	9081.51
740.424	9126.94
740.764	9081.74
741.104	9188.85
741.444	9115.41
741.784	9149.76
742.124	9138.01
742.464	9178.91
742.804	9217.55
743.143	9227.05
743.483	9227.5
743.823	9173.94
744.162	9267.5
744.502	9351.34
744.841	9335.74
745.181	9419.13
745.52	9388.4
745.86	9477.66
746.199	9472.01
746.538	9543.42
746.877	9606.24
747.216	9607.83
747.556	9630.2
747.895	9707.03
748.234	9709.74
748.573	9815.5
748.911	9786.13
749.25	9938.89
749.589	9982.28
749.928	9966.01
750.267	10014.6
750.605	10136.63
750.944	10231.76
751.283	10194.7
751.621	10311.76
751.96	10331.42
752.298	10493.23
752.636	10619.1
752.975	10596.28
753.313	10738.19
753.651	10878.75
753.989	10978.19
754.327	10996.94
754.666	11127.56
755.004	11194.23
755.342	11416.59
755.679	11554.67
756.017	11651.61
756.355	11697.26
756.693	11845.51
757.031	12028.55
757.368	12090.02
757.706	12200.07
758.044	12379.96
758.381	12571.36
758.719	12766.84
759.056	12811.58
759.394	12914.63
759.731	13080.96
760.068	13219.93
760.405	13379.93
760.743	13511.45
761.08	13684.33
761.417	13817.43
761.754	13929.75
762.091	14072.12
762.428	14247.7
762.765	14417.87
763.102	14632.33
763.438	14710.52
763.775	14824.86
764.112	14994.58
764.449	15239.32
764.785	15261.01
765.122	15444.28
765.458	15489.48
765.795	15677.27
766.131	15884.27
766.467	15998.62
766.804	16041.33
767.14	16124.27
767.476	16278.61
767.812	16467.08
768.148	16663.23
768.485	16658.26
768.821	16712.72
769.157	16832.72
769.492	16995.65
769.828	17128.08
770.164	17057.12
770.5	17155.42
770.836	17452.14
771.171	17389.54
771.507	17504.34
771.842	17497.79
772.178	17650.1
772.513	17733.71
772.849	17802.19
773.184	17781.62
773.519	17977.55
773.855	17989.3
774.19	17938.68
774.525	18032.46
774.86	18251.89
775.195	18168.51
775.53	18119.02
775.865	18192.46
776.2	18166.92
776.535	18186.58
776.87	18269.07
777.205	18243.53
777.539	18251.44
777.874	18425
778.209	18451.89
778.543	18412.79
778.878	18415.28
779.212	18526.91
779.547	18442.17
779.881	18580.47
780.215	18549.74
780.55	18627.25
780.884	18446.24
781.218	18553.58
781.552	18537.99
781.886	18554.71
782.22	18458.22
782.554	18463.86
782.888	18407.82
783.222	18410.98
783.556	18347.26
783.889	18389.29
784.223	18271.33
784.557	18253.7
784.89	18394.71
785.224	18355.17
785.557	18184.32
785.891	18304.55
786.224	18229.29
786.558	18252.57
786.891	18187.94
787.224	18125.34
787.557	18033.59
787.891	18158.79
788.224	18152.69
788.557	18142.52
788.89	18091.9
789.223	17981.84
789.556	18015.29
789.888	17972.35
790.221	17942.07
790.554	17775.52
790.887	17811
791.219	17778.91
791.552	17782.07
791.884	17836.76
792.217	17661.4
792.549	17585.7
792.882	17504.34
793.214	17455.53
793.546	17629.08
793.879	17478.81
794.211	17439.03
794.543	17493.72
794.875	17505.7
795.207	17489.43
795.539	17253.05
795.871	17420.95
796.203	17332.82
796.535	17155.65
796.867	17112.04
797.198	17073.17
797.53	17059.83
797.862	16994.52
798.193	16981.19
798.525	16973.51
798.856	17018.48
799.188	16833.4
799.519	16865.49
799.85	16742.33
800.182	16649.22
800.513	16686.28
800.844	16604.7
801.175	16588.66
801.506	16614.87
801.837	16517.25
802.168	16513.18
802.499	16491.94
802.83	16411.04
803.161	16406.07
803.491	16320.64
803.822	16425.5
804.153	16371.72
804.483	16263.24
804.814	16162.68
805.145	16186.18
805.475	16113.64
805.805	16077.71
806.136	16133.76
806.466	16105.73
806.796	16110.25
807.126	15902.35
807.457	15883.59
807.787	15971.27
808.117	15822.58
808.447	15788
808.777	15849.92
809.107	15795.46
809.436	15745.52
809.766	15737.83
810.096	15672.3
810.426	15642.47
810.755	15621.23
811.085	15605.86
811.414	15538.52
811.744	15425.07
812.073	15429.82
812.403	15493.55
812.732	15329.71
813.061	15388.01
813.39	15225.76
813.719	15260.33
814.049	15318.41
814.378	15211.29
814.707	15139.21
815.036	15139.21
815.365	15101.69
815.693	14960.23
816.022	15022.6
816.351	14965.43
816.68	14872.77
817.008	14943.73
817.337	14893.34
817.665	14800.01
817.994	14751.65
818.322	14776.05
818.651	14701.48
818.979	14687.01
819.307	14810.18
819.636	14627.13
819.964	14614.25
820.292	14625.32
820.62	14708.48
820.948	14637.07
821.276	14752.1
821.604	14596.62
821.932	14636.85
822.259	14696.73
822.587	14596.85
822.915	14528.83
823.243	14649.05
823.57	14581.48
823.898	14595.49
824.225	14476.17
824.553	14561.59
824.88	14585.77
825.207	14560.92
825.535	14509.17
825.862	14613.34
826.189	14538.32
826.516	14643.85
826.843	14637.98
827.17	14636.85
827.497	14658.09
827.824	14583.06
828.151	14640.69
828.478	14591.88
828.805	14674.59
829.131	14620.35
829.458	14571.54
829.785	14543.06
830.111	14562.72
830.438	14680.01
830.764	14506.23
831.09	14649.28
831.417	14581.03
831.743	14646.34
832.069	14690.86
832.395	14455.38
832.722	14568.15
833.048	14607.92
833.374	14575.38
833.7	14461.48
834.026	14513.23
834.351	14472.78
834.677	14501.03
835.003	14579.22
835.329	14528.6
835.654	14446.34
835.98	14361.37
836.306	14378.32
836.631	14463.74
836.956	14414.48
837.282	14379
837.607	14253.13
837.932	14301.71
838.258	14307.59
838.583	14291.55
838.908	14250.42
839.233	14207.93
839.558	14169.51
839.883	14149.18
840.208	14045.45
840.533	14068.05
840.858	14140.14
841.182	14112.34
841.507	14063.3
841.832	14088.39
842.156	13955.28
842.481	13967.26
842.805	13945.34
843.13	13902.85
843.454	13900.37
843.778	13869.64
844.103	13766.14
844.427	13763.88
844.751	13731.56
845.075	13677.1
845.399	13697.21
845.723	13568.85
846.047	13612.01
846.371	13435.3
846.695	13525.46
847.019	13459.93
847.343	13425.81
847.666	13323.66
847.99	13238.01
848.313	13270.1
848.637	13180.39
848.96	13140.16
849.284	13035.31
849.607	13023.1
849.931	12945.37
850.254	12885.03
850.577	12836.67
850.9	12800.28
851.223	12737.46
851.546	12704.69
851.869	12618.59
852.192	12644.58
852.515	12445.94
852.838	12466.96
853.161	12438.49
853.483	12381.76
853.806	12347.64
854.129	12339.28
854.451	12290.69
854.774	12205.5
855.096	12208.44
855.419	12149.91
855.741	12193.07
856.063	12058.16
856.385	12018.38
856.708	12096.35
857.03	11988.78
857.352	11981.78
857.674	12001.66
857.996	11897.94
858.318	11789.69
858.64	11863.59
858.961	11766.87
859.283	11729.58
859.605	11683.93
859.926	11693.87
860.248	11620.43
860.57	11543.59
860.891	11534.1
861.212	11612.52
861.534	11485.07
861.855	11536.59
862.176	11551.05
862.498	11442.13
862.819	11465.18
863.14	11473.77
863.461	11380.44
863.782	11359.19
864.103	11383.37
864.424	11366.88
864.745	11330.49
865.065	11253.88
865.386	11252.08
865.707	11197.16
866.027	11283.71
866.348	11220.89
866.668	11177.73
866.989	11152.42
867.309	11052.99
867.63	11137.05
867.95	11119.43
868.27	11023.16
868.59	11060.67
868.91	11076.49
869.23	11057.28
869.55	10953.78
869.87	11074
870.19	10950.16
870.51	11013.21
870.83	10966.21
871.15	10952.42
871.469	10946.1
871.789	10917.85
872.109	10954.46
872.428	10838.08
872.748	10830.85
873.067	10800.11
873.386	10825.42
873.706	10753.56
874.025	10796.27
874.344	10718.08
874.663	10721.02
874.982	10679.44
875.301	10735.03
875.62	10715.59
875.939	10701.13
876.258	10666.1
876.577	10644.86
876.896	10599.21
877.214	10578.65
877.533	10647.12
877.852	10571.19
878.17	10547.01
878.489	10526.45
878.807	10561.93
879.125	10524.19
879.444	10486.45
879.762	10446
880.08	10434.25
880.398	10354.02
880.716	10451.19
881.034	10356.06
881.352	10376.39
881.67	10359.9
881.988	10334.36
882.306	10312.67
882.624	10295.27
882.941	10245.55
883.259	10220.92
883.577	10187.47
883.894	10237.64
884.212	10171.65
884.529	10142.05
884.846	10085.55
885.164	9990.64
885.481	10067.48
885.798	10059.57
886.115	9984.54
886.432	9975.05
886.75	10006.23
887.067	9949.06
887.383	9949.06
887.7	10035.16
888.017	9841.04
888.334	9868.84
888.651	9816.18
888.967	9814.37
889.284	9775.96
889.6	9712.68
889.917	9686.69
890.233	9693.25
890.55	9628.84
890.866	9718.78
891.182	9621.84
891.498	9584.1
891.815	9571.9
892.131	9512.69
892.447	9518.79
892.763	9476.53
893.079	9467.04
893.395	9397.44
893.71	9323.99
894.026	9369.87
894.342	9264.11
894.657	9262.07
894.973	9257.55
895.289	9254.16
895.604	9231.11
895.92	9202.87
896.235	9095.07
896.55	9088.97
896.865	9068.86
897.181	9048.29
897.496	9095.98
897.811	8954.28
898.126	8909.99
898.441	8854.4
898.756	8916.77
899.071	8788.64
899.386	8852.82
899.7	8779.37
900.015	8714.29
900.33	8679.72
900.644	8722.65
900.959	8670
901.273	8668.64
901.588	8633.39
901.902	8578.48
902.216	8553.39
902.531	8539.61
902.845	8425.94
903.159	8433.17
903.473	8347.07
903.787	8283.34
904.101	8323.57
904.415	8317.69
904.729	8274.3
905.042	8206.73
905.356	8186.62
905.67	8203.12
905.984	8148.2
906.297	8153.18
906.611	8072.95
906.924	8045.16
907.237	8050.81
907.551	8077.25
907.864	7967.19
908.177	7994.08
908.491	7940.3
908.804	7925.38
909.117	7818.49
909.43	7794.77
909.743	7712.06
910.056	7776.46
910.368	7728.55
910.681	7643.81
910.994	7683.13
911.307	7640.87
911.619	7566.75
911.932	7596.35
912.244	7470.93
912.557	7476.58
912.869	7444.49
913.181	7372.41
913.494	7400.88
913.806	7378.28
914.118	7327.89
914.43	7300.32
914.742	7302.12
915.054	7275.46
915.366	7314.1
915.678	7209.47
915.99	7138.51
916.302	7081.79
916.613	7048.8
916.925	7131.96
917.236	7045.41
917.548	6997.73
917.859	7050.83
918.171	6939.42
918.482	6856.94
918.794	6907.78
919.105	6897.39
919.416	6782.82
919.727	6813.78
920.038	6800.22
920.349	6734
920.66	6673.89
920.971	6757.51
921.282	6709.15
921.593	6597.06
921.903	6620.33
922.214	6586.66
922.525	6626.21
922.835	6563.84
923.146	6540.79
923.456	6508.47
923.767	6488.13
924.077	6471.41
924.387	6439.1
924.697	6378.76
925.008	6349.38
925.318	6263.96
925.628	6293.34
925.938	6325.65
926.248	6208.59
926.558	6204.07
926.867	6206.79
927.177	6183.28
927.487	6188.48
927.796	6114.81
928.106	6138.54
928.416	6091.53
928.725	6091.76
929.034	6002.05
929.344	6065.55
929.653	6032.78
929.962	5903.29
930.271	5943.97
930.581	5911.88
930.89	5895.61
931.199	5848.15
931.508	5880.01
931.817	5866
932.125	5736.97
932.434	5785.1
932.743	5699.91
933.051	5710.3
933.36	5658.78
933.669	5659.91
933.977	5628.27
934.286	5625.33
934.594	5630.76
934.902	5563.19
935.21	5579.68
935.519	5513.02
935.827	5517.09
936.135	5486.13
936.443	5399.35
936.751	5441.38
937.059	5386.92
937.367	5355.96
937.674	5364.77
937.982	5364.77
938.29	5296.75
938.597	5327.94
938.905	5237.77
939.213	5231.44
939.52	5193.25
939.827	5230.09
940.135	5158
940.442	5166.14
940.749	5150.77
941.056	5174.95
941.363	5103.31
941.67	5073.71
941.977	5073.26
942.284	5012.47
942.591	5013.6
942.898	5024.44
943.205	4959.59
943.511	4933.37
943.818	4935.63
944.125	4868.97
944.431	4862.87
944.738	4860.83
945.044	4886.59
945.35	4847.5
945.657	4775.41
945.963	4761.17
946.269	4745.58
946.575	4753.26
946.881	4714.62
947.187	4705.36
947.493	4654.96
947.799	4691.12
948.105	4647.5
948.41	4605.25
948.716	4619.48
949.022	4582.87
949.327	4640.73
949.633	4499.26
949.938	4525.93
950.244	4506.72
950.549	4497.68
950.854	4470.56
951.16	4428.75
951.465	4446.15
951.77	4417
952.075	4398.92
952.38	4364.12
952.685	4346.27
952.99	4310.56
953.294	4339.26
953.599	4299.94
953.904	4257.91
954.209	4253.17
954.513	4269.21
954.818	4219.95
955.122	4202.77
955.426	4208.42
955.731	4172.04
956.035	4141.53
956.339	4129.55
956.643	4168.87
956.948	4094.53
957.252	4087.29
957.556	4080.06
957.86	4086.84
958.163	4019.72
958.467	4011.36
958.771	3999.39
959.075	3940.86
959.378	3933.63
959.682	3919.61
959.985	3944.7
960.289	3887.98
960.592	3911.93
960.896	3865.38
961.199	3847.98
961.502	3901.76
961.805	3842.33
962.108	3773.63
962.411	3811.37
962.714	3784.02
963.017	3774.08
963.32	3777.02
963.623	3741.77
963.926	3707.64
964.228	3738.38
964.531	3696.12
964.833	3647.98
965.136	3610.24
965.438	3642.56
965.741	3620.41
966.043	3609.34
966.345	3585.61
966.648	3550.81
966.95	3548.32
967.252	3530.25
967.554	3531.83
967.856	3503.81
968.158	3509.68
968.46	3487.31
968.761	3453.64
969.063	3461.1
969.365	3459.29
969.666	3412.74
969.968	3398.27
970.269	3417.48
970.571	3373.87
970.872	3374.09
971.174	3315.56
971.475	3323.7
971.776	3284.15
972.077	3255.68
972.378	3296.13
972.679	3265.85
972.98	3289.35
973.281	3243.25
973.582	3251.84
973.883	3174.32
974.183	3222.91
974.484	3198.28
974.785	3106.53
975.085	3153.98
975.386	3143.82
975.686	3108.34
975.986	3112.18
976.287	3082.57
976.587	3044.38
976.887	3077.15
977.187	3085.51
977.487	3032.86
977.787	3022.01
978.087	3033.08
978.387	3007.32
978.687	3013.88
978.987	3000.09
979.286	2925.74
979.586	2956.48
979.885	2928.23
980.185	2901.11
980.484	2899.53
980.784	2858.17
981.083	2890.94
981.382	2869.47
981.682	2853.43
981.981	2887.78
982.28	2816.14
982.579	2832.19
982.878	2801.9
983.177	2811.4
983.475	2779.76
983.774	2782.92
984.073	2758.06
984.372	2727.56
984.67	2748.8
984.969	2772.98
985.267	2752.41
985.566	2710.38
985.864	2688.91
986.162	2717.16
986.461	2654.34
986.759	2665.41
987.057	2641.23
987.355	2641.23
987.653	2607.56
987.951	2623.38
988.249	2584.96
988.547	2591.97
988.844	2560.33
989.142	2574.79
989.44	2554
989.737	2540.22
990.035	2530.05
990.332	2502.93
990.63	2494.34
990.927	2499.99
991.224	2492.31
991.521	2465.87
991.819	2460.44
992.116	2466.77
992.413	2448.69
992.71	2433.33
993.006	2430.61
993.303	2442.82
993.6	2387.23
993.897	2349.71
994.193	2347.45
994.49	2354.01
994.787	2354.01
995.083	2338.19
995.379	2303.39
995.676	2305.19
995.972	2302.26
996.268	2291.63
996.565	2287.79
996.861	2269.71
997.157	2235.59
997.453	2256.83
997.749	2236.49
998.044	2207.34
998.34	2222.48
998.636	2191.3
998.932	2192.88
999.227	2165.31
999.523	2166.67
999.818	2174.8
1000.114	2146.33
1000.409	2096.61
1000.704	2114.69
1001	2121.24
1001.295	2084.63
1001.59	2052.54
1001.885	2099.78
1002.18	2088.93
1002.475	2077.4
1002.77	2053.67
1003.065	2024.98
1003.359	2019.33
1003.654	2027.01
1003.949	2021.81
1004.243	1996.95
1004.538	1985.2
1004.832	2006.22
1005.127	1966.9
1005.421	1960.12
1005.715	1947.24
1006.009	1920.57
1006.304	1947.01
1006.598	1907.69
1006.892	1891.87
1007.186	1857.52
1007.48	1850.97
1007.773	1877.18
1008.067	1857.75
1008.361	1836.05
1008.655	1843.74
1008.948	1788.82
1009.242	1788.82
1009.535	1808.94
1009.829	1788.15
1010.122	1758.54
1010.415	1772.1
1010.708	1766.45
1011.001	1742.5
1011.295	1726.68
1011.588	1729.84
1011.881	1692.33
1012.173	1687.81
1012.466	1683.29
1012.759	1681.71
1013.052	1674.7
1013.344	1640.35
1013.637	1651.88
1013.93	1653.01
1014.222	1646.23
1014.514	1614.59
1014.807	1636.96
1015.099	1604.87
1015.391	1596.96
1015.683	1581.6
1015.976	1569.62
1016.268	1561.26
1016.56	1558.77
1016.851	1534.59
1017.143	1561.03
1017.435	1520.58
1017.727	1567.13
1018.018	1520.81
1018.31	1483.29
1018.602	1476.97
1018.893	1480.13
1019.185	1484.88
1019.476	1453.01
1019.767	1442.17
1020.058	1473.8
1020.35	1420.92
1020.641	1441.71
1020.932	1434.26
1021.223	1403.07
1021.514	1386.8
1021.804	1407.36
1022.095	1345.22
1022.386	1411.88
1022.677	1377.53
1022.967	1326.24
1023.258	1331.21
1023.548	1309.97
1023.839	1308.16
1024.129	1319.23
1024.419	1328.27
1024.709	1298.21
1025	1303.64
1025.29	1284.43
1025.58	1265.22
1025.87	1265.45
1026.16	1264.09
1026.449	1264.77
1026.739	1250.08
1027.029	1257.31
1027.319	1229.97
1027.608	1224.09
1027.898	1210.53
1028.187	1229.06
1028.477	1192.68
1028.766	1205.11
1029.055	1172.79
1029.344	1186.35
1029.634	1170.76
1029.923	1157.65
1030.212	1134.83
1030.501	1147.71
1030.79	1138.67
1031.078	1128.05
1031.367	1125.56
1031.656	1113.59
1031.945	1117.2
1032.233	1109.29
1032.522	1073.36
1032.81	1078.79
1033.099	1076.07
1033.387	1068.39
1033.675	1072.46
1033.963	1055.51
1034.251	1049.63
1034.54	1060.25
1034.828	1039.24
1035.116	1040.37
1035.403	1019.35
1035.691	1017.77
1035.979	1011.89
1036.267	1019.35
1036.554	998.79
1036.842	1009.18
1037.129	981.16
1037.417	982.97
1037.704	953.59
1037.992	972.35
1038.279	949.07
1038.566	964.44
1038.853	964.44
1039.14	964.44
