Data from hue_200_FLMS001491_00001.txt Node
Date: Tue Feb 07 16:42:43 GMT 2017
User: dcchb
Spectrometer: FLMS00149
Trigger mode: 0
Integration Time (sec): 2.000000E-2
Scans to average: 10
Electric dark correction enabled: true
Nonlinearity correction enabled: false
Boxcar width: 0
XAxis mode: Wavelengths
Number of Pixels in Spectrum: 2048
>>>>>Begin Spectral Data<<<<<
341.393	-14.69
341.776	-14.69
342.16	-14.69
342.543	-45.2
342.927	-57.17
343.31	-73.9
343.693	-68.25
344.077	-68.47
344.46	-68.7
344.843	-53.11
345.226	-21.02
345.61	-33.67
345.993	3.62
346.376	-22.37
346.759	13.78
347.142	18.76
347.525	43.84
347.908	56.04
348.291	54.91
348.674	83.39
349.057	135.14
349.44	116.83
349.823	140.11
350.206	156.83
350.588	206.32
350.971	192.54
351.354	239.99
351.737	230.5
352.119	256.49
352.502	266.89
352.884	246.77
353.267	278.41
353.65	297.62
354.032	308.24
354.414	304.62
354.797	310.73
355.179	308.47
355.562	305.53
355.944	342.59
356.326	347.56
356.709	347.79
357.091	332.19
357.473	349.14
357.855	345.53
358.238	332.19
358.62	330.61
359.002	340.1
359.384	333.78
359.766	337.39
360.148	334.91
360.53	350.27
360.912	346.66
361.294	346.88
361.676	338.52
362.057	326.09
362.439	336.04
362.821	341.46
363.203	318.41
363.584	310.95
363.966	320.22
364.348	345.75
364.729	317.73
365.111	329.93
365.493	319.31
365.874	303.72
366.256	322.93
366.637	325.19
367.019	316.6
367.4	322.93
367.781	327.22
368.163	309.82
368.544	318.64
368.925	315.02
369.306	334.45
369.688	310.5
370.069	323.38
370.45	319.54
370.831	331.06
371.212	326.32
371.593	329.26
371.974	315.47
372.355	338.3
372.736	322.7
373.117	329.71
373.498	329.93
373.879	291.97
374.26	328.35
374.641	309.6
375.021	310.27
375.402	327.68
375.783	323.83
376.163	329.93
376.544	345.98
376.925	325.87
377.305	339.2
377.686	332.19
378.066	314.34
378.447	315.47
378.827	331.97
379.208	341.23
379.588	338.07
379.968	326.32
380.349	339.43
380.729	345.75
381.109	355.24
381.489	331.74
381.87	342.14
382.25	349.14
382.63	353.21
383.01	349.6
383.39	334.45
383.77	361.12
384.15	340.33
384.53	343.04
384.91	359.31
385.29	370.16
385.67	377.39
386.049	359.31
386.429	350.27
386.809	371.97
387.189	355.24
387.568	347.56
387.948	376.26
388.328	381.01
388.707	378.07
389.087	368.58
389.466	375.81
389.846	395.24
390.225	370.39
390.605	392.76
390.984	390.5
391.363	397.28
391.743	383.72
392.122	381.46
392.501	399.99
392.881	366.32
393.26	390.27
393.639	395.7
394.018	392.53
394.397	389.37
394.776	392.98
395.155	407.45
395.534	402.02
395.913	388.46
396.292	396.37
396.671	404.28
397.05	422.59
397.429	428.69
397.808	421.68
398.186	418.75
398.565	435.92
398.944	435.24
399.323	407.22
399.701	418.52
400.08	438.63
400.458	444.06
400.837	434.11
401.215	446.54
401.594	441.12
401.972	451.06
402.351	452.64
402.729	457.62
403.107	450.38
403.486	460.78
403.864	452.64
404.242	454.45
404.62	489.03
404.999	485.64
405.377	496.71
405.755	454.68
406.133	475.92
406.511	483.6
406.889	519.08
407.267	516.82
407.645	527.44
408.023	520.66
408.401	535.13
408.779	529.25
409.156	542.81
409.534	562.25
409.912	550.04
410.29	583.49
410.667	578.06
411.045	569.48
411.422	580.78
411.8	615.35
412.178	608.12
412.555	619.42
412.933	627.33
413.31	641.11
413.687	658.06
414.065	650.15
414.442	677.04
414.819	687.21
415.197	697.83
415.574	703.71
415.951	690.38
416.328	701.45
416.705	706.87
417.082	754.1
417.46	726.08
417.837	743.71
418.214	766.76
418.591	780.77
418.967	769.02
419.344	784.84
419.721	839.07
420.098	817.61
420.475	849.24
420.852	842.46
421.228	886.76
421.605	887.43
421.982	903.93
422.358	909.35
422.735	919.3
423.111	933.76
423.488	956.36
423.864	996.36
424.241	1000.43
424.617	1016.24
424.994	1020.31
425.37	1018.05
425.746	1049.92
426.123	1080.65
426.499	1087.2
426.875	1094.43
427.251	1134.66
427.627	1144.15
428.003	1165.85
428.379	1140.76
428.756	1155.22
429.132	1208.56
429.507	1218.27
429.883	1242.45
430.259	1244.94
430.635	1257.14
431.011	1274.09
431.387	1293.75
431.763	1324.03
432.138	1336.91
432.514	1362.68
432.89	1375.33
433.265	1401.77
433.641	1404.93
434.016	1453.07
434.392	1479.74
434.767	1496.68
435.143	1552.5
435.518	1565.61
435.894	1577.13
436.269	1631.37
436.644	1614.87
437.02	1693.06
437.395	1683.12
437.77	1720.63
438.145	1760.63
438.52	1809.22
438.895	1831.59
439.271	1818.94
439.646	1892.15
440.021	1874.98
440.395	1937.35
440.77	1914.98
441.145	1956.56
441.52	2000.85
441.895	2021.64
442.27	2037.23
442.645	2073.62
443.019	2109.55
443.394	2097.35
443.769	2130.34
444.143	2147.06
444.518	2192.48
444.892	2190.9
445.267	2210.11
445.641	2256.66
446.016	2228.42
446.39	2259.83
446.764	2302.54
447.139	2310
447.513	2350.45
447.887	2378.24
448.262	2374.4
448.636	2406.49
449.01	2435.64
449.384	2451.91
449.758	2454.62
450.132	2509.99
450.506	2510.67
450.88	2514.51
451.254	2535.07
451.628	2567.39
452.002	2606.03
452.376	2613.49
452.75	2628.18
453.123	2669.08
453.497	2705.47
453.871	2718.8
454.244	2759.48
454.618	2812.36
454.992	2853.26
455.365	2835.63
455.739	2924.22
456.112	2935.97
456.486	2942.3
456.859	2976.87
457.232	3044.21
457.606	3047.15
457.979	3109.97
458.352	3147.94
458.725	3190.2
459.099	3197.2
459.472	3291.66
459.845	3284.43
460.218	3309.29
460.591	3357.65
460.964	3360.36
461.337	3453.47
461.71	3484.2
462.083	3550.64
462.456	3561.71
462.829	3592.22
463.201	3666.34
463.574	3655.95
463.947	3726
464.32	3709.51
464.692	3837.41
465.065	3859.79
465.438	3914.93
465.81	3996.51
466.183	4012.55
466.555	4077.63
466.928	4096.16
467.3	4103.17
467.672	4205.31
468.045	4242.6
468.417	4297.97
468.789	4270.85
469.161	4363.5
469.534	4444.85
469.906	4516.27
470.278	4572.31
470.65	4646.66
471.022	4737.28
471.394	4776.15
471.766	4795.35
472.138	4830.83
472.51	4994.67
472.882	5012.3
473.253	5037.38
473.625	5136.59
473.997	5236.25
474.369	5295.45
474.74	5292.74
475.112	5407.77
475.484	5527.99
475.855	5599.4
476.227	5662
476.598	5783.12
476.97	5798.04
477.341	5924.82
477.713	6047.07
478.084	6051.59
478.455	6178.59
478.827	6231.7
479.198	6380.17
479.569	6409.1
479.94	6570
480.311	6642.31
480.682	6775.87
481.053	6902.64
481.424	6958.69
481.795	6995.75
482.166	7102.19
482.537	7158.91
482.908	7423.08
483.279	7504.44
483.65	7584.89
484.021	7690.65
484.391	7743.07
484.762	7867.82
485.133	7888.15
485.503	8029.62
485.874	8221.03
486.244	8268.94
486.615	8411.98
486.985	8468.48
487.356	8620.56
487.726	8654.91
488.097	8792.54
488.467	8838.41
488.837	8969.71
489.207	9053.55
489.578	9170.61
489.948	9288.8
490.318	9391.84
490.688	9317.5
491.058	9524.27
491.428	9620.76
491.798	9705.06
492.168	9834.09
492.538	9879.29
492.908	10027.53
493.278	10056.91
493.648	10077.7
494.017	10219.39
494.387	10309.33
494.757	10351.59
495.126	10373.51
495.496	10470.91
495.866	10587.74
496.235	10627.74
496.605	10784.12
496.974	10717.46
497.344	10839.49
497.713	10854.18
498.082	10894.85
498.452	11000.84
498.821	11018.69
499.19	11011.01
499.559	11079.93
499.928	11185.69
500.298	11189.76
500.667	11248.74
501.036	11238.57
501.405	11361.74
501.774	11353.15
502.143	11437.44
502.512	11496.65
502.88	11472.92
503.249	11526.25
503.618	11602.86
503.987	11573.93
504.356	11623.2
504.724	11647.83
505.093	11681.27
505.462	11732.12
505.83	11801.95
506.199	11860.48
506.567	11988.61
506.936	11942.96
507.304	12108.38
507.672	12048.72
508.041	11978.44
508.409	12118.55
508.777	12206.23
509.145	12190.64
509.514	12231.54
509.882	12224.09
510.25	12286
510.618	12245.55
510.986	12292.33
511.354	12376.17
511.722	12424.76
512.09	12420.46
512.458	12331.88
512.826	12470.63
513.193	12539.78
513.561	12502.5
513.929	12530.07
514.297	12700.23
514.664	12606.67
515.032	12724.41
515.4	12741.81
515.767	12736.61
516.135	12701.59
516.502	12588.14
516.869	12856.16
517.237	12807.8
517.604	12764.18
517.972	12879.66
518.339	12873.11
518.706	12792.66
519.073	12885.31
519.44	12881.92
519.808	12894.58
520.175	12879.21
520.542	13034.01
520.909	12987.23
521.276	12989.71
521.643	13008.92
522.009	13012.99
522.376	13081.01
522.743	13101.58
523.11	13100.9
523.477	13185.87
523.843	13214.57
524.21	13217.28
524.577	13312.42
524.943	13311.74
525.31	13258.18
525.676	13301.8
526.043	13378.41
526.409	13338.86
526.776	13410.49
527.142	13412.53
527.508	13442.81
527.874	13488.46
528.241	13441.45
528.607	13422.92
528.973	13467.44
529.339	13392.19
529.705	13444.62
530.071	13498.18
530.437	13513.09
530.803	13434
531.169	13498.85
531.535	13382.47
531.901	13319.2
532.267	13281.46
532.632	13336.82
532.998	13252.31
533.364	13333.43
533.73	13337.05
534.095	13354.23
534.461	13262.93
534.826	13310.38
535.192	13245.75
535.557	13312.42
535.923	13209.14
536.288	13197.62
536.653	13166.43
537.019	13135.93
537.384	13097.73
537.749	13048.47
538.114	13079.2
538.479	12970.05
538.845	12928.02
539.21	12854.35
539.575	12890.73
539.94	12855.93
540.305	12879.44
540.67	12715.37
541.034	12789.95
541.399	12718.08
541.764	12671.31
542.129	12631.08
542.494	12674.24
542.858	12640.35
543.223	12514.7
543.587	12523.06
543.952	12422.5
544.316	12443.06
544.681	12340.69
545.045	12428.83
545.41	12325.33
545.774	12342.05
546.138	12208.49
546.503	12180.02
546.867	12180.02
547.231	12218.89
547.595	12145.22
547.959	12035.84
548.324	11963.08
548.688	11884.66
549.052	11950.65
549.416	11839.91
549.779	11832.46
550.143	11819.35
550.507	11756.75
550.871	11748.39
551.235	11731.67
551.599	11658.9
551.962	11584.1
552.326	11631.78
552.689	11568.96
553.053	11473.82
553.417	11498.91
553.78	11615.29
554.143	11442.41
554.507	11485.8
554.87	11474.95
555.234	11475.18
555.597	11363.54
555.96	11393.82
556.323	11288.06
556.686	11338.46
557.05	11324
557.413	11292.81
557.776	11284.68
558.139	11342.98
558.502	11249.65
558.865	11230.21
559.228	11290.32
559.59	11186.6
559.953	11209.2
560.316	11224.34
560.679	11190.44
561.041	11269.53
561.404	11196.32
561.767	11288.74
562.129	11129.2
562.492	11191.8
562.854	11131.91
563.217	11156.77
563.579	11158.58
563.941	11164.45
564.304	11204
564.666	11183.43
565.028	11170.33
565.39	11098.01
565.753	11191.34
566.115	11173.72
566.477	11135.53
566.839	11191.12
567.201	11196.09
567.563	11179.82
567.925	11215.98
568.287	11249.2
568.648	11269.31
569.01	11205.58
569.372	11290.32
569.734	11168.97
570.095	11239.93
570.457	11302.53
570.819	11226.6
571.18	11230.67
571.542	11286.03
571.903	11326.93
572.265	11298.69
572.626	11295.3
572.987	11304.79
573.349	11364.67
573.71	11363.32
574.071	11438.34
574.432	11414.16
574.794	11422.07
575.155	11419.36
575.516	11381.62
575.877	11382.98
576.238	11430.21
576.599	11417.78
576.96	11353.15
577.32	11377.55
577.681	11312.92
578.042	11375.29
578.403	11429.53
578.763	11451
579.124	11431.56
579.485	11509.75
579.845	11462.52
580.206	11415.75
580.566	11407.61
580.927	11412.81
581.287	11453.03
581.648	11459.59
582.008	11476.31
582.368	11387.27
582.728	11475.63
583.089	11366.25
583.449	11354.96
583.809	11400.83
584.169	11454.39
584.529	11386.14
584.889	11431.34
585.249	11379.59
585.609	11337.33
585.969	11479.7
586.329	11334.17
586.688	11366.48
587.048	11358.35
587.408	11340.72
587.768	11395.41
588.127	11332.81
588.487	11322.41
588.846	11329.19
589.206	11330.32
589.565	11261.85
589.925	11355.18
590.284	11266.14
590.643	11357.89
591.003	11419.81
591.362	11390.89
591.721	11319.93
592.08	11357.22
592.44	11379.81
592.799	11342.98
593.158	11303.21
593.517	11264.11
593.876	11292.13
594.235	11218.24
594.593	11244
594.952	11330.32
595.311	11243.09
595.67	11265.47
596.029	11361.06
596.387	11351.57
596.746	11375.97
597.104	11299.59
597.463	11154.28
597.822	11249.87
598.18	11182.76
598.538	11199.71
598.897	11323.77
599.255	11189.08
599.613	11292.58
599.972	11284.68
600.33	11253.49
600.688	11257.78
601.046	11298.23
601.404	11290.32
601.762	11244.9
602.12	11340.04
602.478	11306.82
602.836	11273.83
603.194	11293.49
603.552	11237.67
603.91	11248.74
604.268	11236.54
604.625	11213.72
604.983	11254.17
605.341	11160.38
605.698	11213.49
606.056	11280.61
606.413	11295.52
606.771	11297.33
607.128	11329.65
607.485	11205.13
607.843	11214.62
608.2	11262.98
608.557	11345.46
608.914	11312.47
609.272	11304.56
609.629	11331.23
609.986	11366.93
610.343	11336.2
610.7	11362.64
611.057	11353.6
611.414	11337.33
611.771	11287.84
612.127	11355.41
612.484	11349.98
612.841	11371.23
613.198	11306.82
613.554	11408.51
613.911	11478.12
614.267	11425.46
614.624	11400.83
614.98	11482.64
615.337	11442.64
615.693	11404.22
616.05	11446.03
616.406	11451.45
616.762	11451
617.118	11463.88
617.475	11527.38
617.831	11531.45
618.187	11434.05
618.543	11443.77
618.899	11490.32
619.255	11504.33
619.611	11534.16
619.967	11522.18
620.323	11503.65
620.678	11410.32
621.034	11473.6
621.39	11475.86
621.746	11457.33
622.101	11532.8
622.457	11443.09
622.812	11493.71
623.168	11473.37
623.523	11526.02
623.879	11572.35
624.234	11459.59
624.589	11528.74
624.945	11516.99
625.3	11467.95
625.655	11564.22
626.01	11495.06
626.365	11538
626.72	11464.33
627.075	11503.88
627.43	11462.52
627.785	11444.67
628.14	11377.78
628.495	11482.86
628.85	11453.26
629.205	11394.5
629.559	11467.95
629.914	11336.88
630.269	11412.13
630.623	11391.79
630.978	11416.65
631.332	11432.02
631.687	11335.07
632.041	11389.98
632.396	11368.51
632.75	11264.79
633.104	11311.79
633.459	11262.98
633.813	11278.35
634.167	11285.8
634.521	11258.24
634.875	11309.08
635.229	11287.61
635.583	11125.58
635.937	11214.39
636.291	11170.1
636.645	11108.18
636.999	11143.44
637.352	11139.37
637.706	11116.09
638.06	11188.18
638.413	11003.55
638.767	11124.23
639.121	11129.88
639.474	11027.05
639.828	11055.75
640.181	11062.76
640.534	11040.16
640.888	11026.38
641.241	10964.68
641.594	11050.78
641.947	10979.15
642.301	10972.82
642.654	11020.05
643.007	10977.11
643.36	11003.1
643.713	10922.65
644.066	10922.88
644.419	10957.9
644.771	10874.97
645.124	10777.8
645.477	10757.68
645.83	10628.2
646.182	10545.71
646.535	10578.03
646.888	10573.06
647.24	10512.49
647.593	10564.69
647.945	10557.91
648.298	10504.36
648.65	10483.57
649.002	10390.46
649.355	10558.82
649.707	10500.06
650.059	10597.01
650.411	10757.46
650.763	10727.85
651.115	10824.8
651.467	10742.77
651.819	10798.13
652.171	10764.24
652.523	10746.84
652.875	10778.25
653.227	10721.75
653.578	10783.22
653.93	10697.12
654.282	10717.46
654.633	10700.51
654.985	10705.71
655.337	10755.42
655.688	10755.42
656.039	10807.63
656.391	10674.07
656.742	10757.23
657.094	10708.87
657.445	10732.83
657.796	10776.44
658.147	10750
658.498	10778.25
658.849	10721.75
659.2	10748.19
659.551	10674.52
659.902	10753.84
660.253	10691.92
660.604	10869.09
660.955	10694.63
661.306	10749.1
661.656	10789.32
662.007	10798.81
662.358	10727.63
662.708	10796.33
663.059	10810.79
663.409	10728.76
663.76	10805.14
664.11	10822.99
664.461	10778.7
664.811	10804.69
665.161	10769.21
665.511	10777.12
665.862	10739.83
666.212	10801.07
666.562	10836.55
666.912	10844.23
667.262	10800.17
667.612	10774.18
667.962	10743.22
668.312	10800.17
668.662	10787.74
669.011	10783.45
669.361	10779.83
669.711	10776.67
670.06	10695.31
670.41	10764.01
670.76	10677.23
671.109	10803.33
671.459	10746.84
671.808	10754.75
672.157	10735.54
672.507	10678.36
672.856	10667.52
673.205	10730.11
673.554	10711.13
673.904	10591.36
674.253	10742.32
674.602	10594.3
674.951	10560.85
675.3	10385.04
675.649	10611.25
675.998	10570.8
676.346	10666.61
676.695	10695.99
677.044	10546.39
677.393	10585.03
677.741	10574.41
678.09	10607.4
678.438	10517.92
678.787	10489.44
679.135	10541.42
679.484	10487.86
679.832	10474.98
680.181	10427.75
680.529	10497.58
680.877	10490.35
681.225	10442.66
681.573	10473.85
681.922	10365.6
682.27	10326.06
682.618	10350.01
682.966	10315.66
683.314	10322.44
683.661	10325.38
684.009	10205.61
684.357	10230.24
684.705	10211.93
685.053	10194.08
685.4	10163.12
685.748	10117.47
686.095	10142.11
686.443	10074.09
686.79	10060.07
687.138	10105.95
687.485	10142.33
687.832	10052.62
688.18	10072.5
688.527	9924.03
688.874	9947.54
689.221	9949.12
689.568	9868.89
689.915	9800.19
690.262	9868.44
690.609	9810.36
690.956	9811.49
691.303	9804.04
691.65	9677.49
691.997	9633.42
692.344	9745.51
692.69	9644.94
693.037	9582.57
693.383	9554.33
693.73	9560.2
694.077	9455.8
694.423	9467.55
694.769	9374.44
695.116	9387.1
695.462	9391.39
695.808	9322.01
696.155	9393.43
696.501	9262.58
696.847	9265.97
697.193	9177.84
697.539	9230.27
697.885	9117.5
698.231	9078.63
698.577	9048.12
698.923	9034.79
699.269	8985.75
699.614	8941.01
699.96	8960.67
700.306	8852.42
700.651	8856.72
700.997	8857.39
701.342	8818.75
701.688	8773.1
702.033	8737.62
702.379	8736.27
702.724	8635.48
703.069	8668.25
703.415	8621.02
703.76	8636.38
704.105	8687.46
704.45	8584.41
704.795	8527.46
705.14	8496.5
705.485	8498.76
705.83	8449.5
706.175	8492.66
706.52	8414.92
706.865	8356.39
707.209	8349.84
707.554	8316.84
707.899	8325.43
708.243	8307.58
708.588	8234.36
708.932	8232.55
709.277	8212.44
709.621	8174.93
709.966	8128.15
710.31	8200.91
710.654	8070.75
710.998	8067.36
711.342	8088.6
711.687	8011.09
712.031	8026.68
712.375	7980.13
712.719	8032.78
713.063	8038.66
713.407	8034.59
713.75	7985.33
714.094	7917.53
714.438	7884.76
714.782	7915.5
715.125	7921.83
715.469	7917.98
715.812	7896.29
716.156	7841.15
716.499	7843.41
716.843	7819
717.186	7748.95
717.53	7816.97
717.873	7789.17
718.216	7795.95
718.559	7676.63
718.902	7722.73
719.246	7674.6
719.589	7695.84
719.932	7649.29
720.275	7704.43
720.617	7649.06
720.96	7581.27
721.303	7721.6
721.646	7724.77
721.989	7638.22
722.331	7704.66
722.674	7620.59
723.016	7679.35
723.359	7587.6
723.701	7568.61
724.044	7543.53
724.386	7516.41
724.729	7579.69
725.071	7535.17
725.413	7547.15
725.755	7533.14
726.097	7541.04
726.439	7509.63
726.782	7514.38
727.124	7494.04
727.465	7469.63
727.807	7466.24
728.149	7508.05
728.491	7450.65
728.833	7434.61
729.175	7457.43
729.516	7501.95
729.858	7442.97
730.199	7454.27
730.541	7414.27
730.882	7430.09
731.224	7464.44
731.565	7405.46
731.906	7466.92
732.248	7411.33
732.589	7437.09
732.93	7437.77
733.271	7443.19
733.612	7354.16
733.953	7474.38
734.294	7471.89
734.635	7435.06
734.976	7459.69
735.317	7438.45
735.658	7388.05
735.999	7417.88
736.339	7518.22
736.68	7523.64
737.021	7470.54
737.361	7449.75
737.702	7437.77
738.042	7462.18
738.383	7474.15
738.723	7528.39
739.063	7517.54
739.404	7498.11
739.744	7555.96
740.084	7512.8
740.424	7532.91
740.764	7513.93
741.104	7643.64
741.444	7565.68
741.784	7538.78
742.124	7582.4
742.464	7561.84
742.804	7598.22
743.143	7582.4
743.483	7656.3
743.823	7666.24
744.162	7720.25
744.502	7752.11
744.841	7775.61
745.181	7794.37
745.52	7790.98
745.86	7863.97
746.199	7923.41
746.538	7927.48
746.877	7983.74
747.216	8051.54
747.556	8057.19
747.895	8127.92
748.234	8089.05
748.573	8241.59
748.911	8204.08
749.25	8285.21
749.589	8409.27
749.928	8383.06
750.267	8538.08
750.605	8536.95
750.944	8650.85
751.283	8693.56
751.621	8807.68
751.96	8833.44
752.298	8923.38
752.636	9026.88
752.975	9110.95
753.313	9237.72
753.651	9386.42
753.989	9416.93
754.327	9603.59
754.666	9651.27
755.004	9752.29
755.342	9980.53
755.679	10060.98
756.017	10136
756.355	10323.8
756.693	10488.99
757.031	10564.02
757.368	10743.45
757.706	10907.28
758.044	11004.46
758.381	11243.09
758.719	11400.15
759.056	11542.52
759.394	11714.27
759.731	11817.09
760.068	12060.47
760.405	12185.67
760.743	12370.3
761.08	12515.83
761.417	12717.63
761.754	12921.69
762.091	13079.66
762.428	13233.32
762.765	13337.73
763.102	13662.01
763.438	13720.54
763.775	13920.09
764.112	14116.46
764.449	14431.48
764.785	14446.63
765.122	14606.17
765.458	14786.5
765.795	15005.26
766.131	15191.92
766.467	15284.12
766.804	15472.59
767.14	15540.38
767.476	15864.22
767.812	15898.11
768.148	16081.16
768.485	16117.99
768.821	16276.41
769.157	16540.81
769.492	16673.91
769.828	16769.05
770.164	16816.28
770.5	17036.84
770.836	17171.3
771.171	17224.41
771.507	17406.55
771.842	17378.75
772.178	17578.97
772.513	17715.69
772.849	17790.27
773.184	17875.01
773.519	18043.59
773.855	18044.5
774.19	18043.14
774.525	18236.13
774.86	18267.54
775.195	18498.04
775.53	18409.01
775.865	18470.93
776.2	18554.31
776.535	18549.34
776.87	18643.35
777.205	18663.24
777.539	18653.97
777.874	18869.79
778.209	18786.62
778.543	18811.93
778.878	18911.82
779.212	18982.33
779.547	18949.11
779.881	19017.58
780.215	18870.01
780.55	19070.91
780.884	19032.72
781.218	19057.58
781.552	19189.78
781.886	19049.67
782.22	19143
782.554	19100.06
782.888	19067.97
783.222	19118.82
783.556	19152.94
783.889	19070.23
784.223	19026.39
784.557	19041.08
784.89	19147.07
785.224	19007.64
785.557	19032.04
785.891	18987.52
786.224	18961.54
786.558	18999.5
786.891	18797.25
787.224	18781.2
787.557	18875.89
787.891	18936
788.224	18895.32
788.557	18983.23
788.89	18927.19
789.223	18948.2
789.556	18892.38
789.888	18882.67
790.221	18762.44
790.554	18752.95
790.887	18743.69
791.219	18689
791.552	18664.82
791.884	18602.45
792.217	18631.15
792.549	18567.2
792.882	18516.35
793.214	18458.5
793.546	18547.53
793.879	18469.34
794.211	18328.33
794.543	18443.13
794.875	18373.3
795.207	18369.91
795.539	18386.41
795.871	18376.47
796.203	18181.67
796.535	18105.96
796.867	18138.96
797.198	18167.66
797.53	18127.21
797.862	18081.78
798.193	18093.08
798.525	17926.31
798.856	17959.53
799.188	17691.29
799.519	17838.4
799.85	17642.25
800.182	17814.67
800.513	17755.24
800.844	17684.96
801.175	17733.09
801.506	17712.3
801.837	17550.95
802.168	17489.71
802.499	17550.95
802.83	17498.75
803.161	17383.27
803.491	17463.04
803.822	17446.77
804.153	17318.87
804.483	17171.3
804.814	17199.32
805.145	17119.1
805.475	17146.44
805.805	17098.76
806.136	17112.77
806.466	17118.87
806.796	17048.59
807.126	16922.72
807.457	16972.89
807.787	16884.75
808.117	16811.76
808.447	16851.53
808.777	16813.34
809.107	16709.62
809.436	16693.8
809.766	16583.74
810.096	16582.61
810.426	16550.07
810.755	16499.91
811.085	16584.2
811.414	16504.42
811.744	16391.89
812.073	16390.08
812.403	16379.46
812.732	16329.74
813.061	16417.2
813.39	16191.44
813.719	16274.15
814.049	16341.49
814.378	16215.62
814.707	16155.73
815.036	16205.22
815.365	16053.82
815.693	15971.11
816.022	15951.44
816.351	15967.72
816.68	15881.84
817.008	15965
817.337	15797.78
817.665	15821.73
817.994	15799.81
818.322	15802.52
818.651	15753.03
818.979	15688.85
819.307	15777.21
819.636	15813.37
819.964	15607.73
820.292	15724.11
820.62	15641.4
820.948	15741.28
821.276	15702.64
821.604	15650.21
821.932	15701.06
822.259	15702.64
822.587	15681.62
822.915	15569.31
823.243	15663.77
823.57	15588.74
823.898	15662.87
824.225	15559.59
824.553	15663.54
824.88	15588.97
825.207	15703.99
825.535	15627.16
825.862	15720.04
826.189	15590.1
826.516	15680.27
826.843	15765.46
827.17	15667.38
827.497	15700.83
827.824	15687.72
828.151	15762.75
828.478	15577.44
828.805	15757.33
829.131	15668.06
829.458	15626.03
829.785	15545.81
830.111	15552.13
830.438	15691.11
830.764	15619.93
831.09	15671.68
831.417	15576.09
831.743	15642.53
832.069	15589.19
832.395	15619.48
832.722	15630.78
833.048	15613.83
833.374	15646.37
833.7	15466.26
834.026	15598.69
834.351	15472.81
834.677	15536.31
835.003	15594.39
835.329	15537.44
835.654	15567.73
835.98	15593.49
836.306	15422.87
836.631	15494.28
836.956	15472.36
837.282	15503.32
837.607	15347.62
837.932	15353.49
838.258	15386.26
838.583	15331.57
838.908	15253.61
839.233	15162.54
839.558	15206.15
839.883	15237.34
840.208	15124.57
840.533	15252.03
840.858	15199.37
841.182	15121.86
841.507	15151.01
841.832	15028.08
842.156	15029.21
842.481	15051.58
842.805	14935.2
843.13	14947.63
843.454	14932.94
843.778	14838.03
844.103	14804.81
844.427	14753.74
844.751	14841.19
845.075	14715.77
845.399	14661.08
845.723	14595.77
846.047	14671.93
846.371	14571.59
846.695	14536.11
847.019	14413.41
847.343	14346.06
847.666	14318.72
847.99	14201.89
848.313	14269.23
848.637	14171.38
848.96	14050.93
849.284	14061.78
849.607	13927.54
849.931	13907.43
850.254	13878.96
850.577	13724.84
850.9	13777.49
851.223	13798.28
851.546	13560.32
851.869	13581.79
852.192	13611.17
852.515	13539.31
852.838	13426.31
853.161	13381.57
853.483	13392.42
853.806	13249.6
854.129	13264.96
854.451	13152.87
854.774	13147.45
855.096	13048.92
855.419	13083.72
855.741	13021.8
856.063	13015.48
856.385	12945.87
856.708	12797.4
857.03	12866.1
857.352	12950.62
857.674	12741.36
857.996	12777.52
858.318	12724.64
858.64	12771.87
858.961	12681.47
859.283	12622.72
859.605	12573.68
859.926	12604.64
860.248	12522.38
860.57	12516.06
860.891	12418.43
861.212	12413.01
861.534	12299.11
861.855	12376.85
862.176	12354.7
862.498	12360.58
862.819	12296.85
863.14	12232.22
863.461	12208.72
863.782	12217.53
864.103	12234.71
864.424	12181.83
864.745	12116.97
865.065	12132.79
865.386	12119.23
865.707	12074.26
866.027	12119.46
866.348	12072.9
866.668	12039.01
866.989	11989.52
867.309	11890.08
867.63	11942.74
867.95	11941.61
868.27	11894.6
868.59	11862.96
868.91	11851.21
869.23	11835.4
869.55	11730.99
869.87	11781.61
870.19	11745.45
870.51	11818.67
870.83	11857.32
871.15	11681.05
871.469	11787.26
871.789	11724.89
872.109	11773.25
872.428	11696.87
872.748	11671.11
873.067	11633.14
873.386	11637.21
873.706	11636.53
874.025	11483.09
874.344	11539.13
874.663	11624.78
874.982	11507.72
875.301	11519.02
875.62	11455.07
875.939	11461.62
876.258	11450.77
876.577	11417.33
876.896	11445.35
877.214	11358.12
877.533	11316.99
877.852	11358.8
878.17	11330.32
878.489	11272.02
878.807	11289.87
879.125	11250.55
879.444	11284.45
879.762	11267.73
880.08	11221.63
880.398	11162.87
880.716	11261.62
881.034	11110.89
881.352	11140.27
881.67	11045.81
881.988	11138.24
882.306	11047.39
882.624	10998.58
882.941	11006.49
883.259	10902.09
883.577	10941.18
883.894	10906.15
884.212	10918.81
884.529	10856.89
884.846	10856.21
885.164	10838.59
885.481	10749.1
885.798	10723.79
886.115	10696.67
886.432	10731.47
886.75	10655.31
887.067	10695.99
887.383	10628.2
887.7	10640.17
888.017	10658.48
888.334	10564.02
888.651	10613.05
888.967	10500.97
889.284	10481.98
889.6	10488.31
889.917	10426.39
890.233	10372.16
890.55	10392.72
890.866	10356.56
891.182	10285.61
891.498	10319.73
891.815	10215.78
892.131	10238.83
892.447	10143.46
892.763	10106.17
893.079	10093.07
893.395	10071.37
893.71	10072.5
894.026	10034.54
894.342	10018.27
894.657	9931.04
894.973	9929.46
895.289	9936.69
895.604	9935.33
895.92	9803.58
896.235	9731.72
896.55	9783.47
896.865	9685.4
897.181	9746.41
897.496	9757.03
897.811	9672.51
898.126	9606.08
898.441	9604.72
898.756	9544.61
899.071	9456.93
899.386	9500.54
899.7	9345.29
900.015	9314.11
900.33	9333.09
900.644	9315.01
900.959	9337.61
901.273	9267.1
901.588	9169.25
901.902	9147.33
902.216	9181.68
902.531	9126.09
902.845	9087.67
903.159	9089.48
903.473	9050.38
903.787	8969.26
904.101	8963.38
904.415	8910.05
904.729	8929.93
905.042	8889.26
905.356	8820.79
905.67	8757.96
905.984	8845.19
906.297	8701.24
906.611	8627.34
906.924	8645.42
907.237	8622.6
907.551	8556.39
907.864	8574.46
908.177	8544.63
908.491	8434.58
908.804	8421.7
909.117	8385.09
909.43	8283.17
909.743	8282.49
910.056	8277.97
910.368	8251.53
910.681	8195.72
910.994	8228.71
911.307	8233
911.619	8105.32
911.932	8090.86
912.244	8055.83
912.557	8058.55
912.869	7965.44
913.181	7964.08
913.494	7928.61
913.806	7932.22
914.118	7885.22
914.43	7805.22
914.742	7845.9
915.054	7756.63
915.366	7735.39
915.678	7711.21
915.99	7702.62
916.302	7586.02
916.613	7613.59
916.925	7587.82
917.236	7557.99
917.548	7472.57
917.859	7497.88
918.171	7484.77
918.482	7412.91
918.794	7373.59
919.105	7347.83
919.416	7326.81
919.727	7342.18
920.038	7257.44
920.349	7204.33
920.66	7177.66
920.971	7201.17
921.282	7185.12
921.593	7120.04
921.903	7052.47
922.214	7079.59
922.525	7061.74
922.835	6986.93
923.146	6975.64
923.456	6985.35
923.767	6909.87
924.077	6953.72
924.387	6885.02
924.697	6856.99
925.008	6808.18
925.318	6767.05
925.628	6762.99
925.938	6706.94
926.248	6664.23
926.558	6651.12
926.867	6688.86
927.177	6648.19
927.487	6566.38
927.796	6575.65
928.106	6537.23
928.416	6481.64
928.725	6473.73
929.034	6450.9
929.344	6467.85
929.653	6438.02
929.962	6351.25
930.271	6358.93
930.581	6370
930.89	6286.84
931.199	6250.01
931.508	6233.28
931.817	6245.49
932.125	6169.56
932.434	6188.54
932.743	6146.96
933.051	6099.27
933.36	6188.31
933.669	6085.49
933.977	6027.86
934.286	6074.87
934.594	6008.88
934.902	5946.51
935.21	5949.67
935.519	5951.93
935.827	5905.16
936.135	5872.84
936.443	5799.85
936.751	5793.29
937.059	5823.35
937.367	5764.37
937.674	5788.32
937.982	5760.07
938.29	5732.28
938.597	5741.77
938.905	5611.83
939.213	5596.91
939.52	5575.22
939.827	5626.97
940.135	5522.57
940.442	5534.54
940.749	5503.81
941.056	5477.14
941.363	5427.2
941.67	5448.22
941.977	5391.72
942.284	5408.45
942.591	5352.18
942.898	5346.07
943.205	5326.41
943.511	5307.43
943.818	5317.83
944.125	5254.1
944.431	5211.84
944.738	5235.79
945.044	5203.7
945.35	5122.8
945.657	5146.76
945.963	5100.43
946.269	5068.34
946.575	5099.98
946.881	5043.03
947.187	5006.65
947.493	4992.86
947.799	5004.16
948.105	4958.51
948.41	4952.86
948.716	4919.42
949.022	4921.9
949.327	4907.89
949.633	4833.55
949.938	4847.33
950.244	4834
950.549	4841
950.854	4766.65
951.16	4777.73
951.465	4731.18
951.77	4701.35
952.075	4698.86
952.38	4695.7
952.685	4694.11
952.99	4588.81
953.294	4639.43
953.599	4593.55
953.904	4582.03
954.209	4573.21
954.513	4514.91
954.818	4515.59
955.122	4553.1
955.426	4493.44
955.731	4478.75
956.035	4481.69
956.339	4444.85
956.643	4413.67
956.948	4401.24
957.252	4381.81
957.556	4368.7
957.86	4287.8
958.163	4312.88
958.467	4319.43
958.771	4262.94
959.075	4220
959.378	4224.3
959.682	4219.1
959.985	4198.76
960.289	4177.07
960.592	4186.33
960.896	4131.42
961.199	4129.83
961.502	4105.88
961.805	4096.16
962.108	4053.23
962.411	4058.2
962.714	4034.02
963.017	4038.76
963.32	3988.37
963.623	3956.73
963.926	3930.74
964.228	3959.22
964.531	3925.09
964.833	3918.54
965.136	3876.28
965.438	3851.88
965.741	3856.62
966.043	3821.82
966.345	3855.49
966.648	3808.94
966.95	3806
967.252	3772.1
967.554	3747.47
967.856	3707.93
968.158	3712.67
968.46	3705.89
968.761	3690.75
969.063	3679
969.365	3647.81
969.666	3668.38
969.968	3604.43
970.269	3685.1
970.571	3621.83
970.872	3570.53
971.174	3582.5
971.475	3577.53
971.776	3519.46
972.077	3527.82
972.378	3534.6
972.679	3538.89
972.98	3471.77
973.281	3487.37
973.582	3440.59
973.883	3450.3
974.183	3424.32
974.484	3401.72
974.785	3400.14
975.085	3389.06
975.386	3386.35
975.686	3385.22
975.986	3322.4
976.287	3324.66
976.587	3285.11
976.887	3332.79
977.187	3272.91
977.487	3289.63
977.787	3247.15
978.087	3239.01
978.387	3214.15
978.687	3243.53
978.987	3176.64
979.286	3136.41
979.586	3170.76
979.885	3157.43
980.185	3135.28
980.484	3135.28
980.784	3090.99
981.083	3106.13
981.382	3068.62
981.682	3048.73
981.981	3050.09
982.28	3029.3
982.579	3043.08
982.878	3004.67
983.177	2958.11
983.475	2980.03
983.774	2995.18
984.073	2956.53
984.372	2946.36
984.67	2934.39
984.969	2910.43
985.267	2900.94
985.566	2911.34
985.864	2878.34
986.162	2876.99
986.461	2851.45
986.759	2854.16
987.057	2818
987.355	2794.73
987.653	2796.31
987.951	2782.75
988.249	2800.83
988.547	2775.29
988.844	2714.28
989.142	2737.1
989.44	2706.37
989.737	2687.84
990.035	2710.44
990.332	2700.72
990.63	2658.46
990.927	2672.02
991.224	2660.72
991.521	2614.85
991.819	2616.43
992.116	2584.56
992.413	2544.34
992.71	2572.36
993.006	2592.02
993.303	2567.62
993.6	2528.3
993.897	2533.72
994.193	2500.5
994.49	2512.25
994.787	2511.12
995.083	2496.66
995.379	2460.5
995.676	2456.66
995.972	2451.91
996.268	2432.48
996.565	2415.08
996.861	2389.54
997.157	2383.89
997.453	2378.02
997.749	2399.48
998.044	2374.63
998.34	2323.78
998.636	2335.76
998.932	2341.41
999.227	2305.02
999.523	2307.74
999.818	2310
1000.114	2300.5
1000.409	2291.69
1000.704	2245.82
1001	2250.34
1001.295	2226.16
1001.59	2196.55
1001.885	2216.44
1002.18	2178.02
1002.475	2193.16
1002.77	2201.75
1003.065	2143.9
1003.359	2160.62
1003.654	2142.32
1003.949	2108.65
1004.243	2091.47
1004.538	2111.58
1004.832	2095.99
1005.127	2081.98
1005.421	2088.08
1005.715	2034.3
1006.009	2042.66
1006.304	2060.51
1006.598	2011.92
1006.892	2016.22
1007.186	2027.29
1007.48	1984.35
1007.773	1994.3
1008.067	1931.47
1008.361	1944.58
1008.655	1928.08
1008.948	1952.04
1009.242	1898.71
1009.535	1913.62
1009.829	1906.62
1010.122	1889.22
1010.415	1881.31
1010.708	1866.84
1011.001	1842.44
1011.295	1865.49
1011.588	1834.75
1011.881	1826.17
1012.173	1812.38
1012.466	1808.09
1012.759	1804.92
1013.052	1759.05
1013.344	1768.09
1013.637	1743.23
1013.93	1746.17
1014.222	1732.38
1014.514	1740.75
1014.807	1707.75
1015.099	1706.17
1015.391	1678.6
1015.683	1700.29
1015.976	1675.66
1016.268	1668.2
1016.56	1666.62
1016.851	1670.46
1017.143	1625.95
1017.435	1614.42
1017.727	1635.44
1018.018	1606.06
1018.31	1607.87
1018.602	1581.43
1018.893	1567.64
1019.185	1554.08
1019.476	1523.35
1019.767	1539.39
1020.058	1538.49
1020.35	1535.33
1020.641	1524.71
1020.932	1487.87
1021.223	1497.14
1021.514	1459.62
1021.804	1470.7
1022.095	1455.78
1022.386	1453.52
1022.677	1464.59
1022.967	1435.44
1023.258	1425.95
1023.548	1382.11
1023.839	1401.55
1024.129	1384.82
1024.419	1401.77
1024.709	1360.87
1025	1343.69
1025.29	1357.03
1025.58	1353.86
1025.87	1339.63
1026.16	1327.87
1026.449	1317.93
1026.739	1303.47
1027.029	1302.56
1027.319	1318.16
1027.608	1279.97
1027.898	1285.16
1028.187	1240.42
1028.477	1269.57
1028.766	1256.46
1029.055	1234.32
1029.344	1240.42
1029.634	1240.42
1029.923	1206.3
1030.212	1201.55
1030.501	1231.38
1030.79	1210.36
1031.078	1216.01
1031.367	1166.75
1031.656	1178.5
1031.945	1193.64
1032.233	1169.01
1032.522	1125.39
1032.81	1124.94
1033.099	1144.6
1033.387	1110.71
1033.675	1134.89
1033.963	1110.71
1034.251	1117.26
1034.54	1115.68
1034.828	1086.75
1035.116	1077.49
1035.403	1073.42
1035.691	1089.69
1035.979	1085.17
1036.267	1045.62
1036.554	1071.84
1036.842	1035.68
1037.129	1027.09
1037.417	1021.67
1037.704	1015.79
1037.992	1028.67
1038.279	1002.91
1038.566	991.39
1038.853	991.39
1039.14	991.39
