Data from hue_350_FLMS001491_100.txt Node
Date: Mon Feb 06 15:38:48 GMT 2017
User: dcchb
Spectrometer: FLMS00149
Trigger mode: 0
Integration Time (sec): 2.000000E-2
Scans to average: 10
Electric dark correction enabled: true
Nonlinearity correction enabled: false
Boxcar width: 0
XAxis mode: Wavelengths
Number of Pixels in Spectrum: 2048
>>>>>Begin Spectral Data<<<<<
341.393	-11.23
341.776	-11.23
342.16	-11.23
342.543	-63.2
342.927	-53.94
343.31	-68.85
343.693	-68.4
344.077	-66.14
344.46	-39.48
344.843	-61.85
345.226	-56.43
345.61	-38.8
345.993	-14.39
346.376	-12.81
346.759	14.31
347.142	29.9
347.525	46.4
347.908	59.28
348.291	68.32
348.674	108.99
349.057	99.95
349.44	118.26
349.823	142.21
350.206	186.28
350.588	180.18
350.971	215.43
351.354	207.3
351.737	246.62
352.119	245.49
352.502	258.82
352.884	274.19
353.267	301.08
353.65	299.27
354.032	292.49
354.414	287.75
354.797	301.53
355.179	304.7
355.562	329.78
355.944	327.07
356.326	328.65
356.709	342.89
357.091	331.81
357.473	350.57
357.855	347.63
358.238	343.11
358.62	352.38
359.002	343.79
359.384	327.97
359.766	344.92
360.148	353.73
360.53	349.44
360.912	353.73
361.294	335.66
361.676	354.64
362.057	354.86
362.439	336.33
362.821	306.96
363.203	320.74
363.584	344.24
363.966	323
364.348	328.2
364.729	333.4
365.111	320.74
365.493	319.16
365.874	333.62
366.256	308.31
366.637	310.34
367.019	306.73
367.4	311.02
367.781	303.34
368.163	326.84
368.544	326.62
368.925	321.87
369.306	343.56
369.688	307.63
370.069	309.22
370.45	296.11
370.831	304.24
371.212	304.7
371.593	306.5
371.974	288.42
372.355	320.06
372.736	314.64
373.117	319.38
373.498	307.18
373.879	325.71
374.26	328.2
374.641	311.02
375.021	309.22
375.402	314.19
375.783	323
376.163	311.02
376.544	328.65
376.925	330.01
377.305	337.46
377.686	314.41
378.066	319.84
378.447	327.97
378.827	346.05
379.208	311.93
379.588	322.1
379.968	334.3
380.349	337.46
380.729	334.75
381.109	332.49
381.489	320.06
381.87	339.04
382.25	342.66
382.63	338.59
383.01	336.78
383.39	340.4
383.77	346.5
384.15	323.68
384.53	338.82
384.91	349.21
385.29	344.47
385.67	338.59
386.049	369.33
386.429	335.88
386.809	357.35
387.189	354.64
387.568	350.34
387.948	351.47
388.328	358.71
388.707	344.02
389.087	341.53
389.466	340.17
389.846	370.68
390.225	354.41
390.605	353.06
390.984	351.02
391.363	379.95
391.743	346.95
392.122	359.38
392.501	353.28
392.881	359.38
393.26	372.72
393.639	382.66
394.018	357.12
394.397	403.68
394.776	351.93
395.155	360.29
395.534	383.79
395.913	379.04
396.292	381.76
396.671	374.52
397.05	387.18
397.429	388.99
397.808	387.63
398.186	380.4
398.565	382.89
398.944	369.33
399.323	386.95
399.701	404.13
400.08	391.47
400.458	394.64
400.837	381.3
401.215	370.68
401.594	382.89
401.972	383.11
402.351	371.36
402.729	399.16
403.107	398.93
403.486	379.04
403.864	399.38
404.242	403.45
404.62	419.49
404.999	403.22
405.377	419.72
405.755	386.73
406.133	432.83
406.511	420.62
406.889	431.7
407.267	428.53
407.645	439.38
408.023	421.53
408.401	423.79
408.779	430.12
409.156	441.19
409.534	448.65
409.912	413.39
410.29	446.39
410.667	458.82
411.045	441.41
411.422	454.52
411.8	456.33
412.178	445.26
412.555	442.32
412.933	439.38
413.31	467.4
413.687	465.37
414.065	476.44
414.442	461.98
414.819	470.34
415.197	480.51
415.574	486.39
415.951	494.97
416.328	474.63
416.705	494.52
417.082	484.58
417.46	504.92
417.837	497.01
418.214	505.59
418.591	519.83
418.967	506.72
419.344	503.79
419.721	488.87
420.098	514.41
420.475	496.33
420.852	517.35
421.228	527.97
421.605	542.2
421.982	525.03
422.358	537.68
422.735	577.46
423.111	528.19
423.488	550.34
423.864	538.59
424.241	567.29
424.617	572.03
424.994	572.48
425.37	556.21
425.746	562.09
426.123	581.3
426.499	578.59
426.875	589.66
427.251	565.03
427.627	576.55
428.003	594.41
428.379	590.56
428.756	604.35
429.132	592.82
429.507	613.61
429.883	613.39
430.259	614.07
430.635	630.56
431.011	623.11
431.387	632.6
431.763	646.61
432.138	643.9
432.514	647.74
432.89	664.69
433.265	648.87
433.641	700.62
434.016	675.53
434.392	657.23
434.767	664.46
435.143	684.57
435.518	708.53
435.894	683.44
436.269	713.27
436.644	706.94
437.02	708.3
437.395	721.86
437.77	723.44
438.145	732.93
438.52	723.89
438.895	762.08
439.271	741.75
439.646	754.63
440.021	738.58
440.395	779.03
440.77	739.94
441.145	776.77
441.52	765.93
441.895	792.59
442.27	779.03
442.645	776.1
443.019	795.76
443.394	790.33
443.769	767.06
444.143	800.28
444.518	807.73
444.892	814.51
445.267	794.85
445.641	789.43
446.016	804.12
446.39	807.28
446.764	837.11
447.139	811.8
447.513	811.35
447.887	832.82
448.262	813.83
448.636	837.56
449.01	851.57
449.384	857.45
449.758	843.21
450.132	832.59
450.506	857.68
450.88	885.47
451.254	869.43
451.628	865.36
452.002	891.57
452.376	895.64
452.75	896.32
453.123	897.9
453.497	908.75
453.871	908.97
454.244	933.61
454.618	914.4
454.992	946.49
455.365	942.64
455.739	955.3
456.112	967.28
456.486	968.63
456.859	989.65
457.232	977.67
457.606	979.03
457.979	985.81
458.352	1011.34
458.725	1006.15
459.099	1033.26
459.472	1042.76
459.845	1045.69
460.218	1092.92
460.591	1078.69
460.964	1073.94
461.337	1089.53
461.71	1081.85
462.083	1111.23
462.456	1118.46
462.829	1105.13
463.201	1123.88
463.574	1131.11
463.947	1171.57
464.32	1173.15
464.692	1194.62
465.065	1190.32
465.438	1210.21
465.81	1195.29
466.183	1223.54
466.555	1226.71
466.928	1246.37
467.3	1287.49
467.672	1285.91
468.045	1313.48
468.417	1282.97
468.789	1310.32
469.161	1324.78
469.534	1325.69
469.906	1323.2
470.278	1386.25
470.65	1392.8
471.022	1435.51
471.394	1428.96
471.766	1472.35
472.138	1463.76
472.51	1532.01
472.882	1533.14
473.253	1534.04
473.625	1540.6
473.997	1570.2
474.369	1589.18
474.74	1618.56
475.112	1641.38
475.484	1647.94
475.855	1692.91
476.227	1685
476.598	1785.56
476.97	1766.58
477.341	1797.31
477.713	1856.29
478.084	1845.45
478.455	1905.78
478.827	1916.4
479.198	1959.34
479.569	1957.08
479.94	2034.14
480.311	2018.1
480.682	2037.76
481.053	2087.7
481.424	2150.52
481.795	2170.18
482.166	2218.54
482.537	2233.91
482.908	2249.5
483.279	2291.99
483.65	2334.25
484.021	2394.58
484.391	2400.46
484.762	2459.21
485.133	2477.97
485.503	2468.71
485.874	2564.07
486.244	2568.59
486.615	2625.31
486.985	2632.54
487.356	2716.61
487.726	2734.46
488.097	2792.77
488.467	2787.57
488.837	2876.38
489.207	2875.02
489.578	2909.15
489.948	2974.68
490.318	3007.9
490.688	2967.68
491.058	3063.04
491.428	3087.9
491.798	3157.28
492.168	3202.92
492.538	3230.95
492.908	3252.41
493.278	3267.78
493.648	3325.86
494.017	3328.12
494.387	3348.23
494.757	3388.91
495.126	3414.67
495.496	3439.53
495.866	3489.7
496.235	3495.57
496.605	3557.27
496.974	3578.96
497.344	3607.43
497.713	3649.92
498.082	3658.73
498.452	3666.19
498.821	3698.96
499.19	3733.76
499.559	3746.19
499.928	3762.23
500.298	3811.5
500.667	3815.56
501.036	3791.16
501.405	3854.43
501.774	3847.88
502.143	3846.3
502.512	3911.15
502.88	3948.44
503.249	3936.24
503.618	3975.79
503.987	3960.42
504.356	4037.25
504.724	4026.63
505.093	4103.47
505.462	4056.46
505.83	4078.38
506.199	4154.54
506.567	4147.53
506.936	4196.57
507.304	4242.9
507.672	4236.12
508.041	4227.08
508.409	4269.56
508.777	4249.9
509.145	4289
509.514	4297.13
509.882	4337.58
510.25	4326.96
510.618	4373.29
510.986	4389.56
511.354	4379.84
511.722	4464.81
512.09	4488.09
512.458	4449.67
512.826	4505.71
513.193	4460.07
513.561	4514.3
513.929	4521.99
514.297	4568.31
514.664	4580.74
515.032	4611.02
515.4	4660.29
515.767	4663.68
516.135	4617.35
516.502	4651.93
516.869	4691.47
517.237	4707.07
517.604	4689.89
517.972	4713.84
518.339	4741.41
518.706	4764.69
519.073	4767.63
519.44	4746.39
519.808	4815.76
520.175	4826.38
520.542	4862.77
520.909	4918.36
521.276	4888.3
521.643	4918.13
522.009	4947.51
522.376	4963.56
522.743	5023.89
523.11	5013.5
523.477	5071.12
523.843	5086.49
524.21	5080.39
524.577	5101.41
524.943	5151.12
525.31	5157.9
525.676	5152.25
526.043	5189.09
526.409	5253.94
526.776	5316.54
527.142	5327.61
527.508	5339.82
527.874	5371.45
528.241	5439.25
528.607	5409.19
528.973	5431.57
529.339	5424.33
529.705	5487.84
530.071	5514.5
530.437	5548.4
530.803	5572.58
531.169	5647.61
531.535	5628.62
531.901	5618.45
532.267	5642.63
532.632	5724.89
532.998	5699.58
533.364	5742.29
533.73	5743.65
534.095	5803.53
534.461	5819.13
534.826	5880.59
535.192	5888.28
535.557	5915.17
535.923	5926.24
536.288	5935.96
536.653	5924.89
537.019	5917.43
537.384	5996.07
537.749	6010.99
538.114	6073.13
538.479	6046.01
538.845	6117.42
539.21	6085.33
539.575	6178.89
539.94	6141.38
540.305	6223.86
540.67	6204.88
541.034	6231.77
541.399	6230.87
541.764	6304.54
542.129	6287.59
542.494	6333.24
542.858	6359
543.223	6349.28
543.587	6375.5
543.952	6401.48
544.316	6501.14
544.681	6500.69
545.045	6482.16
545.41	6529.84
545.774	6523.74
546.138	6569.39
546.503	6604.64
546.867	6547.7
547.231	6570.52
547.595	6654.58
547.959	6705.66
548.324	6743.85
548.688	6718.54
549.052	6766.22
549.416	6718.54
549.779	6795.37
550.143	6774.13
550.507	6855.94
550.871	6908.82
551.235	6884.86
551.599	6973.9
551.962	6887.35
552.326	6975.48
552.689	6969.15
553.053	6944.52
553.417	6923.73
553.78	7063.61
554.143	7041.92
554.507	7084.63
554.87	7075.82
555.234	7163.27
555.597	7110.39
555.96	7142.03
556.323	7210.28
556.686	7171.41
557.05	7258.86
557.413	7275.13
557.776	7237.17
558.139	7311.52
558.502	7374.57
558.865	7385.87
559.228	7366.88
559.59	7444.62
559.953	7440.78
560.316	7490.95
560.679	7528.01
561.041	7575.01
561.404	7502.25
561.767	7601.9
562.129	7572.3
562.492	7655.24
562.854	7696.82
563.217	7664.95
563.579	7729.36
563.941	7737.27
564.304	7767.78
564.666	7806.19
565.028	7877.83
565.39	7848.9
565.753	7871.95
566.115	7892.74
566.477	7911.95
566.839	8022.68
567.201	8056.36
567.563	8039.41
567.925	8045.96
568.287	8099.29
568.648	8091.16
569.01	8131.61
569.372	8242.79
569.734	8206.86
570.095	8187.65
570.457	8334.77
570.819	8268.1
571.18	8236.92
571.542	8340.87
571.903	8402.11
572.265	8465.38
572.626	8540.64
572.987	8510.36
573.349	8576.12
573.71	8605.49
574.071	8656.79
574.432	8667.87
574.794	8760.52
575.155	8790.12
575.516	8777.47
575.877	8906.05
576.238	8997.57
576.599	9036.22
576.96	9137.01
577.32	9187.63
577.681	9294.52
578.042	9367.73
578.403	9429.43
578.763	9469.2
579.124	9588.29
579.485	9714.62
579.845	9804.56
580.206	9863.77
580.566	9964.33
580.927	10078
581.287	10187.15
581.648	10250.65
582.008	10458.78
582.368	10505.78
582.728	10649.51
583.089	10800.46
583.449	10909.61
583.809	11122.72
584.169	11276.84
584.529	11375.59
584.889	11638.86
585.249	11717.28
585.609	11924.28
585.969	12149.81
586.329	12315
586.688	12502.79
587.048	12740.3
587.408	12873.63
587.768	13093.29
588.127	13262.09
588.487	13457.34
588.846	13810.55
589.206	13945.47
589.565	14152.01
589.925	14509.52
590.284	14648.05
590.643	14928.49
591.003	15236.51
591.362	15431.53
591.721	15750.39
592.08	15947.45
592.44	16316.7
592.799	16473.54
593.158	16762.57
593.517	17006.4
593.876	17375.88
594.235	17580.63
594.593	17929.77
594.952	18216.09
595.311	18349.19
595.67	18754.38
596.029	19114.14
596.387	19381.71
596.746	19712.32
597.104	19873.22
597.463	20146.66
597.822	20475.92
598.18	20663.03
598.538	20930.82
598.897	21425.5
599.255	21495.55
599.613	22078.59
599.972	22155.19
600.33	22551.79
600.688	22721.51
601.046	22949.52
601.404	23492.56
601.762	23651.88
602.12	23943.62
602.478	24215.71
602.836	24520.78
603.194	24721.68
603.552	24996.93
603.91	25102.91
604.268	25504.94
604.625	25754.42
604.983	25987.18
605.341	26115.54
605.698	26503.33
606.056	26844.11
606.413	26984.45
606.771	27295.85
607.128	27621.72
607.485	27630.08
607.843	27997.07
608.2	28285.65
608.557	28529.04
608.914	28701.24
609.272	29052.87
609.629	29138.74
609.986	29548.22
610.343	29652.85
610.7	30040.41
611.057	30086.06
611.414	30350.91
611.771	30398.59
612.127	30726.72
612.484	30982.98
612.841	31054.17
613.198	31232.47
613.554	31513.14
613.911	31801.49
614.267	31828.84
614.624	32087.81
614.98	32311.54
615.337	32490.97
615.693	32631.53
616.05	32562.15
616.406	32959.43
616.762	33043.5
617.118	33151.29
617.475	33348.12
617.831	33506.76
618.187	33782.23
618.543	33782.91
618.899	34054.09
619.255	34189.45
619.611	34303.35
619.967	34524.36
620.323	34634.19
620.678	34574.98
621.034	34694.98
621.39	34726.16
621.746	34754.86
622.101	35320.27
622.457	35068.98
622.812	35327.05
623.168	35510.78
623.523	35604.33
623.879	35717.1
624.234	35549.87
624.589	35827.83
624.945	35916.87
625.3	35946.02
625.655	36168.39
626.01	36040.03
626.365	36397.53
626.72	36134.49
627.075	36338.78
627.43	36406.8
627.785	36296.97
628.14	36495.16
628.495	36588.71
628.85	36607.02
629.205	36575.38
629.559	36784.87
629.914	36776.5
630.269	36843.85
630.623	36750.06
630.978	36656.28
631.332	36867.8
631.687	36973.79
632.041	36755.71
632.396	36802.72
632.75	36848.59
633.104	37040
633.459	36796.84
633.813	36838.88
634.167	36958.42
634.521	37007.23
634.875	36962.49
635.229	36910.74
635.583	36843.85
635.937	36913.22
636.291	36814.02
636.645	37010.85
636.999	36865.99
637.352	37048.81
637.706	36811.98
638.06	37141.92
638.413	36912.32
638.767	36990.06
639.121	36983.73
639.474	36849.05
639.828	36920.91
640.181	37057.4
640.534	36953
640.888	36918.2
641.241	36712.1
641.594	36823.96
641.947	36987.12
642.301	36932.43
642.654	36908.93
643.007	36991.19
643.36	36945.99
643.713	36799.33
644.066	37034.8
644.419	36702.38
644.771	36601.59
645.124	36166.8
645.477	36270.08
645.83	36054.26
646.182	35870.09
646.535	35892.23
646.888	35810.43
647.24	35645.46
647.593	35807.72
647.945	35870.54
648.298	35595.29
648.65	35659.47
649.002	35541.51
649.355	35602.75
649.707	35673.71
650.059	35778.11
650.411	36173.81
650.763	36324.77
651.115	36645.66
651.467	36484.99
651.819	36601.14
652.171	36390.3
652.523	36416.74
652.875	36367.48
653.227	36380.58
653.578	36636.17
653.93	36533.8
654.282	36367.25
654.633	36348.49
654.985	36303.52
655.337	36290.87
655.688	36224.88
656.039	36373.58
656.391	36189.18
656.742	36242.96
657.094	36228.72
657.445	36305.1
657.796	36259
658.147	36164.09
658.498	36190.76
658.849	36274.37
659.2	36165
659.551	36128.84
659.902	36242.51
660.253	36152.57
660.604	36250.64
660.955	36027.6
661.306	36192.11
661.656	36132.68
662.007	35987.82
662.358	36097.2
662.708	36059.24
663.059	36175.62
663.409	35874.38
663.76	36046.35
664.11	36168.39
664.461	36135.84
664.811	36029.41
665.161	36047.94
665.511	35997.77
665.862	35849.3
666.212	36149.85
666.562	36147.14
666.912	36082.51
667.262	35921.16
667.612	36009.52
667.962	36047.03
668.312	36075.96
668.662	36191.66
669.011	36065.56
669.361	36044.55
669.711	36000.25
670.06	35966.81
670.41	35898.34
670.76	35854.04
671.109	36081.16
671.459	35858.56
671.808	35766.59
672.157	35910.09
672.507	35608.63
672.856	35715.74
673.205	35773.59
673.554	35849.52
673.904	35675.52
674.253	35878.9
674.602	35840.26
674.951	35179.48
675.3	35001.64
675.649	35560.27
675.998	35550.77
676.346	35616.99
676.695	35687.95
677.044	35489.31
677.393	35534.96
677.741	35613.6
678.09	35518.23
678.438	35385.35
678.787	35460.16
679.135	35450.66
679.484	35358.24
679.832	35450.44
680.181	35230.1
680.529	35405.24
680.877	35177.22
681.225	35138.36
681.573	35363.43
681.922	35093.16
682.27	35044.12
682.618	35042.31
682.966	34978.36
683.314	34949.21
683.661	34920.73
684.009	34859.27
684.357	34668.09
684.705	34592.38
685.053	34823.56
685.4	34538.37
685.748	34457.7
686.095	34541.76
686.443	34258.6
686.79	34268.55
687.138	34426.96
687.485	34412.27
687.832	34214.54
688.18	34186.97
688.527	34039.85
688.874	34081.21
689.221	34005.5
689.568	33911.27
689.915	33920.08
690.262	33874.43
690.609	33737.71
690.956	33606.64
691.303	33679.41
691.65	33536.36
691.997	33554.67
692.344	33180.22
692.69	33322.36
693.037	33303.83
693.383	32985.19
693.73	33095.7
694.077	32872.2
694.423	33036.94
694.769	32826.1
695.116	32728.48
695.462	32727.35
695.808	32654.35
696.155	32626.33
696.501	32399.9
696.847	32258.66
697.193	32134.37
697.539	32378.43
697.885	31909.97
698.231	31774.38
698.577	31852.79
698.923	31889.4
699.269	31757.43
699.614	31752.23
699.96	31650.76
700.306	31676.98
700.651	31448.96
700.997	31361.05
701.342	31377.32
701.688	31286.71
702.033	31190.66
702.379	31098.46
702.724	31009.2
703.069	31004.23
703.415	30756.55
703.76	30768.3
704.105	30647.85
704.45	30637.91
704.795	30423.23
705.14	30508.65
705.485	30486.5
705.83	30219.39
706.175	30320.86
706.52	30173.29
706.865	30240.63
707.209	29976.68
707.554	29899.17
707.899	30046.06
708.243	29904.6
708.588	29888.32
708.932	29672.74
709.277	29710.7
709.621	29694.88
709.966	29475.23
710.31	29603.59
710.654	29288.79
710.998	29306.42
711.342	29326.08
711.687	29273.43
712.031	29076.82
712.375	29087.67
712.719	29081.11
713.063	29008.8
713.407	29051.74
713.75	29002.25
714.094	29044.96
714.438	28781.91
714.782	28880.67
715.125	28640.67
715.469	28743.72
715.812	28460.34
716.156	28375.6
716.499	28407.23
716.843	28504.41
717.186	28303.73
717.53	28534.69
717.873	28411.75
718.216	28295.82
718.559	28065.77
718.902	27951.2
719.246	28068.26
719.589	27910.07
719.932	27863.29
720.275	27837.98
720.617	27841.6
720.96	27737.19
721.303	27769.74
721.646	27794.37
721.989	27583.75
722.331	27666.01
722.674	27748.95
723.016	27617.88
723.359	27599.12
723.701	27636.41
724.044	27357.54
724.386	27248.62
724.729	27379.92
725.071	27327.49
725.413	27359.58
725.755	27273.03
726.097	27126.14
726.439	26936.09
726.782	26943.09
727.124	27032.13
727.465	26931.79
727.807	26924.11
728.149	26890.66
728.491	26877.33
728.833	26802.3
729.175	26835.52
729.516	26752.81
729.858	26597.34
730.199	26652.93
730.541	26636.66
730.882	26520.73
731.224	26586.26
731.565	26462.43
731.906	26542.65
732.248	26487.06
732.589	26301.75
732.93	26185.6
733.271	26252.49
733.612	26196.44
733.953	26239.61
734.294	26100.85
734.635	26102.66
734.976	26128.2
735.317	25946.73
735.658	26000.52
735.999	26111.02
736.339	25955.09
736.68	25993.74
737.021	25960.52
737.361	25800.07
737.702	25998.26
738.042	25807.53
738.383	25698.83
738.723	25886.85
739.063	25632.84
739.404	25813.18
739.744	25544.26
740.084	25504.48
740.424	25572.05
740.764	25487.54
741.104	25569.79
741.444	25454.77
741.784	25391.04
742.124	25420.87
742.464	25468.33
742.804	25247.99
743.143	25175.23
743.483	25301.33
743.823	25122.57
744.162	25139.97
744.502	25228.11
744.841	25052.75
745.181	25195.11
745.52	24971.17
745.86	24995.35
746.199	24967.55
746.538	24977.94
746.877	24966.87
747.216	24904.5
747.556	24913.99
747.895	24860.43
748.234	24856.82
748.573	24734.34
748.911	24610.04
749.25	24670.61
749.589	24567.11
749.928	24597.16
750.267	24583.38
750.605	24521.01
750.944	24424.29
751.283	24469.48
751.621	24424.06
751.96	24328.24
752.298	24291.41
752.636	24288.47
752.975	24083.05
753.313	24093.22
753.651	24212.77
753.989	24110.4
754.327	23999.21
754.666	23918.54
755.004	23927.13
755.342	23967.8
755.679	23831.76
756.017	23740.46
756.355	23761.93
756.693	23665.21
757.031	23631.77
757.368	23589.51
757.706	23542.73
758.044	23513.8
758.381	23372.56
758.719	23413.92
759.056	23339.57
759.394	23456.18
759.731	23150.87
760.068	23078.11
760.405	23157.88
760.743	23026.81
761.08	23009.64
761.417	22991.56
761.754	22930.77
762.091	22799.7
762.428	22667.5
762.765	22616.43
763.102	22771.68
763.438	22571.45
763.775	22437.9
764.112	22496.2
764.449	22464.11
764.785	22370.1
765.122	22240.62
765.458	22082.43
765.795	22131.24
766.131	22097.79
766.467	21960.17
766.804	21925.6
767.14	21776.45
767.476	21805.15
767.812	21733.06
768.148	21802.44
768.485	21556.11
768.821	21492.16
769.157	21361.77
769.492	21426.85
769.828	21359.28
770.164	21108.67
770.5	21152.28
770.836	21130.36
771.171	21060.99
771.507	20981.21
771.842	20851.5
772.178	20799.3
772.513	20799.07
772.849	20676.14
773.184	20503.94
773.519	20549.81
773.855	20476.37
774.19	20374.9
774.525	20395.24
774.86	20271.4
775.195	20317.05
775.53	20217.84
775.865	19981.69
776.2	19974.46
776.535	19807.69
776.87	19817.18
777.205	19688.82
777.539	19712.77
777.874	19683.62
778.209	19538.54
778.543	19417.87
778.878	19343.74
779.212	19261.71
779.547	19257.64
779.881	19249.96
780.215	19101.72
780.55	19129.06
780.884	19031.89
781.218	18949.85
781.552	19006.58
781.886	18862.17
782.22	18664.44
782.554	18559.81
782.888	18549.64
783.222	18414.28
783.556	18416.99
783.889	18322.3
784.223	18260.61
784.557	18177.45
784.89	18140.38
785.224	18138.8
785.557	17969.77
785.891	17983.33
786.224	17861.07
786.558	17818.81
786.891	17805.25
787.224	17687.74
787.557	17562.32
787.891	17664.24
788.224	17548.08
788.557	17531.14
788.89	17472.83
789.223	17431.02
789.556	17265.61
789.888	17216.34
790.221	17191.03
790.554	17033.3
790.887	17084.14
791.219	17055.22
791.552	16960.75
791.884	16918.72
792.217	16834.88
792.549	16758.05
792.882	16724.6
793.214	16624.72
793.546	16650.48
793.879	16515.12
794.211	16345.63
794.543	16475.12
794.875	16362.13
795.207	16400.77
795.539	16330.26
795.871	16258.85
796.203	16091.85
796.535	16049.14
796.867	16015.02
797.198	15951.74
797.53	15894.12
797.862	15924.85
798.193	15867.68
798.525	15800.79
798.856	15861.35
799.188	15760.33
799.519	15611.86
799.85	15565.76
800.182	15568.02
800.513	15525.76
800.844	15398.76
801.175	15473.56
801.506	15401.25
801.837	15369.84
802.168	15272.44
802.499	15333.23
802.83	15243.06
803.161	15145.89
803.491	15110.63
803.822	15057.98
804.153	15035.61
804.483	14834.26
804.814	14800.36
805.145	14794.71
805.475	14769.63
805.805	14798.78
806.136	14811.43
806.466	14702.51
806.796	14651.66
807.126	14595.62
807.457	14512.23
807.787	14519.01
808.117	14446.24
808.447	14389.07
808.777	14474.72
809.107	14353.82
809.436	14289.19
809.766	14326.93
810.096	14230.66
810.426	14214.16
810.755	14176.42
811.085	14161.96
811.414	14158.57
811.744	14068.4
812.073	14009.87
812.403	13995.86
812.732	13952.02
813.061	13874.96
813.39	13845.81
813.719	13712.25
814.049	13931.46
814.378	13744.79
814.707	13755.42
815.036	13694.17
815.365	13705.92
815.693	13591.58
816.022	13578.7
816.351	13550
816.68	13501.41
817.008	13475.65
817.337	13388.65
817.665	13387.06
817.994	13324.69
818.322	13335.99
818.651	13279.04
818.979	13187.75
819.307	13335.77
819.636	13223.45
819.964	13167.63
820.292	13250.34
820.62	13165.15
820.948	13184.81
821.276	13189.55
821.604	13107.97
821.932	13157.24
822.259	13160.18
822.587	13153.4
822.915	13016.23
823.243	13127.41
823.57	13115.43
823.898	13085.38
824.225	12997.02
824.553	13068.88
824.88	13025.49
825.207	13085.15
825.535	13018.03
825.862	13074.76
826.189	12996.11
826.516	13079.95
826.843	13180.52
827.17	13120.63
827.497	13037.24
827.824	13059.39
828.151	13048.54
828.478	13048.77
828.805	13135.54
829.131	13057.13
829.458	12985.27
829.785	12947.98
830.111	12978.49
830.438	13018.49
830.764	13039.95
831.09	12951.37
831.417	12900.52
831.743	13003.8
832.069	12991.82
832.395	12910.24
832.722	12938.94
833.048	12855.1
833.374	12901.65
833.7	12807.19
834.026	12879.51
834.351	12903.69
834.677	12838.6
835.003	12916.12
835.329	12754.99
835.654	12756.35
835.98	12806.51
836.306	12719.51
836.631	12760.87
836.956	12750.24
837.282	12756.12
837.607	12717.93
837.932	12596.35
838.258	12638.61
838.583	12602.9
838.908	12542.79
839.233	12618.95
839.558	12563.36
839.883	12458.95
840.208	12498.27
840.533	12511.15
840.858	12469.35
841.182	12488.1
841.507	12501.89
841.832	12393.42
842.156	12385.96
842.481	12407.65
842.805	12338.96
843.13	12278.17
843.454	12236.59
843.778	12271.61
844.103	12170.6
844.427	12171.73
844.751	12210.6
845.075	12067.55
845.399	12088.57
845.723	11991.17
846.047	12071.17
846.371	11900.77
846.695	11945.52
847.019	11854.22
847.343	11812.42
847.666	11756.15
847.99	11696.26
848.313	11751.63
848.637	11677.96
848.96	11616.71
849.284	11556.15
849.607	11580.78
849.931	11421.24
850.254	11454.23
850.577	11346.21
850.9	11220.79
851.223	11222.6
851.546	11207.91
851.869	11129.95
852.192	11157.97
852.515	11084.75
852.838	11030.74
853.161	11016.96
853.483	10953.45
853.806	10915.72
854.129	10927.92
854.451	10829.62
854.774	10820.35
855.096	10790.75
855.419	10677.3
855.741	10693.8
856.063	10699.22
856.385	10647.47
856.708	10592.11
857.03	10580.13
857.352	10582.84
857.674	10571.77
857.996	10524.99
858.318	10444.09
858.64	10349.85
858.961	10312.79
859.283	10409.51
859.605	10307.6
859.926	10414.26
860.248	10268.5
860.57	10220.37
860.891	10217.66
861.212	10139.69
861.534	10158.67
861.855	10159.58
862.176	10167.03
862.498	10114.83
862.819	10136.53
863.14	10087.94
863.461	10018.11
863.782	10075.06
864.103	9970.88
864.424	9992.8
864.745	10013.14
865.065	9934.5
865.386	9892.47
865.707	9914.61
866.027	9931.56
866.348	9872.81
866.668	9848.4
866.989	9834.39
867.309	9772.7
867.63	9835.07
867.95	9833.26
868.27	9744.22
868.59	9764.79
868.91	9766.59
869.23	9731.34
869.55	9692.25
869.87	9732.02
870.19	9643.43
870.51	9577.45
870.83	9760.04
871.15	9666.48
871.469	9629.87
871.789	9643.88
872.109	9638.24
872.428	9538.58
872.748	9568.86
873.067	9553.27
873.386	9559.14
873.706	9531.12
874.025	9500.61
874.344	9497.67
874.663	9466.94
874.982	9515.3
875.301	9497.9
875.62	9460.16
875.939	9421.74
876.258	9436.21
876.577	9371.12
876.896	9372.48
877.214	9315.53
877.533	9379.49
877.852	9330.67
878.17	9256.55
878.489	9321.63
878.807	9257.45
879.125	9260.39
879.444	9283.67
879.762	9239.83
880.08	9172.03
880.398	9158.7
880.716	9146.95
881.034	9147.4
881.352	9090.68
881.67	9104.69
881.988	9097.23
882.306	9098.59
882.624	9086.16
882.941	9025.6
883.259	8975.2
883.577	8973.17
883.894	8970.46
884.212	8942.89
884.529	8923.68
884.846	8867.63
885.164	8922.77
885.481	8830.35
885.798	8897.69
886.115	8803.91
886.432	8815.43
886.75	8800.07
887.067	8798.94
887.383	8726.62
887.7	8787.64
888.017	8693.63
888.334	8734.3
888.651	8636.68
888.967	8612.05
889.284	8596
889.6	8575.89
889.917	8506.06
890.233	8556
890.55	8469.23
890.866	8436.68
891.182	8456.8
891.498	8407.99
891.815	8424.26
892.131	8418.83
892.447	8393.07
892.763	8344.26
893.079	8284.82
893.395	8294.32
893.71	8296.58
894.026	8247.31
894.342	8280.08
894.657	8203.7
894.973	8156.92
895.289	8076.47
895.604	8117.15
895.92	8053.64
896.235	8033.08
896.55	7993.53
896.865	8082.12
897.181	8054.55
897.496	7978.39
897.811	7946.53
898.126	7941.56
898.441	7885.96
898.756	7840.32
899.071	7809.36
899.386	7875.34
899.7	7761.9
900.015	7745.4
900.33	7661.79
900.644	7699.76
900.959	7654.78
901.273	7549.25
901.588	7588.12
901.902	7559.42
902.216	7568.23
902.531	7506.31
902.845	7491.85
903.159	7456.82
903.473	7407.79
903.787	7401.68
904.101	7409.14
904.415	7366.2
904.729	7311.74
905.042	7318.97
905.356	7246.43
905.67	7206.89
905.984	7253.67
906.297	7185.87
906.611	7171.41
906.924	7161.01
907.237	7131.63
907.551	7151.97
907.864	7086.44
908.177	7021.13
908.491	7036.95
908.804	6962.37
909.117	6972.32
909.43	6874.69
909.743	6906.56
910.056	6860.91
910.368	6805.09
910.681	6869.95
910.994	6725.32
911.307	6749.05
911.619	6726
911.932	6753.79
912.244	6660.01
912.557	6695.71
912.869	6624.08
913.181	6599.9
913.494	6551.76
913.806	6543.85
914.118	6510.86
914.43	6476.06
914.742	6500.01
915.054	6477.19
915.366	6383.18
915.678	6370.07
915.99	6362.62
916.302	6311.09
916.613	6262.96
916.925	6240.81
917.236	6306.12
917.548	6242.39
917.859	6205.33
918.171	6211.66
918.482	6117.88
918.794	6109.06
919.105	6062.51
919.416	6067.03
919.727	6023.19
920.038	6028.16
920.349	6035.17
920.66	5996.3
920.971	5953.59
921.282	5922.17
921.593	5925.56
921.903	5898.22
922.214	5791.56
922.525	5886.92
922.835	5778
923.146	5771.22
923.456	5736.19
923.767	5717.43
924.077	5671.56
924.387	5698
924.697	5667.72
925.008	5695.06
925.318	5618.45
925.628	5645.35
925.938	5620.49
926.248	5543.43
926.558	5457.33
926.867	5501.17
927.177	5467.5
927.487	5499.14
927.796	5428.85
928.106	5420.72
928.416	5375.3
928.725	5373.49
929.034	5330.33
929.344	5316.99
929.653	5349.76
929.962	5312.25
930.271	5256.43
930.581	5186.15
930.89	5177.34
931.199	5161.97
931.508	5220.95
931.817	5161.29
932.125	5123.78
932.434	5106.83
932.743	5094.4
933.051	5046.49
933.36	5010.79
933.669	5019.37
933.977	4982.31
934.286	4935.08
934.594	4938.02
934.902	4886.27
935.21	4887.85
935.519	4905.7
935.827	4900.05
936.135	4880.17
936.443	4756.1
936.751	4822.32
937.059	4765.37
937.367	4754.07
937.674	4749.32
937.982	4741.87
938.29	4698.03
938.597	4743
938.905	4664.81
939.213	4676.11
939.52	4619.38
939.827	4618.48
940.135	4547.75
940.442	4604.02
940.749	4566.96
941.056	4535.09
941.363	4478.37
941.67	4469.56
941.977	4469.11
942.284	4455.55
942.591	4432.5
942.898	4401.99
943.205	4401.99
943.511	4394.76
943.818	4349.11
944.125	4346.17
944.431	4316.34
944.738	4285.38
945.044	4338.26
945.35	4279.51
945.657	4220.98
945.963	4215.1
946.269	4195.67
946.575	4199.28
946.881	4146.18
947.187	4162.9
947.493	4125.39
947.799	4117.7
948.105	4085.61
948.41	4112.05
948.716	4069.79
949.022	4019.85
949.327	4063.92
949.633	4000.87
949.938	4013.52
950.244	4003.13
950.549	3983.02
950.854	3911.38
951.16	3910.93
951.465	3907.99
951.77	3872.06
952.075	3868.9
952.38	3862.12
952.685	3902.34
952.99	3807.88
953.294	3812.63
953.599	3739.63
953.904	3796.13
954.209	3740.99
954.513	3756.58
954.818	3712.74
955.122	3704.83
955.426	3746.64
955.731	3708.9
956.035	3643.36
956.339	3650.6
956.643	3612.86
956.948	3596.36
957.252	3595.46
957.556	3580.77
957.86	3580.77
958.163	3597.49
958.467	3522.46
958.771	3527.89
959.075	3552.52
959.378	3486.76
959.682	3520.2
959.985	3462.58
960.289	3470.04
960.592	3437.95
960.896	3393.88
961.199	3451.73
961.502	3380.77
961.805	3383.71
962.108	3357.5
962.411	3355.46
962.714	3325.41
963.017	3307.1
963.32	3332.41
963.623	3336.25
963.926	3330.38
964.228	3252.64
964.531	3271.85
964.833	3261.91
965.136	3228.69
965.438	3216.48
965.741	3218.07
966.043	3192.53
966.345	3188.01
966.648	3177.61
966.95	3136.03
967.252	3116.6
967.554	3140.1
967.856	3138.52
968.158	3079.76
968.46	3101.46
968.761	3041.8
969.063	3037.05
969.365	3024.4
969.666	3095.58
969.968	2996.83
970.269	2993.66
970.571	2985.3
970.872	2991.18
971.174	2941.91
971.475	2942.82
971.776	2952.99
972.077	2951.86
972.378	2915.93
972.679	2907.34
972.98	2865.76
973.281	2894.01
973.582	2843.61
973.883	2840.9
974.183	2844.06
974.484	2844.29
974.785	2836.61
975.085	2802.71
975.386	2796.16
975.686	2760.22
975.986	2755.7
976.287	2794.8
976.587	2725.2
976.887	2748.7
977.187	2725.2
977.487	2709.15
977.787	2663.5
978.087	2670.06
978.387	2662.15
978.687	2663.28
978.987	2635.03
979.286	2664.63
979.586	2644.07
979.885	2591.64
980.185	2590.51
980.484	2581.47
980.784	2576.27
981.083	2570.85
981.382	2555.03
981.682	2561.36
981.981	2569.49
982.28	2522.26
982.579	2501.93
982.878	2526.33
983.177	2512.09
983.475	2480.91
983.774	2459.89
984.073	2488.59
984.372	2459.67
984.67	2440.01
984.969	2441.81
985.267	2440.23
985.566	2421.25
985.864	2383.74
986.162	2400.91
986.461	2388.93
986.759	2340.12
987.057	2329.05
987.355	2340.57
987.653	2329.5
987.951	2335.83
988.249	2308.48
988.547	2291.31
988.844	2313.68
989.142	2280.24
989.44	2288.82
989.737	2278.43
990.035	2225.55
990.332	2236.62
990.63	2207.24
990.927	2229.84
991.224	2224.87
991.521	2205.21
991.819	2165.21
992.116	2159.56
992.413	2195.27
992.71	2166.57
993.006	2138.77
993.303	2133.8
993.6	2131.31
993.897	2112.33
994.193	2129.73
994.49	2115.5
994.787	2092.9
995.083	2094.48
995.379	2071.65
995.676	2081.82
995.972	2057.87
996.268	2047.25
996.565	2056.74
996.861	2035.27
997.157	2023.97
997.453	2015.84
997.749	1983.07
998.044	2015.38
998.34	1972.22
998.636	1963.86
998.932	1929.29
999.227	1943.75
999.523	1943.75
999.818	1933.35
1000.114	1927.48
1000.409	1921.38
1000.704	1895.39
1001	1875.5
1001.295	1880.47
1001.59	1863.75
1001.885	1887.25
1002.18	1853.13
1002.475	1825.33
1002.77	1821.27
1003.065	1842.28
1003.359	1801.38
1003.654	1776.3
1003.949	1764.54
1004.243	1782.17
1004.538	1779.23
1004.832	1776.75
1005.127	1745.56
1005.421	1725.22
1005.715	1746.69
1006.009	1729.74
1006.304	1706.92
1006.598	1696.52
1006.892	1704.88
1007.186	1695.62
1007.48	1687.94
1007.773	1665.56
1008.067	1633.25
1008.361	1679.8
1008.655	1656.98
1008.948	1620.59
1009.242	1668.05
1009.535	1646.36
1009.829	1607.49
1010.122	1577.43
1010.415	1590.76
1010.708	1564.32
1011.001	1604.1
1011.295	1581.72
1011.588	1555.96
1011.881	1549.86
1012.173	1533.14
1012.466	1541.05
1012.759	1545.34
1013.052	1540.6
1013.344	1526.13
1013.637	1505.34
1013.93	1480.94
1014.222	1496.3
1014.514	1485.46
1014.807	1466.02
1015.099	1436.19
1015.391	1428.96
1015.683	1454.27
1015.976	1439.58
1016.268	1434.84
1016.56	1428.73
1016.851	1421.73
1017.143	1410.2
1017.435	1369.75
1017.727	1371.56
1018.018	1386.7
1018.31	1402.29
1018.602	1363.2
1018.893	1333.14
1019.185	1325.01
1019.476	1363.65
1019.767	1325.01
1020.058	1326.59
1020.35	1302.41
1020.641	1281.17
1020.932	1320.04
1021.223	1268.96
1021.514	1281.17
1021.804	1281.17
1022.095	1278.46
1022.386	1249.3
1022.677	1227.38
1022.967	1232.13
1023.258	1227.61
1023.548	1200.94
1023.839	1203.65
1024.129	1196.65
1024.419	1221.06
1024.709	1186.25
1025	1187.38
1025.29	1186.03
1025.58	1171.79
1025.87	1179.93
1026.16	1154.16
1026.449	1173.37
1026.739	1135.86
1027.029	1113.49
1027.319	1120.95
1027.608	1108.52
1027.898	1088.63
1028.187	1101.28
1028.477	1121.62
1028.766	1068.97
1029.055	1074.62
1029.344	1077.56
1029.634	1080.04
1029.923	1073.94
1030.212	1033.49
1030.501	1049.53
1030.79	1041.4
1031.078	1060.83
1031.367	1033.72
1031.656	1010.67
1031.945	1029.42
1032.233	1016.54
1032.522	1007.05
1032.81	1007.05
1033.099	979.93
1033.387	983.32
1033.675	986.94
1033.963	972.7
1034.251	986.03
1034.54	960.5
1034.828	948.97
1035.116	947.84
1035.403	932.25
1035.691	911.69
1035.979	948.29
1036.267	937.9
1036.554	946.49
1036.842	930.22
1037.129	920.5
1037.417	915.3
1037.704	897
1037.992	895.19
1038.279	916.66
1038.566	897
1038.853	897
1039.14	897
