Data from hue_24_FLMS001491_00052.txt Node
Date: Tue Feb 07 17:12:27 GMT 2017
User: dcchb
Spectrometer: FLMS00149
Trigger mode: 0
Integration Time (sec): 2.000000E-2
Scans to average: 10
Electric dark correction enabled: true
Nonlinearity correction enabled: false
Boxcar width: 0
XAxis mode: Wavelengths
Number of Pixels in Spectrum: 2048
>>>>>Begin Spectral Data<<<<<
341.393	-16.92
341.776	-16.92
342.16	-16.92
342.543	-51.95
342.927	-74.32
343.31	-79.52
343.693	-56.02
344.077	-52.85
344.46	-50.14
344.843	-67.31
345.226	-20.31
345.61	-32.06
345.993	-2.46
346.376	-2.23
346.759	13.36
347.142	16.3
347.525	35.73
347.908	44.55
348.291	59.46
348.674	88.39
349.057	105.11
349.44	113.47
349.823	143.08
350.206	152.11
350.588	179.01
350.971	197.09
351.354	223.07
351.737	235.5
352.119	244.32
352.502	284.31
352.884	266.46
353.267	268.72
353.65	301.72
354.032	303.52
354.414	295.16
354.797	301.26
355.179	325.44
355.562	324.99
355.944	313.47
356.326	332.45
356.709	336.74
357.091	334.93
357.473	350.53
357.855	341.26
358.238	343.75
358.62	332
359.002	337.42
359.384	343.52
359.766	343.3
360.148	335.16
360.53	356.18
360.912	343.52
361.294	328.61
361.676	315.73
362.057	332.22
362.439	318.44
362.821	320.02
363.203	326.57
363.584	325.44
363.966	330.19
364.348	316.18
364.729	337.19
365.111	327.93
365.493	343.52
365.874	351.88
366.256	335.61
366.637	327.7
367.019	313.47
367.4	318.21
367.781	322.28
368.163	313.47
368.544	303.07
368.925	288.61
369.306	303.75
369.688	309.17
370.069	330.87
370.45	316.63
370.831	302.39
371.212	323.18
371.593	306.46
371.974	303.3
372.355	311.43
372.736	322.51
373.117	304.43
373.498	314.82
373.879	312.79
374.26	322.28
374.641	322.51
375.021	312.56
375.402	317.99
375.783	320.92
376.163	335.61
376.544	319.79
376.925	342.62
377.305	317.31
377.686	323.64
378.066	326.8
378.447	324.09
378.827	316.4
379.208	337.42
379.588	310.75
379.968	353.47
380.349	343.75
380.729	327.48
381.109	336.74
381.489	345.78
381.87	311.88
382.25	353.47
382.63	325.9
383.01	341.49
383.39	344.88
383.77	340.36
384.15	358.89
384.53	336.06
384.91	338.32
385.29	342.84
385.67	339.45
386.049	340.81
386.429	374.03
386.809	356.4
387.189	348.27
387.568	344.88
387.948	340.81
388.328	345.56
388.707	357.31
389.087	355.95
389.466	355.95
389.846	341.71
390.225	359.34
390.605	371.32
390.984	369.06
391.363	364.31
391.743	369.51
392.122	355.5
392.501	349.4
392.881	376.97
393.26	395.05
393.639	370.64
394.018	363.41
394.397	377.42
394.776	354.14
395.155	375.16
395.534	398.21
395.913	361.15
396.292	367.48
396.671	390.75
397.05	376.97
397.429	408.61
397.808	379.45
398.186	389.62
398.565	403.18
398.944	374.03
399.323	384.65
399.701	403.86
400.08	384.88
400.458	402.96
400.837	410.19
401.215	390.98
401.594	401.83
401.972	384.42
402.351	388.94
402.729	388.04
403.107	405.44
403.486	402.05
403.864	399.34
404.242	438.89
404.62	402.96
404.999	409.96
405.377	403.86
405.755	400.24
406.133	403.86
406.511	416.06
406.889	449.96
407.267	412.45
407.645	431.43
408.023	437.53
408.401	430.07
408.779	443.86
409.156	435.95
409.534	438.89
409.912	456.51
410.29	442.73
410.667	441.6
411.045	456.51
411.422	461.03
411.8	450.86
412.178	469.39
412.555	477.08
412.933	455.84
413.31	458.77
413.687	471.43
414.065	453.12
414.442	492.67
414.819	462.61
415.197	479.79
415.574	464.42
415.951	481.6
416.328	465.1
416.705	486.12
417.082	458.77
417.46	515.27
417.837	478.21
418.214	495.61
418.591	506.91
418.967	492.9
419.344	478.43
419.721	496.74
420.098	510.3
420.475	506.68
420.852	475.95
421.228	496.51
421.605	502.61
421.982	532.9
422.358	541.26
422.735	523.18
423.111	540.58
423.488	543.97
423.864	503.52
424.241	553.46
424.617	541.03
424.994	542.61
425.37	531.99
425.746	541.26
426.123	531.54
426.499	558.21
426.875	550.97
427.251	541.48
427.627	548.49
428.003	579.45
428.379	569.05
428.756	585.32
429.132	571.54
429.507	589.84
429.883	563.4
430.259	590.07
430.635	604.08
431.011	585.78
431.387	612.22
431.763	602.27
432.138	606.57
432.514	600.69
432.89	626
433.265	627.81
433.641	639.56
434.016	635.49
434.392	639.11
434.767	655.15
435.143	651.76
435.518	654.7
435.894	654.47
436.269	680.46
436.644	654.7
437.02	666.23
437.395	662.16
437.77	681.37
438.145	685.66
438.52	691.31
438.895	695.15
439.271	691.99
439.646	696.28
440.021	687.24
440.395	710.29
440.77	710.07
441.145	709.16
441.52	721.14
441.895	746.45
442.27	727.47
442.645	740.57
443.019	724.98
443.394	722.04
443.769	755.71
444.143	736.28
444.518	747.58
444.892	740.57
445.267	748.26
445.641	743.06
446.016	779.89
446.39	761.82
446.764	757.97
447.139	777.86
447.513	772.21
447.887	765.43
448.262	796.39
448.636	792.32
449.01	786.45
449.384	809.05
449.758	813.34
450.132	834.81
450.506	815.37
450.88	811.08
451.254	821.7
451.628	832.32
452.002	823.96
452.376	846.33
452.75	850.18
453.123	850.63
453.497	874.58
453.871	845.43
454.244	869.38
454.618	878.42
454.992	895.6
455.365	902.6
455.739	892.89
456.112	918.42
456.486	896.5
456.859	933.79
457.232	958.2
457.606	945.77
457.979	952.77
458.352	972.88
458.725	957.97
459.099	1001.81
459.472	998.65
459.845	990.28
460.218	1005.2
460.591	1002.04
460.964	1038.19
461.337	1023.5
461.71	1044.07
462.083	1073.9
462.456	1086.1
462.829	1060.34
463.201	1079.55
463.574	1106.44
463.947	1092.2
464.32	1109.15
464.692	1117.29
465.065	1130.39
465.438	1118.42
465.81	1159.09
466.183	1178.53
466.555	1166.55
466.928	1208.81
467.3	1192.31
467.672	1219.21
468.045	1291.29
468.417	1255.59
468.789	1237.51
469.161	1267.57
469.534	1289.94
469.906	1311.86
470.278	1310.95
470.65	1330.61
471.022	1375.13
471.394	1380.33
471.766	1404.06
472.138	1396.15
472.51	1421.01
472.882	1487.22
473.253	1488.35
473.625	1500.55
473.997	1556.6
474.369	1547.56
474.74	1573.77
475.112	1606.99
475.484	1612.19
475.855	1650.61
476.227	1663.26
476.598	1736.25
476.97	1729.7
477.341	1747.78
477.713	1773.31
478.084	1793.88
478.455	1851.5
478.827	1906.19
479.198	1946.87
479.569	1933.08
479.94	1964.72
480.311	1995.46
480.682	2078.39
481.053	2133.98
481.424	2136.7
481.795	2176.02
482.166	2213.3
482.537	2247.43
482.908	2291.27
483.279	2325.39
483.65	2383.47
484.021	2445.84
484.391	2459.62
484.762	2493.07
485.133	2546.18
485.503	2562.9
485.874	2670.92
486.244	2651.03
486.615	2711.82
486.985	2727.87
487.356	2793.18
487.726	2831.59
488.097	2917.01
488.467	2935.09
488.837	2988.42
489.207	3017.35
489.578	3048.54
489.948	3126.95
490.318	3184.13
490.688	3198.36
491.058	3241.75
491.428	3292.37
491.798	3321.3
492.168	3397.68
492.538	3430.67
492.908	3453.5
493.278	3560.84
493.648	3519.03
494.017	3609.42
494.387	3611.91
494.757	3679.48
495.126	3698.24
495.496	3722.87
495.866	3759.25
496.235	3815.97
496.605	3835.63
496.974	3864.56
497.344	3904.78
497.713	3946.37
498.082	3986.82
498.452	4055.74
498.821	4077.66
499.19	4076.08
499.559	4110.65
499.928	4159.69
500.298	4150.65
500.667	4213.93
501.036	4225.91
501.405	4277.2
501.774	4272.91
502.143	4311.55
502.512	4335.96
502.88	4383.42
503.249	4394.94
503.618	4384.55
503.987	4419.8
504.356	4476.75
504.724	4474.94
505.093	4472.45
505.462	4488.05
505.83	4571.43
506.199	4580.7
506.567	4674.93
506.936	4659.79
507.304	4674.71
507.672	4695.5
508.041	4703.63
508.409	4767.13
508.777	4804.87
509.145	4794.93
509.514	4797.42
509.882	4826.12
510.25	4866.34
510.618	4913.57
510.986	4874.93
511.354	4944.53
511.722	4990.18
512.09	5026.79
512.458	5003.06
512.826	5022.04
513.193	5050.74
513.561	5089.84
513.929	5058.88
514.297	5141.59
514.664	5137.97
515.032	5162.38
515.4	5206.9
515.767	5233.34
516.135	5205.99
516.502	5212.55
516.869	5300.91
517.237	5288.25
517.604	5254.81
517.972	5316.27
518.339	5420.68
518.706	5407.12
519.073	5346.55
519.44	5450.05
519.808	5438.53
520.175	5451.86
520.542	5500
520.909	5512.2
521.276	5479.88
521.643	5576.15
522.009	5648.69
522.376	5619.54
522.743	5653.21
523.11	5672.87
523.477	5702.03
523.843	5789.93
524.21	5799.2
524.577	5837.16
524.943	5895.47
525.31	5892.98
525.676	5962.36
526.043	5936.37
526.409	6004.16
526.776	6066.54
527.142	5997.38
527.508	6117.61
527.874	6097.5
528.241	6134.78
528.607	6207.32
528.973	6243.25
529.339	6244.61
529.705	6257.04
530.071	6258.62
530.437	6349.92
530.803	6331.16
531.169	6389.01
531.535	6428.79
531.901	6410.26
532.267	6420.65
532.632	6502.23
532.998	6519.18
533.364	6556.69
533.73	6600.31
534.095	6622.23
534.461	6616.58
534.826	6728.44
535.192	6689.8
535.557	6733.18
535.923	6711.72
536.288	6763.47
536.653	6789.45
537.019	6807.98
537.384	6758.49
537.749	6837.59
538.114	6838.94
538.479	6862.9
538.845	6961.88
539.21	6940.86
539.575	6968.43
539.94	7014.31
540.305	7076.23
540.67	7071.93
541.034	7054.98
541.399	7134.98
541.764	7110.58
542.129	7163.91
542.494	7205.71
542.858	7216.11
543.223	7259.5
543.587	7346.5
543.952	7317.12
544.316	7371.36
544.681	7343.11
545.045	7447.29
545.41	7412.04
545.774	7436.22
546.138	7488.19
546.503	7483
546.867	7478.48
547.231	7491.36
547.595	7523.9
547.959	7606.83
548.324	7652.26
548.688	7621.75
549.052	7686.38
549.416	7657.91
549.779	7757.11
550.143	7708.53
550.507	7859.71
550.871	7835.3
551.235	7841.63
551.599	7824.91
551.962	7897.22
552.326	7936.99
552.689	7967.73
553.053	7895.64
553.417	7959.82
553.78	8054.28
554.143	8008.41
554.507	8091.79
554.87	8174.28
555.234	8168.18
555.597	8116.88
555.96	8197.55
556.323	8234.16
556.686	8248.4
557.05	8339.02
557.413	8369.53
557.776	8347.83
558.139	8378.79
558.502	8385.34
558.865	8394.61
559.228	8449.07
559.59	8459.24
559.953	8461.05
560.316	8543.31
560.679	8528.39
561.041	8598.22
561.404	8623.53
561.767	8666.92
562.129	8670.99
562.492	8764.77
562.854	8689.97
563.217	8752.79
563.579	8773.58
563.941	8850.87
564.304	8926.12
564.666	8960.02
565.028	8955.95
565.39	8976.06
565.753	8979.45
566.115	9002.05
566.477	9084.31
566.839	9118.43
567.201	9119.79
567.563	9123.4
567.925	9174.25
568.287	9210.18
568.648	9222.16
569.01	9350.74
569.372	9396.84
569.734	9294.7
570.095	9444.98
570.457	9494.02
570.819	9490.17
571.18	9457.63
571.542	9609.72
571.903	9640.23
572.265	9607.46
572.626	9668.93
572.987	9674.8
573.349	9841.13
573.71	9818.75
574.071	9934.91
574.432	9922.93
574.794	10068.46
575.155	10043.61
575.516	10097.84
575.877	10141.23
576.238	10235.47
576.599	10359.98
576.96	10361.79
577.32	10478.62
577.681	10548.45
578.042	10608.56
578.403	10647.66
578.763	10779.41
579.124	10865.51
579.485	10884.94
579.845	11061.21
580.206	11217.36
580.566	11303.46
580.927	11319.05
581.287	11550.23
581.648	11602.44
582.008	11785.03
582.368	11874.74
582.728	12022.76
583.089	12077.9
583.449	12343.43
583.809	12362.87
584.169	12662.75
584.529	12764.66
584.889	13030.87
585.249	13244.65
585.609	13264.99
585.969	13556.96
586.329	13765.77
586.688	13937.97
587.048	14147.45
587.408	14320.33
587.768	14534.34
588.127	14817.72
588.487	15044.83
588.846	15388.1
589.206	15473.52
589.565	15780.4
589.925	16120.51
590.284	16334.74
590.643	16581.51
591.003	16877.55
591.362	17219.69
591.721	17440.47
592.08	17596.63
592.44	18012.89
592.799	18267.34
593.158	18611.06
593.517	18868.91
593.876	19197.04
594.235	19397.26
594.593	19713.63
594.952	20098.48
595.311	20258.7
595.67	20648.52
596.029	21074.95
596.387	21368.28
596.746	21670.64
597.104	21911.54
597.463	22165.77
597.822	22547.23
598.18	22758.75
598.538	23050.72
598.897	23461.78
599.255	23572.97
599.613	24206.4
599.972	24385.15
600.33	24863.78
600.688	24958.47
601.046	25377.89
601.404	25800.25
601.762	25985.11
602.12	26341.03
602.478	26665.77
602.836	26944.86
603.194	27110.95
603.552	27400.44
603.91	27666.65
604.268	28122.45
604.625	28205.39
604.983	28669.33
605.341	28802.89
605.698	29272.93
606.056	29459.59
606.413	29621.62
606.771	30015.96
607.128	30352.22
607.485	30315.39
607.843	30549.06
608.2	31061.58
608.557	31386.1
608.914	31418.41
609.272	31700.21
609.629	32106.3
609.986	32345.17
610.343	32375.45
610.7	32734.99
611.057	32887.3
611.414	33214.97
611.771	33364.35
612.127	33478.24
612.484	33862.87
612.841	34135.63
613.198	34120.26
613.554	34387.15
613.911	34616.97
614.267	34704.2
614.624	34971.09
614.98	35211.98
615.337	35525.2
615.693	35544.86
616.05	35708.92
616.406	36018.74
616.762	36118.4
617.118	36282.69
617.475	36351.61
617.831	36689.23
618.187	36882
618.543	36886.52
618.899	37166.06
619.255	37398.82
619.611	37422.32
619.967	37646.04
620.323	37720.17
620.678	37914.96
621.034	37772.14
621.39	37872.25
621.746	38026.82
622.101	38575.96
622.457	38368.96
622.812	38533.25
623.168	38573.48
623.523	38704.55
623.879	38995.61
624.234	38729.18
624.589	38937.54
624.945	39097.76
625.3	39236.96
625.655	39282.84
626.01	39402.61
626.365	39451.65
626.72	39471.31
627.075	39521.25
627.43	39511.76
627.785	39611.87
628.14	39868.13
628.495	39795.82
628.85	39824.74
629.205	39778.87
629.559	40003.04
629.914	39918.53
630.269	40101.8
630.623	39931.18
630.978	39904.52
631.332	40234
631.687	40329.59
632.041	40127.33
632.396	40246.2
632.75	40226.99
633.104	40219.99
633.459	40179.54
633.813	40095.25
634.167	40212.08
634.521	40390.6
634.875	40265.18
635.229	40355.8
635.583	40208.46
635.937	40216.37
636.291	40156.26
636.645	40231.96
636.999	40193.77
637.352	40412.52
637.706	40137.28
638.06	40275.13
638.413	40281.68
638.767	40223.83
639.121	40338.4
639.474	40106.54
639.828	40209.82
640.181	40202.59
640.534	40161.01
640.888	40090.95
641.241	39988.58
641.594	40168.46
641.947	40310.38
642.301	40010.95
642.654	40167.33
643.007	40301.12
643.36	40130.72
643.713	40165.98
644.066	40254.34
644.419	39906.55
644.771	39812.54
645.124	39468.14
645.477	39463.85
645.83	39193.8
646.182	39076.51
646.535	38936.86
646.888	39186.12
647.24	38836.07
647.593	39070.41
647.945	38968.95
648.298	38923.3
648.65	38817.76
649.002	38740.7
649.355	38896.63
649.707	38897.99
650.059	39046.23
650.411	39509.5
650.763	39647.35
651.115	39853.67
651.467	39806.67
651.819	39896.83
652.171	39700.45
652.523	39756.95
652.875	39636.05
653.227	39567.35
653.578	39850.51
653.93	39655.48
654.282	39441.48
654.633	39429.27
654.985	39587.01
655.337	39666.78
655.688	39508.14
656.039	39889.37
656.391	39315.38
656.742	39550.85
657.094	39465.43
657.445	39701.58
657.796	39348.37
658.147	39439.67
658.498	39515.6
658.849	39382.95
659.2	39405.09
659.551	39332.55
659.902	39547.24
660.253	39436.51
660.604	39540.91
660.955	39273.57
661.306	39399.9
661.656	39433.34
662.007	39527.12
662.358	39409.84
662.708	39408.71
663.059	39310.63
663.409	39254.14
663.76	39514.7
664.11	39424.98
664.461	39512.66
664.811	39473.57
665.161	39428.14
665.511	39309.05
665.862	39345.66
666.212	39494.58
666.562	39369.39
666.912	39315.6
667.262	39185.66
667.612	39213.01
667.962	39331.88
668.312	39148.6
668.662	39542.49
669.011	39251.65
669.361	39168.94
669.711	39234.02
670.06	39153.12
670.41	39160.58
670.76	39173.46
671.109	39191.77
671.459	39265.89
671.808	39100.24
672.157	39270.18
672.507	38896.41
672.856	39080.36
673.205	39036.29
673.554	39129.62
673.904	38947.48
674.253	39222.05
674.602	38987.03
674.951	38537.77
675.3	38270.89
675.649	38998.1
675.998	38953.81
676.346	38876.97
676.695	38980.25
677.044	38763.53
677.393	38789.52
677.741	39029.74
678.09	38772.34
678.438	38570.09
678.787	38770.08
679.135	38711.55
679.484	38529.41
679.832	38634.49
680.181	38515.17
680.529	38500.94
680.877	38482.63
681.225	38500.94
681.573	38604.44
681.922	38313.37
682.27	38221.85
682.618	38284.67
682.966	38111.12
683.314	38276.08
683.661	38100.27
684.009	37997.45
684.357	37925.36
684.705	37835.19
685.053	37872.48
685.4	37892.82
685.748	37897.79
686.095	37688.53
686.443	37641.07
686.79	37544.35
687.138	37514.3
687.485	37570.34
687.832	37372.15
688.18	37518.82
688.527	37221.42
688.874	37206.73
689.221	37154.98
689.568	37126.28
689.915	36949.11
690.262	36996.12
690.609	36952.28
690.956	36740.08
691.303	36744.15
691.65	36545.51
691.997	36554.77
692.344	36428.45
692.69	36371.95
693.037	36336.02
693.383	36067.33
693.73	36265.97
694.077	35978.07
694.423	36081.57
694.769	35854.9
695.116	35909.59
695.462	35886.32
695.808	35674.34
696.155	35685.64
696.501	35518.87
696.847	35449.72
697.193	35123.62
697.539	35365.2
697.885	35003.85
698.231	35028.03
698.577	35015.6
698.923	34857.42
699.269	34701.26
699.614	34648.38
699.96	34554.15
700.306	34547.14
700.651	34302.63
700.997	34338.33
701.342	34186.7
701.688	34229.86
702.033	34123.42
702.379	34053.37
702.724	33936.76
703.069	34070.77
703.415	33664.68
703.76	33626.26
704.105	33739.03
704.45	33646.83
704.795	33488.41
705.14	33377.46
705.485	33318.02
705.83	33144.92
706.175	33344.24
706.52	33118.93
706.865	32995.09
707.209	33052.27
707.554	32870.35
707.899	32894.76
708.243	32664.25
708.588	32718.72
708.932	32441.21
709.277	32419.29
709.621	32353.08
709.966	32271.04
710.31	32363.92
710.654	32025.85
710.998	32117.38
711.342	32085.74
711.687	31897.27
712.031	31885.29
712.375	31908.57
712.719	31820.43
713.063	31723.04
713.407	31925.29
713.75	31602.81
714.094	31606.43
714.438	31543.15
714.782	31553.77
715.125	31442.14
715.469	31455.7
715.812	31338.41
716.156	31148.14
716.499	31185.2
716.843	31165.99
717.186	31017.74
717.53	31209.15
717.873	31147.68
718.216	31040.79
718.559	30791.76
718.902	30615.72
719.246	30749.95
719.589	30602.61
719.932	30397.2
720.275	30612.33
720.617	30540.92
720.96	30497.98
721.303	30355.39
721.646	30447.82
721.989	30293.92
722.331	30367.14
722.674	30319.23
723.016	30221.15
723.359	30169.18
723.701	30126.69
724.044	29959.92
724.386	29952.24
724.729	30067.49
725.071	29933.93
725.413	29892.12
725.755	29768.51
726.097	29809.87
726.439	29510.89
726.782	29701.85
727.124	29736.65
727.465	29546.82
727.807	29572.58
728.149	29403.1
728.491	29421.85
728.833	29409.88
729.175	29374.4
729.516	29201.07
729.858	29204.46
730.199	29213.72
730.541	29148.87
730.882	29146.61
731.224	29274.06
731.565	29091.92
731.906	28964.01
732.248	29022.77
732.589	28852.15
732.93	28860.51
733.271	28917.69
733.612	28851.25
733.953	28723.79
734.294	28720.63
734.635	28597.92
734.976	28769.44
735.317	28501.65
735.658	28647.64
735.999	28548.88
736.339	28491.71
736.68	28571.93
737.021	28466.62
737.361	28369.45
737.702	28467.53
738.042	28411.03
738.383	28319.51
738.723	28279.06
739.063	28243.58
739.404	28320.41
739.744	28211.94
740.084	28002
740.424	28123.81
740.764	27985.73
741.104	28147.76
741.444	27958.62
741.784	27887.43
742.124	27984.83
742.464	27872.52
742.804	27798.17
743.143	27787.55
743.483	27719.75
743.823	27678.62
744.162	27706.42
744.502	27713.42
744.841	27572.64
745.181	27639.75
745.52	27424.62
745.86	27669.36
746.199	27543.03
746.538	27395.01
746.877	27509.59
747.216	27544.61
747.556	27372.87
747.895	27402.92
748.234	27353.43
748.573	27188.01
748.911	27248.13
749.25	27316.82
749.589	27129.26
749.928	27244.06
750.267	27183.04
750.605	27035.7
750.944	26905.76
751.283	27023.05
751.621	27075.93
751.96	26814.01
752.298	26850.85
752.636	26832.32
752.975	26683.85
753.313	26637.75
753.651	26696.05
753.989	26520.91
754.327	26504.64
754.666	26389.39
755.004	26512.55
755.342	26439.79
755.679	26350.75
756.017	26174.48
756.355	26361.82
756.693	26125.67
757.031	26202.96
757.368	26052
757.706	25953.47
758.044	25994.15
758.381	25989.85
758.719	25931.32
759.056	25948.05
759.394	25896.97
759.731	25679.13
760.068	25596.42
760.405	25572.46
760.743	25371.56
761.08	25593.48
761.417	25499.02
761.754	25386.03
762.091	25277.1
762.428	25191.68
762.765	25104.45
763.102	25229.2
763.438	24964.12
763.775	24950.33
764.112	24894.51
764.449	24858.36
764.785	24761.41
765.122	24624.69
765.458	24591.7
765.795	24518.71
766.131	24488.2
766.467	24446.62
766.804	24383.57
767.14	24222.89
767.476	24187.64
767.812	23995.56
768.148	24026.06
768.485	23947.42
768.821	23860.64
769.157	23802.11
769.492	23553.08
769.828	23745.62
770.164	23427.43
770.5	23542.23
770.836	23527.09
771.171	23260.66
771.507	23377.04
771.842	23066.31
772.178	23083.94
772.513	22946.09
772.849	22892.31
773.184	22719.2
773.519	22838.98
773.855	22690.73
774.19	22668.58
774.525	22591.75
774.86	22576.84
775.195	22549.49
775.53	22414.81
775.865	22268.82
776.2	22091.65
776.535	21938.89
776.87	22016.62
777.205	21920.36
777.539	21813.47
777.874	21869.96
778.209	21683.98
778.543	21619.57
778.878	21541.61
779.212	21500.93
779.547	21322.63
779.881	21366.7
780.215	21338
780.55	21324.89
780.884	20978.69
781.218	21032.02
781.552	21064.56
781.886	20788.86
782.22	20838.58
782.554	20722.2
782.888	20597.45
783.222	20457.8
783.556	20448.53
783.889	20394.75
784.223	20253.73
784.557	20210.34
784.89	20229.1
785.224	20109.78
785.557	19973.51
785.891	19972.16
786.224	19850.81
786.558	19884.93
786.891	19693.75
787.224	19624.15
787.557	19595.9
787.891	19569.46
788.224	19520.87
788.557	19520.64
788.89	19413.53
789.223	19513.41
789.556	19263.02
789.888	19263.7
790.221	19069.36
790.554	18958.63
790.887	18969.47
791.219	18870.49
791.552	18849.7
791.884	18859.87
792.217	18776.94
792.549	18606.09
792.882	18483.84
793.214	18555.02
793.546	18385.31
793.879	18295.37
794.211	18319.32
794.543	18427.11
794.875	18212.43
795.207	18333.33
795.539	18153.68
795.871	18084.07
796.203	18004.3
796.535	17858.09
796.867	17878.65
797.198	17807.92
797.53	17775.83
797.862	17619.9
798.193	17685.66
798.525	17544.2
798.856	17608.83
799.188	17407.03
799.519	17347.59
799.85	17292.91
800.182	17228.73
800.513	17221.5
800.844	17221.27
801.175	17169.97
801.506	17131.78
801.837	17012.91
802.168	16965.01
802.499	16885.23
802.83	16809.76
803.161	16776.31
803.491	16805.24
803.822	16749.64
804.153	16690.21
804.483	16481.4
804.814	16490.67
805.145	16572.7
805.475	16433.95
805.805	16362.08
806.136	16425.81
806.466	16387.39
806.796	16347.85
807.126	16200.96
807.457	16142.43
807.787	16266.04
808.117	16113.95
808.447	15952.38
808.777	16075.09
809.107	16054.07
809.436	15967.97
809.766	15950.34
810.096	15817.01
810.426	15806.62
810.755	15813.17
811.085	15811.36
811.414	15689.11
811.744	15621.76
812.073	15618.83
812.403	15565.49
812.732	15502.22
813.061	15451.83
813.39	15400.08
813.719	15360.3
814.049	15393.97
814.378	15408.44
814.707	15281.66
815.036	15173.19
815.365	15145.84
815.693	15079.41
816.022	15059.97
816.351	15023.36
816.68	14932.97
817.008	14991.5
817.337	14803.71
817.665	14822.92
817.994	14864.72
818.322	14928.45
818.651	14750.15
818.979	14716.48
819.307	14759.19
819.636	14709.7
819.964	14606.2
820.292	14658.17
820.62	14704.95
820.948	14531.4
821.276	14628.57
821.604	14605.29
821.932	14600.55
822.259	14581.79
822.587	14540.89
822.915	14522.58
823.243	14560.55
823.57	14511.51
823.898	14514.22
824.225	14403.72
824.553	14481.68
824.88	14520.78
825.207	14476.94
825.535	14518.74
825.862	14578.85
826.189	14357.39
826.516	14560.1
826.843	14475.58
827.17	14478.07
827.497	14478.74
827.824	14430.38
828.151	14596.25
828.478	14479.2
828.805	14496.37
829.131	14455.02
829.458	14489.59
829.785	14386.09
830.111	14437.16
830.438	14453.21
830.764	14412.98
831.09	14465.18
831.417	14379.54
831.743	14532.3
832.069	14364.4
832.395	14431.97
832.722	14405.75
833.048	14416.82
833.374	14286.21
833.7	14299.77
834.026	14343.61
834.351	14353.78
834.677	14339.76
835.003	14363.27
835.329	14308.8
835.654	14207.79
835.98	14212.31
836.306	14252.76
836.631	14201.01
836.956	14147.23
837.282	14215.25
837.607	14142.48
837.932	14117.17
838.258	14145.42
838.583	14097.96
838.908	13989.94
839.233	14039.21
839.558	13962.37
839.883	13965.08
840.208	13859.78
840.533	13827.91
840.858	13862.71
841.182	13834.01
841.507	13747.46
841.832	13744.3
842.156	13690.06
842.481	13723.06
842.805	13681.25
843.13	13724.19
843.454	13636.96
843.778	13684.87
844.103	13594.93
844.427	13536.62
844.751	13563.51
845.075	13507.92
845.399	13448.26
845.723	13339.34
846.047	13374.14
846.371	13354.93
846.695	13371.2
847.019	13095.96
847.343	13179.57
847.666	13148.61
847.99	13014.83
848.313	13014.15
848.637	12957.65
848.96	12849.63
849.284	12916.3
849.607	12780.48
849.931	12674.5
850.254	12663.2
850.577	12647.83
850.9	12629.07
851.223	12564.9
851.546	12428.85
851.869	12385.69
852.192	12406.93
852.515	12355.41
852.838	12295.98
853.161	12282.87
853.483	12235.19
853.806	12098.69
854.129	12150.22
854.451	12112.03
854.774	12011.01
855.096	11971.24
855.419	11917.68
855.741	11987.06
856.063	11860.96
856.385	11848.3
856.708	11831.36
857.03	11713.62
857.352	11754.52
857.674	11705.03
857.996	11600.63
858.318	11644.47
858.64	11674.3
858.961	11544.13
859.283	11477.24
859.605	11400.41
859.926	11470.46
860.248	11449.22
860.57	11421.42
860.891	11372.38
861.212	11298.71
861.534	11270.69
861.855	11207.19
862.176	11276.79
862.498	11245.16
862.819	11218.04
863.14	11185.95
863.461	11132.84
863.782	11129.23
864.103	11158.83
864.424	11158.15
864.745	11098.95
865.065	11044.03
865.386	10948.44
865.707	11025.95
866.027	10993.86
866.348	10940.08
866.668	10939.63
866.989	10944.15
867.309	10851.49
867.63	10889.69
867.95	10912.51
868.27	10834.77
868.59	10859.4
868.91	10794.32
869.23	10813.3
869.55	10755
869.87	10762.91
870.19	10766.07
870.51	10793.87
870.83	10730.59
871.15	10686.53
871.469	10672.52
871.789	10709.13
872.109	10644.95
872.428	10634.1
872.748	10683.59
873.067	10586.19
873.386	10570.6
873.706	10558.17
874.025	10500.77
874.344	10555.46
874.663	10516.36
874.982	10466.87
875.301	10474.56
875.62	10401.79
875.939	10499.19
876.258	10425.52
876.577	10397.72
876.896	10396.14
877.214	10359.53
877.533	10331.28
877.852	10284.5
878.17	10336.71
878.489	10319.76
878.807	10298.06
879.125	10324.05
879.444	10236.82
879.762	10192.75
880.08	10184.39
880.398	10158.41
880.716	10151.17
881.034	10103.04
881.352	10077.05
881.67	10104.17
881.988	10183.49
882.306	10112.53
882.624	10070.27
882.941	9965.42
883.259	9975.36
883.577	9921.35
883.894	9899.2
884.212	9920.9
884.529	9900.11
884.846	9891.97
885.164	9839.77
885.481	9809.94
885.798	9835.48
886.115	9794.8
886.432	9755.7
886.75	9707.57
887.067	9716.61
887.383	9660.79
887.7	9736.04
888.017	9640.23
888.334	9645.2
888.651	9572.88
888.967	9635.26
889.284	9556.84
889.6	9512.77
889.917	9433.9
890.233	9548.25
890.55	9428.03
890.866	9476.39
891.182	9376.96
891.498	9357.3
891.815	9343.74
892.131	9361.59
892.447	9312.33
892.763	9255.15
893.079	9199.33
893.395	9214.48
893.71	9146.68
894.026	9094.25
894.342	9186.91
894.657	9123.63
894.973	9045.89
895.289	9056.51
895.604	9087.47
895.92	8918.89
896.235	8907.36
896.55	8993.92
896.865	8924.09
897.181	8879.12
897.496	8873.92
897.811	8792.34
898.126	8736.75
898.441	8684.55
898.756	8750.53
899.071	8674.83
899.386	8665.11
899.7	8556.41
900.015	8567.26
900.33	8518.22
900.644	8503.08
900.959	8485.68
901.273	8492.23
901.588	8450.2
901.902	8388.73
902.216	8379.92
902.531	8340.83
902.845	8320.04
903.159	8255.86
903.473	8274.84
903.787	8199.59
904.101	8140.38
904.415	8170.21
904.729	8139.48
905.042	8118.46
905.356	8094.5
905.67	8035.07
905.984	8032.13
906.297	7979.25
906.611	7971.34
906.924	7919.59
907.237	7913.72
907.551	7888.41
907.864	7894.96
908.177	7879.14
908.491	7799.82
908.804	7805.47
909.117	7720.96
909.43	7595.99
909.743	7635.76
910.056	7612.94
910.368	7592.37
910.681	7535.2
910.994	7565.03
911.307	7514.41
911.619	7446.39
911.932	7482.77
912.244	7400.96
912.557	7426.5
912.869	7337.91
913.181	7274.64
913.494	7294.07
913.806	7257.46
914.118	7241.65
914.43	7169.56
914.742	7163.23
915.054	7115.77
915.366	7100.63
915.678	7060.41
915.99	7047.75
916.302	7036
916.613	6925.95
916.925	6989.9
917.236	6895.89
917.548	6904.71
917.859	6894.99
918.171	6824.71
918.482	6849.11
918.794	6760.75
919.105	6800.08
919.416	6726.86
919.727	6679.63
920.038	6704.03
920.349	6622.45
920.66	6586.75
920.971	6573.64
921.282	6562.12
921.593	6519.18
921.903	6524.6
922.214	6453.19
922.525	6436.02
922.835	6441.89
923.146	6466.07
923.456	6334.78
923.767	6340.43
924.077	6340.88
924.387	6291.16
924.697	6261.33
925.008	6168.45
925.318	6257.26
925.628	6176.36
925.938	6130.49
926.248	6137.72
926.558	6092.52
926.867	6096.14
927.177	6081.45
927.487	6010.72
927.796	5972.75
928.106	5934.34
928.416	5918.06
928.725	5924.39
929.034	5935.01
929.344	5893.43
929.653	5857.28
929.962	5820.89
930.271	5801.23
930.581	5749.93
930.89	5741.12
931.199	5723.27
931.508	5744.74
931.817	5710.16
932.125	5650.28
932.434	5650.28
932.743	5588.81
933.051	5570.05
933.36	5524.4
933.669	5461.35
933.977	5523.5
934.286	5505.65
934.594	5461.35
934.902	5405.99
935.21	5383.62
935.519	5380.9
935.827	5389.27
936.135	5346.33
936.443	5342.71
936.751	5283.96
937.059	5258.42
937.367	5234.24
937.674	5255.94
937.982	5229.27
938.29	5100.01
938.597	5188.59
938.905	5136.16
939.213	5094.81
939.52	5083.74
939.827	5105.43
940.135	5051.65
940.442	5028.82
940.749	5012.55
941.056	5002.83
941.363	4965.1
941.67	4949.73
941.977	4916.74
942.284	4899.56
942.591	4904.53
942.898	4898.88
943.205	4845.55
943.511	4864.31
943.818	4812.56
944.125	4767.13
944.431	4775.72
944.738	4723.07
945.044	4702.05
945.35	4717.87
945.657	4676.74
945.963	4617.76
946.269	4604.43
946.575	4648.27
946.881	4582.96
947.187	4597.87
947.493	4567.59
947.799	4551.55
948.105	4519.46
948.41	4504.54
948.716	4470.42
949.022	4411.44
949.327	4385.68
949.633	4442.85
949.938	4454.6
950.244	4410.53
950.549	4363.08
950.854	4323.08
951.16	4346.81
951.465	4310.2
951.77	4263.64
952.075	4243.76
952.38	4248.05
952.685	4281.5
952.99	4155.17
953.294	4178.68
953.599	4161.5
953.904	4156.76
954.209	4101.16
954.513	4128.73
954.818	4113.82
955.122	4092.58
955.426	4101.62
955.731	4070.66
956.035	4059.81
956.339	4030.88
956.643	4056.87
956.948	3974.84
957.252	3965.57
957.556	3975.29
957.86	3898
958.163	3896.65
958.467	3892.81
958.771	3898.46
959.075	3870.66
959.378	3847.16
959.682	3844.67
959.985	3809.19
960.289	3778.91
960.592	3796.09
960.896	3756.31
961.199	3747.73
961.502	3733.49
961.805	3738.91
962.108	3693.72
962.411	3663.66
962.714	3651.91
963.017	3652.36
963.32	3663.21
963.623	3620.05
963.926	3595.41
964.228	3580.95
964.531	3542.31
964.833	3562.87
965.136	3547.05
965.438	3557.22
965.741	3500.95
966.043	3490.78
966.345	3462.76
966.648	3456.43
966.95	3434.29
967.252	3429.99
967.554	3430.67
967.856	3408.98
968.158	3368.08
968.46	3360.39
968.761	3355.87
969.063	3391.13
969.365	3317
969.666	3335.08
969.968	3292.82
970.269	3257.34
970.571	3231.36
970.872	3295.53
971.174	3228.64
971.475	3251.24
971.776	3258.47
972.077	3257.57
972.378	3170.34
972.679	3199.94
972.98	3156.33
973.281	3147.97
973.582	3164.01
973.883	3149.78
974.183	3103
974.484	3136.44
974.785	3110.68
975.085	3088.76
975.386	3058.03
975.686	3077.24
975.986	3069.1
976.287	3046.05
976.587	2982.1
976.887	2993.62
977.187	2985.26
977.487	2955.2
977.787	2955.88
978.087	2890.12
978.387	2883.79
978.687	2915.88
978.987	2895.55
979.286	2881.76
979.586	2869.78
979.885	2868.2
980.185	2839.28
980.484	2822.55
980.784	2833.85
981.083	2824.13
981.382	2835.21
981.682	2789.56
981.981	2800.41
982.28	2789.33
982.579	2737.58
982.878	2730.8
983.177	2718.6
983.475	2728.32
983.774	2700.97
984.073	2710.92
984.372	2665.27
984.67	2684.7
984.969	2673.18
985.267	2648.55
985.566	2648.32
985.864	2625.5
986.162	2580.07
986.461	2577.59
986.759	2604.93
987.057	2555.44
987.355	2563.35
987.653	2547.31
987.951	2547.08
988.249	2503.69
988.547	2528.32
988.844	2521.54
989.142	2487.87
989.44	2474.31
989.737	2479.51
990.035	2423.92
990.332	2441.32
990.63	2420.98
990.927	2409
991.224	2425.95
991.521	2401.77
991.819	2390.7
992.116	2381.89
992.413	2396.35
992.71	2337.14
993.006	2372.4
993.303	2332.62
993.6	2337.59
993.897	2305.5
994.193	2313.19
994.49	2296.92
994.787	2285.84
995.083	2266.41
995.379	2244.49
995.676	2201.78
995.972	2248.1
996.268	2207.65
996.565	2251.72
996.861	2195.45
997.157	2195.22
997.453	2208.56
997.749	2185.06
998.044	2149.58
998.34	2127.88
998.636	2137.37
998.932	2118.16
999.227	2084.95
999.523	2078.39
999.818	2105.06
1000.114	2086.08
1000.409	2086.98
1000.704	2090.14
1001	2035.45
1001.295	2062.35
1001.59	2001.33
1001.885	2053.53
1002.18	1988.9
1002.475	2019.41
1002.77	2004.5
1003.065	1948.45
1003.359	1957.49
1003.654	1956.59
1003.949	1938.96
1004.243	1932.41
1004.538	1908
1004.832	1902.8
1005.127	1898.28
1005.421	1907.77
1005.715	1888.57
1006.009	1891.96
1006.304	1849.7
1006.598	1861.22
1006.892	1836.14
1007.186	1841.11
1007.48	1842.01
1007.773	1814.22
1008.067	1812.86
1008.361	1778.29
1008.655	1800.21
1008.948	1788.68
1009.242	1759.53
1009.535	1751.39
1009.829	1767.44
1010.122	1760.21
1010.415	1725.41
1010.708	1708.01
1011.001	1711.17
1011.295	1690.61
1011.588	1702.58
1011.881	1651.51
1012.173	1665.97
1012.466	1659.87
1012.759	1659.19
1013.052	1604.96
1013.344	1656.93
1013.637	1625.97
1013.93	1636.6
1014.222	1603.15
1014.514	1587.33
1014.807	1582.59
1015.099	1580.78
1015.391	1592.3
1015.683	1562.47
1015.976	1556.37
1016.268	1561.34
1016.56	1514.11
1016.851	1524.06
1017.143	1509.59
1017.435	1501.91
1017.727	1480.89
1018.018	1487.67
1018.31	1473.21
1018.602	1463.49
1018.893	1473.89
1019.185	1450.61
1019.476	1400.44
1019.767	1445.87
1020.058	1418.75
1020.35	1417.17
1020.641	1414.91
1020.932	1394.34
1021.223	1383.04
1021.514	1376.72
1021.804	1378.3
1022.095	1360.44
1022.386	1338.52
1022.677	1370.84
1022.967	1311.86
1023.258	1298.07
1023.548	1311.18
1023.839	1294.68
1024.129	1308.47
1024.419	1273.22
1024.709	1281.35
1025	1269.15
1025.29	1280.45
1025.58	1262.59
1025.87	1253.78
1026.16	1243.61
1026.449	1231.18
1026.739	1217.85
1027.029	1209.49
1027.319	1212.88
1027.608	1208.58
1027.898	1211.75
1028.187	1200.9
1028.477	1173.56
1028.766	1175.14
1029.055	1208.58
1029.344	1173.33
1029.634	1147.12
1029.923	1131.52
1030.212	1143.73
1030.501	1124.74
1030.79	1140.56
1031.078	1110.51
1031.367	1106.67
1031.656	1098.53
1031.945	1069.83
1032.233	1077.74
1032.522	1074.35
1032.81	1081.58
1033.099	1089.72
1033.387	1050.4
1033.675	1034.58
1033.963	1040
1034.251	1036.16
1034.54	1038.19
1034.828	1033.22
1035.116	1033
1035.403	1009.95
1035.691	1020.11
1035.979	1014.92
1036.267	1016.5
1036.554	979.89
1036.842	976.27
1037.129	946.67
1037.417	957.74
1037.704	933.11
1037.992	963.84
1038.279	943.96
1038.566	927.69
1038.853	927.69
1039.14	927.69
