Data from hue_310_FLMS001491_27.txt Node
Date: Mon Feb 06 15:49:19 GMT 2017
User: dcchb
Spectrometer: FLMS00149
Trigger mode: 0
Integration Time (sec): 2.000000E-2
Scans to average: 10
Electric dark correction enabled: true
Nonlinearity correction enabled: false
Boxcar width: 0
XAxis mode: Wavelengths
Number of Pixels in Spectrum: 2048
>>>>>Begin Spectral Data<<<<<
341.393	-14.56
341.776	-14.56
342.16	-14.56
342.543	-42.36
342.927	-55.92
343.31	-61.11
343.693	-76.26
344.077	-60.66
344.46	-51.17
344.843	-56.59
345.226	-45.07
345.61	-29.02
345.993	-37.39
346.376	-8.23
346.759	-3.26
347.142	50.75
347.525	50.97
347.908	50.07
348.291	77.19
348.674	99.33
349.057	100.46
349.44	118.32
349.823	141.59
350.206	147.69
350.588	192.66
350.971	235.15
351.354	232.21
351.737	236.96
352.119	239.44
352.502	275.83
352.884	268.37
353.267	279.44
353.65	284.41
354.032	284.64
354.414	301.59
354.797	292.55
355.179	303.62
355.562	312.66
355.944	332.1
356.326	330.74
356.709	341.81
357.091	318.54
357.473	346.33
357.855	343.39
358.238	345.88
358.62	345.43
359.002	346.33
359.384	349.27
359.766	331.64
360.148	329.84
360.53	341.36
360.912	330.97
361.294	325.99
361.676	343.62
362.057	315.83
362.439	322.6
362.821	320.8
363.203	331.64
363.584	313.57
363.966	318.31
364.348	340.91
364.729	322.6
365.111	315.15
365.493	310.4
365.874	311.98
366.256	341.81
366.637	322.83
367.019	317.63
367.4	317.41
367.781	325.09
368.163	318.76
368.544	290.74
368.925	299.33
369.306	288.48
369.688	330.51
370.069	307.69
370.45	318.31
370.831	316.05
371.212	325.99
371.593	315.83
371.974	309.05
372.355	307.92
372.736	334.58
373.117	318.08
373.498	347.46
373.879	327.8
374.26	316.5
374.641	304.53
375.021	321.93
375.402	325.99
375.783	332.1
376.163	328.03
376.544	303.4
376.925	313.57
377.305	325.32
377.686	322.6
378.066	344.3
378.447	344.52
378.827	320.34
379.208	307.24
379.588	329.16
379.968	325.54
380.349	316.95
380.729	352.89
381.109	321.47
381.489	337.97
381.87	347.69
382.25	326.22
382.63	344.98
383.01	338.42
383.39	325.77
383.77	348.82
384.15	347.46
384.53	321.47
384.91	364.64
385.29	378.65
385.67	345.2
386.049	340.91
386.429	358.31
386.809	337.29
387.189	354.24
387.568	349.72
387.948	342.04
388.328	353.11
388.707	342.27
389.087	364.41
389.466	369.16
389.846	334.13
390.225	356.73
390.605	362.6
390.984	377.52
391.363	366.67
391.743	353.79
392.122	375.71
392.501	367.8
392.881	363.51
393.26	373.68
393.639	375.03
394.018	363.51
394.397	359.44
394.776	363.28
395.155	376.16
395.534	372.55
395.913	390.4
396.292	380.23
396.671	413.68
397.05	382.04
397.429	400.57
397.808	393.34
398.186	400.34
398.565	381.81
398.944	399.21
399.323	406.22
399.701	389.04
400.08	392.89
400.458	387.24
400.837	412.32
401.215	416.84
401.594	388.82
401.972	408.93
402.351	431.53
402.729	413.22
403.107	416.61
403.486	410.74
403.864	416.61
404.242	424.3
404.62	422.94
404.999	433.79
405.377	430.4
405.755	417.07
406.133	435.14
406.511	460.68
406.889	449.38
407.267	443.28
407.645	447.35
408.023	455.93
408.401	455.03
408.779	469.49
409.156	470.17
409.534	481.24
409.912	487.35
410.29	507.68
410.667	495.03
411.045	489.38
411.422	501.13
411.8	496.16
412.178	518.98
412.555	543.62
412.933	522.37
413.31	526.44
413.687	540.23
414.065	530.06
414.442	555.82
414.819	567.57
415.197	563.28
415.574	574.8
415.951	559.66
416.328	584.52
416.705	606.89
417.082	599.66
417.46	612.09
417.837	647.12
418.214	611.18
418.591	620
418.967	636.95
419.344	663.16
419.721	659.09
420.098	670.39
420.475	658.64
420.852	673.78
421.228	676.95
421.605	688.47
421.982	685.31
422.358	685.98
422.735	722.14
423.111	702.48
423.488	746.32
423.864	719.43
424.241	730.96
424.617	720.79
424.994	741.12
425.37	784.74
425.746	772.76
426.123	766.43
426.499	765.3
426.875	793.78
427.251	814.57
427.627	823.83
428.003	819.54
428.379	834.23
428.756	816.15
429.132	867.9
429.507	852.08
429.883	879.43
430.259	864.74
430.635	877.17
431.011	864.29
431.387	935.92
431.763	910.39
432.138	913.78
432.514	925.53
432.89	921.23
433.265	984.28
433.641	973.43
434.016	953.1
434.392	982.93
434.767	1024.96
435.143	1004.85
435.518	1036.94
435.894	1027.44
436.269	1038.07
436.644	1050.95
437.02	1035.35
437.395	1072.42
437.77	1050.04
438.145	1099.53
438.52	1075.13
438.895	1124.17
439.271	1096.14
439.646	1125.97
440.021	1108.35
440.395	1133.66
440.77	1128.01
441.145	1135.69
441.52	1165.97
441.895	1155.58
442.27	1189.7
442.645	1156.03
443.019	1189.93
443.394	1174.79
443.769	1191.51
444.143	1165.29
444.518	1214.56
444.892	1188.57
445.267	1196.48
445.641	1195.8
446.016	1226.08
446.39	1249.59
446.764	1264.5
447.139	1249.13
447.513	1221.34
447.887	1238.06
448.262	1256.37
448.636	1238.29
449.01	1243.48
449.384	1253.43
449.758	1276.48
450.132	1274.44
450.506	1280.55
450.88	1288.45
451.254	1278.96
451.628	1329.13
452.002	1296.82
452.376	1309.02
452.75	1355.35
453.123	1315.35
453.497	1355.35
453.871	1353.31
454.244	1376.14
454.618	1363.71
454.992	1404.61
455.365	1400.09
455.739	1435.12
456.112	1415.23
456.486	1417.26
456.859	1426.08
457.232	1442.58
457.606	1415.23
457.979	1454.55
458.352	1459.98
458.725	1482.35
459.099	1498.39
459.472	1473.76
459.845	1532.29
460.218	1517.38
460.591	1509.69
460.964	1543.82
461.337	1562.8
461.71	1593.31
462.083	1591.95
462.456	1590.59
462.829	1611.84
463.201	1612.29
463.574	1624.72
463.947	1645.51
464.32	1674.66
464.692	1689.8
465.065	1673.08
465.438	1684.15
465.81	1685.51
466.183	1695.22
466.555	1749.23
466.928	1738.39
467.3	1739.97
467.672	1745.62
468.045	1781.32
468.417	1800.08
468.789	1799.85
469.161	1798.95
469.534	1860.87
469.906	1858.38
470.278	1859.97
470.65	1911.49
471.022	1923.01
471.394	1944.71
471.766	1945.84
472.138	1971.6
472.51	1996.23
472.882	2026.06
473.253	2030.13
473.625	2040.98
473.997	2065.16
474.369	2093.86
474.74	2055.89
475.112	2131.82
475.484	2144.03
475.855	2179.28
476.227	2226.28
476.598	2239.84
476.97	2202.33
477.341	2283.68
477.713	2288.43
478.084	2259.05
478.455	2333.4
478.827	2326.62
479.198	2399.39
479.569	2399.61
479.94	2487.97
480.311	2458.37
480.682	2510.57
481.053	2539.27
481.424	2565.48
481.795	2567.97
482.166	2626.5
482.537	2662.43
482.908	2684.12
483.279	2663.11
483.65	2749.66
484.021	2729.32
484.391	2758.25
484.762	2762.31
485.133	2820.17
485.503	2836.44
485.874	2872.82
486.244	2886.83
486.615	2972.03
486.985	2941.52
487.356	2970.9
487.726	3040.05
488.097	3057.45
488.467	3088.86
488.837	3121.4
489.207	3143.1
489.578	3187.16
489.948	3178.57
490.318	3252.24
490.688	3200.95
491.058	3311.9
491.428	3301.51
491.798	3329.08
492.168	3411.79
492.538	3401.62
492.908	3393.71
493.278	3448.4
493.648	3451.11
494.017	3477.1
494.387	3516.42
494.757	3515.74
495.126	3571.33
495.496	3552.35
495.866	3562.52
496.235	3609.07
496.605	3583.99
496.974	3615.63
497.344	3661.5
497.713	3675.51
498.082	3712.12
498.452	3713.93
498.821	3718.9
499.19	3741.27
499.559	3746.24
499.928	3796.64
500.298	3811.78
500.667	3793.02
501.036	3841.16
501.405	3856.07
501.774	3822.4
502.143	3873.92
502.512	3873.02
502.88	3936.52
503.249	3928.16
503.618	3955.73
503.987	3947.59
504.356	3969.29
504.724	3964.09
505.093	3988.72
505.462	3957.76
505.83	4007.71
506.199	4035.73
506.567	4043.64
506.936	4097.87
507.304	4087.25
507.672	4090.87
508.041	4139.91
508.409	4155.72
508.777	4170.41
509.145	4155.05
509.514	4179.23
509.882	4196.85
510.25	4209.73
510.618	4205.21
510.986	4193.01
511.354	4267.81
511.722	4265.55
512.09	4291.54
512.458	4294.48
512.826	4305.1
513.193	4282.27
513.561	4271.2
513.929	4314.14
514.297	4347.81
514.664	4388.94
515.032	4393.68
515.4	4418.32
515.767	4426.23
516.135	4414.25
516.502	4428.03
516.869	4454.93
517.237	4458.31
517.604	4441.82
517.972	4456.06
518.339	4487.01
518.706	4481.37
519.073	4487.69
519.44	4521.59
519.808	4583.06
520.175	4515.94
520.542	4613.57
520.909	4562.72
521.276	4607.46
521.643	4638.65
522.009	4667.8
522.376	4671.42
522.743	4666.22
523.11	4724.3
523.477	4757.74
523.843	4735.82
524.21	4747.57
524.577	4814.46
524.943	4822.6
525.31	4832.54
525.676	4850.62
526.043	4866.44
526.409	4884.07
526.776	4913.9
527.142	4958.41
527.508	4961.8
527.874	4932.2
528.241	4998.41
528.607	5042.71
528.973	5047.45
529.339	5020.56
529.705	5118.18
530.071	5128.58
530.437	5134.46
530.803	5178.52
531.169	5227.33
531.535	5180.78
531.901	5209.26
532.267	5257.84
532.632	5274.11
532.998	5287.9
533.364	5323.6
533.73	5330.38
534.095	5385.97
534.461	5357.95
534.826	5364.73
535.192	5432.3
535.557	5465.07
535.923	5458.06
536.288	5457.61
536.653	5538.29
537.019	5515.24
537.384	5533.77
537.749	5559.08
538.114	5577.38
538.479	5608.79
538.845	5615.8
539.21	5626.65
539.575	5653.31
539.94	5639.53
540.305	5679.53
540.67	5788.9
541.034	5795.45
541.399	5813.76
541.764	5761.78
542.129	5870.93
542.494	5828
542.858	5853.31
543.223	5863.02
543.587	5927.88
543.952	5957.94
544.316	6013.3
544.681	5978.05
545.045	6003.59
545.41	6031.15
545.774	6111.83
546.138	6020.31
546.503	6091.94
546.867	6112.06
547.231	6143.47
547.595	6143.69
547.959	6214.65
548.324	6227.53
548.688	6188.21
549.052	6247.42
549.416	6272.28
549.779	6290.36
550.143	6270.02
550.507	6300.53
550.871	6322.67
551.235	6346.63
551.599	6400.64
551.962	6375.1
552.326	6438.38
552.689	6425.04
553.053	6467.98
553.417	6475.44
553.78	6539.39
554.143	6505.04
554.507	6577.58
554.87	6551.37
555.234	6595.21
555.597	6610.12
555.96	6594.98
556.323	6593.17
556.686	6657.13
557.05	6635.43
557.413	6656.45
557.776	6639.73
558.139	6740.97
558.502	6759.72
558.865	6718.14
559.228	6819.83
559.59	6838.82
559.953	6840.85
560.316	6938.48
560.679	6899.15
561.041	6893.51
561.404	6932.15
561.767	6955.65
562.129	6959.27
562.492	7044.69
562.854	6998.81
563.217	6987.51
563.579	7083.56
563.941	7088.3
564.304	7115.42
564.666	7140.96
565.028	7175.53
565.39	7169.43
565.753	7194.51
566.115	7218.92
566.477	7311.12
566.839	7260.5
567.201	7293.95
567.563	7307.73
567.925	7345.92
568.287	7359.48
568.648	7414.17
569.01	7462.98
569.372	7516.99
569.734	7469.08
570.095	7519.48
570.457	7559.02
570.819	7567.84
571.18	7654.62
571.542	7696.42
571.903	7652.13
572.265	7744.78
572.626	7765.57
572.987	7879.02
573.349	7893.7
573.71	7968.28
574.071	7943.65
574.432	8046.47
574.794	8060.25
575.155	8058.45
575.516	8146.35
575.877	8203.98
576.238	8270.42
576.599	8350.64
576.96	8359.91
577.32	8491.2
577.681	8579.79
578.042	8583.63
578.403	8723.29
578.763	8809.39
579.124	8926.67
579.485	9006.22
579.845	9125.31
580.206	9205.31
580.566	9350.62
580.927	9414.34
581.287	9584.51
581.648	9616.6
582.008	9861.79
582.368	9931.84
582.728	10120.54
583.089	10280.76
583.449	10419.51
583.809	10593.52
584.169	10809.56
584.529	10928.43
584.889	11204.58
585.249	11246.39
585.609	11480.73
585.969	11798.46
586.329	11861.06
586.688	12145.12
587.048	12293.36
587.408	12567.71
587.768	12753.92
588.127	13031.65
588.487	13192.77
588.846	13514.8
589.206	13689.94
589.565	13865.53
589.925	14215.57
590.284	14397.94
590.643	14678.39
591.003	14989.34
591.362	15308.43
591.721	15533.73
592.08	15761.75
592.44	16131
592.799	16394.95
593.158	16652.8
593.517	16940.02
593.876	17250.07
594.235	17532.1
594.593	17786.1
594.952	18129.14
595.311	18299.31
595.67	18690.48
596.029	19058.61
596.387	19311.94
596.746	19592.38
597.104	19849.55
597.463	20155.08
597.822	20518.01
598.18	20559.59
598.538	20989.86
598.897	21395.5
599.255	21441.37
599.613	22032.09
599.972	22127.68
600.33	22549.82
600.688	22717.27
601.046	23049.92
601.404	23339.4
601.762	23542.33
602.12	23975.99
602.478	24238.36
602.836	24492.82
603.194	24594.73
603.552	24980.49
603.91	25202.18
604.268	25469.74
604.625	25631.54
604.983	26048.48
605.341	26264.75
605.698	26545.19
606.056	26777.05
606.413	26946.54
606.771	27227.89
607.128	27498.39
607.485	27679.63
607.843	27839.17
608.2	28113.74
608.557	28476.89
608.914	28578.36
609.272	28892.7
609.629	29146.93
609.986	29348.73
610.343	29457.66
610.7	29875.73
611.057	30042.95
611.414	30200.69
611.771	30314.36
612.127	30625.08
612.484	30811.97
612.841	31010.84
613.198	31168.8
613.554	31280.21
613.911	31666.87
614.267	31883.13
614.624	31917.48
614.98	32058.72
615.337	32417.58
615.693	32413.29
616.05	32605.82
616.406	32931.92
616.762	33000.84
617.118	33001.29
617.475	33029.32
617.831	33337.1
618.187	33527.61
618.543	33624.55
618.899	34006.69
619.255	34040.59
619.611	34072.9
619.967	34365.55
620.323	34416.4
620.678	34466.79
621.034	34515.15
621.39	34591.99
621.746	34687.12
622.101	35123.27
622.457	34939.1
622.812	35179.54
623.168	35212.31
623.523	35345.86
623.879	35577.04
624.234	35313.32
624.589	35560.55
624.945	35676.7
625.3	35862.24
625.655	35913.08
626.01	35914.66
626.365	36126.41
626.72	36107.2
627.075	36123.7
627.43	36220.42
627.785	36190.59
628.14	36252.28
628.495	36374.31
628.85	36488.43
629.205	36311.94
629.559	36694.76
629.914	36566.85
630.269	36520.52
630.623	36432.62
630.978	36644.81
631.332	36765.04
631.687	36842.1
632.041	36649.11
632.396	36870.8
632.75	36696.11
633.104	36850.68
633.459	36710.35
633.813	36736.79
634.167	36844.81
634.521	36794.64
634.875	36887.74
635.229	36889.78
635.583	36804.58
635.937	36854.3
636.291	36923
636.645	36983.34
636.999	36816.11
637.352	36912.38
637.706	36730.01
638.06	36966.84
638.413	36827.41
638.767	36870.57
639.121	36864.47
639.474	36763.23
639.828	36753.96
640.181	36937.69
640.534	36878.48
640.888	36715.77
641.241	36722.55
641.594	36764.13
641.947	36844.13
642.301	36805.94
642.654	36805.71
643.007	36853.4
643.36	36783.57
643.713	36675.55
644.066	36922.09
644.419	36817.24
644.771	36459.73
645.124	36155.11
645.477	35947.66
645.83	35905.17
646.182	35758.06
646.535	35638.29
646.888	35746.08
647.24	35633.77
647.593	35804.16
647.945	35660.88
648.298	35652.75
648.65	35419.76
649.002	35353.1
649.355	35599.42
649.707	35585.86
650.059	35657.95
650.411	36226.75
650.763	36141.1
651.115	36532.05
651.467	36529.11
651.819	36414.76
652.171	36346.29
652.523	36220.19
652.875	36289.57
653.227	36217.71
653.578	36541.77
653.93	36439.85
654.282	36248.67
654.633	36169.8
654.985	36252.96
655.337	36237.59
655.688	36274.88
656.039	36328.89
656.391	35957.15
656.742	36167.09
657.094	36118.73
657.445	36326.86
657.796	36124.83
658.147	36076.69
658.498	36123.92
658.849	36257.93
659.2	36036.92
659.551	35890.26
659.902	36183.36
660.253	36038.05
660.604	36119.18
660.955	35989.24
661.306	36059.74
661.656	36116.69
662.007	36207.99
662.358	36225.84
662.708	35982.91
663.059	35920.99
663.409	35828.79
663.76	36015.23
664.11	36056.58
664.461	36105.39
664.811	36033.3
665.161	36017.03
665.511	35770.03
665.862	35932.52
666.212	36092.06
666.562	36109.01
666.912	36064.94
667.262	35892.74
667.612	35955.57
667.962	36071.5
668.312	35897.94
668.662	36100.42
669.011	36089.8
669.361	35821.11
669.711	35913.08
670.06	35782.24
670.41	35971.38
670.76	35643.71
671.109	35960.31
671.459	35834.67
671.808	35721.9
672.157	35812.74
672.507	35568.23
672.856	35779.53
673.205	35669.47
673.554	35918.5
673.904	35744.5
674.253	35844.38
674.602	35764.84
674.951	35377.05
675.3	35214.57
675.649	35638.96
675.998	35583.37
676.346	35544.5
676.695	35728.91
677.044	35524.84
677.393	35680.54
677.741	35680.09
678.09	35564.84
678.438	35523.94
678.787	35633.77
679.135	35550.38
679.484	35383.38
679.832	35429.7
680.181	35330.27
680.529	35391.29
680.877	35256.83
681.225	35288.01
681.573	35555.8
681.922	35229.26
682.27	35168.69
682.618	34970.73
682.966	35021.58
683.314	35060
683.661	34894.12
684.009	34764.64
684.357	34831.08
684.705	34707.92
685.053	34748.82
685.4	34618.2
685.748	34444.42
686.095	34562.83
686.443	34394.7
686.79	34391.77
687.138	34340.69
687.485	34331.43
687.832	34224.09
688.18	34369.84
688.527	34157.87
688.874	34147.03
689.221	33994.49
689.568	33952.45
689.915	33837.66
690.262	33851.89
690.609	33868.62
690.956	33607.38
691.303	33678.79
691.65	33670.65
691.997	33588.4
692.344	33352.7
692.69	33391.11
693.037	33232.47
693.383	33114.51
693.73	33197.45
694.077	32900.96
694.423	33044.68
694.769	32965.59
695.116	32848.3
695.462	32858.7
695.808	32718.81
696.155	32836.1
696.501	32492.83
696.847	32585.94
697.193	32245.15
697.539	32439.5
697.885	32153.41
698.231	32143.46
698.577	31997.48
698.923	32036.57
699.269	31919.97
699.614	31775.79
699.96	31707.32
700.306	31717.71
700.651	31565.85
700.997	31452.18
701.342	31363.37
701.688	31239.98
702.033	31260.77
702.379	31261
702.724	31191.17
703.069	31232.3
703.415	30877.73
703.76	30817.17
704.105	30926.77
704.45	30868.24
704.795	30706.66
705.14	30615.14
705.485	30550.51
705.83	30435.26
706.175	30433.45
706.52	30400.68
706.865	30298.99
707.209	30374.02
707.554	30198.66
707.899	30182.38
708.243	30068.94
708.588	29966.34
708.932	29910.98
709.277	29841.38
709.621	29737.2
709.966	29569.97
710.31	29621.72
710.654	29460.82
710.998	29468.05
711.342	29533.81
711.687	29360.94
712.031	29201.39
712.375	29171.34
712.719	29301.96
713.063	29149.87
713.407	29143.77
713.75	29030.55
714.094	29022.64
714.438	28914.62
714.782	28944.45
715.125	28803.21
715.469	29016.09
715.812	28666.72
716.156	28614.74
716.499	28517.34
716.843	28530.45
717.186	28474.63
717.53	28687.28
717.873	28556.89
718.216	28417.46
718.559	28338.82
718.902	28158.93
719.246	28221.53
719.589	28262.21
719.932	27987.41
720.275	27951.48
720.617	27994.19
720.96	28007.3
721.303	27876.46
721.646	27975.44
721.989	27739.74
722.331	27886.85
722.674	27745.39
723.016	27706.97
723.359	27687.53
723.701	27793.97
724.044	27509.46
724.386	27301.1
724.729	27501.1
725.071	27391.27
725.413	27372.51
725.755	27367.54
726.097	27222.24
726.439	27137.49
726.782	27170.94
727.124	27268.11
727.465	27073.77
727.807	27119.41
728.149	27073.09
728.491	27058.17
728.833	26938.85
729.175	26918.74
729.516	26817.73
729.858	26808.69
730.199	26853.43
730.541	26753.77
730.882	26869.7
731.224	26831.96
731.565	26488.24
731.906	26627
732.248	26571.86
732.589	26494.35
732.93	26457.96
733.271	26439.66
733.612	26567.34
733.953	26431.3
734.294	26333.22
734.635	26311.75
734.976	26395.59
735.317	26204.41
735.658	26146.78
735.999	26147.24
736.339	26183.39
736.68	26184.3
737.021	26074.7
737.361	25964.42
737.702	26114.24
738.042	25935.72
738.383	25962.16
738.723	25974.59
739.063	25886.9
739.404	25893.01
739.744	25855.72
740.084	25622.96
740.424	25751.99
740.764	25697.53
741.104	25804.19
741.444	25575.27
741.784	25392.45
742.124	25534.37
742.464	25441.49
742.804	25364.21
743.143	25392.23
743.483	25283.08
743.823	25129.86
744.162	25175.74
744.502	25314.26
744.841	25134.83
745.181	25188.39
745.52	25066.59
745.86	25120.6
746.199	25050.99
746.538	25086.7
746.877	25089.41
747.216	24999.47
747.556	25007.15
747.895	24993.14
748.234	24929.87
748.573	24793.83
748.911	24768.52
749.25	24796.09
749.589	24652.81
749.928	24738.23
750.267	24822.98
750.605	24570.33
750.944	24437.9
751.283	24509.77
751.621	24572.36
751.96	24297.12
752.298	24344.57
752.636	24371.24
752.975	24337.34
753.313	24093.96
753.651	24323.78
753.989	24097.12
754.327	24105.93
754.666	23942.77
755.004	23964.47
755.342	23952.72
755.679	23992.94
756.017	23782.78
756.355	23801.31
756.693	23795.43
757.031	23731.25
757.368	23637.25
757.706	23537.14
758.044	23616.68
758.381	23552.05
758.719	23329.01
759.056	23354.54
759.394	23377.59
759.731	23209.46
760.068	23164.04
760.405	23145.06
760.743	23062.12
761.08	23064.61
761.417	22912.52
761.754	22888.56
762.091	22799.75
762.428	22651.28
762.765	22580.55
763.102	22595.47
763.438	22488.8
763.775	22356.38
764.112	22372.19
764.449	22472.08
764.785	22264.63
765.122	22128.36
765.458	21979.21
765.795	22020.34
766.131	22075.03
766.467	21959.55
766.804	21803.62
767.14	21689.05
767.476	21757.3
767.812	21633.91
768.148	21755.71
768.485	21486.34
768.821	21465.78
769.157	21410.41
769.492	21286.57
769.828	21271.66
770.164	21153.92
770.5	21084.54
770.836	21070.31
771.171	20838.68
771.507	20794.83
771.842	20707.15
772.178	20837.77
772.513	20674.39
772.849	20621.51
773.184	20536.08
773.519	20551.68
773.855	20387.39
774.19	20332.25
774.525	20285.02
774.86	20274.85
775.195	20166.83
775.53	20102.2
775.865	19966.61
776.2	19816.33
776.535	19676.22
776.87	19694.3
777.205	19651.59
777.539	19506.05
777.874	19565.04
778.209	19401.2
778.543	19391.71
778.878	19217.93
779.212	19234.42
779.547	19108.1
779.881	19142.22
780.215	19061.77
780.55	19069.46
780.884	18874.66
781.218	18892.06
781.552	18823.36
781.886	18746.98
782.22	18706.3
782.554	18541.79
782.888	18370.72
783.222	18370.49
783.556	18373.88
783.889	18287.56
784.223	18162.36
784.557	18230.61
784.89	18170.95
785.224	17962.37
785.557	17991.74
785.891	17804.63
786.224	17808.7
786.558	17894.12
786.891	17587.91
787.224	17584.3
787.557	17561.02
787.891	17499.33
788.224	17452.55
788.557	17484.87
788.89	17351.08
789.223	17333.91
789.556	17214.36
789.888	17148.83
790.221	17143.18
790.554	16999.68
790.887	16970.08
791.219	16880.36
791.552	16900.47
791.884	16783.64
792.217	16744.32
792.549	16613.48
792.882	16614.38
793.214	16567.83
793.546	16559.01
793.879	16446.93
794.211	16368.96
794.543	16458.45
794.875	16439.24
795.207	16331.22
795.539	16309.75
795.871	16237.89
796.203	16050.1
796.535	16022.3
796.867	15962.19
797.198	15938.24
797.53	15972.81
797.862	15883.33
798.193	15868.18
798.525	15690.11
798.856	15728.53
799.188	15568.08
799.519	15510.45
799.85	15504.13
800.182	15441.08
800.513	15437.46
800.844	15290.57
801.175	15323.11
801.506	15381.64
801.837	15242.21
802.168	15174.64
802.499	15180.74
802.83	15177.81
803.161	15018.94
803.491	14998.38
803.822	15027.75
804.153	14955.44
804.483	14921.32
804.814	14832.73
805.145	14724.26
805.475	14775.56
805.805	14643.36
806.136	14688.55
806.466	14726.29
806.796	14642.91
807.126	14531.72
807.457	14511.16
807.787	14528.11
808.117	14367.66
808.447	14398.62
808.777	14342.35
809.107	14299.19
809.436	14288.56
809.766	14252.86
810.096	14186.42
810.426	14142.13
810.755	14143.48
811.085	14099.42
811.414	14033.66
811.744	13979.87
812.073	14006.54
812.403	13989.36
812.732	13812.19
813.061	13833.21
813.39	13791.63
813.719	13764.06
814.049	13787.56
814.378	13774.45
814.707	13639.77
815.036	13708.47
815.365	13574.23
815.693	13435.93
816.022	13491.98
816.351	13451.52
816.68	13397.29
817.008	13331.98
817.337	13264.41
817.665	13345.09
817.994	13308.93
818.322	13322.26
818.651	13220.34
818.979	13167.01
819.307	13279.78
819.636	13164.3
819.964	13109.16
820.292	13073.23
820.62	13091.31
820.948	13035.26
821.276	13098.77
821.604	13049.5
821.932	13101.03
822.259	13075.26
822.587	13027.36
822.915	13008.37
823.243	13044.98
823.57	12950.3
823.898	12897.87
824.225	12954.59
824.553	13044.53
824.88	12933.57
825.207	13047.69
825.535	13019.22
825.862	13030.52
826.189	13051.76
826.516	12983.97
826.843	13069.39
827.17	13022.38
827.497	13075.26
827.824	13017.64
828.151	13034.36
828.478	12966.11
828.805	13046.11
829.131	12919.56
829.458	12946
829.785	12910.3
830.111	12925.21
830.438	12992.55
830.764	12882.5
831.09	12937.64
831.417	12882.73
831.743	12941.71
832.069	12922.95
832.395	12858.32
832.722	12875.04
833.048	12789.4
833.374	12832.56
833.7	12828.49
834.026	12861.48
834.351	12838.43
834.677	12756.63
835.003	12759.11
835.329	12834.59
835.654	12776.29
835.98	12703.3
836.306	12723.63
836.631	12773.58
836.956	12728.38
837.282	12628.04
837.607	12612.9
837.932	12646.57
838.258	12663.75
838.583	12542.85
838.908	12509.4
839.233	12577.88
839.558	12526.58
839.883	12455.39
840.208	12526.35
840.533	12426.69
840.858	12441.16
841.182	12433.7
841.507	12404.55
841.832	12259.47
842.156	12331.55
842.481	12290.43
842.805	12225.79
843.13	12263.76
843.454	12205.91
843.778	12103.99
844.103	12127.72
844.427	12129.07
844.751	12082.52
845.075	12050.66
845.399	12006.37
845.723	12007.72
846.047	12036.87
846.371	11892.02
846.695	11857.22
847.019	11791
847.343	11712.14
847.666	11704.45
847.99	11649.09
848.313	11625.81
848.637	11586.94
848.96	11544.91
849.284	11549.88
849.607	11429.88
849.931	11405.48
850.254	11299.49
850.577	11265.59
850.9	11201.19
851.223	11174.75
851.546	11188.76
851.869	11098.14
852.192	11120.74
852.515	10972.95
852.838	11024.47
853.161	10987.86
853.483	10863.8
853.806	10854.3
854.129	10825.38
854.451	10789.22
854.774	10733.63
855.096	10756.23
855.419	10599.4
855.741	10720.07
856.063	10601.88
856.385	10544.71
856.708	10522.34
857.03	10450.02
857.352	10539.74
857.674	10424.26
857.996	10438.5
858.318	10427.65
858.64	10359.4
858.961	10330.48
859.283	10295.45
859.605	10197.37
859.926	10223.36
860.248	10280.31
860.57	10177.49
860.891	10220.42
861.212	10103.82
861.534	10127.54
861.855	10066.98
862.176	10144.27
862.498	10099.07
862.819	10115.34
863.14	10098.84
863.461	9991.05
863.782	10012.97
864.103	9978.85
864.424	9971.16
864.745	9999.64
865.065	9892.3
865.386	9878.96
865.707	9928
866.027	9924.16
866.348	9817.27
866.668	9848.46
866.989	9792.64
867.309	9718.29
867.63	9667.44
867.95	9693.88
868.27	9715.58
868.59	9677.16
868.91	9661.34
869.23	9631.51
869.55	9631.29
869.87	9667.44
870.19	9627.44
870.51	9691.4
870.83	9665.86
871.15	9621.12
871.469	9561.68
871.789	9650.95
872.109	9555.13
872.428	9502.48
872.748	9632.87
873.067	9549.71
873.386	9484.62
873.706	9515.13
874.025	9437.85
874.344	9379.54
874.663	9421.8
874.982	9366.66
875.301	9471.29
875.62	9321.92
875.939	9327.57
876.258	9312.2
876.577	9249.15
876.896	9326.44
877.214	9309.94
877.533	9236.27
877.852	9261.8
878.17	9250.28
878.489	9217.74
878.807	9276.49
879.125	9231.3
879.444	9170.73
879.762	9206.44
880.08	9130.96
880.398	9125.31
880.716	9172.77
881.034	9091.87
881.352	9096.84
881.67	9073.79
881.988	9033.11
882.306	9074.01
882.624	8981.36
882.941	8925.99
883.259	8909.95
883.577	8924.86
883.894	8938.2
884.212	8867.92
884.529	8918.31
884.846	8877.41
885.164	8896.84
885.481	8832.21
885.798	8822.49
886.115	8740.91
886.432	8739.56
886.75	8747.69
887.067	8733.23
887.383	8686.45
887.7	8678.32
888.017	8675.61
888.334	8641.93
888.651	8631.54
888.967	8550.64
889.284	8577.98
889.6	8472.22
889.917	8400.13
890.233	8488.72
890.55	8407.82
890.866	8511.32
891.182	8349.96
891.498	8372.34
891.815	8353.81
892.131	8339.57
892.447	8289.63
892.763	8292.34
893.079	8254.6
893.395	8219.35
893.71	8206.47
894.026	8148.39
894.342	8180.7
894.657	8071.78
894.973	8126.47
895.289	8120.59
895.604	8082.17
895.92	8060.03
896.235	7952.46
896.55	7992.69
896.865	7945.91
897.181	7875.63
897.496	7935.29
897.811	7910.2
898.126	7826.59
898.441	7819.58
898.756	7778.91
899.071	7769.64
899.386	7682.86
899.7	7660.72
900.015	7666.14
900.33	7633.82
900.644	7598.8
900.959	7581.62
901.273	7579.59
901.588	7558.12
901.902	7441.29
902.216	7409.42
902.531	7495.3
902.845	7495.3
903.159	7404
903.473	7347.96
903.787	7331.46
904.101	7335.75
904.415	7263.44
904.729	7307.28
905.042	7211.24
905.356	7244.46
905.67	7169.2
905.984	7195.19
906.297	7114.52
906.611	7119.94
906.924	7059.6
907.237	7107.74
907.551	7089.88
907.864	6996.78
908.177	7011.69
908.491	6948.87
908.804	6937.8
909.117	6915.65
909.43	6845.82
909.743	6806.73
910.056	6826.39
910.368	6836.33
910.681	6782.77
910.994	6699.39
911.307	6650.57
911.619	6681.53
911.932	6664.81
912.244	6607.64
912.557	6590.24
912.869	6564.93
913.181	6562.67
913.494	6515.89
913.806	6509.56
914.118	6455.78
914.43	6437.02
914.742	6473.86
915.054	6374.2
915.366	6393.86
915.678	6325.38
915.99	6329.9
916.302	6285.39
916.613	6274.09
916.925	6244.93
917.236	6276.8
917.548	6207.2
917.859	6217.59
918.171	6097.82
918.482	6108.67
918.794	6119.29
919.105	6109.57
919.416	6027.31
919.727	6034.54
920.038	5999.52
920.349	5954.77
920.66	5943.02
920.971	5933.53
921.282	5896.92
921.593	5829.8
921.903	5839.07
922.214	5781.22
922.525	5765.85
922.835	5756.13
923.146	5715.46
923.456	5740.54
923.767	5713.65
924.077	5710.03
924.387	5624.16
924.697	5646.98
925.008	5583.94
925.318	5557.72
925.628	5581.45
925.938	5514.33
926.248	5478.63
926.558	5423.71
926.867	5464.84
927.177	5408.35
927.487	5383.49
927.796	5343.49
928.106	5372.42
928.416	5345.98
928.725	5319.54
929.034	5336.26
929.344	5305.3
929.653	5285.41
929.962	5200.89
930.271	5252.19
930.581	5196.15
930.89	5182.14
931.199	5145.3
931.508	5084.74
931.817	5126.09
932.125	5082.25
932.434	5092.65
932.743	5019.88
933.051	5013.1
933.36	5008.58
933.669	4973.56
933.977	4929.26
934.286	4949.38
934.594	4879.09
934.902	4887.23
935.21	4859.43
935.519	4882.03
935.827	4814.69
936.135	4817.4
936.443	4780.57
936.751	4720
937.059	4746.22
937.367	4694.69
937.674	4677.97
937.982	4681.13
938.29	4678.42
938.597	4648.82
938.905	4579.44
939.213	4602.04
939.52	4561.14
939.827	4593.68
940.135	4540.8
940.442	4510.74
940.749	4496.28
941.056	4529.95
941.363	4501.48
941.67	4451.76
941.977	4402.5
942.284	4404.53
942.591	4451.54
942.898	4394.36
943.205	4413.57
943.511	4324.53
943.818	4316.4
944.125	4277.3
944.431	4289.05
944.738	4294.03
945.044	4282.27
945.35	4219.23
945.657	4227.59
945.963	4257.42
946.269	4141.26
946.575	4175.38
946.881	4134.71
947.187	4114.82
947.493	4103.07
947.799	4106.01
948.105	4069.17
948.41	4029.85
948.716	4118.66
949.022	4009.51
949.327	3967.03
949.633	3968.16
949.938	3972.23
950.244	3940.59
950.549	3897.88
950.854	3896.07
951.16	3945.33
951.465	3854.94
951.77	3883.64
952.075	3825.56
952.38	3808.16
952.685	3845.22
952.99	3736.53
953.294	3822.4
953.599	3757.32
953.904	3716.64
954.209	3737.66
954.513	3698.56
954.818	3697.43
955.122	3681.16
955.426	3708.28
955.731	3634.61
956.035	3639.13
956.339	3634.16
956.643	3614.04
956.948	3569.75
957.252	3574.72
957.556	3514.16
957.86	3571.11
958.163	3547.38
958.467	3539.02
958.771	3509.87
959.075	3497.89
959.378	3471.45
959.682	3463.31
959.985	3423.77
960.289	3428.74
960.592	3373.37
960.896	3403.88
961.199	3394.16
961.502	3374.05
961.805	3366.14
962.108	3359.59
962.411	3324.56
962.714	3348.51
963.017	3282.98
963.32	3261.51
963.623	3282.75
963.926	3268.29
964.228	3273.94
964.531	3221.51
964.833	3201.4
965.136	3208.4
965.438	3172.93
965.741	3172.47
966.043	3168.86
966.345	3168.63
966.648	3150.1
966.95	3138.12
967.252	3132.93
967.554	3052.02
967.856	3089.31
968.158	3084.79
968.46	3033.27
968.761	3061.74
969.063	3062.65
969.365	3007.28
969.666	3008.41
969.968	3009.77
970.269	2966.38
970.571	2979.48
970.872	2972.25
971.174	2944.23
971.475	2936.32
971.776	2954.4
972.077	2899.03
972.378	2898.36
972.679	2877.34
972.98	2854.29
973.281	2832.6
973.582	2822.43
973.883	2857.68
974.183	2817.91
974.484	2848.19
974.785	2789.21
975.085	2803.22
975.386	2785.82
975.686	2787.62
975.986	2759.38
976.287	2746.5
976.587	2694.07
976.887	2692.94
977.187	2666.95
977.487	2688.19
977.787	2689.55
978.087	2634.63
978.387	2678.47
978.687	2622.66
978.987	2610.91
979.286	2641.87
979.586	2597.8
979.885	2583.11
980.185	2593.05
980.484	2565.94
980.784	2550.57
981.083	2554.41
981.382	2532.49
981.682	2549.21
981.981	2515.99
982.28	2485.49
982.579	2458.59
982.878	2488.42
983.177	2452.72
983.475	2486.16
983.774	2420.18
984.073	2433.74
984.372	2425.37
984.67	2408.2
984.969	2419.95
985.267	2413.85
985.566	2404.13
985.864	2398.03
986.162	2347.86
986.461	2338.6
986.759	2321.2
987.057	2313.74
987.355	2303.12
987.653	2325.04
987.951	2287.3
988.249	2288.2
988.547	2243.91
988.844	2301.31
989.142	2261.76
989.44	2273.74
989.737	2217.02
990.035	2203.68
990.332	2217.7
990.63	2182.44
990.927	2193.97
991.224	2188.54
991.521	2188.54
991.819	2181.31
992.116	2144.48
992.413	2144.7
992.71	2103.35
993.006	2116
993.303	2138.15
993.6	2085.04
993.897	2112.61
994.193	2113.97
994.49	2094.99
994.787	2058.6
995.083	2061.09
995.379	2043.24
995.676	2018.61
995.972	2022.45
996.268	2038.94
996.565	2002.33
996.861	2002.56
997.157	1986.97
997.453	2006.85
997.749	1969.79
998.044	1959.4
998.34	1971.37
998.636	1974.76
998.932	1953.3
999.227	1946.29
999.523	1942.9
999.818	1902.45
1000.114	1911.94
1000.409	1920.98
1000.704	1882.56
1001	1853.86
1001.295	1859.51
1001.59	1860.19
1001.885	1859.97
1002.18	1834.2
1002.475	1825.62
1002.77	1787.65
1003.065	1762.57
1003.359	1827.65
1003.654	1804.6
1003.949	1771.61
1004.243	1761.44
1004.538	1767.99
1004.832	1738.84
1005.127	1749.91
1005.421	1722.57
1005.715	1729.8
1006.009	1708.56
1006.304	1718.5
1006.598	1697.03
1006.892	1723.47
1007.186	1688.9
1007.48	1680.08
1007.773	1659.97
1008.067	1630.37
1008.361	1621.33
1008.655	1631.95
1008.948	1622.68
1009.242	1629.24
1009.535	1572.52
1009.829	1591.05
1010.122	1599.18
1010.415	1583.14
1010.708	1566.19
1011.001	1564.61
1011.295	1554.89
1011.588	1528.67
1011.881	1502.01
1012.173	1543.82
1012.466	1514.66
1012.759	1516.7
1013.052	1506.98
1013.344	1497.26
1013.637	1482.57
1013.93	1439.64
1014.222	1468.11
1014.514	1455
1014.807	1432.18
1015.099	1429.47
1015.391	1461.11
1015.683	1429.69
1015.976	1449.13
1016.268	1432.63
1016.56	1423.37
1016.851	1415.68
1017.143	1383.37
1017.435	1377.27
1017.727	1382.24
1018.018	1351.73
1018.31	1353.31
1018.602	1318.96
1018.893	1327.78
1019.185	1318.06
1019.476	1332.07
1019.767	1312.63
1020.058	1296.36
1020.35	1296.59
1020.641	1259.3
1020.932	1279.87
1021.223	1301.79
1021.514	1253.43
1021.804	1253.43
1022.095	1254.78
1022.386	1220.43
1022.677	1213.88
1022.967	1212.52
1023.258	1231.96
1023.548	1219.76
1023.839	1197.61
1024.129	1214.33
1024.419	1199.42
1024.709	1202.13
1025	1186.31
1025.29	1162.81
1025.58	1139.31
1025.87	1184.05
1026.16	1143.6
1026.449	1116.71
1026.739	1139.98
1027.029	1145.18
1027.319	1125.97
1027.608	1129.14
1027.898	1107.22
1028.187	1084.84
1028.477	1074.68
1028.766	1124.39
1029.055	1088.01
1029.344	1063.15
1029.634	1065.86
1029.923	1055.69
1030.212	1048.91
1030.501	1043.49
1030.79	1043.04
1031.078	1036.26
1031.367	998.74
1031.656	1003.26
1031.945	1017.73
1032.233	1002.36
1032.522	1001.68
1032.81	972.08
1033.099	964.62
1033.387	978.63
1033.675	1004.85
1033.963	978.86
1034.251	989.25
1034.54	974.79
1034.828	964.62
1035.116	932.31
1035.403	938.18
1035.691	949.25
1035.979	928.46
1036.267	932.98
1036.554	915.81
1036.842	919.88
1037.129	920.1
1037.417	920.55
1037.704	882.59
1037.992	896.15
1038.279	874
1038.566	858.64
1038.853	858.64
1039.14	858.64
