Data from hue_240_FLMS001491_00058.txt Node
Date: Tue Feb 07 16:35:40 GMT 2017
User: dcchb
Spectrometer: FLMS00149
Trigger mode: 0
Integration Time (sec): 2.000000E-2
Scans to average: 10
Electric dark correction enabled: true
Nonlinearity correction enabled: false
Boxcar width: 0
XAxis mode: Wavelengths
Number of Pixels in Spectrum: 2048
>>>>>Begin Spectral Data<<<<<
341.393	-14.9
341.776	-14.9
342.16	-14.9
342.543	-63.94
342.927	-80.44
343.31	-75.69
343.693	-61.91
344.077	-69.14
344.46	-49.48
344.843	-66.65
345.226	-40.66
345.61	-30.72
345.993	-2.02
346.376	14.03
346.759	25.55
347.142	-7.22
347.525	45.66
347.908	40.69
348.291	74.59
348.674	101.93
349.057	101.03
349.44	124.3
349.823	143.74
350.206	167.47
350.588	186.45
350.971	179.44
351.354	202.95
351.737	211.31
352.119	253.57
352.502	245.21
352.884	263.74
353.267	265.32
353.65	280.91
354.032	294.24
354.414	317.97
354.797	309.38
355.179	310.06
355.562	309.61
355.944	327.46
356.326	301.48
356.709	322.49
357.091	313.68
357.473	326.33
357.855	318.88
358.238	325.88
358.62	331.98
359.002	322.72
359.384	334.69
359.766	332.66
360.148	313
360.53	338.76
360.912	312.77
361.294	320.23
361.676	304.86
362.057	324.3
362.439	328.59
362.821	330.85
363.203	330.17
363.584	315.71
363.966	307.8
364.348	316.16
364.729	329.72
365.111	320.46
365.493	309.16
365.874	294.92
366.256	300.8
366.637	293.57
367.019	302.38
367.4	304.19
367.781	297.41
368.163	333.11
368.544	304.64
368.925	317.07
369.306	331.08
369.688	290.4
370.069	303.96
370.45	315.03
370.831	301.48
371.212	311.42
371.593	303.51
371.974	302.83
372.355	309.38
372.736	314.36
373.117	317.52
373.498	305.32
373.879	287.46
374.26	305.77
374.641	280.68
375.021	305.09
375.402	318.2
375.783	323.17
376.163	324.53
376.544	309.84
376.925	331.08
377.305	325.88
377.686	309.16
378.066	305.09
378.447	310.74
378.827	315.94
379.208	332.66
379.588	332.21
379.968	324.53
380.349	327.46
380.729	330.4
381.109	319.78
381.489	362.04
381.87	334.69
382.25	322.72
382.63	317.97
383.01	335.37
383.39	334.24
383.77	322.27
384.15	331.53
384.53	346.9
384.91	332.66
385.29	313.23
385.67	352.77
386.049	340.8
386.429	343.51
386.809	354.81
387.189	331.98
387.568	348.25
387.948	338.99
388.328	342.38
388.707	354.36
389.087	340.57
389.466	351.19
389.846	370.63
390.225	359.33
390.605	352.55
390.984	346.67
391.363	339.89
391.743	353
392.122	373.34
392.501	374.24
392.881	366.33
393.26	367.24
393.639	371.98
394.018	347.8
394.397	379.44
394.776	382.6
395.155	371.53
395.534	358.87
395.913	372.43
396.292	388.48
396.671	378.99
397.05	402.26
397.429	382.83
397.808	393.68
398.186	395.26
398.565	388.7
398.944	390.29
399.323	385.77
399.701	394.81
400.08	411.98
400.458	387.12
400.837	393.45
401.215	411.75
401.594	405.43
401.972	420.57
402.351	412.88
402.729	413.79
403.107	392.77
403.486	426.22
403.864	439.78
404.242	428.93
404.62	430.74
404.999	416.73
405.377	429.16
405.755	414.47
406.133	440.23
406.511	446.56
406.889	445.43
407.267	447.01
407.645	457.63
408.023	440.23
408.401	451.75
408.779	477.52
409.156	459.44
409.534	459.66
409.912	475.48
410.29	484.75
410.667	492.66
411.045	502.6
411.422	489.04
411.8	517.51
412.178	503.96
412.555	517.74
412.933	527.68
413.31	522.71
413.687	528.81
414.065	530.85
414.442	573.78
414.819	538.76
415.197	560.45
415.574	546.67
415.951	536.5
416.328	572.65
416.705	562.26
417.082	579.21
417.46	582.15
417.837	606.55
418.214	589.83
418.591	589.15
418.967	602.71
419.344	608.59
419.721	618.75
420.098	634.35
420.475	637.51
420.852	642.26
421.228	648.13
421.605	657.17
421.982	658.08
422.358	645.19
422.735	670.96
423.111	671.86
423.488	683.84
423.864	726.55
424.241	727.9
424.617	738.75
424.994	743.5
425.37	733.1
425.746	730.16
426.123	768.58
426.499	754.34
426.875	771.07
427.251	761.12
427.627	785.08
428.003	814
428.379	795.7
428.756	796.15
429.132	820.11
429.507	794.12
429.883	859.2
430.259	839.09
430.635	847
431.011	845.64
431.387	855.13
431.763	900.78
432.138	891.06
432.514	933.55
432.89	931.06
433.265	939.2
433.641	949.14
434.016	968.35
434.392	988.01
434.767	1006.32
435.143	983.94
435.518	1001.12
435.894	986.43
436.269	1032.08
436.644	1038.63
437.02	1080.21
437.395	1095.58
437.77	1120.44
438.145	1121.79
438.52	1130.61
438.895	1145.52
439.271	1149.59
439.646	1187.78
440.021	1151.85
440.395	1177.38
440.77	1185.07
441.145	1192.07
441.52	1252.86
441.895	1237.04
442.27	1237.04
442.645	1257.61
443.019	1277.27
443.394	1253.31
443.769	1273.88
444.143	1278.4
444.518	1306.65
444.892	1313.2
445.267	1305.29
445.641	1339.64
446.016	1320.88
446.39	1344.84
446.764	1359.53
447.139	1343.26
447.513	1363.14
447.887	1379.41
448.262	1366.53
448.636	1409.24
449.01	1431.61
449.384	1436.59
449.758	1442.46
450.132	1445.17
450.506	1456.25
450.88	1463.93
451.254	1473.65
451.628	1465.96
452.002	1501.22
452.376	1506.42
452.75	1514.32
453.123	1523.82
453.497	1560.2
453.871	1580.76
454.244	1587.54
454.618	1623.47
454.992	1628.67
455.365	1655.11
455.739	1676.81
456.112	1661.21
456.486	1657.37
456.859	1691.95
457.232	1707.99
457.606	1705.51
457.979	1745.96
458.352	1785.05
458.725	1813.3
459.099	1782.57
459.472	1818.95
459.845	1830.47
460.218	1858.5
460.591	1855.33
460.964	1905.73
461.337	1931.94
461.71	1944.14
462.083	1955.89
462.456	1987.08
462.829	1965.39
463.201	2005.61
463.574	1996.35
463.947	2042.22
464.32	2098.26
464.692	2075.21
465.065	2126.06
465.438	2169.45
465.81	2182.56
466.183	2157.25
466.555	2251.25
466.928	2236.34
467.3	2223.01
467.672	2256.45
468.045	2292.61
468.417	2321.54
468.789	2340.29
469.161	2353.4
469.534	2398.6
469.906	2469.55
470.278	2434.53
470.65	2473.85
471.022	2517.69
471.394	2533.51
471.766	2532.38
472.138	2599.95
472.51	2647.4
472.882	2695.54
473.253	2709.55
473.625	2698.25
473.997	2796.78
474.369	2795.19
474.74	2817.34
475.112	2867.51
475.484	2898.92
475.855	2940.95
476.227	2965.81
476.598	3067.73
476.97	3056.2
477.341	3127.16
477.713	3140.72
478.084	3149.99
478.455	3280.38
478.827	3286.26
479.198	3334.16
479.569	3371.45
479.94	3458.91
480.311	3470.43
480.682	3512.01
481.053	3601.05
481.424	3650.54
481.795	3698.9
482.166	3699.13
482.537	3763.53
482.908	3815.51
483.279	3844.88
483.65	3890.08
484.021	3983.19
484.391	4052.79
484.762	4017.54
485.133	4042.17
485.503	4106.8
485.874	4180.24
486.244	4241.26
486.615	4267.25
486.985	4283.97
487.356	4354.25
487.726	4477.18
488.097	4489.16
488.467	4528.26
488.837	4560.12
489.207	4588.82
489.578	4676.95
489.948	4737.52
490.318	4801.02
490.688	4823.16
491.058	4857.97
491.428	4921.01
491.798	4980
492.168	5045.98
492.538	5073.55
492.908	5077.62
493.278	5146.55
493.648	5161.91
494.017	5201.46
494.387	5227
494.757	5275.13
495.126	5299.31
495.496	5318.97
495.866	5360.33
496.235	5414.34
496.605	5392.19
496.974	5457.5
497.344	5496.37
497.713	5525.52
498.082	5537.04
498.452	5678.96
498.821	5627.89
499.19	5635.57
499.559	5710.6
499.928	5709.47
500.298	5752.86
500.667	5841.22
501.036	5746.98
501.405	5776.13
501.774	5792.4
502.143	5821.56
502.512	5858.17
502.88	5915.34
503.249	5917.15
503.618	5876.47
503.987	5934.77
504.356	5980.87
504.724	6019.97
505.093	6043.47
505.462	6059.97
505.83	6036.24
506.199	6095.45
506.567	6191.26
506.936	6147.2
507.304	6147.42
507.672	6179.96
508.041	6212.28
508.409	6260.64
508.777	6290.7
509.145	6287.08
509.514	6225.39
509.882	6332.73
510.25	6366.63
510.618	6336.57
510.986	6378.38
511.354	6370.02
511.722	6467.19
512.09	6457.47
512.458	6475.55
512.826	6492.05
513.193	6515.1
513.561	6493.63
513.929	6541.54
514.297	6608.43
514.664	6611.82
515.032	6616.79
515.4	6586.73
515.767	6649.56
516.135	6701.98
516.502	6610.46
516.869	6735.88
517.237	6685.49
517.604	6701.08
517.972	6727.75
518.339	6777.46
518.706	6710.12
519.073	6750.35
519.44	6801.19
519.808	6846.16
520.175	6815.88
520.542	6869.44
520.909	6861.53
521.276	6831.92
521.643	6892.26
522.009	6937.68
522.376	6925.93
522.743	6963.9
523.11	6989.66
523.477	7015.2
523.843	7024.46
524.21	7061.07
524.577	7139.26
524.943	7071.24
525.31	7105.82
525.676	7184.91
526.043	7162.09
526.409	7209.77
526.776	7222.65
527.142	7194.18
527.508	7189.43
527.874	7219.94
528.241	7266.94
528.607	7285.47
528.973	7266.94
529.339	7255.87
529.705	7312.36
530.071	7317.34
530.437	7322.08
530.803	7350.33
531.169	7368.18
531.535	7343.55
531.901	7335.64
532.267	7325.7
532.632	7310.1
532.998	7399.14
533.364	7362.76
533.73	7413.38
534.095	7356.43
534.461	7388.07
534.826	7405.92
535.192	7336.54
535.557	7429.65
535.923	7372.7
536.288	7375.87
536.653	7389.65
537.019	7357.33
537.384	7320.5
537.749	7410.44
538.114	7426.26
538.479	7361.18
538.845	7351.01
539.21	7330.89
539.575	7359.82
539.94	7355.75
540.305	7367.73
540.67	7362.76
541.034	7376.09
541.399	7366.37
541.764	7354.85
542.129	7333.15
542.494	7331.12
542.858	7317.79
543.223	7348.75
543.587	7382.19
543.952	7321.4
544.316	7412.02
544.681	7306.04
545.045	7369.09
545.41	7439.37
545.774	7347.84
546.138	7309.65
546.503	7335.64
546.867	7304.23
547.231	7260.61
547.595	7304.91
547.959	7316.88
548.324	7229.65
548.688	7250.44
549.052	7246.15
549.416	7255.64
549.779	7299.71
550.143	7259.71
550.507	7314.85
550.871	7279.6
551.235	7257.68
551.599	7295.87
551.962	7273.27
552.326	7290.9
552.689	7307.84
553.053	7301.97
553.417	7245.93
553.78	7334.96
554.143	7308.75
554.507	7331.8
554.87	7353.49
555.234	7350.33
555.597	7287.28
555.96	7317.11
556.323	7385.13
556.686	7346.71
557.05	7362.53
557.413	7363.89
557.776	7351.46
558.139	7376.32
558.502	7367.28
558.865	7342.65
559.228	7444.34
559.59	7459.93
559.953	7410.21
560.316	7457.45
560.679	7428.52
561.041	7491.79
561.404	7560.49
561.767	7515.52
562.129	7518.69
562.492	7494.73
562.854	7491.57
563.217	7566.14
563.579	7542.41
563.941	7580.38
564.304	7656.54
564.666	7633.26
565.028	7657.21
565.39	7672.35
565.753	7742.18
566.115	7681.17
566.477	7719.13
566.839	7773.37
567.201	7828.06
567.563	7802.97
567.925	7809.53
568.287	7823.76
568.648	7824.44
569.01	7887.72
569.372	7893.37
569.734	7891.33
570.095	7917.55
570.457	7968.17
570.819	7933.14
571.18	7944.89
571.542	8030.09
571.903	8054.49
572.265	8032.12
572.626	8103.53
572.987	8066.02
573.349	8100.82
573.71	8090.87
574.071	8121.61
574.432	8126.81
574.794	8214.26
575.155	8173.58
575.516	8130.87
575.877	8245
576.238	8225.79
576.599	8279.57
576.96	8276.63
577.32	8287.03
577.681	8367.48
578.042	8299.23
578.403	8330.19
578.763	8366.35
579.124	8375.84
579.485	8375.16
579.845	8432.79
580.206	8348.04
580.566	8407.02
580.927	8429.62
581.287	8502.62
581.648	8369.74
582.008	8487.25
582.368	8486.12
582.728	8549.62
583.089	8484.54
583.449	8521.15
583.809	8540.58
584.169	8550.75
584.529	8526.12
584.889	8591.2
585.249	8544.42
585.609	8510.98
585.969	8621.93
586.329	8605.44
586.688	8646.57
587.048	8631.65
587.408	8606.34
587.768	8635.04
588.127	8663.29
588.487	8617.64
588.846	8701.03
589.206	8670.75
589.565	8646.57
589.925	8711.65
590.284	8638.88
590.643	8802.27
591.003	8757.07
591.362	8760.91
591.721	8760.24
592.08	8752.33
592.44	8722.72
592.799	8745.77
593.158	8738.54
593.517	8767.69
593.876	8779.67
594.235	8757.52
594.593	8805.43
594.952	8753.68
595.311	8745.77
595.67	8727.92
596.029	8874.13
596.387	8819.44
596.746	8865.54
597.104	8914.13
597.463	8811.76
597.822	8866.67
598.18	8828.26
598.538	8840.91
598.897	8863.51
599.255	8762.5
599.613	8945.99
599.972	8936.28
600.33	8909.16
600.688	8889.5
601.046	8860.35
601.404	8945.77
601.762	8894.02
602.12	8985.31
602.478	9002.72
602.836	8963.85
603.194	8886.33
603.552	8925.43
603.91	8887.01
604.268	8931.08
604.625	8934.92
604.983	8979.67
605.341	8918.42
605.698	8968.37
606.056	8978.08
606.413	9000.91
606.771	8956.84
607.128	9062.37
607.485	8997.74
607.843	9026.9
608.2	9061.92
608.557	9028.25
608.914	9003.85
609.272	9068.02
609.629	9096.05
609.986	9187.57
610.343	9071.19
610.7	9142.37
611.057	9091.53
611.414	9075.71
611.771	9093.79
612.127	9165.65
612.484	9147.57
612.841	9190.05
613.198	9133.11
613.554	9159.32
613.911	9233.67
614.267	9198.42
614.624	9160
614.98	9245.87
615.337	9209.49
615.693	9215.82
616.05	9247
616.406	9202.94
616.762	9193.67
617.118	9205.2
617.475	9176.95
617.831	9272.09
618.187	9226.66
618.543	9288.81
618.899	9294.68
619.255	9218.53
619.611	9306.44
619.967	9330.62
620.323	9383.95
620.678	9236.61
621.034	9290.39
621.39	9281.8
621.746	9265.76
622.101	9414
622.457	9290.62
622.812	9337.85
623.168	9410.39
623.523	9295.14
623.879	9367
624.234	9272.99
624.589	9345.08
624.945	9236.83
625.3	9313.67
625.655	9357.06
626.01	9310.05
626.365	9364.74
626.72	9324.29
627.075	9328.81
627.43	9245.65
627.785	9340.33
628.14	9341.92
628.495	9291.97
628.85	9227.12
629.205	9280
629.559	9230.51
629.914	9212.43
630.269	9257.17
630.623	9272.54
630.978	9260.11
631.332	9282.26
631.687	9229.6
632.041	9229.38
632.396	9226.89
632.75	9172.88
633.104	9278.64
633.459	9189.83
633.813	9103.73
634.167	9183.73
634.521	9195.25
634.875	9223.27
635.229	9162.26
635.583	9127.46
635.937	9115.48
636.291	9122.49
636.645	9127.01
636.999	9044.07
637.352	9097.85
637.706	9025.77
638.06	9038.87
638.413	9011.98
638.767	9047.91
639.121	9021.25
639.474	9016.5
639.828	8880.01
640.181	8950.74
640.534	8993.22
640.888	8930.63
641.241	8958.2
641.594	8909.84
641.947	8952.77
642.301	8921.59
642.654	8983.28
643.007	8952.55
643.36	8904.41
643.713	8909.61
644.066	8899.44
644.419	8858.31
644.771	8851.98
645.124	8713.01
645.477	8684.76
645.83	8630.3
646.182	8592.56
646.535	8549.17
646.888	8560.47
647.24	8565.89
647.593	8602.27
647.945	8646.34
648.298	8508.26
648.65	8495.38
649.002	8509.17
649.355	8593.69
649.707	8562.73
650.059	8596.17
650.411	8709.39
650.763	8677.3
651.115	8812.21
651.467	8721.37
651.819	8796.62
652.171	8736.28
652.523	8761.37
652.875	8693.12
653.227	8644.08
653.578	8831.42
653.93	8731.99
654.282	8715.49
654.633	8608.6
654.985	8682.95
655.337	8658.32
655.688	8675.72
656.039	8739.22
656.391	8722.5
656.742	8698.09
657.094	8681.14
657.445	8753
657.796	8657.41
658.147	8717.75
658.498	8679.56
658.849	8659.45
659.2	8656.06
659.551	8668.49
659.902	8668.03
660.253	8664.65
660.604	8670.75
660.955	8657.64
661.306	8709.16
661.656	8690.18
662.007	8682.5
662.358	8733.12
662.708	8626.23
663.059	8694.93
663.409	8577.42
663.76	8767.24
664.11	8689.28
664.461	8707.13
664.811	8717.98
665.161	8733.8
665.511	8685.21
665.862	8697.41
666.212	8691.31
666.562	8665.1
666.912	8680.01
667.262	8636.62
667.612	8653.12
667.962	8685.21
668.312	8627.36
668.662	8728.6
669.011	8589.62
669.361	8663.06
669.711	8660.35
670.06	8646.34
670.41	8614.48
670.76	8548.94
671.109	8673.23
671.459	8634.59
671.808	8586.91
672.157	8677.53
672.507	8531.54
672.856	8564.31
673.205	8571.09
673.554	8617.19
673.904	8623.29
674.253	8554.37
674.602	8520.47
674.951	8480.02
675.3	8364.54
675.649	8584.2
675.998	8537.19
676.346	8527.93
676.695	8544.87
677.044	8523.86
677.393	8573.12
677.741	8526.34
678.09	8464.88
678.438	8429.62
678.787	8460.36
679.135	8413.8
679.484	8395.95
679.832	8439.11
680.181	8339.91
680.529	8462.39
680.877	8361.83
681.225	8378.1
681.573	8426.01
681.922	8372.9
682.27	8365.67
682.618	8310.98
682.966	8280.25
683.314	8336.74
683.661	8304.88
684.009	8242.51
684.357	8266.69
684.705	8214.49
685.053	8248.61
685.4	8269.4
685.748	8246.12
686.095	8154.38
686.443	8127.03
686.79	8082.29
687.138	8143.08
687.485	8119.35
687.832	8112.34
688.18	8107.15
688.527	8057.88
688.874	8036.86
689.221	8036.41
689.568	8015.62
689.915	7992.57
690.262	7971.33
690.609	7985.57
690.956	7915.06
691.303	7872.35
691.65	7837.55
691.997	7855.85
692.344	7804.78
692.69	7796.42
693.037	7802.52
693.383	7703.09
693.73	7780.15
694.077	7703.09
694.423	7709.19
694.769	7653.37
695.116	7643.88
695.462	7633.71
695.808	7584.9
696.155	7627.16
696.501	7562.98
696.847	7549.19
697.193	7481.85
697.539	7438.69
697.885	7468.52
698.231	7407.73
698.577	7469.65
698.923	7381.74
699.269	7351.23
699.614	7317.56
699.96	7317.79
700.306	7324.34
700.651	7268.75
700.997	7243.44
701.342	7235.76
701.688	7210.45
702.033	7183.55
702.379	7155.98
702.724	7135.87
703.069	7148.07
703.415	7067.85
703.76	7098.81
704.105	7109.43
704.45	7027.85
704.795	7035.76
705.14	7011.13
705.485	6969.32
705.83	6935.65
706.175	6948.53
706.52	6982.2
706.865	6894.07
707.209	6897.01
707.554	6888.42
707.899	6866.73
708.243	6820.4
708.588	6835.09
708.932	6756.22
709.277	6749.89
709.621	6799.38
709.966	6711.25
710.31	6746.28
710.654	6716.67
710.998	6708.31
711.342	6735.43
711.687	6645.72
712.031	6652.49
712.375	6619.95
712.719	6617.24
713.063	6646.62
713.407	6637.58
713.75	6582.44
714.094	6564.36
714.438	6520.29
714.782	6523.01
715.125	6557.58
715.469	6558.49
715.812	6521.88
716.156	6527.07
716.499	6579.28
716.843	6528.43
717.186	6399.17
717.53	6499.28
717.873	6474.19
718.216	6425.83
718.559	6436
718.902	6423.12
719.246	6387.87
719.589	6390.35
719.932	6369.56
720.275	6377.47
720.617	6387.42
720.96	6325.5
721.303	6326.4
721.646	6344.48
721.989	6385.83
722.331	6345.16
722.674	6322.79
723.016	6316.23
723.359	6328.44
723.701	6275.1
724.044	6286.63
724.386	6278.27
724.729	6277.59
725.071	6273.52
725.413	6270.36
725.755	6257.25
726.097	6206.63
726.439	6239.62
726.782	6264.93
727.124	6242.34
727.465	6222.68
727.807	6217.93
728.149	6217.7
728.491	6177.03
728.833	6207.08
729.175	6170.02
729.516	6190.59
729.858	6215.44
730.199	6209.79
730.541	6180.42
730.882	6173.19
731.224	6212.28
731.565	6161.21
731.906	6203.01
732.248	6151.26
732.589	6162.34
732.93	6114.2
733.271	6156.46
733.612	6185.39
733.953	6123.02
734.294	6107.2
734.635	6165.95
734.976	6138.61
735.317	6129.34
735.658	6156.69
735.999	6150.13
736.339	6123.92
736.68	6126.86
737.021	6153.75
737.361	6165.73
737.702	6142.45
738.042	6146.75
738.383	6050.02
738.723	6146.75
739.063	6112.85
739.404	6193.07
739.744	6152.85
740.084	6183.35
740.424	6176.12
740.764	6134.99
741.104	6128.44
741.444	6151.72
741.784	6181.32
742.124	6207.08
742.464	6169.34
742.804	6166.86
743.143	6184.26
743.483	6231.26
743.823	6243.24
744.162	6197.59
744.502	6276.69
744.841	6230.36
745.181	6263.8
745.52	6295.44
745.86	6325.95
746.199	6303.58
746.538	6361.65
746.877	6374.99
747.216	6407.53
747.556	6432.61
747.895	6464.93
748.234	6434.2
748.573	6426.96
748.911	6557.36
749.25	6583.8
749.589	6573.17
749.928	6631.03
750.267	6658.14
750.605	6655.21
750.944	6733.17
751.283	6717.35
751.621	6823.34
751.96	6801.19
752.298	6865.37
752.636	6965.25
752.975	7015.87
753.313	6985.14
753.651	7121.41
753.989	7155.98
754.327	7189.43
754.666	7258.81
755.004	7315.3
755.342	7398.92
755.679	7511.46
756.017	7510.78
756.355	7574.96
756.693	7570.21
757.031	7747.61
757.368	7795.74
757.706	7918.9
758.044	7950.09
758.381	8003.65
758.719	8099.91
759.056	8210.65
759.394	8251.55
759.731	8389.4
760.068	8459.68
760.405	8474.59
760.743	8583.52
761.08	8665.55
761.417	8770.18
761.754	8877.29
762.091	8998.87
762.428	9100.34
762.765	9154.12
763.102	9308.92
763.438	9381.46
763.775	9380.56
764.112	9536.71
764.449	9610.38
764.785	9681.12
765.122	9687.44
765.458	9824.16
765.795	9913.65
766.131	10051.73
766.467	10093.76
766.804	10170.59
767.14	10171.05
767.476	10317.26
767.812	10317.93
768.148	10467.54
768.485	10436.35
768.821	10485.39
769.157	10554.09
769.492	10634.76
769.828	10709.34
770.164	10693.07
770.5	10786.85
770.836	10797.7
771.171	10839.28
771.507	10835.21
771.842	10836.79
772.178	11003.34
772.513	10973.74
772.849	11111.81
773.184	11027.97
773.519	11148.42
773.855	11106.61
774.19	11177.12
774.525	11173.28
774.86	11240.85
775.195	11245.14
775.53	11241.53
775.865	11242.2
776.2	11219.61
776.535	11264.35
776.87	11312.49
777.205	11308.19
777.539	11327.17
777.874	11356.1
778.209	11324.46
778.543	11291.47
778.878	11277.23
779.212	11361.52
779.547	11320.62
779.881	11429.77
780.215	11311.81
780.55	11410.34
780.884	11330.34
781.218	11285.59
781.552	11374.4
781.886	11314.74
782.22	11308.87
782.554	11323.11
782.888	11227.52
783.222	11236.55
783.556	11205.14
783.889	11248.08
784.223	11173.05
784.557	11176.9
784.89	11198.59
785.224	11141.87
785.557	11106.39
785.891	11140.29
786.224	11106.61
786.558	11248.76
786.891	11065.49
787.224	11018.93
787.557	11037.69
787.891	11050.57
788.224	10991.14
788.557	11050.35
788.89	11030.68
789.223	11060.06
789.556	10919.5
789.888	10967.86
790.221	10865.94
790.554	10837.92
790.887	10854.19
791.219	10794.76
791.552	10812.84
791.884	10828.2
792.217	10712.05
792.549	10780.07
792.882	10743.46
793.214	10672.95
793.546	10661.2
793.879	10630.92
794.211	10537.14
794.543	10615.55
794.875	10584.82
795.207	10592.5
795.539	10631.15
795.871	10513.86
796.203	10532.39
796.535	10388.44
796.867	10430.93
797.198	10401.77
797.53	10405.16
797.862	10343.24
798.193	10351.38
798.525	10354.09
798.856	10340.53
799.188	10200.42
799.519	10197.94
799.85	10150.71
800.182	10197.26
800.513	10177.83
800.844	10097.15
801.175	10161.33
801.506	10113.19
801.837	10076.81
802.168	10026.64
802.499	10049.02
802.83	10042.24
803.161	10018.51
803.491	9915.91
803.822	9995.01
804.153	9917.04
804.483	9882.92
804.814	9820.09
805.145	9795.24
805.475	9780.55
805.805	9820.55
806.136	9751.85
806.466	9816.48
806.796	9729.93
807.126	9686.31
807.457	9648.8
807.787	9708.23
808.117	9620.55
808.447	9595.24
808.777	9629.82
809.107	9572.87
809.436	9569.71
809.766	9529.03
810.096	9558.18
810.426	9463.49
810.755	9436.6
811.085	9481.8
811.414	9534.23
811.744	9421.01
812.073	9403.38
812.403	9459.65
812.732	9387.34
813.061	9406.55
813.39	9224.86
813.719	9307.79
814.049	9329.94
814.378	9261.01
814.707	9228.47
815.036	9302.59
815.365	9167.23
815.693	9130.62
816.022	9214.69
816.351	9132.88
816.68	9065.09
817.008	9083.84
817.337	9065.99
817.665	9009.72
817.994	9049.27
818.322	9038.65
818.651	9032.54
818.979	8985.54
819.307	8960.68
819.636	8977.18
819.964	8909.16
820.292	8947.35
820.62	8963.85
820.948	8910.74
821.276	8930.4
821.604	8938.76
821.932	8907.35
822.259	8922.72
822.587	8906.45
822.915	8874.81
823.243	8938.54
823.57	8882.27
823.898	8850.18
824.225	8889.27
824.553	8839.33
824.88	8883.85
825.207	8886.56
825.535	8861.7
825.862	8921.81
826.189	8866
826.516	8944.86
826.843	8924.98
827.17	8950.06
827.497	8893.34
827.824	8884.3
828.151	8989.16
828.478	8930.4
828.805	8953.9
829.131	8938.54
829.458	8932.43
829.785	8849.95
830.111	8910.74
830.438	8983.51
830.764	8899.22
831.09	8869.84
831.417	8857.41
831.743	8914.36
832.069	8926.79
832.395	8860.12
832.722	8909.61
833.048	8873.23
833.374	8879.33
833.7	8851.08
834.026	8768.37
834.351	8902.15
834.677	8884.98
835.003	8874.13
835.329	8895.6
835.654	8884.53
835.98	8823.96
836.306	8866
836.631	8761.37
836.956	8872.78
837.282	8785.77
837.607	8790.52
837.932	8710.52
838.258	8762.27
838.583	8755.72
838.908	8740.58
839.233	8651.31
839.558	8656.28
839.883	8597.75
840.208	8615.83
840.533	8567.47
840.858	8675.94
841.182	8634.59
841.507	8579.68
841.832	8557.76
842.156	8547.81
842.481	8600.47
842.805	8536.06
843.13	8491.32
843.454	8492.45
843.778	8492.45
844.103	8492.22
844.427	8435.5
844.751	8402.05
845.075	8350.76
845.399	8409.06
845.723	8355.27
846.047	8331.55
846.371	8242.06
846.695	8306.91
847.019	8182.17
847.343	8189.63
847.666	8172.45
847.99	8094.04
848.313	8091.55
848.637	8046.58
848.96	8100.14
849.284	8036.64
849.607	7907.38
849.931	7959.35
850.254	7883.87
850.577	7880.71
850.9	7748.96
851.223	7900.15
851.546	7765.91
851.869	7692.69
852.192	7759.13
852.515	7686.14
852.838	7649.08
853.161	7640.04
853.483	7642.3
853.806	7621.73
854.129	7622.41
854.451	7507.84
854.774	7545.58
855.096	7481.17
855.419	7467.16
855.741	7430.33
856.063	7336.77
856.385	7347.62
856.708	7390.78
857.03	7375.19
857.352	7367.73
857.674	7378.13
857.996	7241.86
858.318	7268.75
858.64	7248.86
858.961	7243.21
859.283	7224.46
859.605	7212.48
859.926	7202.08
860.248	7130.67
860.57	7217.23
860.891	7149.2
861.212	7118.25
861.534	7136.55
861.855	7123.89
862.176	7075.08
862.498	7083.44
862.819	7078.92
863.14	7046.16
863.461	7024.46
863.782	6945.82
864.103	7002.99
864.424	6990.11
864.745	6966.38
865.065	6963.22
865.386	6923
865.707	6974.07
866.027	6928.42
866.348	6875.54
866.668	6921.87
866.989	6861.08
867.309	6830.12
867.63	6923.22
867.95	6899.04
868.27	6823.79
868.59	6794.86
868.91	6829.44
869.23	6793.06
869.55	6791.7
869.87	6877.57
870.19	6830.79
870.51	6816.56
870.83	6787.18
871.15	6721.19
871.469	6719.61
871.789	6779.5
872.109	6694.3
872.428	6701.76
872.748	6767.97
873.067	6751.25
873.386	6702.44
873.706	6757.35
874.025	6658.14
874.344	6634.87
874.663	6638.26
874.982	6634.19
875.301	6621.53
875.62	6593.97
875.939	6592.16
876.258	6625.6
876.577	6573.63
876.896	6546.73
877.214	6495.21
877.533	6587.64
877.852	6549.67
878.17	6540.86
878.489	6529.11
878.807	6511.71
879.125	6528.2
879.444	6520.97
879.762	6480.3
880.08	6519.84
880.398	6465.38
880.716	6406.63
881.034	6406.4
881.352	6454.99
881.67	6425.16
881.988	6411.37
882.306	6379.96
882.624	6391.03
882.941	6308.32
883.259	6308.32
883.577	6282.56
883.894	6288.21
884.212	6327.08
884.529	6259.51
884.846	6263.8
885.164	6258.61
885.481	6247.08
885.798	6244.14
886.115	6170.47
886.432	6194.88
886.75	6183.35
887.067	6229
887.383	6125.73
887.7	6163.24
888.017	6180.42
888.334	6121.66
888.651	6126.63
888.967	6104.49
889.284	6066.97
889.6	6059.97
889.917	5996.01
890.233	6059.97
890.55	5988.78
890.866	5996.24
891.182	6006.18
891.498	5987.88
891.815	5955.34
892.131	5889.58
892.447	5935.68
892.763	5900.42
893.079	5889.35
893.395	5873.31
893.71	5820.43
894.026	5871.5
894.342	5836.02
894.657	5725.97
894.973	5706.08
895.289	5742.01
895.604	5771.84
895.92	5734.78
896.235	5672.86
896.55	5654.55
896.865	5658.85
897.181	5616.59
897.496	5664.05
897.811	5653.65
898.126	5577.04
898.441	5578.4
898.756	5569.13
899.071	5502.02
899.386	5495.01
899.7	5552.41
900.015	5491.4
900.33	5436.48
900.644	5429.7
900.959	5431.74
901.273	5407.78
901.588	5390.83
901.902	5368.23
902.216	5339.76
902.531	5319.65
902.845	5321.91
903.159	5287.78
903.473	5225.64
903.787	5224.06
904.101	5264.96
904.415	5226.77
904.729	5226.54
905.042	5149.71
905.356	5164.17
905.67	5156.26
905.984	5127.79
906.297	5085.98
906.611	5082.14
906.924	5082.82
907.237	5069.26
907.551	5041.69
907.864	5014.8
908.177	5004.18
908.491	4998.53
908.804	4941.35
909.117	4913.78
909.43	4915.59
909.743	4883.95
910.056	4911.3
910.368	4823.62
910.681	4861.81
910.994	4804.86
911.307	4843.28
911.619	4808.02
911.932	4794.69
912.244	4782.71
912.557	4756.5
912.869	4716.73
913.181	4674.47
913.494	4687.12
913.806	4665.2
914.118	4694.81
914.43	4599.22
914.742	4600.12
915.054	4606.22
915.366	4572.55
915.678	4580.23
915.99	4589.5
916.302	4530.97
916.613	4492.78
916.925	4445.55
917.236	4502.49
917.548	4444.42
917.859	4464.08
918.171	4393.12
918.482	4418.66
918.794	4405.77
919.105	4346.34
919.416	4353.12
919.727	4370.07
920.038	4279.68
920.349	4260.24
920.66	4272.67
920.971	4307.02
921.282	4253.01
921.593	4258.21
921.903	4179.57
922.214	4222.05
922.525	4181.83
922.835	4158.32
923.146	4133.46
923.456	4123.3
923.767	4126.46
924.077	4125.33
924.387	4108.61
924.697	4067.48
925.008	4042.62
925.318	3993.36
925.628	4032.68
925.938	4017.54
926.248	4007.82
926.558	3959.01
926.867	3975.05
927.177	3942.96
927.487	3911.78
927.796	3934.83
928.106	3903.87
928.416	3862.74
928.725	3853.7
929.034	3837.2
929.344	3815.73
929.653	3838.78
929.962	3808.05
930.271	3777.09
930.581	3757.66
930.89	3773.7
931.199	3738.22
931.508	3715.17
931.817	3730.76
932.125	3703.19
932.434	3695.51
932.743	3650.54
933.051	3650.31
933.36	3640.82
933.669	3578
933.977	3594.5
934.286	3580.48
934.594	3553.59
934.902	3568.73
935.21	3541.62
935.519	3534.38
935.827	3543.88
936.135	3508.85
936.443	3456.42
936.751	3449.41
937.059	3459.36
937.367	3425.91
937.674	3448.74
937.982	3440.15
938.29	3375.07
938.597	3413.03
938.905	3368.06
939.213	3353.15
939.52	3374.84
939.827	3351.56
940.135	3310.89
940.442	3298.01
940.749	3333.26
941.056	3316.54
941.363	3271.11
941.67	3284.67
941.977	3247.61
942.284	3208.07
942.591	3247.61
942.898	3236.99
943.205	3210.78
943.511	3213.71
943.818	3155.19
944.125	3138.46
944.431	3144.34
944.738	3144.34
945.044	3151.12
945.35	3121.97
945.657	3090.1
945.963	3090.55
946.269	3087.39
946.575	3079.26
946.881	3073.38
947.187	3028.86
947.493	3044.91
947.799	3038.13
948.105	2971.69
948.41	2958.13
948.716	2997.9
949.022	2968.98
949.327	2976.89
949.633	2935.53
949.938	2930.33
950.244	2924.01
950.549	2884.23
950.854	2862.54
951.16	2852.82
951.465	2821.86
951.77	2865.7
952.075	2861.86
952.38	2824.57
952.685	2800.62
952.99	2781.86
953.294	2822.31
953.599	2793.39
953.904	2777.79
954.209	2777.57
954.513	2731.02
954.818	2722.2
955.122	2721.98
955.426	2739.15
955.731	2688.08
956.035	2731.24
956.339	2667.29
956.643	2681.07
956.948	2638.81
957.252	2636.33
957.556	2649.21
957.86	2645.82
958.163	2607.63
958.467	2631.13
958.771	2580.51
959.075	2609.44
959.378	2548.87
959.682	2536.67
959.985	2563.79
960.289	2487.86
960.592	2531.25
960.896	2557.46
961.199	2502.32
961.502	2509.55
961.805	2518.14
962.108	2496.9
962.411	2446.96
962.714	2471.81
963.017	2439.5
963.32	2443.79
963.623	2427.97
963.926	2390.01
964.228	2398.6
964.531	2406.73
964.833	2428.42
965.136	2372.16
965.438	2353.4
965.741	2362.66
966.043	2356.34
966.345	2340.52
966.648	2327.86
966.95	2341.42
967.252	2308.88
967.554	2314.3
967.856	2293.51
968.158	2299.39
968.46	2303
968.761	2276.79
969.063	2251.25
969.365	2240.41
969.666	2241.09
969.968	2241.54
970.269	2226.17
970.571	2208.77
970.872	2238.83
971.174	2198.15
971.475	2227.53
971.776	2213.29
972.077	2180.97
972.378	2189.34
972.679	2171.03
972.98	2129.68
973.281	2166.96
973.582	2124.03
973.883	2132.61
974.183	2090.13
974.484	2132.16
974.785	2100.98
975.085	2079.73
975.386	2096.46
975.686	2090.35
975.986	2080.41
976.287	2025.95
976.587	2059.62
976.887	2075.44
977.187	2078.15
977.487	2050.36
977.787	2031.37
978.087	2020.75
978.387	2015.33
978.687	2010.58
978.987	1995.44
979.286	1972.39
979.586	1955.67
979.885	1971.49
980.185	1962.67
980.484	1933.52
980.784	1905.27
981.083	1923.35
981.382	1949.12
981.682	1930.13
981.981	1919.74
982.28	1881.55
982.579	1891.49
982.878	1878.16
983.177	1873.64
983.475	1851.04
983.774	1896.01
984.073	1825.05
984.372	1813.3
984.67	1833.86
984.969	1823.24
985.267	1844.26
985.566	1806.75
985.864	1784.6
986.162	1824.6
986.461	1810.81
986.759	1803.36
987.057	1771.04
987.355	1769.01
987.653	1766.52
987.951	1732.85
988.249	1751.15
988.547	1756.13
988.844	1733.75
989.142	1736.01
989.44	1744.38
989.737	1709.35
990.035	1699.4
990.332	1703.92
990.63	1709.35
990.927	1696.24
991.224	1648.78
991.521	1669.8
991.819	1667.31
992.116	1653.08
992.413	1651.04
992.71	1670.03
993.006	1641.78
993.303	1633.42
993.6	1622.57
993.897	1611.27
994.193	1619.86
994.49	1606.3
994.787	1580.09
995.083	1572.63
995.379	1561.78
995.676	1549.35
995.972	1578.96
996.268	1537.83
996.565	1536.02
996.861	1544.83
997.157	1556.36
997.453	1520.65
997.749	1559.97
998.044	1495.57
998.34	1483.14
998.636	1528.11
998.932	1506.42
999.227	1496.7
999.523	1487.21
999.818	1451.95
1000.114	1465.96
1000.409	1453.99
1000.704	1457.83
1001	1438.85
1001.295	1434.78
1001.59	1449.92
1001.885	1437.26
1002.18	1423.48
1002.475	1404.05
1002.77	1383.71
1003.065	1382.12
1003.359	1405.63
1003.654	1386.87
1003.949	1372.86
1004.243	1378.96
1004.538	1375.35
1004.832	1371.96
1005.127	1357.72
1005.421	1368.79
1005.715	1327.21
1006.009	1318.4
1006.304	1318.4
1006.598	1309.58
1006.892	1316.59
1007.186	1315.91
1007.48	1316.82
1007.773	1280.88
1008.067	1301.22
1008.361	1285.4
1008.655	1253.09
1008.948	1271.39
1009.242	1274.1
1009.535	1255.12
1009.829	1268.68
1010.122	1236.82
1010.415	1234.78
1010.708	1225.52
1011.001	1209.02
1011.295	1179.42
1011.588	1214.67
1011.881	1193.2
1012.173	1190.27
1012.466	1188.01
1012.759	1155.69
1013.052	1182.58
1013.344	1175.8
1013.637	1171.96
1013.93	1157.72
1014.222	1130.61
1014.514	1131.28
1014.807	1177.84
1015.099	1125.41
1015.391	1105.75
1015.683	1151.4
1015.976	1118.18
1016.268	1089.03
1016.56	1077.5
1016.851	1102.13
1017.143	1102.81
1017.435	1102.36
1017.727	1082.92
1018.018	1075.01
1018.31	1047.9
1018.602	1060.55
1018.893	1101.23
1019.185	1071.85
1019.476	1049.7
1019.767	1057.39
1020.058	1028.91
1020.35	1029.37
1020.641	1010.38
1020.932	1015.35
1021.223	1009.71
1021.514	1027.33
1021.804	984.4
1022.095	992.98
1022.386	966.99
1022.677	979.65
1022.967	983.04
1023.258	969.03
1023.548	981.23
1023.839	967.45
1024.129	950.5
1024.419	953.21
1024.709	935.13
1025	932.42
1025.29	928.13
1025.58	900.1
1025.87	950.27
1026.16	926.77
1026.449	899.2
1026.739	926.32
1027.029	899.65
1027.319	854
1027.608	894
1027.898	899.43
1028.187	877.28
1028.477	878.86
1028.766	875.02
1029.055	875.02
1029.344	844.06
1029.634	859.2
1029.923	878.64
1030.212	851.97
1030.501	845.42
1030.79	839.09
1031.078	817.17
1031.367	813.33
1031.656	823.04
1031.945	838.86
1032.233	822.14
1032.522	820.56
1032.81	825.53
1033.099	789.37
1033.387	820.11
1033.675	823.72
1033.963	783.27
1034.251	793.67
1034.54	786.89
1034.828	785.53
1035.116	776.26
1035.403	769.94
1035.691	755.02
1035.979	766.32
1036.267	748.24
1036.554	762.03
1036.842	719.54
1037.129	738.98
1037.417	750.95
1037.704	731.97
1037.992	721.8
1038.279	709.83
1038.566	740.79
1038.853	740.79
1039.14	740.79
