Data from hue_36_FLMS001491_00056.txt Node
Date: Tue Feb 07 17:30:00 GMT 2017
User: dcchb
Spectrometer: FLMS00149
Trigger mode: 0
Integration Time (sec): 2.000000E-2
Scans to average: 10
Electric dark correction enabled: true
Nonlinearity correction enabled: false
Boxcar width: 0
XAxis mode: Wavelengths
Number of Pixels in Spectrum: 2048
>>>>>Begin Spectral Data<<<<<
341.393	15.08
341.776	15.08
342.16	15.08
342.543	-78.7
342.927	-85.03
343.31	-88.64
343.693	-67.4
344.077	-44.12
344.46	-57.68
344.843	-62.88
345.226	-31.69
345.61	-24.91
345.993	-10.45
346.376	-3.22
346.759	16.67
347.142	27.06
347.525	22.99
347.908	57.57
348.291	64.8
348.674	86.72
349.057	115.19
349.44	140.5
349.823	147.28
350.206	156.55
350.588	190.67
350.971	218.47
351.354	236.32
351.737	262.76
352.119	279.71
352.502	263.67
352.884	284
353.267	283.78
353.65	302.53
354.032	310.22
354.414	290.56
354.797	306.83
355.179	335.75
355.562	326.71
355.944	332.14
356.326	321.07
356.709	369.43
357.091	346.15
357.473	348.18
357.855	335.98
358.238	345.7
358.62	346.83
359.002	367.84
359.384	363.1
359.766	352.7
360.148	340.5
360.53	345.92
360.912	338.69
361.294	333.49
361.676	342.08
362.057	324.91
362.439	326.71
362.821	332.14
363.203	323.78
363.584	322.42
363.966	337.11
364.348	339.37
364.729	309.31
365.111	317.45
365.493	342.53
365.874	320.39
366.256	325.36
366.637	308.18
367.019	317.68
367.4	311.57
367.781	309.77
368.163	314.96
368.544	316.09
368.925	309.09
369.306	319.94
369.688	321.07
370.069	331.01
370.45	313.38
370.831	297.79
371.212	311.35
371.593	310.67
371.974	308.86
372.355	295.98
372.736	339.14
373.117	332.59
373.498	300.73
373.879	315.42
374.26	312.03
374.641	312.48
375.021	339.37
375.402	341.18
375.783	327.84
376.163	331.01
376.544	334.4
376.925	328.97
377.305	335.08
377.686	316.77
378.066	341.18
378.447	343.21
378.827	328.75
379.208	331.46
379.588	332.82
379.968	325.81
380.349	336.88
380.729	332.59
381.109	323.55
381.489	334.17
381.87	333.27
382.25	335.98
382.63	337.34
383.01	339.37
383.39	342.99
383.77	339.6
384.15	335.75
384.53	341.86
384.91	353.83
385.29	348.18
385.67	338.92
386.049	352.02
386.429	346.15
386.809	333.95
387.189	340.95
387.568	361.29
387.948	368.3
388.328	354.51
388.707	352.48
389.087	358.13
389.466	351.12
389.846	347.96
390.225	378.46
390.605	376.2
390.984	392.7
391.363	360.84
391.743	372.14
392.122	385.92
392.501	375.53
392.881	368.97
393.26	363.1
393.639	398.8
394.018	378.92
394.397	358.8
394.776	373.94
395.155	366.49
395.534	373.49
395.913	371.23
396.292	399.48
396.671	386.83
397.05	386.6
397.429	371.69
397.808	359.03
398.186	402.19
398.565	375.07
398.944	408.75
399.323	404.9
399.701	380.05
400.08	372.36
400.458	375.07
400.837	374.85
401.215	383.66
401.594	388.41
401.972	406.94
402.351	420.72
402.729	415.07
403.107	402.19
403.486	404.68
403.864	423.66
404.242	394.51
404.62	400.84
404.999	401.06
405.377	412.14
405.755	424.11
406.133	410.55
406.511	401.06
406.889	421.85
407.267	421.18
407.645	414.4
408.023	417.56
408.401	414.62
408.779	406.71
409.156	429.99
409.534	426.15
409.912	419.59
410.29	428.86
410.667	436.54
411.045	448.75
411.422	446.71
411.8	441.29
412.178	448.75
412.555	449.65
412.933	452.14
413.31	461.85
413.687	475.86
414.065	467.5
414.442	452.81
414.819	470.67
415.197	464.11
415.574	492.81
415.951	483.77
416.328	458.01
416.705	454.85
417.082	488.97
417.46	484.22
417.837	484.68
418.214	490.1
418.591	465.24
418.967	495.3
419.344	484.68
419.721	491.91
420.098	492.81
420.475	494.85
420.852	511.79
421.228	499.37
421.605	536.88
421.982	524.68
422.358	509.76
422.735	512.47
423.111	555.18
423.488	513.6
423.864	528.97
424.241	544.56
424.617	528.52
424.994	551.79
425.37	528.97
425.746	526.48
426.123	533.71
426.499	566.03
426.875	566.71
427.251	560.61
427.627	545.92
428.003	557.22
428.379	556.99
428.756	555.64
429.132	568.06
429.507	576.43
429.883	559.02
430.259	560.15
430.635	600.15
431.011	597.89
431.387	580.49
431.763	612.13
432.138	595.86
432.514	600.83
432.89	609.19
433.265	612.13
433.641	626.14
434.016	620.72
434.392	643.99
434.767	632.7
435.143	645.35
435.518	651.45
435.894	660.49
436.269	648.51
436.644	652.13
437.02	686.25
437.395	654.84
437.77	671.11
438.145	646.48
438.52	670.89
438.895	681.28
439.271	656.65
439.646	678.34
440.021	693.48
440.395	688.51
440.77	691
441.145	693.03
441.52	707.27
441.895	728.06
442.27	763.09
442.645	716.53
443.019	718.79
443.394	716.53
443.769	724.22
444.143	737.33
444.518	739.81
444.892	731
445.267	747.95
445.641	754.27
446.016	724.9
446.39	782.75
446.764	746.36
447.139	763.09
447.513	763.99
447.887	783.88
448.262	761.96
448.636	776.65
449.01	797.66
449.384	785.91
449.758	781.62
450.132	798.57
450.506	808.06
450.88	805.12
451.254	810.09
451.628	809.87
452.002	826.14
452.376	800.37
452.75	827.27
453.123	848.28
453.497	862.52
453.871	864.1
454.244	854.84
454.618	866.36
454.992	863.42
455.365	890.54
455.739	891.9
456.112	909.75
456.486	907.26
456.859	890.32
457.232	927.15
457.606	934.61
457.979	920.15
458.352	966.25
458.725	954.95
459.099	954.04
459.472	984.55
459.845	975.29
460.218	991.33
460.591	1009.41
460.964	1045.57
461.337	1053.48
461.71	1054.15
462.083	1068.16
462.456	1066.81
462.829	1056.41
463.201	1094.83
463.574	1077.88
463.947	1102.06
464.32	1123.3
464.692	1151.1
465.065	1163.53
465.438	1163.53
465.81	1171.21
466.183	1184.55
466.555	1204.21
466.928	1207.6
467.3	1231.55
467.672	1235.84
468.045	1260.93
468.417	1267.48
468.789	1302.51
469.161	1297.76
469.534	1301.83
469.906	1354.03
470.278	1369.85
470.65	1397.19
471.022	1434.48
471.394	1434.48
471.766	1465.44
472.138	1472.9
472.51	1542.5
472.882	1562.39
473.253	1572.78
473.625	1600.35
473.997	1674.7
474.369	1653.46
474.74	1676.74
475.112	1713.12
475.484	1758.54
475.855	1812.78
476.227	1834.47
476.598	1889.39
476.97	1891.65
477.341	1949.95
477.713	1981.81
478.084	2053.67
478.455	2122.6
478.827	2128.7
479.198	2249.83
479.569	2264.74
479.94	2336.61
480.311	2360.56
480.682	2422.93
481.053	2501.8
481.424	2572.53
481.795	2653.89
482.166	2690.72
482.537	2755.8
482.908	2839.19
483.279	2898.85
483.65	2965.97
484.021	3095.46
484.391	3109.24
484.762	3190.59
485.133	3282.8
485.503	3340.65
485.874	3449.12
486.244	3528.66
486.615	3667.19
486.985	3723.24
487.356	3753.07
487.726	3839.16
488.097	4007.07
488.467	4043.68
488.837	4153.96
489.207	4240.06
489.578	4360.51
489.948	4411.58
490.318	4519.6
490.688	4606.15
491.058	4715.3
491.428	4839.82
491.798	4952.13
492.168	5035.74
492.538	5097.89
492.908	5226.02
493.278	5347.83
493.648	5380.14
494.017	5569.06
494.387	5583.53
494.757	5678.21
495.126	5821.49
495.496	5841.82
495.866	5896.96
496.235	5991.2
496.605	6091.08
496.974	6219.67
497.344	6320.91
497.713	6387.57
498.082	6495.59
498.452	6577.62
498.821	6693.33
499.19	6771.29
499.559	6824.85
499.928	6941.46
500.298	6929.93
500.667	7094.9
501.036	7112.52
501.405	7242.46
501.774	7209.47
502.143	7374.21
502.512	7436.81
502.88	7503.25
503.249	7561.1
503.618	7632.51
503.987	7730.36
504.356	7834.09
504.724	7863.47
505.093	7948.66
505.462	7991.37
505.83	8104.59
506.199	8152.27
506.567	8337.35
506.936	8323.57
507.304	8498.7
507.672	8488.76
508.041	8587.74
508.409	8691.69
508.777	8738.02
509.145	8761.07
509.514	8808.98
509.882	8906.15
510.25	8924.45
510.618	8994.06
510.986	9046.49
511.354	9111.34
511.722	9147.27
512.09	9311.56
512.458	9333.48
512.826	9348.4
513.193	9427.49
513.561	9476.3
513.929	9530.31
514.297	9642.4
514.664	9760.36
515.032	9773.47
515.4	9881.49
515.767	9837.88
516.135	9999.91
516.502	9942.28
516.869	10047.81
517.237	10148.6
517.604	10108.83
517.972	10277.19
518.339	10356.51
518.706	10347.02
519.073	10364.64
519.44	10422.49
519.808	10587.24
520.175	10514.7
520.542	10678.76
520.909	10710.17
521.276	10722.15
521.643	10860.67
522.009	10948.58
522.376	10957.17
522.743	11039.43
523.11	11153.55
523.477	11265.64
523.843	11325.97
524.21	11373.66
524.577	11461.56
524.943	11449.81
525.31	11671.95
525.676	11771.61
526.043	11759.86
526.409	11840.08
526.776	11913.3
527.142	11971.38
527.508	12044.37
527.874	12120.98
528.241	12191.71
528.607	12287.08
528.973	12367.53
529.339	12277.59
529.705	12474.42
530.071	12520.52
530.437	12689.33
530.803	12655.2
531.169	12768.65
531.535	12730.68
531.901	12856.55
532.267	12815.88
532.632	13044.8
532.998	12955.54
533.364	13016.55
533.73	13157.11
534.095	13251.57
534.461	13287.73
534.826	13359.82
535.192	13422.87
535.557	13426.03
535.923	13513.94
536.288	13546.93
536.653	13578.34
537.019	13580.83
537.384	13713.03
537.749	13709.64
538.114	13757.1
538.479	13727.94
538.845	13981.95
539.21	13920.03
539.575	13952.35
539.94	13941.5
540.305	14021.5
540.67	14062.85
541.034	14153.7
541.399	14230.08
541.764	14257.42
542.129	14337.19
542.494	14432.56
542.858	14315.73
543.223	14516.17
543.587	14590.75
543.952	14626.45
544.316	14639.33
544.681	14622.84
545.045	14795.94
545.41	14784.41
545.774	14898.76
546.138	14910.29
546.503	14971.3
546.867	14936.73
547.231	15141.92
547.595	15173.56
547.959	15130.62
548.324	15247.23
548.688	15318.18
549.052	15269.37
549.416	15385.08
549.779	15437.05
550.143	15439.54
550.507	15570.61
550.871	15581.45
551.235	15649.7
551.599	15783.03
551.962	15761.56
552.326	15772.41
552.689	15857.15
553.053	15883.82
553.417	15859.87
553.78	16076.13
554.143	16067.77
554.507	16224.83
554.87	16173.98
555.234	16343.24
555.597	16238.84
555.96	16301.89
556.323	16443.8
556.686	16428.89
557.05	16518.83
557.413	16453.75
557.776	16509.79
558.139	16707.98
558.502	16780.75
558.865	16787.98
559.228	16807.64
559.59	17034.52
559.953	16938.03
560.316	17090.34
560.679	17125.37
561.041	17199.27
561.404	17206.04
561.767	17419.37
562.129	17349.54
562.492	17508.86
562.854	17543.66
563.217	17456.89
563.579	17602.19
563.941	17647.84
564.304	17802.19
564.666	17869.08
565.028	17891.9
565.39	17976.42
565.753	18004.89
566.115	18140.71
566.477	18173.7
566.839	18282.63
567.201	18335.96
567.563	18387.03
567.925	18438.78
568.287	18500.93
568.648	18495.28
569.01	18679.23
569.372	18794.03
569.734	18737.3
570.095	18918.99
570.457	19019.56
570.819	19096.84
571.18	19096.16
571.542	19202.38
571.903	19224.52
572.265	19307.01
572.626	19432.43
572.987	19470.17
573.349	19566.21
573.71	19643.04
574.071	19767.33
574.432	19896.6
574.794	19964.39
575.155	20086.65
575.516	20055.91
575.877	20288
576.238	20277.38
576.599	20392.4
576.96	20539.52
577.32	20502.23
577.681	20731.83
578.042	20796.01
578.403	20968.43
578.763	21026.51
579.124	21178.14
579.485	21387.63
579.845	21476.21
580.206	21610.45
580.566	21725.02
580.927	21894.74
581.287	22214.27
581.648	22147.61
582.008	22377.89
582.368	22525.9
582.728	22657.43
583.089	22809.06
583.449	22898.1
583.809	23048.83
584.169	23333.12
584.529	23456.28
584.889	23727
585.249	23820.11
585.609	23931.52
585.969	24300.55
586.329	24370.15
586.688	24616.7
587.048	24850.59
587.408	25038.61
587.768	25168.55
588.127	25366.28
588.487	25571.47
588.846	25838.81
589.206	25900.28
589.565	26189.54
589.925	26422.3
590.284	26579.81
590.643	26907.71
591.003	27117.42
591.362	27391.99
591.721	27618.2
592.08	27704.3
592.44	27914.69
592.799	28159.43
593.158	28416.15
593.517	28550.38
593.876	28788.34
594.235	29003.02
594.593	29209.57
594.952	29485.27
595.311	29564.36
595.67	29883
596.029	30184.91
596.387	30386.94
596.746	30607.95
597.104	30725.69
597.463	31030.31
597.822	31223.98
598.18	31271.21
598.538	31568.38
598.897	31962.94
599.255	31735.61
599.613	32554.57
599.972	32447.68
600.33	32656.03
600.688	32768.12
601.046	32992.97
601.404	33110.26
601.762	33307.77
602.12	33592.05
602.478	33643.58
602.836	33912.27
603.194	33834.99
603.552	34224.58
603.91	34188.88
604.268	34445.59
604.625	34544.57
604.983	34825.47
605.341	34900.04
605.698	34962.19
606.056	35284.89
606.413	35335.29
606.771	35686.24
607.128	35755.61
607.485	35764.43
607.843	36074.25
608.2	36288.03
608.557	36419.1
608.914	36396.95
609.272	36724.85
609.629	36933.66
609.986	36907.22
610.343	36974.79
610.7	37383.59
611.057	37362.35
611.414	37486.19
611.771	37621.1
612.127	37979.96
612.484	37905.84
612.841	38024.93
613.198	38184.02
613.554	38312.61
613.911	38577.23
614.267	38508.76
614.624	38624.92
614.98	38807.74
615.337	39111.91
615.693	39021.52
616.05	38922.31
616.406	39451.79
616.762	39250.44
617.118	39400.26
617.475	39444.1
617.831	39536.98
618.187	39705.57
618.543	39718
618.899	40080.25
619.255	39970.19
619.611	40050.64
619.967	40212.9
620.323	40310.97
620.678	40209.28
621.034	40062.39
621.39	40265.1
621.746	40289.05
622.101	40835.25
622.457	40610.85
622.812	40622.15
623.168	40893.11
623.523	40802.26
623.879	41166.09
624.234	40788.48
624.589	41005.19
624.945	40956.38
625.3	41113.89
625.655	41140.1
626.01	41236.15
626.365	41203.83
626.72	41358.86
627.075	41293.1
627.43	41191.63
627.785	41301.68
628.14	41445.18
628.495	41368.8
628.85	41293.32
629.205	41434.56
629.559	41521.34
629.914	41447.89
630.269	41534.67
630.623	41402.24
630.978	41363.38
631.332	41588.68
631.687	41729.24
632.041	41520.89
632.396	41556.82
632.75	41390.49
633.104	41491.73
633.459	41337.39
633.813	41457.84
634.167	41478.63
634.521	41421.23
634.875	41495.35
635.229	41518.4
635.583	41357.73
635.937	41457.61
636.291	41454.67
636.645	41519.98
636.999	41442.24
637.352	41531.73
637.706	41271.17
638.06	41435.01
638.413	41435.92
638.767	41258.52
639.121	41376.26
639.474	41141.69
639.828	41099.2
640.181	41346.43
640.534	41193.21
640.888	41140.78
641.241	40987.57
641.594	41086.77
641.947	41211.97
642.301	41082.93
642.654	41178.97
643.007	41183.95
643.36	41133.55
643.713	41000.67
644.066	41208.35
644.419	40961.13
644.771	40826.44
645.124	40381.48
645.477	40408.15
645.83	40079.79
646.182	39997.54
646.535	39931.55
646.888	39855.62
647.24	39761.16
647.593	40037.53
647.945	39912.57
648.298	39752.12
648.65	39790.54
649.002	39590.77
649.355	39702.18
649.707	39697.2
650.059	39814.49
650.411	40279.11
650.763	40332.44
651.115	40657.86
651.467	40478.2
651.819	40618.99
652.171	40569.05
652.523	40457.41
652.875	40452.44
653.227	40422.16
653.578	40517.75
653.93	40547.35
654.282	40296.06
654.633	40218.55
654.985	40323.4
655.337	40337.64
655.688	40259.68
656.039	40464.87
656.391	40283.4
656.742	40310.75
657.094	40245.89
657.445	40469.16
657.796	40358.66
658.147	40270.75
658.498	40283.86
658.849	40341.03
659.2	40229.17
659.551	40077.08
659.902	40328.6
660.253	40219.9
660.604	40315.95
660.955	40044.09
661.306	40293.35
661.656	40190.53
662.007	40139.91
662.358	40130.87
662.708	40206.12
663.059	40066.69
663.409	39907.59
663.76	40185.55
664.11	40031.43
664.461	40144.42
664.811	40136.06
665.161	40121.83
665.511	40027.37
665.862	39967.25
666.212	40145.78
666.562	40195.5
666.912	40055.84
667.262	39987.37
667.612	40000.93
667.962	40167.25
668.312	39944.88
668.662	40243.18
669.011	40090.41
669.361	40021.26
669.711	39964.99
670.06	39910.08
670.41	39774.49
670.76	39886.8
671.109	40043.64
671.459	39784.43
671.808	39732.23
672.157	39836.64
672.507	39758.22
672.856	39729.07
673.205	39941.04
673.554	40010.87
673.904	39706.02
674.253	39975.84
674.602	39902.62
674.951	39323.43
675.3	39082.08
675.649	39673.7
675.998	39642.74
676.346	39735.85
676.695	39837.09
677.044	39632.8
677.393	39726.58
677.741	39822.17
678.09	39607.49
678.438	39593.48
678.787	39656.08
679.135	39582.63
679.484	39176.31
679.832	39569.52
680.181	39176.31
680.529	39406.82
680.877	39206.6
681.225	39208.86
681.573	39377.89
681.922	39094.06
682.27	38992.59
682.618	39101.06
682.966	38909.43
683.314	38886.83
683.661	38856.55
684.009	38745.37
684.357	38614.3
684.705	38711.69
685.053	38574.07
685.4	38495.2
685.748	38542.21
686.095	38460.18
686.443	38312.83
686.79	38344.25
687.138	38315.77
687.485	38295.66
687.832	38191.03
688.18	38280.97
688.527	38054.08
688.874	37945.16
689.221	38049.11
689.568	37956.91
689.915	37807.99
690.262	37877.14
690.609	37725.28
690.956	37610.25
691.303	37527.09
691.65	37430.82
691.997	37522.12
692.344	37208.23
692.69	37168.68
693.037	37216.37
693.383	36758.3
693.73	36977.5
694.077	36757.62
694.423	36767.34
694.769	36731.86
695.116	36637.62
695.462	36556.27
695.808	36400.79
696.155	36431.3
696.501	36215.94
696.847	36161.25
697.193	36029.28
697.539	36020.47
697.885	35847.81
698.231	35765.56
698.577	35838.32
698.923	35749.74
699.269	35534.15
699.614	35442.18
699.96	35349.3
700.306	35330.99
700.651	35283.76
700.997	35107.95
701.342	35082.86
701.688	35014.16
702.033	34927.39
702.379	34891.46
702.724	34728.3
703.069	34881.74
703.415	34437.68
703.76	34476.55
704.105	34544.12
704.45	34450.56
704.795	34141.19
705.14	34040.4
705.485	34092.38
705.83	33918.37
706.175	33905.49
706.52	33878.37
706.865	33846.74
707.209	33675.67
707.554	33604.94
707.899	33618.72
708.243	33556.35
708.588	33496.92
708.932	33218.51
709.277	33228.22
709.621	33309.58
709.966	33079.98
710.31	33163.59
710.654	32841.57
710.998	32877.72
711.342	32882.69
711.687	32800.89
712.031	32646.54
712.375	32493.1
712.719	32537.17
713.063	32532.2
713.407	32554.57
713.75	32471.63
714.094	32407.45
714.438	32274.12
714.782	32282.71
715.125	32124.3
715.469	32250.62
715.812	31985.54
716.156	31926.34
716.499	31833.91
716.843	31887.47
717.186	31604.76
717.53	31977.18
717.873	31847.69
718.216	31729.5
718.559	31549.62
718.902	31411.32
719.246	31539.45
719.589	31340.81
719.932	31252
720.275	31327.71
720.617	31211.33
720.96	31134.04
721.303	31087.94
721.646	31247.03
721.989	30922.75
722.331	31137.2
722.674	30918.68
723.016	30972.69
723.359	30765.46
723.701	30963.2
724.044	30807.72
724.386	30650.89
724.729	30874.84
725.071	30587.16
725.413	30668.97
725.755	30563.21
726.097	30430.78
726.439	30361.86
726.782	30356.89
727.124	30537.9
727.465	30226.72
727.807	30243.44
728.149	30181.97
728.491	30125.25
728.833	30077.57
729.175	30018.59
729.516	29970.91
729.858	29962.09
730.199	30050.45
730.541	29945.6
730.882	29869.21
731.224	29840.74
731.565	29656.56
731.906	29697.47
732.248	29698.82
732.589	29572.05
732.93	29433.75
733.271	29486.4
733.612	29549.9
733.953	29584.48
734.294	29321.88
734.635	29304.03
734.976	29575.66
735.317	29186.52
735.658	29138.84
735.999	29300.64
736.339	29069.46
736.68	29282.11
737.021	29108.1
737.361	28943.14
737.702	29084.6
738.042	28886.87
738.383	29040.76
738.723	28942.46
739.063	28856.81
739.404	28918.96
739.744	28867.89
740.084	28577.72
740.424	28816.13
740.764	28767.1
741.104	28721
741.444	28530.94
741.784	28507.67
742.124	28565.07
742.464	28568.01
742.804	28493.88
743.143	28384.96
743.483	28421.57
743.823	28249.14
744.162	28283.49
744.502	28181.8
744.841	28264.74
745.181	28204.85
745.52	28112.42
745.86	28151.97
746.199	28073.56
746.538	28017.51
746.877	28082.59
747.216	28037.17
747.556	27978.19
747.895	28042.37
748.234	27818.42
748.573	27837.86
748.911	27687.8
749.25	27800.79
749.589	27587.01
749.928	27621.36
750.267	27637.86
750.605	27628.37
750.944	27576.62
751.283	27361.71
751.621	27446.68
751.96	27300.24
752.298	27236.52
752.636	27249.4
752.975	27124.88
753.313	27133.47
753.651	27227.48
753.989	27047.82
754.327	27033.58
754.666	26865.45
755.004	26895.96
755.342	26963.75
755.679	26870.2
756.017	26701.39
756.355	26678.79
756.693	26639.7
757.031	26635.63
757.368	26487.38
757.706	26505.69
758.044	26493.03
758.381	26429.53
758.719	26336.88
759.056	26409.64
759.394	26305.47
759.731	26052.14
760.068	25877.46
760.405	25963.1
760.743	25879.04
761.08	25908.64
761.417	25768.53
761.754	25733.5
762.091	25632.26
762.428	25576.22
762.765	25367.19
763.102	25442.21
763.438	25288.09
763.775	25192.73
764.112	25122.45
764.449	25297.58
764.785	25011.04
765.122	24916.12
765.458	24893.07
765.795	24683.14
766.131	24770.14
766.467	24610.14
766.804	24469.13
767.14	24464.84
767.476	24501.67
767.812	24396.36
768.148	24378.06
768.485	24166.54
768.821	24150.95
769.157	24111.4
769.492	24037.96
769.828	23935.81
770.164	23735.59
770.5	23868.92
770.836	23723.84
771.171	23568.14
771.507	23552.09
771.842	23414.92
772.178	23323.17
772.513	23298.54
772.849	23211.54
773.184	23057.64
773.519	23169.96
773.855	23028.49
774.19	22816.29
774.525	22782.4
774.86	22806.12
775.195	22701.72
775.53	22632.12
775.865	22475.51
776.2	22353.25
776.535	22199.59
776.87	22236.87
777.205	22153.49
777.539	22067.84
777.874	22101.51
778.209	21974.96
778.543	21944
778.878	21725.02
779.212	21616.32
779.547	21485.48
779.881	21644.12
780.215	21447.52
780.55	21505.59
780.884	21338.37
781.218	21280.74
781.552	21149.67
781.886	21198.71
782.22	21071.48
782.554	21101.08
782.888	20706.97
783.222	20744.48
783.556	20615.9
783.889	20620.87
784.223	20395.34
784.557	20326.64
784.89	20471.95
785.224	20237.38
785.557	20259.3
785.891	20167.55
786.224	20079.87
786.558	20013.65
786.891	19888.91
787.224	19855.24
787.557	19732.53
787.891	19756.03
788.224	19761.46
788.557	19711.06
788.89	19649.82
789.223	19578.64
789.556	19483.72
789.888	19447.79
790.221	19297.97
790.554	19207.8
790.887	19269.72
791.219	19191.98
791.552	19046
791.884	18984.76
792.217	18934.81
792.549	18848.94
792.882	18723.07
793.214	18664.54
793.546	18656.4
793.879	18615.27
794.211	18416.41
794.543	18450.98
794.875	18428.84
795.207	18492.11
795.539	18303.87
795.871	18425.45
796.203	18118.79
796.535	18006.02
796.867	18064.55
797.198	17970.09
797.53	17948.4
797.862	17835.18
798.193	17884.67
798.525	17696.88
798.856	17793.83
799.188	17562.19
799.519	17535.3
799.85	17419.15
800.182	17405.59
800.513	17429.54
800.844	17229.77
801.175	17302.77
801.506	17277.68
801.837	17287.4
802.168	17241.75
802.499	17142.77
802.83	17080.85
803.161	17041.98
803.491	17045.37
803.822	16966.73
804.153	16878.37
804.483	16751.59
804.814	16601.77
805.145	16660.07
805.475	16713.18
805.805	16664.59
806.136	16519.96
806.466	16568.32
806.796	16478.38
807.126	16353.41
807.457	16376.69
807.787	16366.07
808.117	16258.05
808.447	16202.68
808.777	16217.37
809.107	16179.18
809.436	16149.12
809.766	16082.46
810.096	15986.42
810.426	16002.69
810.755	15867.77
811.085	15888.57
811.414	15805.18
811.744	15718.85
812.073	15717.27
812.403	15707.55
812.732	15621.23
813.061	15566.99
813.39	15457.62
813.719	15475.02
814.049	15605.41
814.378	15550.95
814.707	15405.19
815.036	15453.32
815.365	15327.9
815.693	15201.35
816.022	15162.48
816.351	15176.27
816.68	15145.08
817.008	15154.57
817.337	15035.25
817.665	15002.94
817.994	15014.69
818.322	14933.11
818.651	14908.03
818.979	14798.42
819.307	14869.16
819.636	14822.6
819.964	14770.63
820.292	14780.35
820.62	14811.76
820.948	14646.56
821.276	14773.34
821.604	14664.64
821.932	14779.44
822.259	14759.1
822.587	14669.16
822.915	14644.53
823.243	14698.54
823.57	14719.33
823.898	14715.71
824.225	14710.29
824.553	14670.74
824.88	14646.11
825.207	14631.2
825.535	14684.3
825.862	14602.95
826.189	14620.8
826.516	14634.36
826.843	14703.29
827.17	14619.9
827.497	14733.34
827.824	14681.14
828.151	14720.23
828.478	14669.16
828.805	14704.42
829.131	14632.33
829.458	14649.73
829.785	14523.86
830.111	14604.08
830.438	14629.62
830.764	14663.96
831.09	14668.26
831.417	14489.96
831.743	14666
832.069	14641.82
832.395	14473.24
832.722	14534.25
833.048	14474.82
833.374	14451.54
833.7	14485.66
834.026	14404.99
834.351	14518.43
834.677	14522.95
835.003	14463.74
835.329	14533.8
835.654	14441.6
835.98	14365.44
836.306	14366.8
836.631	14319.12
836.956	14369.96
837.282	14354.59
837.607	14274.14
837.932	14292.45
838.258	14217.87
838.583	14212
838.908	14168.84
839.233	14083.42
839.558	14147.37
839.883	14114.15
840.208	14025.56
840.533	14085.45
840.858	14004.32
841.182	13996.19
841.507	13939.92
841.832	13905.34
842.156	13954.38
842.481	13873.93
842.805	13812.91
843.13	13815.85
843.454	13794.16
843.778	13730.2
844.103	13693.59
844.427	13686.82
844.751	13711.9
845.075	13573.6
845.399	13598.91
845.723	13478.23
846.047	13552.81
846.371	13400.5
846.695	13417.9
847.019	13362.76
847.343	13191.91
847.666	13230.78
847.99	13104.68
848.313	13164.34
848.637	13106.04
848.96	13004.8
849.284	13025.36
849.607	12880.51
849.931	12803.9
850.254	12769.1
850.577	12759.61
850.9	12630.12
851.223	12638.93
851.546	12573.4
851.869	12469.45
852.192	12647.97
852.515	12429.22
852.838	12388.77
853.161	12368.43
853.483	12326.85
853.806	12312.16
854.129	12259.73
854.451	12219.06
854.774	12075.56
855.096	12126.63
855.419	12096.8
855.741	12018.61
856.063	11971.15
856.385	11917.6
856.708	11861.78
857.03	11880.08
857.352	11902
857.674	11821.33
857.996	11783.36
858.318	11718.51
858.64	11687.77
858.961	11671.73
859.283	11683.25
859.605	11507.44
859.926	11655.91
860.248	11576.81
860.57	11513.99
860.891	11508.57
861.212	11499.53
861.534	11415.91
861.855	11401.45
862.176	11312.87
862.498	11314.22
862.819	11356.48
863.14	11397.16
863.461	11330.04
863.782	11247.56
864.103	11246.43
864.424	11236.48
864.745	11267.22
865.065	11223.6
865.386	11096.6
865.707	11074.68
866.027	11122.36
866.348	11049.6
866.668	11066.77
866.989	11065.87
867.309	10923.72
867.63	10991.07
867.95	11030.61
868.27	10880.11
868.59	11004.85
868.91	10987.68
869.23	10867
869.55	10882.82
869.87	10902.03
870.19	10935.48
870.51	10945.64
870.83	10887.34
871.15	10799.89
871.469	10795.59
871.789	10784.07
872.109	10826.55
872.428	10657.97
872.748	10742.26
873.067	10672.21
873.386	10681.24
873.706	10677.4
874.025	10577.74
874.344	10586.11
874.663	10621.36
874.982	10571.87
875.301	10595.15
875.62	10570.74
875.939	10497.75
876.258	10495.49
876.577	10450.29
876.896	10514.24
877.214	10462.72
877.533	10499.1
877.852	10387.24
878.17	10443.51
878.489	10419.56
878.807	10371.87
879.125	10360.8
879.444	10327.13
879.762	10330.29
880.08	10344.76
880.398	10222.73
880.716	10252.56
881.034	10238.77
881.352	10300.01
881.67	10260.92
881.988	10150.19
882.306	10201.71
882.624	10120.36
882.941	10122.62
883.259	10069.51
883.577	10045.1
883.894	10009.85
884.212	10007.14
884.529	10009.17
884.846	10000.58
885.164	9922.17
885.481	9883.53
885.798	9860.93
886.115	9809.4
886.432	9873.81
886.75	9824.77
887.067	9846.24
887.383	9773.25
887.7	9728.5
888.017	9656.86
888.334	9720.82
888.651	9689.86
888.967	9687.82
889.284	9642.4
889.6	9633.14
889.917	9504.78
890.233	9585.45
890.55	9435.4
890.866	9523.99
891.182	9469.07
891.498	9476.08
891.815	9500.48
892.131	9481.73
892.447	9372.8
892.763	9435.18
893.079	9337.33
893.395	9317.89
893.71	9265.24
894.026	9260.94
894.342	9202.64
894.657	9139.59
894.973	9194.28
895.289	9187.5
895.604	9124.9
895.92	9084.22
896.235	8999.71
896.55	9028.63
896.865	8971.01
897.181	8948.86
897.496	8912.03
897.811	8876.77
898.126	8842.87
898.441	8787.51
898.756	8808.3
899.071	8754.97
899.386	8759.71
899.7	8690.11
900.015	8729.43
900.33	8587.06
900.644	8494.18
900.959	8587.29
901.273	8538.93
901.588	8447.63
901.902	8517.01
902.216	8353.85
902.531	8428.42
902.845	8378.25
903.159	8284.25
903.473	8284.02
903.787	8326.28
904.101	8242.21
904.415	8297.13
904.729	8148.66
905.042	8101.2
905.356	8091.26
905.67	8168.09
905.984	8106.62
906.297	8089.45
906.611	8084.93
906.924	8030.24
907.237	7967.64
907.551	7933.07
907.864	7843.58
908.177	7902.79
908.491	7854.2
908.804	7788.89
909.117	7759.06
909.43	7745.05
909.743	7685.62
910.056	7681.55
910.368	7624.83
910.681	7591.61
910.994	7574.89
911.307	7582.57
911.619	7517.03
911.932	7490.37
912.244	7442.23
912.557	7474.1
912.869	7380.09
913.181	7393.2
913.494	7350.26
913.806	7274.78
914.118	7291.73
914.43	7274.33
914.742	7168.12
915.054	7222.13
915.366	7193.2
915.678	7175.8
915.99	7116.14
916.302	7061.23
916.613	6991.17
916.925	6988.91
917.236	7033.43
917.548	6963.83
917.859	6990.04
918.171	6918.86
918.482	6892.42
918.794	6850.38
919.105	6846.54
919.416	6787.56
919.727	6746.88
920.038	6790.5
920.349	6765.87
920.66	6693.55
920.971	6703.27
921.282	6685.87
921.593	6632.99
921.903	6587.34
922.214	6518.87
922.525	6524.52
922.835	6483.61
923.146	6481.13
923.456	6494.01
923.767	6353
924.077	6350.29
924.387	6326.33
924.697	6273
925.008	6336.73
925.318	6271.42
925.628	6264.64
925.938	6239.78
926.248	6225.77
926.558	6181.02
926.867	6129.95
927.177	6115.94
927.487	6120.01
927.796	6005.66
928.106	5996.62
928.416	5997.53
928.725	5985.55
929.034	5950.3
929.344	5947.36
929.653	5929.05
929.962	5873.91
930.271	5835.95
930.581	5844.31
930.89	5783.97
931.199	5753.92
931.508	5709.17
931.817	5707.82
932.125	5726.57
932.434	5673.24
932.743	5667.82
933.051	5583.07
933.36	5590.3
933.669	5561.38
933.977	5544.2
934.286	5558.22
934.594	5538.78
934.902	5479.12
935.21	5456.98
935.519	5450.42
935.827	5457.2
936.135	5354.38
936.443	5362.06
936.751	5349.86
937.059	5313.02
937.367	5275.51
937.674	5251.33
937.982	5270.09
938.29	5247.26
938.597	5236.64
938.905	5161.62
939.213	5200.48
939.52	5161.62
939.827	5170.66
940.135	5165.68
940.442	5130.88
940.749	5092.24
941.056	5069.19
941.363	4992.35
941.67	4976.54
941.977	4973.37
942.284	4928.4
942.591	4938.8
942.898	4913.26
943.205	4915.75
943.511	4848.86
943.818	4843.43
944.125	4825.35
944.431	4801.17
944.738	4818.8
945.044	4772.02
945.35	4757.56
945.657	4745.13
945.963	4697.9
946.269	4652.02
946.575	4669.2
946.881	4623.55
947.187	4623.1
947.493	4573.16
947.799	4571.8
948.105	4588.07
948.41	4525.47
948.716	4532.71
949.022	4516.21
949.327	4485.93
949.633	4424.69
949.938	4468.07
950.244	4436.44
950.549	4380.62
950.854	4386.27
951.16	4409.09
951.465	4348.53
951.77	4333.39
952.075	4318.25
952.38	4280.06
952.685	4285.03
952.99	4245.48
953.294	4212.26
953.599	4206.16
953.904	4194.18
954.209	4157.8
954.513	4193.96
954.818	4085.49
955.122	4141.98
955.426	4119.84
955.731	4061.76
956.035	4037.13
956.339	4085.26
956.643	3997.8
956.948	4028.09
957.252	4009.56
957.556	4028.76
957.86	3973.4
958.163	3993.96
958.467	3946.96
958.771	3956
959.075	3905.15
959.378	3839.39
959.682	3912.16
959.985	3841.2
960.289	3844.59
960.592	3812.05
960.896	3803.91
961.199	3800.07
961.502	3779.96
961.805	3741.77
962.108	3726.4
962.411	3699.96
962.714	3708.32
963.017	3722.11
963.32	3682.33
963.623	3645.95
963.926	3659.28
964.228	3651.15
964.531	3604.37
964.833	3610.92
965.136	3601.2
965.438	3565.73
965.741	3561.66
966.043	3532.51
966.345	3525.27
966.648	3513.75
966.95	3447.31
967.252	3469.91
967.554	3489.8
967.856	3472.62
968.158	3433.53
968.46	3398.05
968.761	3423.58
969.063	3417.25
969.365	3352.17
969.666	3386.75
969.968	3327.31
970.269	3305.17
970.571	3317.37
970.872	3317.82
971.174	3262.23
971.475	3278.95
971.776	3267.88
972.077	3246.64
972.378	3255.9
972.679	3213.87
972.98	3202.8
973.281	3188.56
973.582	3144.04
973.883	3135.45
974.183	3165.96
974.484	3122.12
974.785	3096.13
975.085	3088.68
975.386	3123.7
975.686	3078.73
975.986	3054.1
976.287	3037.38
976.587	3057.04
976.887	3002.35
977.187	3003.93
977.487	3044.38
977.787	2979.3
978.087	2981.56
978.387	2958.74
978.687	2942.92
978.987	2935.91
979.286	2899.98
979.586	2928.68
979.885	2867.66
980.185	2877.83
980.484	2848.23
980.784	2874.44
981.083	2821.34
981.382	2844.61
981.682	2840.09
981.981	2780.21
982.28	2782.92
982.579	2751.28
982.878	2758.29
983.177	2741.11
983.475	2740.44
983.774	2710.83
984.073	2724.39
984.372	2691.4
984.67	2681.23
984.969	2706.09
985.267	2681.68
985.566	2670.16
985.864	2643.94
986.162	2676.26
986.461	2643.49
986.759	2593.77
987.057	2581.12
987.355	2588.8
987.653	2587.45
987.951	2586.54
988.249	2560.78
988.547	2553.55
988.844	2532.53
989.142	2505.87
989.44	2492.76
989.737	2534.79
990.035	2487.56
990.332	2483.95
990.63	2451.4
990.927	2467.45
991.224	2464.29
991.521	2433.55
991.819	2433.55
992.116	2384.29
992.413	2376.15
992.71	2391.75
993.006	2376.83
993.303	2353.78
993.6	2324.63
993.897	2330.28
994.193	2346.1
994.49	2297.28
994.787	2295.48
995.083	2303.16
995.379	2311.52
995.676	2283.95
995.972	2232.88
996.268	2262.93
996.565	2224.29
996.861	2242.37
997.157	2213.44
997.453	2205.76
997.749	2196.72
998.044	2218.87
998.34	2176.61
998.636	2153.11
998.932	2166.67
999.227	2148.81
999.523	2124.86
999.818	2116.72
1000.114	2112.2
1000.409	2101.58
1000.704	2058.19
1001	2094.13
1001.295	2080.34
1001.59	2052.77
1001.885	2020
1002.18	2008.25
1002.475	1999.66
1002.77	2001.47
1003.065	1992.21
1003.359	1985.88
1003.654	1975.71
1003.949	1957.41
1004.243	1955.6
1004.538	1932.1
1004.832	1922.83
1005.127	1907.46
1005.421	1928.25
1005.715	1875.83
1006.009	1907.01
1006.304	1912.89
1006.598	1877.86
1006.892	1864.98
1007.186	1859.1
1007.48	1839.44
1007.773	1848.48
1008.067	1813.68
1008.361	1795.15
1008.655	1826.11
1008.948	1810.29
1009.242	1758.99
1009.535	1785.43
1009.829	1760.12
1010.122	1759.9
1010.415	1760.8
1010.708	1731.42
1011.001	1716.73
1011.295	1708.6
1011.588	1689.16
1011.881	1681.48
1012.173	1689.39
1012.466	1656.4
1012.759	1693.01
1013.052	1684.64
1013.344	1660.01
1013.637	1647.81
1013.93	1638.77
1014.222	1623.63
1014.514	1617.75
1014.807	1594.03
1015.099	1570.3
1015.391	1574.37
1015.683	1599.9
1015.976	1551.54
1016.268	1575.95
1016.56	1551.99
1016.851	1526.01
1017.143	1535.04
1017.435	1540.92
1017.727	1511.99
1018.018	1499.79
1018.31	1496.4
1018.602	1488.49
1018.893	1474.93
1019.185	1453.24
1019.476	1452.33
1019.767	1436.29
1020.058	1446.69
1020.35	1406.69
1020.641	1407.14
1020.932	1416.18
1021.223	1380.25
1021.514	1378.89
1021.804	1387.48
1022.095	1388.38
1022.386	1384.09
1022.677	1342.06
1022.967	1336.86
1023.258	1351.55
1023.548	1323.07
1023.839	1304.99
1024.129	1300.7
1024.419	1274.94
1024.709	1305.9
1025	1311.1
1025.29	1261.38
1025.58	1251.21
1025.87	1258.22
1026.16	1243.07
1026.449	1272
1026.739	1238.78
1027.029	1227.26
1027.319	1221.83
1027.608	1198.78
1027.898	1210.08
1028.187	1215.05
1028.477	1220.25
1028.766	1173.02
1029.055	1187.93
1029.344	1154.72
1029.634	1175.96
1029.923	1152.91
1030.212	1158.11
1030.501	1154.49
1030.79	1133.7
1031.078	1127.15
1031.367	1127.6
1031.656	1121.27
1031.945	1117.2
1032.233	1109.07
1032.522	1090.31
1032.81	1082.4
1033.099	1083.76
1033.387	1083.3
1033.675	1065.23
1033.963	1080.82
1034.251	1057.99
1034.54	1045.79
1034.828	1030.65
1035.116	1014.15
1035.403	1037.2
1035.691	1017.32
1035.979	992.69
1036.267	1010.76
1036.554	1003.53
1036.842	985
1037.129	979.58
1037.417	989.07
1037.704	1002.18
1037.992	966.92
1038.279	965.34
1038.566	953.14
1038.853	953.14
1039.14	953.14
