Data from hue_20_FLMS001491_33.txt Node
Date: Mon Feb 06 15:33:58 GMT 2017
User: dcchb
Spectrometer: FLMS00149
Trigger mode: 0
Integration Time (sec): 2.000000E-2
Scans to average: 10
Electric dark correction enabled: true
Nonlinearity correction enabled: false
Boxcar width: 0
XAxis mode: Wavelengths
Number of Pixels in Spectrum: 2048
>>>>>Begin Spectral Data<<<<<
341.393	-10.88
341.776	-10.88
342.16	-10.88
342.543	-50.2
342.927	-51.78
343.31	-73.7
343.693	-67.15
344.077	-69.4
344.46	-65.79
344.843	-53.59
345.226	-48.84
345.61	-32.8
345.993	-23.08
346.376	17.82
346.759	2.68
347.142	23.93
347.525	31.16
347.908	77.26
348.291	79.74
348.674	101.44
349.057	100.31
349.44	110.93
349.823	146.18
350.206	168.55
350.588	184.6
350.971	192.96
351.354	204.03
351.737	254.88
352.119	251.49
352.502	237.25
352.884	263.24
353.267	283.35
353.65	278.16
354.032	326.74
354.414	315.22
354.797	315.22
355.179	304.37
355.562	312.73
355.944	328.32
356.326	333.97
356.709	332.84
357.091	329.68
357.473	348.89
357.855	329.91
358.238	342.56
358.62	345.27
359.002	322.22
359.384	335.1
359.766	337.82
360.148	335.1
360.53	348.66
360.912	354.09
361.294	347.76
361.676	333.75
362.057	334.65
362.439	329.23
362.821	309.79
363.203	322.22
363.584	318.38
363.966	316.57
364.348	324.48
364.729	331.49
365.111	315.67
365.493	314.54
365.874	314.54
366.256	310.7
366.637	317.93
367.019	315.44
367.4	314.54
367.781	309.79
368.163	331.94
368.544	306.63
368.925	304.6
369.306	300.08
369.688	311.83
370.069	293.75
370.45	316.8
370.831	310.47
371.212	289.68
371.593	307.53
371.974	328.55
372.355	298.72
372.736	316.35
373.117	318.16
373.498	302.34
373.879	322.68
374.26	297.59
374.641	314.54
375.021	317.03
375.402	311.83
375.783	307.99
376.163	341.66
376.544	311.6
376.925	334.2
377.305	314.77
377.686	312.05
378.066	318.83
378.447	329
378.827	313.18
379.208	329.45
379.588	310.02
379.968	331.94
380.349	320.42
380.729	336.69
381.109	316.57
381.489	329
381.87	324.93
382.25	329.91
382.63	333.3
383.01	334.43
383.39	356.8
383.77	340.08
384.15	314.31
384.53	338.27
384.91	317.93
385.29	330.81
385.67	351.37
386.049	348.44
386.429	347.08
386.809	344.6
387.189	336.46
387.568	329.68
387.948	381.43
388.328	346.86
388.707	366.97
389.087	356.57
389.466	377.81
389.846	350.7
390.225	366.52
390.605	373.97
390.984	358.15
391.363	365.16
391.743	340.53
392.122	369.23
392.501	352.28
392.881	364.26
393.26	351.6
393.639	360.87
394.018	369.23
394.397	364.48
394.776	361.54
395.155	362
395.534	357.7
395.913	345.95
396.292	370.81
396.671	352.5
397.05	369.45
397.429	363.35
397.808	350.47
398.186	372.39
398.565	377.36
398.944	373.52
399.323	374.43
399.701	392.28
400.08	377.81
400.458	389.79
400.837	391.15
401.215	405.16
401.594	393.63
401.972	378.27
402.351	388.21
402.729	387.98
403.107	389.79
403.486	389.11
403.864	404.48
404.242	390.7
404.62	385.27
404.999	401.54
405.377	394.09
405.755	406.51
406.133	406.06
406.511	394.31
406.889	393.63
407.267	411.26
407.645	420.53
408.023	428.89
408.401	422.33
408.779	387.76
409.156	437.25
409.534	412.39
409.912	416.91
410.29	429.11
410.667	421.43
411.045	446.29
411.422	433.18
411.8	420.3
412.178	423.69
412.555	449.68
412.933	460.3
413.31	454.88
413.687	447.19
414.065	431.15
414.442	446.06
414.819	455.33
415.197	455.33
415.574	445.84
415.951	464.14
416.328	472.73
416.705	448.1
417.082	471.15
417.46	441.32
417.837	471.82
418.214	464.37
418.591	475.44
418.967	471.37
419.344	483.12
419.721	484.48
420.098	463.01
420.475	488.09
420.852	502.78
421.228	477.02
421.605	479.51
421.982	503.69
422.358	488.32
422.735	501.43
423.111	475.44
423.488	484.25
423.864	511.37
424.241	494.65
424.617	511.37
424.994	505.27
425.37	507.76
425.746	502.78
426.123	505.95
426.499	522.44
426.875	515.44
427.251	504.37
427.627	531.71
428.003	526.51
428.379	533.52
428.756	540.97
429.132	559.28
429.507	565.38
429.883	569.45
430.259	564.02
430.635	564.93
431.011	571.48
431.387	583.23
431.763	565.83
432.138	581.65
432.514	561.09
432.89	591.14
433.265	584.59
433.641	585.72
434.016	595.66
434.392	610.35
434.767	621.2
435.143	630.01
435.518	600.86
435.894	614.42
436.269	618.03
436.644	623.91
437.02	630.24
437.395	646.51
437.77	613.97
438.145	626.4
438.52	651.93
438.895	632.72
439.271	651.48
439.646	668.2
440.021	658.49
440.395	660.07
440.77	652.16
441.145	653.97
441.52	674.53
441.895	683.57
442.27	710.91
442.645	676.56
443.019	695.32
443.394	686.96
443.769	703.23
444.143	699.61
444.518	704.36
444.892	695.09
445.267	700.97
445.641	710.01
446.016	718.14
446.39	715.21
446.764	698.26
447.139	711.59
447.513	716.56
447.887	717.69
448.262	723.57
448.636	733.51
449.01	733.74
449.384	738.94
449.758	752.04
450.132	759.5
450.506	783.68
450.88	755.88
451.254	770.57
451.628	749.33
452.002	745.71
452.376	731.93
452.75	768.99
453.123	796.33
453.497	797.69
453.871	820.97
454.244	807.63
454.618	791.59
454.992	825.71
455.365	828.2
455.739	849.67
456.112	847.41
456.486	834.98
456.859	843.57
457.232	852.15
457.606	865.03
457.979	860.97
458.352	875.43
458.725	896.22
459.099	894.64
459.472	928.99
459.845	897.58
460.218	923.56
460.591	926.73
460.964	939.83
461.337	955.43
461.71	977.8
462.083	948.2
462.456	968.53
462.829	959.72
463.201	1013.96
463.574	1003.56
463.947	1017.12
464.32	1019.61
464.692	1053.05
465.065	1021.64
465.438	1027.06
465.81	1050.57
466.183	1072.71
466.555	1102.99
466.928	1087.85
467.3	1090.79
467.672	1101.19
468.045	1112.26
468.417	1137.12
468.789	1158.36
469.161	1179.83
469.534	1196.55
469.906	1215.31
470.278	1227.28
470.65	1213.95
471.022	1268.64
471.394	1290.11
471.766	1276.55
472.138	1291.24
472.51	1306.38
472.882	1331.24
473.253	1358.13
473.625	1383.21
473.997	1417.11
474.369	1396.55
474.74	1424.57
475.112	1442.87
475.484	1478.8
475.855	1481.97
476.227	1514.06
476.598	1553.6
476.97	1572.59
477.341	1567.61
477.713	1640.83
478.084	1646.93
478.455	1661.4
478.827	1720.38
479.198	1745.46
479.569	1778.91
479.94	1832.01
480.311	1841.28
480.682	1856.65
481.053	1877.89
481.424	1941.16
481.795	1945.23
482.166	1982.74
482.537	2037.88
482.908	2071.56
483.279	2092.12
483.65	2104.32
484.021	2149.52
484.391	2189.52
484.762	2199.01
485.133	2250.99
485.503	2287.6
485.874	2332.57
486.244	2372.11
486.615	2447.14
486.985	2430.19
487.356	2508.38
487.726	2502.96
488.097	2555.84
488.467	2587.02
488.837	2621.82
489.207	2663.18
489.578	2713.12
489.948	2709.96
490.318	2784.98
490.688	2794.47
491.058	2853.91
491.428	2892.55
491.798	2938.65
492.168	3022.04
492.538	2988.14
492.908	3030.17
493.278	3073.56
493.648	3099.1
494.017	3142.71
494.387	3163.28
494.757	3176.84
495.126	3210.28
495.496	3252.09
495.866	3254.8
496.235	3301.13
496.605	3336.83
496.974	3335.93
497.344	3375.48
497.713	3424.06
498.082	3457.51
498.452	3479.43
498.821	3540.22
499.19	3555.36
499.559	3541.57
499.928	3573.21
500.298	3611.18
500.667	3629.03
501.036	3606.88
501.405	3711.96
501.774	3692.76
502.143	3729.59
502.512	3704.96
502.88	3790.15
503.249	3765.07
503.618	3795.35
503.987	3789.48
504.356	3827.67
504.724	3848.23
505.093	3834.67
505.462	3898.85
505.83	3902.69
506.199	3947.44
506.567	3991.28
506.936	4026.53
507.304	4015.91
507.672	4063.82
508.041	4079.86
508.409	4052.07
508.777	4117.15
509.145	4102.24
509.514	4127.32
509.882	4168.9
510.25	4151.05
510.618	4213.42
510.986	4193.99
511.354	4201.67
511.722	4279.63
512.09	4280.31
512.458	4250.03
512.826	4338.84
513.193	4311.72
513.561	4360.31
513.929	4374.32
514.297	4353.53
514.664	4396.92
515.032	4370.93
515.4	4418.16
515.767	4400.53
516.135	4477.14
516.502	4475.79
516.869	4480.31
517.237	4471.49
517.604	4493.64
517.972	4579.06
518.339	4558.04
518.706	4596.69
519.073	4579.06
519.44	4591.04
519.808	4630.13
520.175	4634.43
520.542	4671.49
520.909	4685.05
521.276	4696.12
521.643	4737.93
522.009	4753.52
522.376	4749.45
522.743	4764.59
523.11	4823.12
523.477	4878.94
523.843	4798.94
524.21	4869
524.577	4924.36
524.943	4894.08
525.31	4975.89
525.676	5036
526.043	4977.24
526.409	5071.7
526.776	5146.96
527.142	5148.76
527.508	5131.14
527.874	5180.85
528.241	5161.64
528.607	5245.94
528.973	5239.38
529.339	5248.87
529.705	5239.16
530.071	5348.76
530.437	5320.51
530.803	5368.87
531.169	5419.94
531.535	5385.82
531.901	5395.99
532.267	5422.88
532.632	5524.12
532.998	5489.32
533.364	5535.42
533.73	5495.87
534.095	5561.86
534.461	5576.32
534.826	5640.28
535.192	5577.9
535.557	5666.04
535.923	5646.38
536.288	5684.12
536.653	5738.58
537.019	5700.39
537.384	5783.32
537.749	5761.18
538.114	5792.81
538.479	5817.45
538.845	5860.16
539.21	5821.97
539.575	5840.5
539.94	5894.96
540.305	5969.76
540.67	5941.96
541.034	5959.82
541.399	5993.49
541.764	6053.82
542.129	6060.6
542.494	6040.72
542.858	6094.05
543.223	6147.83
543.587	6116.65
543.952	6104.9
544.316	6181.5
544.681	6183.54
545.045	6182.18
545.41	6282.52
545.774	6283.2
546.138	6306.02
546.503	6306.02
546.867	6327.04
547.231	6387.83
547.595	6437.32
547.959	6419.24
548.324	6463.53
548.688	6430.76
549.052	6480.93
549.416	6519.8
549.779	6506.69
550.143	6537.2
550.507	6597.99
550.871	6584.21
551.235	6556.18
551.599	6652
551.962	6674.6
552.326	6710.53
552.689	6695.84
553.053	6636.18
553.417	6729.06
553.78	6802.28
554.143	6721.15
554.507	6802.5
554.87	6779.45
555.234	6929.51
555.597	6846.57
555.96	6844.54
556.323	6886.34
556.686	6879.56
557.05	6951.43
557.413	6936.96
557.776	7000.92
558.139	7001.6
558.502	7025.32
558.865	7082.05
559.228	7128.37
559.59	7148.94
559.953	7136.51
560.316	7200.46
560.679	7200.69
561.041	7243.17
561.404	7307.35
561.767	7287.69
562.129	7281.14
562.492	7323.85
562.854	7354.13
563.217	7393.22
563.579	7349.16
563.941	7403.17
564.304	7428.25
564.666	7490.4
565.028	7435.48
565.39	7499.89
565.753	7594.12
566.115	7548.7
566.477	7596.38
566.839	7628.02
567.201	7658.3
567.563	7626.66
567.925	7748.69
568.287	7746.89
568.648	7775.81
569.01	7806.77
569.372	7850.39
569.734	7771.29
570.095	7902.14
570.457	7959.31
570.819	7997.05
571.18	7991.63
571.542	8048.57
571.903	8102.58
572.265	8105.75
572.626	8135.13
572.987	8223.26
573.349	8252.18
573.71	8226.42
574.071	8306.87
574.432	8325.4
574.794	8442.24
575.155	8447.89
575.516	8439.07
575.877	8522.69
576.238	8627.54
576.599	8669.12
576.96	8700.08
577.32	8786.63
577.681	8808.33
578.042	8913.64
578.403	8977.81
578.763	9034.54
579.124	9083.57
579.485	9249.22
579.845	9303.46
580.206	9391.59
580.566	9450.34
580.927	9594.75
581.287	9742.54
581.648	9787.29
582.008	9931.91
582.368	10034.96
582.728	10108.86
583.089	10227.05
583.449	10428.4
583.809	10492.35
584.169	10694.15
584.529	10853.47
584.889	11082.39
585.249	11146.35
585.609	11246.23
585.969	11522.61
586.329	11651.19
586.688	11908.13
587.048	12130.73
587.408	12266.54
587.768	12526.2
588.127	12642.13
588.487	12836.7
588.846	13095.9
589.206	13234.2
589.565	13490.46
589.925	13777.24
590.284	13928.65
590.643	14246.15
591.003	14528.86
591.362	14831.45
591.721	15050.65
592.08	15273.92
592.44	15573.12
592.799	15862.38
593.158	16079.32
593.517	16337.62
593.876	16674.34
594.235	16866.87
594.593	17117.04
594.952	17462.79
595.311	17677.47
595.67	18011.93
596.029	18401.52
596.387	18691.68
596.746	19035.63
597.104	19081.05
597.463	19515.62
597.822	19838.77
598.18	20038.99
598.538	20333
598.897	20715.36
599.255	20743.16
599.613	21484.15
599.972	21517.37
600.33	21885.5
600.688	22036.45
601.046	22429.66
601.404	22690.67
601.762	23014.73
602.12	23382.63
602.478	23558.45
602.836	23858.55
603.194	23894.26
603.552	24309.39
603.91	24556.61
604.268	24840
604.625	25056.49
604.983	25465.74
605.341	25610.6
605.698	25940.98
606.056	26260.3
606.413	26467.75
606.771	26768.31
607.128	27002.2
607.485	27088.98
607.843	27368.97
608.2	27816.87
608.557	28059.35
608.914	28150.87
609.272	28503.4
609.629	28673.34
609.986	29022.26
610.343	29048.25
610.7	29388.58
611.057	29563.04
611.414	29777.95
611.771	30034.21
612.127	30339.74
612.484	30341.77
612.841	30850.46
613.198	30756.23
613.554	31032.38
613.911	31393.95
614.267	31465.59
614.624	31601.63
614.98	31830.32
615.337	32055.4
615.693	32222.4
616.05	32276.86
616.406	32716.85
616.762	32559.57
617.118	32851.09
617.475	32920.91
617.831	33255.14
618.187	33424.4
618.543	33543.72
618.899	33613.33
619.255	34032.75
619.611	34024.61
619.967	34241.56
620.323	34350.03
620.678	34283.36
621.034	34385.28
621.39	34492.62
621.746	34521.78
622.101	34983.68
622.457	34888.32
622.812	35084.02
623.168	35262.32
623.523	35371.47
623.879	35375.31
624.234	35348.42
624.589	35578.25
624.945	35676.1
625.3	35803.1
625.655	35718.35
626.01	35855.07
626.365	35923.55
626.72	36094.16
627.075	36066.37
627.43	36215.97
627.785	36064.56
628.14	36369.64
628.495	36319.24
628.85	36470.43
629.205	36340.94
629.559	36672.68
629.914	36702.28
630.269	36638.33
630.623	36603.3
630.978	36722.85
631.332	36942.28
631.687	36911.77
632.041	36888.72
632.396	36895.5
632.75	36803.75
633.104	36918.32
633.459	36674.71
633.813	36818.44
634.167	36919
634.521	36936.18
634.875	36917.65
635.229	36926.91
635.583	36824.54
635.937	36949.06
636.291	36747.71
636.645	36858.66
636.999	36787.48
637.352	37025.44
637.706	36813.92
638.06	36976.63
638.413	36928.94
638.767	36930.3
639.121	37010.3
639.474	36787.03
639.828	36867.7
640.181	36940.24
640.534	36887.59
640.888	36837.2
641.241	36835.84
641.594	36773.02
641.947	36991.77
642.301	36766.69
642.654	36822.28
643.007	36793.35
643.36	36840.58
643.713	36836.29
644.066	36957.42
644.419	36721.04
644.771	36519.46
645.124	36219.36
645.477	36222.3
645.83	35971.23
646.182	35859.59
646.535	35783.21
646.888	35814.85
647.24	35674.06
647.593	35774.17
647.945	35878.35
648.298	35756.55
648.65	35664.34
649.002	35572.82
649.355	35690.11
649.707	35684.91
650.059	35789.31
650.411	36118.8
650.763	36363.31
651.115	36576.41
651.467	36527.37
651.819	36484.89
652.171	36538.9
652.523	36392.69
652.875	36553.13
653.227	36204.9
653.578	36591.55
653.93	36465.45
654.282	36335.06
654.633	36254.84
654.985	36278.11
655.337	36496.19
655.688	36319.24
656.039	36357.66
656.391	36182.52
656.742	36164.44
657.094	36206.48
657.445	36361.28
657.796	36187.04
658.147	36305.68
658.498	36163.54
658.849	36307.49
659.2	36266.14
659.551	36008.06
659.902	36277.89
660.253	36093.49
660.604	36271.56
660.955	36036.09
661.306	36232.24
661.656	36039.25
662.007	36215.06
662.358	36229.53
662.708	36086.93
663.059	36179.59
663.409	35888.07
663.76	36080.38
664.11	36123.77
664.461	36113.15
664.811	36179.13
665.161	36167.83
665.511	36014.84
665.862	36025.92
666.212	36092.36
666.562	36179.59
666.912	36022.3
667.262	35837.67
667.612	36050.32
667.962	36126.48
668.312	35983.21
668.662	36214.61
669.011	36008.97
669.361	36083.09
669.711	36093.03
670.06	35940.72
670.41	35923.32
670.76	35906.6
671.109	36094.16
671.459	35999.25
671.808	35803.55
672.157	35991.34
672.507	35799.93
672.856	35826.6
673.205	35797.22
673.554	35979.59
673.904	35737.79
674.253	35986.14
674.602	35807.39
674.951	35336.22
675.3	35231.59
675.649	35801.29
675.998	35843.1
676.346	35643.1
676.695	35771.23
677.044	35485.59
677.393	35731.91
677.741	35713.83
678.09	35466.84
678.438	35486.72
678.787	35487.63
679.135	35505.93
679.484	35310.68
679.832	35465.48
680.181	35270
680.529	35482.43
680.877	35305.03
681.225	35236.79
681.573	35509.77
681.922	35288.08
682.27	35051.71
682.618	35046.06
682.966	34908.66
683.314	35014.42
683.661	34929.9
684.009	34829.11
684.357	34805.16
684.705	34709.57
685.053	34740.53
685.4	34646.74
685.748	34486.52
686.095	34566.52
686.443	34394.32
686.79	34414.66
687.138	34463.02
687.485	34455.56
687.832	34330.37
688.18	34353.87
688.527	34160.88
688.874	34225.29
689.221	34038.62
689.568	34058.51
689.915	33944.62
690.262	33981.45
690.609	33976.71
690.956	33690.16
691.303	33736.49
691.65	33625.75
691.997	33511.86
692.344	33252.2
692.69	33306.21
693.037	33360.22
693.383	33055.15
693.73	33273.22
694.077	33050.18
694.423	33079.78
694.769	32860.58
695.116	32794.82
695.462	32789.84
695.808	32702.16
696.155	32795.04
696.501	32503.3
696.847	32507.82
697.193	32271.44
697.539	32380.14
697.885	32158
698.231	32083.65
698.577	32088.17
698.923	31961.62
699.269	31923.43
699.614	31717.33
699.96	31580.84
700.306	31673.72
700.651	31573.6
700.997	31407.96
701.342	31231.24
701.688	31298.58
702.033	31160.96
702.379	31310.33
702.724	31011.13
703.069	31116.67
703.415	30854.98
703.76	30791.7
704.105	30928.88
704.45	30820.86
704.795	30585.16
705.14	30530.02
705.485	30395.56
705.83	30381.77
706.175	30438.49
706.52	30331.15
706.865	30138.61
707.209	30121.89
707.554	30116.47
707.899	30147.65
708.243	29956.25
708.588	29846.19
708.932	29638.06
709.277	29802.8
709.621	29806.87
709.966	29582.92
710.31	29616.37
710.654	29373.21
710.998	29512.19
711.342	29350.84
711.687	29276.26
712.031	29372.53
712.375	29038.76
712.719	29217.06
713.063	29164.4
713.407	29063.16
713.75	28932.77
714.094	28991.07
714.438	28804.64
714.782	29057.06
715.125	28755.37
715.469	28765.77
715.812	28582.05
716.156	28499.56
716.499	28496.62
716.843	28648.48
717.186	28311.54
717.53	28448.94
717.873	28487.58
718.216	28424.76
718.559	28214.15
718.902	28032.46
719.246	28137.76
719.589	28040.36
719.932	27966.02
720.275	27858.22
720.617	27868.39
720.96	27835.62
721.303	27879.46
721.646	27766.25
721.989	27713.14
722.331	27758.79
722.674	27703.88
723.016	27604.67
723.359	27608.29
723.701	27623.2
724.044	27371.23
724.386	27314.51
724.729	27439.7
725.071	27321.51
725.413	27347.5
725.755	27340.5
726.097	27280.38
726.439	27068.19
726.782	27115.19
727.124	27208.97
727.465	26975.53
727.807	26999.26
728.149	27031.8
728.491	26939.15
728.833	26976.44
729.175	26802.43
729.516	26693.96
729.858	26675.43
730.199	26735.99
730.541	26764.92
730.882	26609.44
731.224	26760.17
731.565	26520.63
731.906	26505.49
732.248	26538.48
732.589	26370.35
732.93	26352.73
733.271	26371.48
733.612	26368.09
733.953	26404.25
734.294	26286.06
734.635	26150.24
734.976	26295.33
735.317	26021.66
735.658	26256
735.999	26086.29
736.339	26038.38
736.68	26165.39
737.021	26052.85
737.361	25955
737.702	26017.37
738.042	26025.95
738.383	25799.97
738.723	25919.06
739.063	25844.94
739.404	25829.35
739.744	25731.95
740.084	25689.92
740.424	25646.3
740.764	25625.74
741.104	25809.46
741.444	25569.47
741.784	25395.91
742.124	25515.23
742.464	25504.84
742.804	25351.62
743.143	25227.33
743.483	25356.82
743.823	25238.18
744.162	25285.86
744.502	25241.34
744.841	25074.34
745.181	25309.36
745.52	25140.33
745.86	25143.27
746.199	25016.04
746.538	25032.31
746.877	25073.66
747.216	25106.66
747.556	24842.26
747.895	24917.28
748.234	24992.31
748.573	24758.42
748.911	24807.91
749.25	24818.53
749.589	24610.85
749.928	24665.09
750.267	24694.01
750.605	24609.04
750.944	24619.66
751.283	24520
751.621	24574.92
751.96	24390.06
752.298	24404.08
752.636	24322.04
752.975	24291.99
753.313	24255.83
753.651	24334.25
753.989	24253.35
754.327	24238.43
754.666	24002.28
755.004	24150.52
755.342	24075.72
755.679	24045.89
756.017	23935.84
756.355	23978.1
756.693	23776.75
757.031	23835.05
757.368	23754.83
757.706	23693.59
758.044	23578.56
758.381	23662.4
758.719	23524.32
759.056	23598.22
759.394	23503.08
759.731	23366.36
760.068	23314.39
760.405	23268.96
760.743	23150.1
761.08	23202.98
761.417	23092.92
761.754	23057.22
762.091	23030.55
762.428	22970.89
762.765	22849.54
763.102	22860.16
763.438	22699.94
763.775	22607.29
764.112	22573.62
764.449	22660.17
764.785	22487.06
765.122	22373.62
765.458	22365.71
765.795	22276.67
766.131	22284.81
766.467	22209.33
766.804	22111.71
767.14	21845.5
767.476	21989.45
767.812	21974.99
768.148	21850.02
768.485	21741.55
768.821	21634.88
769.157	21651.15
769.492	21603.25
769.828	21504.49
770.164	21320.32
770.5	21333.2
770.836	21294.1
771.171	21099.08
771.507	21087.33
771.842	20964.84
772.178	20983.37
772.513	20927.11
772.849	20869.25
773.184	20723.27
773.519	20691.63
773.855	20646.66
774.19	20563.5
774.525	20424.29
774.86	20439.89
775.195	20402.37
775.53	20366.89
775.865	20231.08
776.2	20054.81
776.535	19813.24
776.87	19992.21
777.205	19899.34
777.539	19864.31
777.874	19788.15
778.209	19666.57
778.543	19628.16
778.878	19552.45
779.212	19546.35
779.547	19376.64
779.881	19432.46
780.215	19179.81
780.55	19280.59
780.884	19120.82
781.218	19108.85
781.552	19118.79
781.886	18998.12
782.22	18909.53
782.554	18849.87
782.888	18680.16
783.222	18549.99
783.556	18535.98
783.889	18544.12
784.223	18392.93
784.557	18330.79
784.89	18361.97
785.224	18288.08
785.557	18275.2
785.891	18185.93
786.224	18070.68
786.558	18038.37
786.891	17901.65
787.224	17820.75
787.557	17840.41
787.891	17734.42
788.224	17752.05
788.557	17671.37
788.89	17805.61
789.223	17515.22
789.556	17378.95
789.888	17369.01
790.221	17363.81
790.554	17272.96
790.887	17293.3
791.219	17145.74
791.552	17057.83
791.884	17048.56
792.217	17009.69
792.549	16930.15
792.882	16839.3
793.214	16786.2
793.546	16788.23
793.879	16682.47
794.211	16599.76
794.543	16607.9
794.875	16485.41
795.207	16534.23
795.539	16469.6
795.871	16398.64
796.203	16235.25
796.535	16260.79
796.867	16242.71
797.198	16112.54
797.53	16175.82
797.862	15963.62
798.193	16016.05
798.525	15915.26
798.856	15971.08
799.188	15750.74
799.519	15766.34
799.85	15601.14
800.182	15714.36
800.513	15651.31
800.844	15548.49
801.175	15589.17
801.506	15617.41
801.837	15497.42
802.168	15409.28
802.499	15317.99
802.83	15329.29
803.161	15293.13
803.491	15199.35
803.822	15219.01
804.153	15197.31
804.483	15031.67
804.814	15005.68
805.145	14990.54
805.475	14943.08
805.805	14908.73
806.136	14918.68
806.466	14937.88
806.796	14782.63
807.126	14728.85
807.457	14681.85
807.787	14670.55
808.117	14571.11
808.447	14502.64
808.777	14567.27
809.107	14545.58
809.436	14395.98
809.766	14417.45
810.096	14382.42
810.426	14298.35
810.755	14294.96
811.085	14237.79
811.414	14271.69
811.744	14188.53
812.073	14108.53
812.403	14088.87
812.732	14080.96
813.061	14050.45
813.39	13918.25
813.719	13937.46
814.049	13966.16
814.378	13927.29
814.707	13839.83
815.036	13816.56
815.365	13829.66
815.693	13623.34
816.022	13636.45
816.351	13567.3
816.68	13551.25
817.008	13593.06
817.337	13491.59
817.665	13487.07
817.994	13484.81
818.322	13487.53
818.651	13390.81
818.979	13324.14
819.307	13445.95
819.636	13371.6
819.964	13210.47
820.292	13267.19
820.62	13301.09
820.948	13243.24
821.276	13189.46
821.604	13271.04
821.932	13221.32
822.259	13169.34
822.587	13250.24
822.915	13121.89
823.243	13197.59
823.57	13142.9
823.898	13226.52
824.225	13212.73
824.553	13164.15
824.88	13158.95
825.207	13180.42
825.535	13161.66
825.862	13240.3
826.189	13069.23
826.516	13196.46
826.843	13178.16
827.17	13159.17
827.497	13203.47
827.824	13185.61
828.151	13229.23
828.478	13184.71
828.805	13247.31
829.131	13214.77
829.458	13139.29
829.785	13088.89
830.111	13088.89
830.438	13165.95
830.764	13107.65
831.09	13098.61
831.417	13004.6
831.743	13073.53
832.069	13114.88
832.395	13087.31
832.722	13108.55
833.048	12941.1
833.374	13080.76
833.7	12919.41
834.026	13022.68
834.351	13026.97
834.677	13008.22
835.003	13003.25
835.329	12973.19
835.654	12993.75
835.98	12873.53
836.306	12894.1
836.631	12877.6
836.956	12924.15
837.282	12849.58
837.607	12756.25
837.932	12729.35
838.258	12727.55
838.583	12714.67
838.908	12668.79
839.233	12702.46
839.558	12738.17
839.883	12627.21
840.208	12560.32
840.533	12553.54
840.858	12596.93
841.182	12581.56
841.507	12536.14
841.832	12516.93
842.156	12596.25
842.481	12561.45
842.805	12400.55
843.13	12419.08
843.454	12420.44
843.778	12422.24
844.103	12299.76
844.427	12237.62
844.751	12319.42
845.075	12281.68
845.399	12229.25
845.723	12117.17
846.047	12148.8
846.371	11994.46
846.695	12112.65
847.019	11925.99
847.343	11907.23
847.666	11871.52
847.99	11807.12
848.313	11836.95
848.637	11784.75
848.96	11685.54
849.284	11678.08
849.607	11587.46
849.931	11489.16
850.254	11441.93
850.577	11465.43
850.9	11285.55
851.223	11360.58
851.546	11308.37
851.869	11153.35
852.192	11274.7
852.515	11168.27
852.838	11168.27
853.161	11108.38
853.483	11039.46
853.806	11101.6
854.129	10969.63
854.451	10959.68
854.774	10843.3
855.096	10902.74
855.419	10814.83
855.741	10771.21
856.063	10729.18
856.385	10733.93
856.708	10651.22
857.03	10656.64
857.352	10593.37
857.674	10656.41
857.996	10514.27
858.318	10468.85
858.64	10493.03
858.961	10469.08
859.283	10411.45
859.605	10329.19
859.926	10374.39
860.248	10393.82
860.57	10298.46
860.891	10370.55
861.212	10246.93
861.534	10303.66
861.855	10215.07
862.176	10188.63
862.498	10202.87
862.819	10197.9
863.14	10168.29
863.461	10170.1
863.782	10075.41
864.103	10123.77
864.424	10015.08
864.745	10003.55
865.065	10017.79
865.386	9994.96
865.707	9978.69
866.027	10017.34
866.348	9978.92
866.668	9929.43
866.989	9936.66
867.309	9851.46
867.63	9920.61
867.95	9913.16
868.27	9879.49
868.59	9817.34
868.91	9819.37
869.23	9817.57
869.55	9733.05
869.87	9776.89
870.19	9802.2
870.51	9778.92
870.83	9740.73
871.15	9675.88
871.469	9685.59
871.789	9667.51
872.109	9702.99
872.428	9604.01
872.748	9714.52
873.067	9615.54
873.386	9623.45
873.706	9628.19
874.025	9603.56
874.344	9540.96
874.663	9520.85
874.982	9568.53
875.301	9484.92
875.62	9464.81
875.939	9474.75
876.258	9489.89
876.577	9491.02
876.896	9435.66
877.214	9354.75
877.533	9368.99
877.852	9372.83
878.17	9388.43
878.489	9382.55
878.807	9311.82
879.125	9326.73
879.444	9367.64
879.762	9319.05
880.08	9290.35
880.398	9226.4
880.716	9266.62
881.034	9171.48
881.352	9201.31
881.67	9171.48
881.988	9148.88
882.306	9159.05
882.624	9180.3
882.941	9064.37
883.259	9053.74
883.577	9062.33
883.894	8998.83
884.212	8995.44
884.529	9025.27
884.846	9013.52
885.164	8950.47
885.481	8891.94
885.798	8928.1
886.115	8842.9
886.432	8884.26
886.75	8859.85
887.067	8819.85
887.383	8776.46
887.7	8881.55
888.017	8810.59
888.334	8762
888.651	8710.03
888.967	8693.08
889.284	8675.22
889.6	8658.05
889.917	8643.81
890.233	8562.91
890.55	8551.61
890.866	8565.17
891.182	8541.67
891.498	8482.91
891.815	8482.23
892.131	8464.61
892.447	8424.61
892.763	8349.58
893.079	8388.45
893.395	8343.71
893.71	8258.29
894.026	8299.87
894.342	8302.35
894.657	8226.2
894.973	8184.84
895.289	8164.73
895.604	8249.92
895.92	8138.97
896.235	8086.99
896.55	8060.32
896.865	8082.92
897.181	8084.05
897.496	8066.88
897.811	7986.2
898.126	8006.99
898.441	7983.04
898.756	7930.84
899.071	7862.59
899.386	7844.74
899.7	7835.47
900.015	7741.46
900.33	7697.85
900.644	7747.11
900.959	7737.17
901.273	7637.06
901.588	7660.34
901.902	7565.65
902.216	7573.33
902.531	7630.73
902.845	7513.22
903.159	7501.7
903.473	7510.96
903.787	7455.14
904.101	7435.03
904.415	7405.65
904.729	7428.48
905.042	7379.89
905.356	7409.27
905.67	7281.36
905.984	7330.17
906.297	7283.4
906.611	7153.23
906.924	7230.52
907.237	7209.73
907.551	7183.74
907.864	7079.79
908.177	7143.51
908.491	7041.14
908.804	7043.18
909.117	7046.11
909.43	6962.73
909.743	6918.66
910.056	6931.54
910.368	6873.46
910.681	6868.27
910.994	6823.97
911.307	6835.05
911.619	6750.08
911.932	6761.38
912.244	6697.2
912.557	6725.9
912.869	6626.69
913.181	6664.88
913.494	6665.33
913.806	6592.11
914.118	6557.54
914.43	6520.7
914.742	6516.18
915.054	6468.73
915.366	6452.01
915.678	6401.61
915.99	6369.3
916.302	6347.6
916.613	6310.99
916.925	6337.21
917.236	6271.67
917.548	6275.74
917.859	6276.42
918.171	6191.9
918.482	6205.68
918.794	6159.13
919.105	6145.8
919.416	6114.84
919.727	6141.28
920.038	6081.39
920.349	6057.21
920.66	6004.56
920.971	6007.27
921.282	6032.36
921.593	5958.69
921.903	5997.33
922.214	5903.09
922.525	5869.87
922.835	5875.98
923.146	5822.64
923.456	5805.69
923.767	5778.35
924.077	5803.66
924.387	5730.89
924.697	5713.95
925.008	5691.8
925.318	5645.02
925.628	5647.96
925.938	5601.63
926.248	5547.85
926.558	5567.06
926.867	5515.08
927.177	5510.11
927.487	5446.38
927.796	5488.64
928.106	5423.56
928.416	5431.92
928.725	5419.94
929.034	5334.97
929.344	5364.12
929.653	5356.89
929.962	5336.33
930.271	5249.55
930.581	5247.29
930.89	5237.35
931.199	5210.46
931.508	5158.93
931.817	5215.88
932.125	5116.67
932.434	5154.19
932.743	5140.4
933.051	5069.22
933.36	5080.97
933.669	5026.05
933.977	5017.92
934.286	5008.2
934.594	5002.1
934.902	4951.48
935.21	4950.8
935.519	4892.05
935.827	4873.52
936.135	4861.31
936.443	4838.04
936.751	4825.16
937.059	4802.78
937.367	4772.95
937.674	4813.86
937.982	4795.1
938.29	4745.84
938.597	4756.68
938.905	4661.77
939.213	4669.45
939.52	4612.28
939.827	4665.16
940.135	4613.64
940.442	4570.25
940.749	4563.24
941.056	4558.95
941.363	4487.54
941.67	4527.31
941.977	4456.35
942.284	4478.72
942.591	4431.72
942.898	4443.24
943.205	4444.37
943.511	4419.74
943.818	4364.38
944.125	4365.05
944.431	4347.88
944.738	4316.24
945.044	4318.95
945.35	4288.9
945.657	4242.57
945.963	4238.5
946.269	4248.67
946.575	4257.71
946.881	4177.72
947.187	4164.38
947.493	4193.53
947.799	4149.92
948.105	4128.22
948.41	4103.14
948.716	4094.78
949.022	4098.17
949.327	4083.71
949.633	4023.82
949.938	3992.18
950.244	3972.52
950.549	3972.97
950.854	3962.58
951.16	3939.3
951.465	3903.37
951.77	3915.35
952.075	3904.73
952.38	3887.33
952.685	3845.75
952.99	3812.3
953.294	3822.92
953.599	3779.08
953.904	3800.78
954.209	3754.45
954.513	3768.69
954.818	3732.75
955.122	3692.98
955.426	3709.7
955.731	3674.68
956.035	3676.26
956.339	3676.71
956.643	3691.4
956.948	3634.68
957.252	3602.81
957.556	3626.32
957.86	3591.52
958.163	3593.1
958.467	3567.56
958.771	3546.77
959.075	3534.57
959.378	3548.35
959.682	3507.45
959.985	3493.89
960.289	3476.26
960.592	3477.62
960.896	3434.23
961.199	3438.53
961.502	3433.78
961.805	3410.05
962.108	3387.68
962.411	3339.77
962.714	3396.04
963.017	3368.47
963.32	3339.09
963.623	3316.49
963.926	3290.05
964.228	3241.47
964.531	3307.23
964.833	3243.05
965.136	3212.09
965.438	3228.81
965.741	3225.42
966.043	3210.51
966.345	3169.61
966.648	3182.26
966.95	3130.06
967.252	3165.09
967.554	3167.35
967.856	3110.62
968.158	3113.11
968.46	3068.59
968.761	3119.21
969.063	3062.94
969.365	3049.84
969.666	3046.9
969.968	3032.89
970.269	3010.51
970.571	3031.08
970.872	3067.46
971.174	2972.77
971.475	2987.46
971.776	2945.88
972.077	2944.75
972.378	2893.45
972.679	2918.54
972.98	2901.59
973.281	2876.05
973.582	2856.39
973.883	2871.76
974.183	2823.85
974.484	2852.78
974.785	2781.82
975.085	2808.71
975.386	2789.95
975.686	2787.24
975.986	2787.47
976.287	2746.11
976.587	2709.73
976.887	2730.3
977.187	2735.27
977.487	2698.88
977.787	2711.99
978.087	2682.61
978.387	2663.4
978.687	2644.42
978.987	2641.71
979.286	2622.95
979.586	2635.16
979.885	2621.15
980.185	2583.63
980.484	2603.29
980.784	2571.88
981.083	2563.97
981.382	2569.85
981.682	2522.62
981.981	2547.7
982.28	2545.89
982.579	2533.24
982.878	2519.68
983.177	2492.34
983.475	2500.92
983.774	2472.22
984.073	2461.38
984.372	2471.55
984.67	2459.79
984.969	2467.03
985.267	2435.84
985.566	2429.51
985.864	2393.36
986.162	2384.32
986.461	2387.48
986.759	2361.04
987.057	2378.44
987.355	2328.05
987.653	2363.53
987.951	2356.97
988.249	2342.06
988.547	2312.23
988.844	2313.58
989.142	2265.9
989.44	2258.44
989.737	2242.85
990.035	2249.63
990.332	2242.17
990.63	2233.81
990.927	2213.25
991.224	2203.08
991.521	2195.39
991.819	2196.52
992.116	2185.23
992.413	2197.43
992.71	2169.41
993.006	2209.63
993.303	2155.17
993.6	2146.36
993.897	2128.05
994.193	2157.43
994.49	2096.41
994.787	2104.32
995.083	2107.26
995.379	2090.31
995.676	2063.42
995.972	2068.17
996.268	2013.25
996.565	2022.52
996.861	2042.4
997.157	2013.93
997.453	2037.21
997.749	2030.43
998.044	2016.19
998.34	1980.48
998.636	1956.3
998.932	1968.96
999.227	1969.64
999.523	1959.24
999.818	1910.66
1000.114	1916.76
1000.409	1918.34
1000.704	1919.02
1001	1915.63
1001.295	1870.88
1001.59	1894.16
1001.885	1881.73
1002.18	1837.44
1002.475	1845.12
1002.77	1826.59
1003.065	1810.32
1003.359	1831.79
1003.654	1812.58
1003.949	1805.8
1004.243	1804.44
1004.538	1788.85
1004.832	1785.91
1005.127	1735.07
1005.421	1754.28
1005.715	1733.26
1006.009	1748.85
1006.304	1701.62
1006.598	1711.11
1006.892	1716.76
1007.186	1661.17
1007.48	1677.89
1007.773	1682.64
1008.067	1653.26
1008.361	1651
1008.655	1669.53
1008.948	1634.51
1009.242	1608.07
1009.535	1622.08
1009.829	1588.4
1010.122	1601.29
1010.415	1592.7
1010.708	1577.56
1011.001	1580.72
1011.295	1571.46
1011.588	1574.39
1011.881	1529.2
1012.173	1557.67
1012.466	1536.43
1012.759	1537.33
1013.052	1503.66
1013.344	1486.49
1013.637	1486.71
1013.93	1495.3
1014.222	1518.35
1014.514	1484
1014.807	1468.63
1015.099	1436.77
1015.391	1430.22
1015.683	1452.14
1015.976	1444
1016.268	1427.28
1016.56	1422.31
1016.851	1404.23
1017.143	1398.35
1017.435	1393.61
1017.727	1388.86
1018.018	1364.46
1018.31	1354.06
1018.602	1343.89
1018.893	1326.94
1019.185	1354.06
1019.476	1307.28
1019.767	1335.3
1020.058	1320.16
1020.35	1306.38
1020.641	1274.29
1020.932	1293.5
1021.223	1277.68
1021.514	1289.66
1021.804	1246.94
1022.095	1270.22
1022.386	1271.35
1022.677	1246.27
1022.967	1228.41
1023.258	1221.63
1023.548	1213.5
1023.839	1207.4
1024.129	1211.24
1024.419	1185.93
1024.709	1190.22
1025	1197.45
1025.29	1190.45
1025.58	1163.33
1025.87	1164.23
1026.16	1162.65
1026.449	1153.39
1026.739	1166.49
1027.029	1153.84
1027.319	1139.83
1027.608	1141.41
1027.898	1110
1028.187	1089.21
1028.477	1102.54
1028.766	1098.93
1029.055	1091.24
1029.344	1073.16
1029.634	1074.75
1029.923	1065.48
1030.212	1060.96
1030.501	1030.91
1030.79	1032.71
1031.078	1052.6
1031.367	1039.27
1031.656	1032.26
1031.945	1023.9
1032.233	1007.63
1032.522	1000.85
1032.81	1003.79
1033.099	996.1
1033.387	971.02
1033.675	995.2
1033.963	988.65
1034.251	992.04
1034.54	982.54
1034.828	962.21
1035.116	936.22
1035.403	959.27
1035.691	933.28
1035.979	922.66
1036.267	935.99
1036.554	920.17
1036.842	909.78
1037.129	930.79
1037.417	912.72
1037.704	930.34
1037.992	900.29
1038.279	895.54
1038.566	884.02
1038.853	884.02
1039.14	884.02
