Data from hue_230_FLMS001491_00021.txt Node
Date: Tue Feb 07 16:36:59 GMT 2017
User: dcchb
Spectrometer: FLMS00149
Trigger mode: 0
Integration Time (sec): 2.000000E-2
Scans to average: 10
Electric dark correction enabled: true
Nonlinearity correction enabled: false
Boxcar width: 0
XAxis mode: Wavelengths
Number of Pixels in Spectrum: 2048
>>>>>Begin Spectral Data<<<<<
341.393	-19.77
341.776	-19.77
342.16	-19.77
342.543	-79.43
342.927	-55.93
343.31	-68.81
343.693	-64.29
344.077	-64.29
344.46	-72.43
344.843	-49.15
345.226	-33.78
345.61	-32.43
345.993	-9.83
346.376	-5.54
346.759	-2.15
347.142	22.26
347.525	24.52
347.908	76.95
348.291	58.87
348.674	106.55
349.057	113.56
349.44	115.36
349.823	137.06
350.206	146.32
350.588	169.83
350.971	196.49
351.354	216.83
351.737	212.76
352.119	250.5
352.502	260.45
352.884	257.51
353.267	273.1
353.65	270.39
354.032	293.44
354.414	299.99
354.797	318.3
355.179	327.56
355.562	335.25
355.944	317.39
356.326	318.07
356.709	328.92
357.091	320.1
357.473	328.47
357.855	314.91
358.238	334.57
358.62	345.41
359.002	316.04
359.384	358.97
359.766	330.27
360.148	327.11
360.53	315.13
360.912	321.91
361.294	340.67
361.676	329.37
362.057	329.82
362.439	328.24
362.821	310.61
363.203	307.22
363.584	317.39
363.966	310.84
364.348	331.18
364.729	315.81
365.111	317.17
365.493	294.12
365.874	312.65
366.256	302.25
366.637	323.04
367.019	313.78
367.4	306.55
367.781	289.6
368.163	307.45
368.544	288.47
368.925	315.81
369.306	327.34
369.688	303.16
370.069	314.23
370.45	311.97
370.831	308.81
371.212	311.52
371.593	312.65
371.974	315.81
372.355	316.94
372.736	323.04
373.117	322.36
373.498	306.32
373.879	308.13
374.26	306.77
374.641	305.87
375.021	324.85
375.402	310.61
375.783	331.86
376.163	314
376.544	320.33
376.925	326.66
377.305	316.71
377.686	333.44
378.066	305.19
378.447	314.23
378.827	309.94
379.208	319.65
379.588	323.04
379.968	333.66
380.349	346.77
380.729	342.48
381.109	303.16
381.489	335.47
381.87	327.34
382.25	332.53
382.63	344.51
383.01	319.88
383.39	323.04
383.77	350.39
384.15	336.38
384.53	348.35
384.91	348.58
385.29	342.25
385.67	334.34
386.049	342.02
386.429	345.41
386.809	322.36
387.189	339.31
387.568	356.49
387.948	330.5
388.328	357.62
388.707	331.63
389.087	364.62
389.466	361.23
389.846	380.44
390.225	376.6
390.605	365.53
390.984	366.88
391.363	357.17
391.743	369.59
392.122	377.73
392.501	374.34
392.881	362.82
393.26	376.37
393.639	374.11
394.018	383.61
394.397	373.89
394.776	370.95
395.155	396.03
395.534	379.09
395.913	382.93
396.292	405.75
396.671	411.4
397.05	408.46
397.429	401.46
397.808	380.89
398.186	392.65
398.565	422.7
398.944	400.55
399.323	373.21
399.701	387.67
400.08	386.77
400.458	394.9
400.837	402.59
401.215	404.85
401.594	398.52
401.972	413.21
402.351	406.2
402.729	426.77
403.107	426.09
403.486	417.28
403.864	424.51
404.242	426.77
404.62	437.62
404.999	424.06
405.377	451.17
405.755	444.85
406.133	451.17
406.511	454.11
406.889	470.38
407.267	466.09
407.645	454.56
408.023	493.66
408.401	480.1
408.779	489.37
409.156	479.87
409.534	480.33
409.912	503.83
410.29	508.12
410.667	490.27
411.045	506.77
411.422	492.3
411.8	501.79
412.178	512.87
412.555	559.19
412.933	546.77
413.31	533.66
413.687	571.62
414.065	577.5
414.442	577.05
414.819	580.44
415.197	571.4
415.574	568.91
415.951	561.23
416.328	618.85
416.705	591.51
417.082	604.16
417.46	621.57
417.837	610.72
418.214	624.96
418.591	631.96
418.967	649.81
419.344	650.94
419.721	643.49
420.098	641.9
420.475	669.47
420.852	688.23
421.228	691.17
421.605	683.71
421.982	702.02
422.358	709.47
422.735	725.29
423.111	735.46
423.488	751.73
423.864	732.07
424.241	754.9
424.617	754.22
424.994	770.49
425.37	781.79
425.746	784.05
426.123	793.31
426.499	789.92
426.875	834.22
427.251	837.15
427.627	853.88
428.003	850.26
428.379	858.85
428.756	892.97
429.132	875.34
429.507	903.37
429.883	908.56
430.259	935.23
430.635	932.97
431.011	933.2
431.387	933.2
431.763	977.26
432.138	983.82
432.514	980.2
432.89	1002.57
433.265	1032.18
433.641	1044.15
434.016	1058.39
434.392	1045.06
434.767	1079.63
435.143	1080.99
435.518	1114.89
435.894	1131.83
436.269	1130.93
436.644	1141.1
437.02	1159.4
437.395	1171.16
437.77	1194.21
438.145	1208.22
438.52	1236.24
438.895	1261.1
439.271	1241.21
439.646	1294.99
440.021	1287.08
440.395	1317.82
440.77	1289.8
441.145	1335.9
441.52	1397.36
441.895	1389.45
442.27	1393.97
442.645	1405.73
443.019	1395.78
443.394	1423.58
443.769	1427.42
444.143	1422
444.518	1453.63
444.892	1436.69
445.267	1460.64
445.641	1497.7
446.016	1514.2
446.39	1515.78
446.764	1516.68
447.139	1516.23
447.513	1524.82
447.887	1543.35
448.262	1573.4
448.636	1558.04
449.01	1590.13
449.384	1593.07
449.758	1587.64
450.132	1621.77
450.506	1643.91
450.88	1650.24
451.254	1652.72
451.628	1671.03
452.002	1641.43
452.376	1656.34
452.75	1706.28
453.123	1715.77
453.497	1729.33
453.871	1752.84
454.244	1751.03
454.618	1773.4
454.992	1798.26
455.365	1818.37
455.739	1808.2
456.112	1857.47
456.486	1892.49
456.859	1915.09
457.232	1944.92
457.606	1928.2
457.979	1950.34
458.352	1953.73
458.725	2005.94
459.099	2033.05
459.472	2059.72
459.845	2046.84
460.218	2113.96
460.591	2083.45
460.964	2108.76
461.337	2126.61
461.71	2144.69
462.083	2208.64
462.456	2218.59
462.829	2208.42
463.201	2246.38
463.574	2257.45
463.947	2322.54
464.32	2339.26
464.692	2330.22
465.065	2376.55
465.438	2400.95
465.81	2423.33
466.183	2444.12
466.555	2477.79
466.928	2498.35
467.3	2506.04
467.672	2531.12
468.045	2600.27
468.417	2595.07
468.789	2619.25
469.161	2652.92
469.534	2720.27
469.906	2727.27
470.278	2713.49
470.65	2762.53
471.022	2824.22
471.394	2860.6
471.766	2930.88
472.138	2910.32
472.51	2993.48
472.882	2990.54
473.253	3036.42
473.625	3063.54
473.997	3158.67
474.369	3143.53
474.74	3167.26
475.112	3224.66
475.484	3240.48
475.855	3315.05
476.227	3334.71
476.598	3425.33
476.97	3421.72
477.341	3482.51
477.713	3554.14
478.084	3537.42
478.455	3657.64
478.827	3706.68
479.198	3814.7
479.569	3773.57
479.94	3845.44
480.311	3887.47
480.682	3941.03
481.053	4004.75
481.424	4093.34
481.795	4097.86
482.166	4122.26
482.537	4154.81
482.908	4286.55
483.279	4286.33
483.65	4383.27
484.021	4460.33
484.391	4474.12
484.762	4539.88
485.133	4552.99
485.503	4624.85
485.874	4732.42
486.244	4698.97
486.615	4807.22
486.985	4862.81
487.356	4955.46
487.726	4990.26
488.097	5094.89
488.467	5047.44
488.837	5183.71
489.207	5188.68
489.578	5253.76
489.948	5275.23
490.318	5303.7
490.688	5379.18
491.058	5424.15
491.428	5498.5
491.798	5529.01
492.168	5629.8
492.538	5628.89
492.908	5681.32
493.278	5764.26
493.648	5723.35
494.017	5833.86
494.387	5872.27
494.757	5877.47
495.126	5972.84
495.496	5935.32
495.866	5996.57
496.235	6018.94
496.605	6070.91
496.974	6071.59
497.344	6133.74
497.713	6137.8
498.082	6232.72
498.452	6236.33
498.821	6276.56
499.19	6252.6
499.559	6339.16
499.928	6363.79
500.298	6430
500.667	6461.86
501.036	6434.52
501.405	6421.64
501.774	6506.38
502.143	6558.58
502.512	6551.58
502.88	6600.39
503.249	6602.43
503.618	6579.83
503.987	6634.97
504.356	6652.37
504.724	6660.5
505.093	6692.59
505.462	6759.48
505.83	6754.06
506.199	6747.51
506.567	6839.93
506.936	6820.05
507.304	6884.23
507.672	6879.48
508.041	6921.29
508.409	6982.53
508.777	6980.27
509.145	7001.96
509.514	7038.57
509.882	7007.84
510.25	6993.38
510.618	7059.81
510.986	7010.32
511.354	7149.53
511.722	7111.34
512.09	7169.64
512.458	7142.07
512.826	7166.03
513.193	7211.67
513.561	7198.79
513.929	7255.29
514.297	7248.28
514.664	7250.32
515.032	7255.74
515.4	7386.59
515.767	7350.43
516.135	7342.97
516.502	7273.14
516.869	7413.48
517.237	7372.57
517.604	7331.22
517.972	7448.73
518.339	7488.96
518.706	7414.38
519.073	7390.65
519.44	7404.66
519.808	7499.35
520.175	7425.91
520.542	7543.42
520.909	7541.84
521.276	7510.2
521.643	7579.57
522.009	7576.86
522.376	7525.56
522.743	7618.67
523.11	7654.83
523.477	7675.62
523.843	7713.81
524.21	7702.74
524.577	7827.03
524.943	7759.46
525.31	7741.83
525.676	7757.2
526.043	7798.1
526.409	7764.43
526.776	7830.64
527.142	7834.03
527.508	7883.75
527.874	7871.77
528.241	7930.98
528.607	7897.08
528.973	7905.67
529.339	7858.89
529.705	7964.42
530.071	7982.28
530.437	7977.98
530.803	7935.27
531.169	7966.01
531.535	7954.48
531.901	7957.42
532.267	7944.54
532.632	8064.31
532.998	7944.99
533.364	7942.05
533.73	7965.55
534.095	7975.95
534.461	8002.84
534.826	8026.57
535.192	7988.15
535.557	7978.43
535.923	7955.84
536.288	7976.85
536.653	8032.44
537.019	7922.84
537.384	7870.64
537.749	7961.71
538.114	7961.03
538.479	7906.35
538.845	8001.71
539.21	7954.48
539.575	7956.29
539.94	7933.24
540.305	7941.15
540.67	7902.96
541.034	7895.5
541.399	7952.45
541.764	7908.15
542.129	7881.94
542.494	7830.87
542.858	7880.81
543.223	7902.05
543.587	7821.6
543.952	7881.94
544.316	7849.17
544.681	7847.14
545.045	7841.94
545.41	7866.8
545.774	7821.38
546.138	7829.96
546.503	7834.71
546.867	7811.88
547.231	7797.87
547.595	7785.67
547.959	7735.95
548.324	7748.61
548.688	7709.51
549.052	7702.51
549.416	7739.34
549.779	7697.09
550.143	7655.73
550.507	7767.37
550.871	7719.68
551.235	7659.12
551.599	7741.83
551.962	7735.5
552.326	7681.94
552.689	7730.53
553.053	7640.59
553.417	7680.14
553.78	7707.25
554.143	7686.24
554.507	7675.62
554.87	7653.92
555.234	7740.25
555.597	7700.7
555.96	7637.65
556.323	7663.41
556.686	7705.67
557.05	7696.86
557.413	7688.05
557.776	7686.24
558.139	7760.36
558.502	7734.37
558.865	7732.11
559.228	7719.23
559.59	7746.35
559.953	7763.3
560.316	7810.98
560.679	7783.64
561.041	7786.8
561.404	7839.68
561.767	7834.48
562.129	7831.55
562.492	7864.09
562.854	7897.98
563.217	7845.33
563.579	7845.33
563.941	7891.2
564.304	7856.4
564.666	7964.88
565.028	7913.35
565.39	7954.71
565.753	7947.25
566.115	7968.27
566.477	7980.92
566.839	8019.79
567.201	8037.19
567.563	8032.9
567.925	8043.07
568.287	8068.38
568.648	8094.36
569.01	8095.49
569.372	8175.72
569.734	8144.08
570.095	8226.56
570.457	8181.82
570.819	8177.98
571.18	8292.78
571.542	8203.74
571.903	8181.37
572.265	8285.54
572.626	8307.69
572.987	8355.37
573.349	8345.66
573.71	8317.86
574.071	8357.41
574.432	8354.47
574.794	8467.23
575.155	8412.1
575.516	8340.91
575.877	8380.46
576.238	8518.99
576.599	8537.97
576.96	8494.13
577.32	8476.73
577.681	8524.41
578.042	8508.14
578.403	8525.54
578.763	8517.18
579.124	8590.62
579.485	8560.34
579.845	8598.76
580.206	8663.61
580.566	8610.73
580.927	8669.04
581.287	8692.99
581.648	8658.87
582.008	8741.13
582.368	8756.49
582.728	8738.87
583.089	8731.41
583.449	8765.31
583.809	8782.48
584.169	8781.35
584.529	8834.91
584.889	8901.57
585.249	8835.59
585.609	8839.43
585.969	8872.42
586.329	8863.38
586.688	8825.87
587.048	8818.86
587.408	8857.96
587.768	8850.95
588.127	8897.96
588.487	8917.84
588.846	8971.63
589.206	8864.74
589.565	8933.66
589.925	8977.5
590.284	8925.98
590.643	9003.49
591.003	9001.91
591.362	9051.17
591.721	8990.61
592.08	9060.21
592.44	9050.95
592.799	9087.33
593.158	9008.46
593.517	9044.62
593.876	9088.69
594.235	9068.35
594.593	9069.93
594.952	9110.38
595.311	9108.8
595.67	9185.86
596.029	9172.98
596.387	9175.46
596.746	9161.68
597.104	9147.44
597.463	9143.6
597.822	9144.51
598.18	9184.05
598.538	9134.79
598.897	9231.73
599.255	9105.18
599.613	9294.33
599.972	9253.88
600.33	9245.97
600.688	9238.06
601.046	9239.64
601.404	9238.51
601.762	9238.06
602.12	9285.29
602.478	9353.77
602.836	9273.32
603.194	9271.73
603.552	9276.71
603.91	9269.02
604.268	9339.53
604.625	9256.82
604.983	9316.03
605.341	9245.07
605.698	9348.79
606.056	9363.71
606.413	9325.97
606.771	9407.55
607.128	9398.74
607.485	9345.18
607.843	9297.72
608.2	9369.36
608.557	9431.28
608.914	9342.24
609.272	9449.81
609.629	9498.39
609.986	9434.67
610.343	9397.15
610.7	9502.91
611.057	9424.72
611.414	9468.34
611.771	9449.36
612.127	9470.82
612.484	9530.94
612.841	9497.04
613.198	9398.06
613.554	9492.29
613.911	9501.78
614.267	9530.94
614.624	9495.23
614.98	9492.74
615.337	9616.58
615.693	9462.24
616.05	9555.79
616.406	9590.37
616.762	9574.1
617.118	9565.74
617.475	9584.95
617.831	9546.53
618.187	9546.08
618.543	9585.62
618.899	9693.19
619.255	9544.72
619.611	9616.58
619.967	9617.71
620.323	9703.36
620.678	9610.26
621.034	9644.38
621.39	9681.21
621.746	9613.42
622.101	9741.1
622.457	9589.47
622.812	9670.59
623.168	9649.58
623.523	9618.62
623.879	9666.3
624.234	9606.41
624.589	9679.41
624.945	9666.98
625.3	9690.03
625.655	9643.93
626.01	9623.36
626.365	9682.12
626.72	9616.58
627.075	9689.12
627.43	9629.69
627.785	9596.92
628.14	9652.51
628.495	9634.44
628.85	9700.87
629.205	9550.37
629.559	9598.73
629.914	9611.39
630.269	9610.93
630.623	9584.49
630.978	9597.15
631.332	9591.27
631.687	9649.58
632.041	9531.61
632.396	9586.75
632.75	9499.98
633.104	9561.67
633.459	9474.21
633.813	9453.42
634.167	9509.02
634.521	9452.52
634.875	9525.29
635.229	9455.01
635.583	9430.83
635.937	9383.14
636.291	9429.47
636.645	9387.21
636.999	9373.65
637.352	9373.2
637.706	9334.33
638.06	9425.63
638.413	9337.72
638.767	9396.02
639.121	9332.3
639.474	9302.69
639.828	9333.43
640.181	9309.47
640.534	9345.63
640.888	9288.46
641.241	9195.58
641.594	9321.22
641.947	9331.39
642.301	9233.09
642.654	9208.23
643.007	9279.42
643.36	9229.02
643.713	9226.54
644.066	9194.9
644.419	9149.7
644.771	9155.35
645.124	9101.79
645.477	9030.16
645.83	9036.03
646.182	8971.63
646.535	8998.29
646.888	8891.18
647.24	8877.17
647.593	8979.76
647.945	8891.18
648.298	8883.72
648.65	8878.07
649.002	8848.92
649.355	8883.72
649.707	8855.25
650.059	8909.94
650.411	9050.95
650.763	8982.25
651.115	9100.66
651.467	9078.74
651.819	9005.75
652.171	9091.4
652.523	8999.65
652.875	9026.09
653.227	9021.8
653.578	9039.2
653.93	9041.91
654.282	8991.06
654.633	9050.72
654.985	8997.62
655.337	9033.77
655.688	9068.58
656.039	9076.03
656.391	8979.99
656.742	8999.65
657.094	8990.84
657.445	9086.43
657.796	9092.53
658.147	9052.3
658.498	8976.83
658.849	9068.58
659.2	9022.25
659.551	9016.15
659.902	9001.91
660.253	9080.78
660.604	9088.01
660.955	8993.55
661.306	9014.57
661.656	9046.43
662.007	9048.24
662.358	9015.47
662.708	9037.39
663.059	9047.56
663.409	8956.71
663.76	9053.43
664.11	9045.98
664.461	9064.28
664.811	9032.64
665.161	9092.76
665.511	9084.17
665.862	9044.17
666.212	9100.44
666.562	9092.08
666.912	9034
667.262	9054.11
667.612	9002.36
667.962	9056.15
668.312	9024.28
668.662	9006.88
669.011	9005.98
669.361	9013.89
669.711	9053.21
670.06	9026.54
670.41	8989.93
670.76	9013.66
671.109	9092.98
671.459	9064.73
671.808	8966.66
672.157	8994
672.507	8915.81
672.856	8911.07
673.205	8961.46
673.554	9028.58
673.904	8956.49
674.253	8963.95
674.602	8936.38
674.951	8813.89
675.3	8748.36
675.649	8878.3
675.998	8909.94
676.346	8913.55
676.695	8899.54
677.044	8840.33
677.393	8893.89
677.741	8915.58
678.09	8861.57
678.438	8855.93
678.787	8777.96
679.135	8852.31
679.484	8736.83
679.832	8812.76
680.181	8770.05
680.529	8820.45
680.877	8683.95
681.225	8711.75
681.573	8767.79
681.922	8726.66
682.27	8795.59
682.618	8689.15
682.966	8660.45
683.314	8688.7
683.661	8648.02
684.009	8626.78
684.357	8609.83
684.705	8557.85
685.053	8586.55
685.4	8577.06
685.748	8535.71
686.095	8577.29
686.443	8535.03
686.79	8456.39
687.138	8503.84
687.485	8504.07
687.832	8426.78
688.18	8455.26
688.527	8348.14
688.874	8401.93
689.221	8380.46
689.568	8333.45
689.915	8315.37
690.262	8247.35
690.609	8260.69
690.956	8228.15
691.303	8217.52
691.65	8163.97
691.997	8207.35
692.344	8159.9
692.69	8092.78
693.037	8125.1
693.383	8063.4
693.73	8130.52
694.077	8016.85
694.423	7969.17
694.769	7967.36
695.116	7960.58
695.462	7940.24
695.808	7878.78
696.155	7899.34
696.501	7801.72
696.847	7903.63
697.193	7792.9
697.539	7817.31
697.885	7696.63
698.231	7717.2
698.577	7686.01
698.923	7672.91
699.269	7587.48
699.614	7603.3
699.96	7509.52
700.306	7556.07
700.651	7547.26
700.997	7540.25
701.342	7537.54
701.688	7479.69
702.033	7482.4
702.379	7436.98
702.724	7354.5
703.069	7404.89
703.415	7302.29
703.76	7343.2
704.105	7330.99
704.45	7286.48
704.795	7288.06
705.14	7232.01
705.485	7279.24
705.83	7178.68
706.175	7190.88
706.52	7193.6
706.865	7187.49
707.209	7110.21
707.554	7113.15
707.899	7082.86
708.243	7083.99
708.588	7048.29
708.932	6973.71
709.277	7039.93
709.621	7014.84
709.966	6945.92
710.31	6977.33
710.654	6903.43
710.998	6942.53
711.342	6903.21
711.687	6882.19
712.031	6849.88
712.375	6893.72
712.719	6811.46
713.063	6844
713.407	6865.7
713.75	6824.57
714.094	6818.46
714.438	6765.13
714.782	6787.73
715.125	6795.19
715.469	6769.2
715.812	6723.78
716.156	6737.56
716.499	6691.46
716.843	6743.44
717.186	6684.91
717.53	6692.82
717.873	6640.39
718.216	6658.02
718.559	6664.34
718.902	6603.56
719.246	6607.17
719.589	6547.96
719.932	6592.71
720.275	6524.69
720.617	6595.42
720.96	6579.6
721.303	6583.22
721.646	6552.26
721.989	6499.83
722.331	6541.86
722.674	6556.78
723.016	6518.59
723.359	6556.32
723.701	6541.41
724.044	6497.34
724.386	6423.9
724.729	6523.78
725.071	6481.98
725.413	6520.85
725.755	6526.04
726.097	6475.65
726.439	6398.59
726.782	6484.91
727.124	6434.75
727.465	6430.9
727.807	6438.36
728.149	6445.82
728.491	6399.72
728.833	6426.61
729.175	6422.09
729.516	6410.79
729.858	6427.97
730.199	6435.88
730.541	6432.49
730.882	6365.37
731.224	6400.62
731.565	6381.64
731.906	6412.37
732.248	6431.36
732.589	6386.61
732.93	6301.42
733.271	6321.08
733.612	6340.96
733.953	6407.18
734.294	6377.12
734.635	6357.91
734.976	6405.37
735.317	6345.93
735.658	6369.21
735.999	6345.48
736.339	6360.4
736.68	6355.2
737.021	6399.94
737.361	6391.13
737.702	6358.36
738.042	6371.24
738.383	6352.49
738.723	6379.83
739.063	6430.68
739.404	6445.37
739.744	6406.95
740.084	6386.61
740.424	6461.41
740.764	6401.07
741.104	6435.88
741.444	6447.63
741.784	6412.83
742.124	6457.34
742.464	6496.89
742.804	6482.43
743.143	6491.47
743.483	6462.77
743.823	6546.61
744.162	6486.5
744.502	6533.27
744.841	6540.73
745.181	6588.19
745.52	6556.32
745.86	6623.67
746.199	6647.17
746.538	6659.37
746.877	6659.37
747.216	6741.86
747.556	6738.01
747.895	6709.99
748.234	6768.52
748.573	6875.19
748.911	6765.58
749.25	6912.25
749.589	6916.99
749.928	6949.76
750.267	7041.51
750.605	7065.69
750.944	7140.72
751.283	7177.1
751.621	7210.54
751.96	7330.32
752.298	7323.54
752.636	7403.53
752.975	7374.16
753.313	7496.41
753.651	7587.71
753.989	7672.45
754.327	7686.01
754.666	7816.4
755.004	7863.18
755.342	8032.22
755.679	8104.53
756.017	8209.61
756.355	8274.47
756.693	8367.58
757.031	8443.73
757.368	8565.31
757.706	8627
758.044	8733.67
758.381	8859.54
758.719	8969.14
759.056	9009.14
759.394	9144.28
759.731	9264.28
760.068	9334.33
760.405	9439.19
760.743	9604.38
761.08	9693.42
761.417	9817.03
761.754	9913.98
762.091	10090.47
762.428	10228.32
762.765	10247.3
763.102	10457.24
763.438	10533.17
763.775	10630.12
764.112	10762.09
764.449	10853.39
764.785	11002.76
765.122	11023.78
765.458	11139.71
765.795	11355.07
766.131	11344.67
766.467	11477.33
766.804	11548.96
767.14	11673.25
767.476	11845.23
767.812	11795.96
768.148	11930.19
768.485	12051.32
768.821	12005.45
769.157	12178.55
769.492	12218.1
769.828	12352.1
770.164	12361.37
770.5	12507.35
770.836	12581.93
771.171	12605.21
771.507	12650.18
771.842	12727.01
772.178	12821.02
772.513	12890.85
772.849	12897.85
773.184	12934.91
773.519	13001.58
773.855	12993.9
774.19	13119.09
774.525	13260.56
774.86	13193.21
775.195	13212.87
775.53	13231.86
775.865	13315.24
776.2	13308.24
776.535	13263.49
776.87	13278.18
777.205	13259.2
777.539	13366.09
777.874	13436.82
778.209	13293.77
778.543	13355.69
778.878	13360.44
779.212	13422.36
779.547	13333.1
779.881	13469.14
780.215	13400.66
780.55	13435.01
780.884	13314.79
781.218	13386.43
781.552	13459.65
781.886	13427.78
782.22	13323.83
782.554	13379.2
782.888	13339.88
783.222	13355.02
783.556	13341.01
783.889	13377.61
784.223	13329.71
784.557	13295.58
784.89	13345.52
785.224	13324.28
785.557	13306.88
785.891	13203.61
786.224	13238.86
786.558	13314.57
786.891	13222.59
787.224	13214.68
787.557	13222.59
787.891	13182.14
788.224	13185.75
788.557	13179.88
788.89	13126.1
789.223	13127.23
789.556	13058.3
789.888	13026.89
790.221	13082.25
790.554	12976.27
790.887	12991.41
791.219	12966.1
791.552	12947.34
791.884	12885.65
792.217	12861.02
792.549	12864.63
792.882	12890.4
793.214	12763.39
793.546	12753.45
793.879	12636.39
794.211	12658.09
794.543	12680.46
794.875	12608.6
795.207	12787.12
795.539	12675.26
795.871	12630.29
796.203	12553.68
796.535	12527.24
796.867	12485.89
797.198	12404.76
797.53	12469.39
797.862	12357.3
798.193	12446.34
798.525	12399.11
798.856	12381.03
799.188	12241.37
799.519	12233.01
799.85	12168.61
800.182	12240.7
800.513	12187.59
800.844	12117.08
801.175	12182.62
801.506	12136.97
801.837	11981.27
802.168	12063.52
802.499	11994.83
802.83	12004.32
803.161	11913.7
803.491	11961.38
803.822	11974.94
804.153	11828.95
804.483	11894.94
804.814	11768.62
805.145	11781.95
805.475	11799.8
805.805	11663.54
806.136	11697.43
806.466	11695.17
806.796	11675.74
807.126	11602.29
807.457	11586.7
807.787	11559.13
808.117	11566.14
808.447	11439.81
808.777	11473.94
809.107	11422.64
809.436	11452.02
809.766	11466.48
810.096	11360.94
810.426	11330.89
810.755	11357.78
811.085	11298.57
811.414	11350.77
811.744	11255.64
812.073	11254.96
812.403	11244.34
812.732	11208.86
813.061	11210.21
813.39	11159.37
813.719	11107.17
814.049	11186.94
814.378	11096.32
814.707	11034.63
815.036	11103.32
815.365	11070.33
815.693	10981.75
816.022	10956.21
816.351	10955.31
816.68	10906.72
817.008	10880.73
817.337	10895.65
817.665	10814.07
817.994	10791.24
818.322	10824.01
818.651	10726.38
818.979	10713.28
819.307	10731.13
819.636	10770.45
819.964	10739.72
820.292	10736.33
820.62	10778.36
820.948	10723.67
821.276	10696.33
821.604	10682.32
821.932	10685.03
822.259	10758.02
822.587	10703.11
822.915	10648.19
823.243	10751.02
823.57	10650.23
823.898	10655.88
824.225	10639.16
824.553	10681.19
824.88	10668.08
825.207	10718.7
825.535	10572.04
825.862	10690.23
826.189	10619.95
826.516	10720.74
826.843	10707.63
827.17	10719.83
827.497	10741.07
827.824	10604.13
828.151	10739.27
828.478	10665.14
828.805	10835.99
829.131	10711.24
829.458	10657.01
829.785	10584.92
830.111	10639.38
830.438	10705.37
830.764	10742.2
831.09	10723.22
831.417	10624.47
831.743	10704.46
832.069	10702.88
832.395	10631.02
832.722	10737.01
833.048	10637.8
833.374	10709.89
833.7	10654.07
834.026	10624.47
834.351	10638.7
834.677	10635.09
835.003	10638.25
835.329	10590.34
835.654	10570.46
835.98	10558.71
836.306	10566.84
836.631	10556.45
836.956	10658.36
837.282	10577.69
837.607	10464.7
837.932	10459.27
838.258	10498.82
838.583	10487.75
838.908	10434.64
839.233	10416.79
839.558	10407.97
839.883	10373.4
840.208	10354.42
840.533	10314.42
840.858	10326.17
841.182	10302.21
841.507	10310.8
841.832	10272.61
842.156	10271.03
842.481	10212.95
842.805	10208.43
843.13	10234.65
843.454	10193.52
843.778	10144.71
844.103	10132.28
844.427	10082.79
844.751	10093.63
845.075	10023.8
845.399	9995.78
845.723	9958.95
846.047	9980.87
846.371	9935.67
846.695	9950.13
847.019	9788.78
847.343	9763.25
847.666	9696.36
847.99	9676.24
848.313	9699.29
848.637	9606.41
848.96	9608
849.284	9672.4
849.607	9513.54
849.931	9570.71
850.254	9399.64
850.577	9390.37
850.9	9392.63
851.223	9370.71
851.546	9348.79
851.869	9286.42
852.192	9332.97
852.515	9243.26
852.838	9203.26
853.161	9154.45
853.483	9125.52
853.806	9072.42
854.129	9114.22
854.451	9028.12
854.774	9031.74
855.096	9005.3
855.419	8974.79
855.741	8923.95
856.063	8882.37
856.385	8842.82
856.708	8830.62
857.03	8848.69
857.352	8879.43
857.674	8785.87
857.996	8739.09
858.318	8642.37
858.64	8689.83
858.961	8689.83
859.283	8626.78
859.605	8564.41
859.926	8552.43
860.248	8568.25
860.57	8547.23
860.891	8573.45
861.212	8506.78
861.534	8481.7
861.855	8494.13
862.176	8540.68
862.498	8441.7
862.819	8451.42
863.14	8418.2
863.461	8395.15
863.782	8378.65
864.103	8380.01
864.424	8329.61
864.745	8371.19
865.065	8320.8
865.386	8286
865.707	8349.27
866.027	8281.25
866.348	8220.46
866.668	8254.81
866.989	8213.46
867.309	8135.94
867.63	8257.3
867.95	8173.91
868.27	8178.2
868.59	8165.55
868.91	8136.85
869.23	8113.12
869.55	8121.93
869.87	8086.68
870.19	8121.26
870.51	8119
870.83	8124.87
871.15	8079.9
871.469	8022.27
871.789	8070.41
872.109	8109.96
872.428	8032.9
872.748	8017.08
873.067	8038.32
873.386	8048.49
873.706	8002.84
874.025	7890.3
874.344	7944.99
874.663	7953.35
874.982	7891.43
875.301	7975.04
875.62	7916.52
875.939	7900.7
876.258	7905.22
876.577	7869.28
876.896	7911.09
877.214	7831.55
877.533	7819.57
877.852	7760.81
878.17	7770.76
878.489	7786.35
878.807	7831.32
879.125	7792.45
879.444	7774.82
879.762	7732.57
880.08	7798.33
880.398	7685.79
880.716	7649.63
881.034	7656.41
881.352	7648.5
881.67	7593.59
881.988	7662.74
882.306	7585.9
882.624	7547.49
882.941	7536.19
883.259	7461.61
883.577	7480.59
883.894	7479.01
884.212	7507.49
884.529	7497.09
884.846	7458.45
885.164	7501.38
885.481	7453.02
885.798	7531.89
886.115	7406.7
886.432	7364.44
886.75	7343.2
887.067	7416.19
887.383	7310.43
887.7	7366.25
888.017	7285.12
888.334	7251
888.651	7269.3
888.967	7228.17
889.284	7195.86
889.6	7235.85
889.917	7134.16
890.233	7133.26
890.55	7168.06
890.866	7182.3
891.182	7141.17
891.498	7123.09
891.815	7047.61
892.131	7013.71
892.447	7041.74
892.763	6968.97
893.079	6971.68
893.395	6961.06
893.71	6944.56
894.026	6952.02
894.342	6942.3
894.657	6828.18
894.973	6829.54
895.289	6791.35
895.604	6853.27
895.92	6768.07
896.235	6770.33
896.55	6744.12
896.865	6725.13
897.181	6693.27
897.496	6716.55
897.811	6694.63
898.126	6698.69
898.441	6632.25
898.756	6614.4
899.071	6541.64
899.386	6573.27
899.7	6514.52
900.015	6449.89
900.33	6433.84
900.644	6414.63
900.959	6442.43
901.273	6423.9
901.588	6362.43
901.902	6360.4
902.216	6347.29
902.531	6316.78
902.845	6340.06
903.159	6288.76
903.473	6278.82
903.787	6248.31
904.101	6203.34
904.415	6143
904.729	6174.87
905.042	6118.6
905.356	6127.86
905.67	6091.25
905.984	6132.83
906.297	6093.51
906.611	6006.51
906.924	6010.58
907.237	5962.89
907.551	5985.27
907.864	5875.21
908.177	5960.41
908.491	5953.85
908.804	5886.51
909.117	5855.33
909.43	5813.07
909.743	5780.07
910.056	5787.08
910.368	5754.31
910.681	5696.01
910.994	5717.25
911.307	5702.56
911.619	5651.94
911.932	5700.75
912.244	5619.85
912.557	5604.71
912.869	5560.19
913.181	5562.68
913.494	5531.27
913.806	5501.44
914.118	5504.83
914.43	5504.83
914.742	5444.04
915.054	5405.62
915.366	5359.52
915.678	5374.66
915.99	5376.24
916.302	5273.65
916.613	5248.79
916.925	5312.29
917.236	5289.69
917.548	5205.17
917.859	5254.21
918.171	5213.08
918.482	5151.16
918.794	5164.27
919.105	5109.81
919.416	5137.61
919.727	5132.86
920.038	5080.21
920.349	5085.63
920.66	5040.21
920.971	5084.5
921.282	4997.95
921.593	4990.04
921.903	4959.98
922.214	5009.7
922.525	4904.84
922.835	4881.57
923.146	4896.93
923.456	4853.32
923.767	4871.85
924.077	4826.2
924.387	4784.17
924.697	4804.51
925.008	4782.36
925.318	4755.69
925.628	4749.14
925.938	4763.83
926.248	4662.36
926.558	4647.22
926.867	4645.41
927.177	4648.8
927.487	4656.04
927.796	4601.57
928.106	4572.87
928.416	4543.04
928.725	4530.16
929.034	4478.87
929.344	4525.64
929.653	4510.73
929.962	4456.04
930.271	4475.7
930.581	4419.43
930.89	4436.61
931.199	4366.78
931.508	4409.71
931.817	4388.47
932.125	4395.25
932.434	4324.52
932.743	4289.94
933.051	4311.41
933.36	4309.6
933.669	4233
933.977	4240.23
934.286	4248.14
934.594	4233.45
934.902	4151.19
935.21	4213.56
935.519	4140.8
935.827	4176.05
936.135	4117.97
936.443	4116.39
936.751	4042.49
937.059	4079.55
937.367	4079.33
937.674	4086.56
937.982	4061.25
938.29	4046.56
938.597	4011.76
938.905	3969.5
939.213	3957.07
939.52	3937.86
939.827	3961.14
940.135	3914.36
940.442	3919.78
940.749	3868.94
941.056	3879.56
941.363	3850.18
941.67	3849.73
941.977	3807.02
942.284	3806.34
942.591	3790.52
942.898	3775.83
943.205	3780.58
943.511	3757.75
943.818	3742.16
944.125	3708.72
944.431	3700.81
944.738	3675.95
945.044	3648.38
945.35	3641.6
945.657	3644.08
945.963	3616.52
946.269	3567.02
946.575	3592.33
946.881	3560.25
947.187	3563.18
947.493	3590.75
947.799	3552.79
948.105	3528.83
948.41	3496.97
948.716	3457.2
949.022	3471.43
949.327	3474.6
949.633	3467.37
949.938	3482.73
950.244	3433.24
950.549	3423.75
950.854	3386.46
951.16	3359.35
951.465	3373.58
951.77	3296.75
952.075	3359.8
952.38	3343.75
952.685	3294.04
952.99	3292.91
953.294	3312.57
953.599	3236.64
953.904	3257.88
954.209	3232.57
954.513	3229.86
954.818	3212.01
955.122	3223.98
955.426	3152.12
955.731	3174.49
956.035	3161.61
956.339	3141.73
956.643	3158.67
956.948	3111.9
957.252	3100.6
957.556	3091.33
957.86	3063.99
958.163	3046.13
958.467	3024.21
958.771	3066.02
959.075	3033.48
959.378	2980.15
959.682	3014.95
959.985	3020.82
960.289	2982.86
960.592	2970.43
960.896	2937.21
961.199	2969.3
961.502	2952.35
961.805	2915.97
962.108	2899.25
962.411	2857.66
962.714	2859.92
963.017	2848.63
963.32	2882.98
963.623	2852.24
963.926	2835.07
964.228	2782.19
964.531	2828.29
964.833	2813.15
965.136	2763.43
965.438	2758.46
965.741	2747.39
966.043	2731.79
966.345	2760.49
966.648	2740.61
966.95	2698.12
967.252	2714.62
967.554	2709.42
967.856	2688.63
968.158	2666.94
968.46	2649.76
968.761	2637.56
969.063	2640.04
969.365	2596.88
969.666	2616.32
969.968	2556.66
970.269	2586.94
970.571	2595.07
970.872	2593.27
971.174	2581.97
971.475	2517.11
971.776	2571.8
972.077	2522.08
972.378	2526.15
972.679	2528.63
972.98	2491.8
973.281	2473.49
973.582	2493.15
973.883	2465.58
974.183	2483.89
974.484	2432.37
974.785	2457.45
975.085	2421.07
975.386	2422.42
975.686	2429.43
975.986	2383.1
976.287	2427.85
976.587	2385.14
976.887	2337.45
977.187	2347.4
977.487	2342.42
977.787	2339.71
978.087	2343.55
978.387	2345.81
978.687	2332.26
978.987	2298.13
979.286	2299.26
979.586	2284.12
979.885	2278.02
980.185	2255.87
980.484	2238.47
980.784	2233.5
981.083	2229.21
981.382	2221.3
981.682	2207.29
981.981	2201.41
982.28	2219.94
982.579	2172.03
982.878	2219.04
983.177	2170.68
983.475	2166.16
983.774	2145.82
984.073	2134.75
984.372	2122.32
984.67	2097.23
984.969	2116.67
985.267	2113.96
985.566	2099.04
985.864	2084.35
986.162	2045.71
986.461	2094.97
986.759	2080.74
987.057	2037.8
987.355	2049.32
987.653	2017.01
987.951	2014.3
988.249	2055.88
988.547	1980.63
988.844	2006.61
989.142	1970
989.44	1950.12
989.737	1936.56
990.035	1966.39
990.332	1958.25
990.63	1933.17
990.927	1930.23
991.224	1955.32
991.521	1945.15
991.819	1917.35
992.116	1930.68
992.413	1891.59
992.71	1893.62
993.006	1844.81
993.303	1876.45
993.6	1862.66
993.897	1841.65
994.193	1851.14
994.49	1831.7
994.787	1819.27
995.083	1820.63
995.379	1770.69
995.676	1791.03
995.972	1803.46
996.268	1753.51
996.565	1802.78
996.861	1785.15
997.157	1759.61
997.453	1733.63
997.749	1720.29
998.044	1746.51
998.34	1712.16
998.636	1727.53
998.932	1722.55
999.227	1695.89
999.523	1688.88
999.818	1677.81
1000.114	1698.6
1000.409	1697.47
1000.704	1651.82
1001	1658.83
1001.295	1670.58
1001.59	1639.84
1001.885	1614.31
1002.18	1565.72
1002.475	1630.13
1002.77	1603.91
1003.065	1591.71
1003.359	1593.74
1003.654	1580.64
1003.949	1584.48
1004.243	1562.56
1004.538	1553.29
1004.832	1557.13
1005.127	1514.88
1005.421	1514.42
1005.715	1532.95
1006.009	1500.19
1006.304	1504.03
1006.598	1506.29
1006.892	1478.27
1007.186	1489.34
1007.48	1482.79
1007.773	1464.93
1008.067	1451.83
1008.361	1450.02
1008.655	1438.95
1008.948	1442.33
1009.242	1418.61
1009.535	1421.54
1009.829	1416.57
1010.122	1414.77
1010.415	1403.24
1010.708	1382.45
1011.001	1370.47
1011.295	1373.64
1011.588	1370.02
1011.881	1364.37
1012.173	1341.55
1012.466	1340.19
1012.759	1350.81
1013.052	1348.55
1013.344	1331.6
1013.637	1316.24
1013.93	1311.94
1014.222	1330.7
1014.514	1291.15
1014.807	1272.4
1015.099	1260.19
1015.391	1296.58
1015.683	1260.19
1015.976	1265.16
1016.268	1245.96
1016.56	1238.5
1016.851	1221.78
1017.143	1241.66
1017.435	1215.22
1017.727	1199.18
1018.018	1216.8
1018.31	1239.4
1018.602	1203.92
1018.893	1181.78
1019.185	1204.38
1019.476	1159.86
1019.767	1177.26
1020.058	1159.4
1020.35	1142
1020.641	1141.1
1020.932	1146.3
1021.223	1119.18
1021.514	1120.76
1021.804	1116.24
1022.095	1104.49
1022.386	1102.23
1022.677	1091.38
1022.967	1087.77
1023.258	1120.76
1023.548	1083.47
1023.839	1068.56
1024.129	1062.46
1024.419	1048.9
1024.709	1089.35
1025	1036.92
1025.29	1043.7
1025.58	1065.85
1025.87	1036.92
1026.16	1024.04
1026.449	1023.36
1026.739	991.73
1027.029	998.28
1027.319	1010.03
1027.608	983.59
1027.898	1010.93
1028.187	995.79
1028.477	981.78
1028.766	972.06
1029.055	981.56
1029.344	923.7
1029.634	953.99
1029.923	929.35
1030.212	918.96
1030.501	951.73
1030.79	891.39
1031.078	960.31
1031.367	932.07
1031.656	918.96
1031.945	921.9
1032.233	879.86
1032.522	919.86
1032.81	884.38
1033.099	887.55
1033.387	877.6
1033.675	870.6
1033.963	892.52
1034.251	889.36
1034.54	848.45
1034.828	855.46
1035.116	854.55
1035.403	836.7
1035.691	849.81
1035.979	836.93
1036.267	830.83
1036.554	813.65
1036.842	803.03
1037.129	799.87
1037.417	838.06
1037.704	816.81
1037.992	794.89
1038.279	795.8
1038.566	812.3
1038.853	812.3
1039.14	812.3
