Data from hue_300_FLMS001491_00081.txt Node
Date: Tue Feb 07 15:51:19 GMT 2017
User: dcchb
Spectrometer: FLMS00149
Trigger mode: 0
Integration Time (sec): 2.000000E-2
Scans to average: 10
Electric dark correction enabled: true
Nonlinearity correction enabled: false
Boxcar width: 0
XAxis mode: Wavelengths
Number of Pixels in Spectrum: 2048
>>>>>Begin Spectral Data<<<<<
341.393	-4.01
341.776	-4.01
342.16	-4.01
342.543	-55.99
342.927	-44.46
343.31	-53.28
343.693	-66.61
344.077	-63.44
344.46	-67.29
344.843	-56.44
345.226	-48.53
345.61	-25.71
345.993	-17.34
346.376	-5.14
346.759	18.36
347.142	31.02
347.525	35.54
347.908	64.01
348.291	65.59
348.674	85.25
349.057	104.01
349.44	111.47
349.823	162.09
350.206	163.67
350.588	193.27
350.971	206.83
351.354	256.77
351.737	244.8
352.119	243.21
352.502	262.42
352.884	281.86
353.267	312.36
353.65	299.03
354.032	289.09
354.414	311.01
354.797	318.01
355.179	337.22
355.562	310.33
355.944	323.89
356.326	326.15
356.709	355.3
357.091	330.67
357.473	331.8
357.855	346.26
358.238	365.92
358.62	351.91
359.002	323.89
359.384	377.22
359.766	360.05
360.148	341.97
360.53	357.11
360.912	344.91
361.294	327.96
361.676	346.04
362.057	338.35
362.439	337
362.821	346.49
363.203	332.48
363.584	335.87
363.966	309.2
364.348	337.45
364.729	343.1
365.111	343.55
365.493	322.53
365.874	317.79
366.256	308.97
366.637	309.88
367.019	322.31
367.4	317.79
367.781	313.04
368.163	311.69
368.544	318.47
368.925	312.82
369.306	330.44
369.688	320.73
370.069	325.47
370.45	293.38
370.831	336.54
371.212	308.97
371.593	330.22
371.974	342.19
372.355	324.12
372.736	322.99
373.117	323.44
373.498	344.68
373.879	326.6
374.26	330.67
374.641	329.09
375.021	337.45
375.402	329.77
375.783	329.54
376.163	349.2
376.544	356.66
376.925	362.08
377.305	321.4
377.686	332.25
378.066	344.23
378.447	327.51
378.827	344.23
379.208	352.82
379.588	341.29
379.968	353.49
380.349	367.96
380.729	347.17
381.109	344.68
381.489	340.84
381.87	353.95
382.25	337.45
382.63	348.75
383.01	338.13
383.39	362.31
383.77	331.12
384.15	369.09
384.53	361.85
384.91	373.38
385.29	351.01
385.67	346.26
386.049	376.32
386.429	362.08
386.809	360.27
387.189	374.74
387.568	362.76
387.948	380.16
388.328	376.54
388.707	381.52
389.087	375.41
389.466	385.13
389.846	395.75
390.225	395.75
390.605	399.82
390.984	391.46
391.363	400.27
391.743	398.92
392.122	394.4
392.501	407.28
392.881	401.63
393.26	410.89
393.639	419.71
394.018	392.36
394.397	401.4
394.776	434.85
395.155	417.45
395.534	415.41
395.913	419.93
396.292	434.17
396.671	422.42
397.05	425.36
397.429	431.23
397.808	431.91
398.186	426.71
398.565	435.98
398.944	446.15
399.323	428.97
399.701	426.03
400.08	443.21
400.458	430.33
400.837	445.24
401.215	449.99
401.594	458.35
401.972	474.17
402.351	468.74
402.729	482.98
403.107	489.08
403.486	480.5
403.864	480.27
404.242	473.04
404.62	482.53
404.999	494.96
405.377	486.6
405.755	495.41
406.133	513.72
406.511	520.95
406.889	504.9
407.267	522.98
407.645	545.8
408.023	541.29
408.401	550.1
408.779	544
409.156	541.06
409.534	567.05
409.912	575.18
410.29	574.28
410.667	579.02
411.045	602.98
411.422	608.63
411.8	606.82
412.178	607.27
412.555	634.16
412.933	642.75
413.31	629.64
413.687	666.93
414.065	662.19
414.442	686.14
414.819	680.49
415.197	711.22
415.574	712.35
415.951	725.69
416.328	732.69
416.705	737.89
417.082	751.45
417.46	740.38
417.837	780.15
418.214	760.04
418.591	802.3
418.967	783.31
419.344	796.42
419.721	802.07
420.098	829.87
420.475	824.89
420.852	844.78
421.228	857.89
421.605	880.03
421.982	871.45
422.358	896.08
422.735	911.9
423.111	893.37
423.488	923.87
423.864	929.98
424.241	948.51
424.617	958.22
424.994	957.32
425.37	972.91
425.746	968.84
426.123	973.14
426.499	973.36
426.875	1019.01
427.251	1029.41
427.627	1039.13
428.003	1063.08
428.379	1061.05
428.756	1070.08
429.132	1107.37
429.507	1113.93
429.883	1134.26
430.259	1130.65
430.635	1123.64
431.011	1162.51
431.387	1182.4
431.763	1205
432.138	1230.08
432.514	1213.36
432.89	1230.08
433.265	1242.06
433.641	1284.32
434.016	1300.36
434.392	1281.15
434.767	1304.2
435.143	1334.94
435.518	1325.22
435.894	1362.28
436.269	1383.07
436.644	1403.64
437.02	1380.36
437.395	1409.96
437.77	1442.5
438.145	1449.74
438.52	1467.14
438.895	1467.59
439.271	1481.6
439.646	1516.85
440.021	1494.93
440.395	1496.51
440.77	1518.21
441.145	1513.24
441.52	1547.59
441.895	1580.81
442.27	1564.76
442.645	1523.63
443.019	1581.71
443.394	1591.43
443.769	1576.51
444.143	1562.5
444.518	1596.85
444.892	1590.98
445.267	1610.18
445.641	1617.19
446.016	1595.72
446.39	1631.2
446.764	1649.28
447.139	1617.19
447.513	1652.89
447.887	1651.76
448.262	1666.91
448.636	1708.26
449.01	1672.1
449.384	1694.93
449.758	1706.9
450.132	1707.58
450.506	1726.34
450.88	1712.33
451.254	1722.27
451.628	1734.02
452.002	1778.77
452.376	1746.45
452.75	1759.33
453.123	1783.29
453.497	1811.08
453.871	1786
454.244	1844.08
454.618	1858.99
454.992	1871.42
455.365	1853.12
455.739	1898.99
456.112	1910.97
456.486	1910.29
456.859	1906.9
457.232	1953.68
457.606	1964.98
457.979	1945.99
458.352	2005.88
458.725	2013.56
459.099	2004.75
459.472	2013.11
459.845	2055.82
460.218	2063.51
460.591	2045.2
460.964	2089.27
461.337	2119.55
461.71	2117.29
462.083	2170.62
462.456	2198.87
462.829	2174.69
463.201	2231.64
463.574	2184.63
463.947	2225.99
464.32	2289.26
464.692	2268.47
465.065	2260.34
465.438	2315.48
465.81	2329.71
466.183	2330.84
466.555	2382.82
466.928	2457.39
467.3	2400.22
467.672	2400.22
468.045	2456.94
468.417	2472.99
468.789	2479.77
469.161	2463.04
469.534	2534.91
469.906	2584.85
470.278	2565.19
470.65	2573.55
471.022	2620.78
471.394	2646.09
471.766	2667.11
472.138	2680.66
472.51	2734.45
472.882	2766.09
473.253	2748.68
473.625	2805.18
473.997	2882.24
474.369	2849.93
474.74	2868.46
475.112	2950.49
475.484	2962.24
475.855	2983.03
476.227	3033.88
476.598	3038.85
476.97	3093.08
477.341	3165.62
477.713	3175.79
478.084	3156.58
478.455	3243.59
478.827	3233.42
479.198	3353.19
479.569	3304.6
479.94	3396.35
480.311	3455.78
480.682	3455.33
481.053	3514.31
481.424	3587.76
481.795	3585.95
482.166	3663.91
482.537	3677.02
482.908	3704.14
483.279	3750.24
483.65	3758.15
484.021	3818.26
484.391	3881.08
484.762	3858.94
485.133	3891.03
485.503	3938.48
485.874	3988.88
486.244	4014.41
486.615	4074.53
486.985	4128.76
487.356	4141.64
487.726	4198.14
488.097	4251.7
488.467	4260.96
488.837	4382.31
489.207	4346.38
489.578	4402.88
489.948	4454.85
490.318	4469.32
490.688	4476.77
491.058	4572.59
491.428	4613.04
491.798	4685.58
492.168	4703.66
492.538	4734.4
492.908	4719.25
493.278	4769.87
493.648	4787.95
494.017	4813.04
494.387	4851.68
494.757	4883.32
495.126	4945.92
495.496	4916.99
495.866	5008.29
496.235	5032.47
496.605	5049.64
496.974	5074.73
497.344	5081.96
497.713	5143.65
498.082	5166.02
498.452	5260.71
498.821	5229.3
499.19	5194.5
499.559	5268.84
499.928	5197.43
500.298	5314.94
500.667	5309.3
501.036	5328.28
501.405	5398.33
501.774	5363.98
502.143	5375.73
502.512	5425.22
502.88	5419.35
503.249	5470.87
503.618	5425.45
503.987	5474.71
504.356	5481.95
504.724	5596.75
505.093	5553.13
505.462	5566.46
505.83	5568.95
506.199	5587.48
506.567	5650.98
506.936	5611.66
507.304	5717.65
507.672	5730.75
508.041	5754.03
508.409	5764.42
508.777	5823.18
509.145	5855.27
509.514	5774.37
509.882	5852.78
510.25	5871.77
510.618	5881.48
510.986	5898.21
511.354	5964.65
511.722	6006.23
512.09	5999.9
512.458	5976.4
512.826	6024.98
513.193	6071.31
513.561	6071.54
513.929	6087.58
514.297	6087.81
514.664	6173.23
515.032	6163.96
515.4	6200.35
515.767	6248.03
516.135	6185.88
516.502	6155.37
516.869	6216.84
517.237	6290.29
517.604	6246.45
517.972	6341.13
518.339	6303.62
518.706	6350.85
519.073	6350.17
519.44	6369.15
519.808	6391.98
520.175	6434.92
520.542	6476.04
520.909	6413.9
521.276	6466.55
521.643	6555.36
522.009	6574.35
522.376	6541.81
522.743	6577.28
523.11	6707.9
523.477	6664.97
523.843	6759.65
524.21	6791.74
524.577	6816.15
524.943	6821.35
525.31	6854.79
525.676	6897.05
526.043	6909.03
526.409	6951.29
526.776	7008.91
527.142	7007.56
527.508	7069.02
527.874	7150.38
528.241	7098.63
528.607	7150.6
528.973	7200.32
529.339	7227.66
529.705	7220.21
530.071	7317.15
530.437	7312.86
530.803	7400.99
531.169	7392.4
531.535	7410.48
531.901	7411.39
532.267	7440.31
532.632	7493.19
532.998	7551.5
533.364	7600.31
533.73	7652.06
534.095	7645.73
534.461	7719.18
534.826	7683.92
535.192	7710.36
535.557	7739.51
535.923	7826.52
536.288	7882.34
536.653	7908.55
537.019	7838.04
537.384	7899.96
537.749	7934.09
538.114	7942.9
538.479	8009.79
538.845	8017.7
539.21	8021.54
539.575	8071.03
539.94	8056.12
540.305	8160.97
540.67	8181.76
541.034	8153.74
541.399	8196.23
541.764	8279.61
542.129	8300.86
542.494	8393.73
542.858	8396.67
543.223	8415.43
543.587	8439.38
543.952	8425.15
544.316	8473.51
544.681	8444.81
545.045	8560.74
545.41	8632.82
545.774	8668.76
546.138	8678.92
546.503	8633.73
546.867	8639.15
547.231	8789.2
547.595	8735.65
547.959	8830.33
548.324	8847.28
548.688	8814.97
549.052	8948.75
549.416	8904.46
549.779	8902.87
550.143	8977
550.507	9051.8
550.871	9040.5
551.235	9078.69
551.599	9118.23
551.962	9148.52
552.326	9103.09
552.689	9174.28
553.053	9250.21
553.417	9195.29
553.78	9261.28
554.143	9297.44
554.507	9284.11
554.87	9357.1
555.234	9450.43
555.597	9452.01
555.96	9450.43
556.323	9386.93
556.686	9499.02
557.05	9581.05
557.413	9515.29
557.776	9520.26
558.139	9635.06
558.502	9665.11
558.865	9616.98
559.228	9740.14
559.59	9805.22
559.953	9722.51
560.316	9895.16
560.679	9827.37
561.041	9826.92
561.404	9922.73
561.767	9946.46
562.129	9929.29
562.492	10009.74
562.854	9971.09
563.217	10020.58
563.579	10090.64
563.941	10167.92
564.304	10060.81
564.666	10186.23
565.028	10173.12
565.39	10232.33
565.753	10278.43
566.115	10294.93
566.477	10316.62
566.839	10322.72
567.201	10415.15
567.563	10387.35
567.925	10506.45
568.287	10575.37
568.648	10608.82
569.01	10570.85
569.372	10697.4
569.734	10687.69
570.095	10754.12
570.457	10790.73
570.819	10913.67
571.18	10796.83
571.542	10900.33
571.903	10979.2
572.265	10972.65
572.626	11043.38
572.987	11114.79
573.349	11148.69
573.71	11284.96
574.071	11329.93
574.432	11374.22
574.794	11516.36
575.155	11468.46
575.516	11479.53
575.877	11667.55
576.238	11769.69
576.599	11886.07
576.96	11886.75
577.32	12024.83
577.681	12099.63
578.042	12293.07
578.403	12333.74
578.763	12423.91
579.124	12570.12
579.485	12701.64
579.845	12862.77
580.206	12851.02
580.566	13096.21
580.927	13255.98
581.287	13547.72
581.648	13621.85
582.008	13834.95
582.368	13918.56
582.728	14194.26
583.089	14311.54
583.449	14486.68
583.809	14754.02
584.169	14970.51
584.529	15143.61
584.889	15431.29
585.249	15499.76
585.609	15801.67
585.969	16111.95
586.329	16303.81
586.688	16659.51
587.048	16878.93
587.408	17152.37
587.768	17425.81
588.127	17633.49
588.487	17943.31
588.846	18403.87
589.206	18474.15
589.565	18876.17
589.925	19270.28
590.284	19392.09
590.643	19881.12
591.003	20236.36
591.362	20547.09
591.721	20892.16
592.08	21154.98
592.44	21538.93
592.799	21870.67
593.158	22246.48
593.517	22617.54
593.876	22994.93
594.235	23161.26
594.593	23600.57
594.952	23933.21
595.311	24229.02
595.67	24524.16
596.029	25048.89
596.387	25468.99
596.746	25688.65
597.104	25992.82
597.463	26287.95
597.822	26819.01
598.18	26928.84
598.538	27259.45
598.897	27669.84
599.255	27902.6
599.613	28487.22
599.972	28778.06
600.33	29190.25
600.688	29323.81
601.046	29684.93
601.404	30110.45
601.762	30345.47
602.12	30777.78
602.478	31106.36
602.836	31304.32
603.194	31432.45
603.552	31790.86
603.91	32011.42
604.268	32489.15
604.625	32613.89
604.983	32973.2
605.341	32913.77
605.698	33491.38
606.056	33730.47
606.413	34155.54
606.771	34468.3
607.128	34653.16
607.485	34694.74
607.843	35024.45
608.2	35431.22
608.557	35894.48
608.914	35818.32
609.272	36230.29
609.629	36508.48
609.986	36765.42
610.343	36715.48
610.7	37213.09
611.057	37394.78
611.414	37503.7
611.771	37696.69
612.127	38130.81
612.484	38225.72
612.841	38462.1
613.198	38412.61
613.554	38634.07
613.911	38986.15
614.267	39163.77
614.624	39251.45
614.98	39472.46
615.337	39855.96
615.693	39840.36
616.05	39975.95
616.406	40326.68
616.762	40304.99
617.118	40438.09
617.475	40713.56
617.831	40974.35
618.187	41025.42
618.543	41279.2
618.899	41570.94
619.255	41510.6
619.611	41569.81
619.967	41871.5
620.323	42123.24
620.678	42056.8
621.034	42017.48
621.39	42172.05
621.746	42174.77
622.101	42678.03
622.457	42480.97
622.812	42706.05
623.168	42881.64
623.523	42990.34
623.879	43217.68
624.234	43000.51
624.589	43147.62
624.945	43350.78
625.3	43303.1
625.655	43438.24
626.01	43557.33
626.365	43618.34
626.72	43554.84
627.075	43584.9
627.43	43791.67
627.785	43660.15
628.14	43865.12
628.495	44021.5
628.85	43934.95
629.205	43920.48
629.559	44156.86
629.914	44011.1
630.269	44197.76
630.623	44030.54
630.978	44106.47
631.332	44069.63
631.687	44353.01
632.041	44093.59
632.396	44248.16
632.75	44056.75
633.104	44185.56
633.459	44117.99
633.813	44103.08
634.167	44110.08
634.521	44187.14
634.875	44296.97
635.229	44229.85
635.583	44160.48
635.937	44201.15
636.291	44216.75
636.645	44050.65
636.999	44082.06
637.352	44292.23
637.706	43960.48
638.06	44339.23
638.413	44171.55
638.767	44114.83
639.121	44029.18
639.474	43872.35
639.828	43987.6
640.181	43954.38
640.534	44107.82
640.888	43970.88
641.241	43709.42
641.594	43906.25
641.947	44099.46
642.301	43962.97
642.654	44034.38
643.007	44189.4
643.36	43976.08
643.713	43995.06
644.066	44163.19
644.419	43882.97
644.771	43710.55
645.124	43195.53
645.477	43150.11
645.83	42886.84
646.182	42794.19
646.535	42647.97
646.888	42785.15
647.24	42489.11
647.593	42856.33
647.945	42842.77
648.298	42549.22
648.65	42682.1
649.002	42505.38
649.355	42758.93
649.707	42595.09
650.059	42711.02
650.411	43226.94
650.763	43260.61
651.115	43623.99
651.467	43479.37
651.819	43571.11
652.171	43652.47
652.523	43426.26
652.875	43419.25
653.227	43230.56
653.578	43687.5
653.93	43390.33
654.282	43296.77
654.633	43239.37
654.985	43365.47
655.337	43468.52
655.688	43341.29
656.039	43494.28
656.391	43205.7
656.742	43018.59
657.094	43186.49
657.445	43407.28
657.796	43340.16
658.147	43204.8
658.498	43370.22
658.849	43219.03
659.2	43265.81
659.551	43163.44
659.902	43241.63
660.253	43165.48
660.604	43122.76
660.955	43122.99
661.306	43046.38
661.656	43031.47
662.007	43009.1
662.358	43133.39
662.708	43124.57
663.059	43044.12
663.409	42811.59
663.76	43192.82
664.11	42979.72
664.461	43132.71
664.811	42949.21
665.161	43101.97
665.511	42906.5
665.862	43031.24
666.212	43140.39
666.562	43151.24
666.912	43035.08
667.262	43129.77
667.612	43040.96
667.962	43075.31
668.312	43090.67
668.662	43118.47
669.011	43030.34
669.361	42889.55
669.711	43003.45
670.06	42853.62
670.41	42748.09
670.76	42752.38
671.109	43100.17
671.459	42931.13
671.808	42762.32
672.157	42987.4
672.507	42662.66
672.856	42622.66
673.205	42760.97
673.554	42787.63
673.904	42743.11
674.253	42741.08
674.602	42619.05
674.951	42088.44
675.3	41942.23
675.649	42655.88
675.998	42578.37
676.346	42486.62
676.695	42627.18
677.044	42352.62
677.393	42493.4
677.741	42421.31
678.09	42302
678.438	42347.87
678.787	42358.72
679.135	42333.18
679.484	42049.35
679.832	42353.75
680.181	41981.1
680.529	42124.82
680.877	42053.87
681.225	42046.86
681.573	42199.62
681.922	41970.7
682.27	41850.93
682.618	41820.88
682.966	41714.67
683.314	41877.37
683.661	41570.71
684.009	41524.39
684.357	41560.09
684.705	41471.51
685.053	41521
685.4	41360.32
685.748	41113.78
686.095	41176.15
686.443	41025.87
686.79	41045.53
687.138	41123.49
687.485	40923.95
687.832	40838.53
688.18	40857.51
688.527	40682.38
688.874	40752.88
689.221	40494.81
689.568	40458.88
689.915	40411.65
690.262	40437.64
690.609	40233.57
690.956	40369.16
691.303	40100.25
691.65	40197.19
691.997	39981.6
692.344	39764.43
692.69	39759.92
693.037	39592.91
693.383	39359.47
693.73	39536.42
694.077	39362.41
694.423	39193.83
694.769	39199.93
695.116	39040.84
695.462	39054.17
695.808	39006.04
696.155	39005.13
696.501	38601.53
696.847	38747.06
697.193	38537.8
697.539	38509.1
697.885	38344.81
698.231	38125.16
698.577	38214.42
698.923	38154.53
699.269	37937.14
699.614	37715.67
699.96	37753.41
700.306	37738.27
700.651	37533.76
700.997	37376.93
701.342	37483.36
701.688	37367.89
702.033	37201.34
702.379	37281.79
702.724	36999.76
703.069	37205.18
703.415	36745.98
703.76	36728.81
704.105	36870.05
704.45	36632.99
704.795	36461.7
705.14	36317.29
705.485	36256.05
705.83	36183.29
706.175	36271.87
706.52	36179.22
706.865	35946.46
707.209	36000.92
707.554	35852.67
707.899	35931.54
708.243	35676.86
708.588	35657.2
708.932	35557.31
709.277	35405.91
709.621	35335.62
709.966	35215.63
710.31	35210.88
710.654	34942.41
710.998	35074.39
711.342	34999.81
711.687	34873.26
712.031	34813.38
712.375	34560.73
712.719	34663.78
713.063	34707.17
713.407	34745.13
713.75	34643.21
714.094	34524.57
714.438	34408.87
714.782	34405.48
715.125	34172.27
715.469	34287.29
715.812	34052.72
716.156	33905.61
716.499	33904.48
716.843	34028.54
717.186	33898.37
717.53	33926.17
717.873	33891.14
718.216	33769.34
718.559	33647.99
718.902	33417.71
719.246	33519.85
719.589	33436.01
719.932	33352.85
720.275	33289.12
720.617	33394.66
720.96	33256.81
721.303	33123.25
721.646	33210.71
721.989	33023.14
722.331	33185.85
722.674	32990.83
723.016	32935.01
723.359	32917.61
723.701	32951.73
724.044	32707.67
724.386	32653.66
724.729	32654.79
725.071	32518.3
725.413	32522.37
725.755	32470.62
726.097	32500.9
726.439	32234.24
726.782	32281.47
727.124	32405.31
727.465	32170.96
727.807	32310.17
728.149	32217.97
728.491	32118.99
728.833	32204.18
729.175	31985.43
729.516	32119.21
729.858	31969.39
730.199	31924.64
730.541	31946.11
730.882	31794.02
731.224	31868.6
731.565	31758.09
731.906	31696.17
732.248	31564.2
732.589	31486.91
732.93	31443.3
733.271	31603.29
733.612	31386.35
733.953	31527.36
734.294	31397.2
734.635	31192
734.976	31321.94
735.317	31267.03
735.658	31110.2
735.999	31163.76
736.339	31052.35
736.68	31048.73
737.021	30998.11
737.361	30843.99
737.702	31019.81
738.042	30863.2
738.383	30995.17
738.723	30932.8
739.063	30799.02
739.404	30870.66
739.744	30765.8
740.084	30632.25
740.424	30666.37
740.764	30686.26
741.104	30773.94
741.444	30399.94
741.784	30519.71
742.124	30434.74
742.464	30461.18
742.804	30380.95
743.143	30357.45
743.483	30406.71
743.823	30145.93
744.162	30226.83
744.502	30200.84
744.841	30027.06
745.181	30134.63
745.52	30184.57
745.86	30072.49
746.199	30146.16
746.538	30021.64
746.877	30102.32
747.216	30012.83
747.556	29966.5
747.895	29950.23
748.234	29869.78
748.573	29757.92
748.911	29754.75
749.25	29768.77
749.589	29696.9
749.928	29626.4
750.267	29635.66
750.605	29721.08
750.944	29604.25
751.283	29398.83
751.621	29567.87
751.96	29426.63
752.298	29505.5
752.636	29388.89
752.975	29375.78
753.313	29243.58
753.651	29289.68
753.989	29248.55
754.327	29108.67
754.666	29065.73
755.004	29172.4
755.342	29153.64
755.679	29024.83
756.017	28875.23
756.355	29145.05
756.693	28837.26
757.031	29021.89
757.368	28859.18
757.706	28745.06
758.044	28608.12
758.381	28646.76
758.719	28561.79
759.056	28590.27
759.394	28582.13
759.731	28336.71
760.068	28320.44
760.405	28192.76
760.743	28281.35
761.08	28168.81
761.417	28153.44
761.754	27986.21
762.091	28005.2
762.428	27892.66
762.765	27754.35
763.102	27697.86
763.438	27717.75
763.775	27677.29
764.112	27565.66
764.449	27544.19
764.785	27450.18
765.122	27180.58
765.458	27156.4
765.795	27310.3
766.131	27284.76
766.467	27045.67
766.804	26900.37
767.14	26841.16
767.476	26860.59
767.812	26722.07
768.148	26683.2
768.485	26641.62
768.821	26510.77
769.157	26438.01
769.492	26358.01
769.828	26340.83
770.164	26002.76
770.5	26150.1
770.836	26122.53
771.171	25932.48
771.507	25762.54
771.842	25623.56
772.178	25693.84
772.513	25643.45
772.849	25473.96
773.184	25508.54
773.519	25405.04
773.855	25309.45
774.19	25196
774.525	25159.62
774.86	25062.45
775.195	25080.08
775.53	24950.36
775.865	24747.88
776.2	24633.99
776.535	24432.86
776.87	24486.64
777.205	24391.05
777.539	24268.57
777.874	24373.43
778.209	24103.6
778.543	23979.54
778.878	23963.27
779.212	23967.56
779.547	23742.03
779.881	23842.14
780.215	23671.98
780.55	23670.17
780.884	23478.31
781.218	23462.72
781.552	23548.36
781.886	23208.71
782.22	23173.68
782.554	23135.27
782.888	22888.27
783.222	22836.74
783.556	22819.12
783.889	22808.27
784.223	22617.99
784.557	22512.46
784.89	22485.34
785.224	22427.04
785.557	22285.35
785.891	22273.37
786.224	22108.4
786.558	22159.7
786.891	21988.63
787.224	21802.2
787.557	21720.84
787.891	21736.66
788.224	21798.13
788.557	21783.21
788.89	21611.24
789.223	21547.06
789.556	21386.61
789.888	21263
790.221	21338.48
790.554	21180.06
790.887	21166.51
791.219	21071.82
791.552	21073.17
791.884	20809.9
792.217	20836.12
792.549	20809.45
792.882	20613.3
793.214	20646.97
793.546	20587.31
793.879	20488.33
794.211	20308.45
794.543	20386.87
794.875	20242.91
795.207	20343.48
795.539	20183.25
795.871	20119.98
796.203	20017.61
796.535	19878.86
796.867	19924.05
797.198	19823.72
797.53	19787.56
797.862	19636.83
798.193	19657.84
798.525	19527.45
798.856	19569.71
799.188	19373.33
799.519	19330.17
799.85	19206.33
800.182	19324.52
800.513	19173.34
800.844	18984.87
801.175	19195.94
801.506	19074.13
801.837	18894.47
802.168	19004.98
802.499	18844.31
802.83	18783.74
803.161	18645.22
803.491	18658.32
803.822	18752.11
804.153	18593.47
804.483	18396.63
804.814	18414.71
805.145	18395.51
805.475	18319.8
805.805	18302.85
806.136	18311.89
806.466	18231.89
806.796	18095.85
807.126	18072.58
807.457	18035.06
807.787	18059.92
808.117	17994.39
808.447	17842.3
808.777	17894.28
809.107	17791
809.436	17726.14
809.766	17680.5
810.096	17653.15
810.426	17661.29
810.755	17529.99
811.085	17540.61
811.414	17515.98
811.744	17404.57
812.073	17468.52
812.403	17353.5
812.732	17196.67
813.061	17219.04
813.39	17186.72
813.719	17115.99
814.049	17177.23
814.378	17070.79
814.707	16959.61
815.036	16949.22
815.365	16825.15
815.693	16828.54
816.022	16793.29
816.351	16732.05
816.68	16629.9
817.008	16711.26
817.337	16568.89
817.665	16513.52
817.994	16524.14
818.322	16458.15
818.651	16375.67
818.979	16337.71
819.307	16452.51
819.636	16366.63
819.964	16238.5
820.292	16345.62
820.62	16271.49
820.948	16189.01
821.276	16194.88
821.604	16156.47
821.932	16215.45
822.259	16214.32
822.587	16151.5
822.915	16081.22
823.243	16312.17
823.57	16138.16
823.898	16202.57
824.225	16072.4
824.553	16057.26
824.88	16177.71
825.207	16210.48
825.535	16106.98
825.862	16182.91
826.189	16068.33
826.516	16200.31
826.843	16177.48
827.17	16126.64
827.497	16116.69
827.824	16189.91
828.151	16167.32
828.478	16158.73
828.805	16133.87
829.131	16154.66
829.458	16129.58
829.785	16047.32
830.111	15982.24
830.438	16047.09
830.764	16004.16
831.09	16081.44
831.417	15975.23
831.743	16010.71
832.069	16039.18
832.395	15992.86
832.722	16008.9
833.048	15900.2
833.374	15992.4
833.7	15818.4
834.026	15833.09
834.351	15856.59
834.677	15834.44
835.003	15865.85
835.329	15765.74
835.654	15778.85
835.98	15813.65
836.306	15797.83
836.631	15806.65
836.956	15792.64
837.282	15759.64
837.607	15676.93
837.932	15634.45
838.258	15629.02
838.583	15596.26
838.908	15629.48
839.233	15582.47
839.558	15504.51
839.883	15472.42
840.208	15437.84
840.533	15468.35
840.858	15362.36
841.182	15440.1
841.507	15424.28
841.832	15333.89
842.156	15256.15
842.481	15309.71
842.805	15264.06
843.13	15200.56
843.454	15190.84
843.778	14988.14
844.103	15087.12
844.427	15008.02
844.751	15071.52
845.075	15003.73
845.399	14929.61
845.723	14814.13
846.047	14889.38
846.371	14681.93
846.695	14784.98
847.019	14622.95
847.343	14579.79
847.666	14429.28
847.99	14454.37
848.313	14429.73
848.637	14402.39
848.96	14292.79
849.284	14273.81
849.607	14123.07
849.931	14126.69
850.254	14019.8
850.577	13915.85
850.9	13915.17
851.223	13933.48
851.546	13803.54
851.869	13730.77
852.192	13793.59
852.515	13632.69
852.838	13614.16
853.161	13599.02
853.483	13576.42
853.806	13498.01
854.129	13472.24
854.451	13421.85
854.774	13351.8
855.096	13292.14
855.419	13294.4
855.741	13277
856.063	13203.33
856.385	13189.09
856.708	13143.89
857.03	13001.3
857.352	13127.17
857.674	13073.61
857.996	12927.4
858.318	12868.19
858.64	12880.62
858.961	12794.07
859.283	12786.61
859.605	12768.31
859.926	12724.02
860.248	12737.35
860.57	12614.87
860.891	12666.62
861.212	12604.92
861.534	12537.81
861.855	12578.26
862.176	12526.73
862.498	12461.42
862.819	12436.34
863.14	12421.88
863.461	12473.17
863.782	12369.9
864.103	12385.49
864.424	12317.7
864.745	12350.92
865.065	12273.63
865.386	12136.01
865.707	12190.24
866.027	12225.5
866.348	12238.38
866.668	12272.28
866.989	12089.46
867.309	12099.85
867.63	12132.17
867.95	12116.57
868.27	12040.19
868.59	12046.29
868.91	11984.37
869.23	11968.78
869.55	11910.03
869.87	11957.03
870.19	11942.57
870.51	11936.69
870.83	11889.69
871.15	11809.92
871.469	11877.48
871.789	11865.28
872.109	11853.3
872.428	11810.59
872.748	11836.58
873.067	11734.89
873.386	11830.71
873.706	11796.81
874.025	11677.26
874.344	11665.74
874.663	11682.24
874.982	11669.13
875.301	11616.25
875.62	11622.12
875.939	11650.37
876.258	11612.63
876.577	11531.05
876.896	11541
877.214	11449.47
877.533	11546.65
877.852	11495.12
878.17	11429.81
878.489	11490.15
878.807	11412.86
879.125	11407.44
879.444	11362.7
879.762	11340.32
880.08	11357.27
880.398	11240.44
880.716	11286.31
881.034	11215.13
881.352	11278.63
881.67	11237.28
881.988	11267.78
882.306	11133.78
882.624	11145.3
882.941	11124.28
883.259	11056.71
883.577	11046.09
883.894	11006.09
884.212	11015.13
884.529	10995.02
884.846	11019.88
885.164	10936.72
885.481	10865.99
885.798	10922.93
886.115	10893.78
886.432	10852.88
886.75	10797.51
887.067	10804.07
887.383	10747.34
887.7	10776.72
888.017	10690.4
888.334	10647.01
888.651	10660.57
888.967	10616.27
889.284	10627.12
889.6	10553.9
889.917	10501.02
890.233	10541.25
890.55	10439.56
890.866	10468.48
891.182	10423.96
891.498	10420.35
891.815	10284.08
892.131	10281.82
892.447	10294.48
892.763	10247.92
893.079	10177.19
893.395	10276.62
893.71	10162.5
894.026	10040.92
894.342	10102.39
894.657	10061.49
894.973	10039.57
895.289	10001.83
895.604	10015.39
895.92	9876.63
896.235	9876.63
896.55	9812.91
896.865	9858.55
897.181	9813.81
897.496	9815.62
897.811	9727.94
898.126	9730.42
898.441	9674.38
898.756	9659.24
899.071	9645.45
899.386	9536.08
899.7	9487.49
900.015	9448.85
900.33	9481.84
900.644	9458.56
900.959	9452.01
901.273	9342.64
901.588	9319.59
901.902	9308.06
902.216	9262.19
902.531	9258.8
902.845	9194.84
903.159	9148.97
903.473	9119.14
903.787	9036.43
904.101	9021.06
904.415	9078.91
904.729	9046.82
905.042	8997.79
905.356	8831.91
905.67	8921.18
905.984	8874.17
906.297	8847.06
906.611	8839.37
906.924	8787.85
907.237	8687.06
907.551	8775.19
907.864	8631.92
908.177	8654.97
908.491	8574.29
908.804	8586.95
909.117	8594.41
909.43	8472.6
909.743	8411.13
910.056	8428.31
910.368	8452.94
910.681	8367.29
910.994	8333.17
911.307	8324.13
911.619	8230.12
911.932	8284.58
912.244	8262.44
912.557	8149.22
912.869	8092.95
913.181	8121.88
913.494	8049.34
913.806	8029.9
914.118	8010.92
914.43	7930.47
914.742	7951.26
915.054	7903.8
915.366	7895.44
915.678	7869.23
915.99	7806.18
916.302	7763.69
916.613	7748.33
916.925	7711.04
917.236	7677.14
917.548	7647.09
917.859	7640.53
918.171	7550.82
918.482	7532.51
918.794	7493.19
919.105	7490.03
919.416	7440.09
919.727	7419.3
920.038	7398.05
920.349	7286.87
920.66	7289.81
920.971	7339.52
921.282	7333.42
921.593	7278.74
921.903	7215.01
922.214	7105.86
922.525	7088.68
922.835	7058.18
923.146	7030.83
923.456	6998.74
923.767	6989.7
924.077	7004.17
924.387	6943.38
924.697	6883.27
925.008	6891.17
925.318	6832.42
925.628	6834.45
925.938	6784.06
926.248	6745.64
926.558	6681.91
926.867	6743.38
927.177	6683.95
927.487	6595.59
927.796	6609.6
928.106	6567.34
928.416	6511.07
928.725	6466.78
929.034	6495.25
929.344	6482.15
929.653	6478.3
929.962	6399.21
930.271	6429.94
930.581	6359.66
930.89	6299.33
931.199	6275.15
931.508	6243.96
931.817	6219.78
932.125	6244.86
932.434	6207.58
932.743	6155.15
933.051	6134.36
933.36	6112.44
933.669	6067.02
933.977	6023.85
934.286	6055.26
934.594	6034.93
934.902	5983.85
935.21	5926.91
935.519	5948.15
935.827	5919
936.135	5890.75
936.443	5807.36
936.751	5810.53
937.059	5761.71
937.367	5802.39
937.674	5775.95
937.982	5741.83
938.29	5723.52
938.597	5722.62
938.905	5632.22
939.213	5601.27
939.52	5603.75
939.827	5635.61
940.135	5556.52
940.442	5508.84
940.749	5531.21
941.056	5536.63
941.363	5480.82
941.67	5437.65
941.977	5400.82
942.284	5396.3
942.591	5338.67
942.898	5344.77
943.205	5333.25
943.511	5285.57
943.818	5313.82
944.125	5252.57
944.431	5234.72
944.738	5236.3
945.044	5201.73
945.35	5215.51
945.657	5138.45
945.963	5148.4
946.269	5090.32
946.575	5098.23
946.881	5105.68
947.187	5041.51
947.493	4975.52
947.799	4947.05
948.105	4987.27
948.41	4933.94
948.716	4946.82
949.022	4912.7
949.327	4933.49
949.633	4834.05
949.938	4821.62
950.244	4813.94
950.549	4808.52
950.854	4783.66
951.16	4784.56
951.465	4684.23
951.77	4734.4
952.075	4658.47
952.38	4654.4
952.685	4651.91
952.99	4635.19
953.294	4606.72
953.599	4596.55
953.904	4559.71
954.209	4537.79
954.513	4528.52
954.818	4496.89
955.122	4469.32
955.426	4419.38
955.731	4431.35
956.035	4425.93
956.339	4404.91
956.643	4386.83
956.948	4364.24
957.252	4290.57
957.556	4352.26
957.86	4297.12
958.163	4289.44
958.467	4259.61
958.771	4268.19
959.075	4282.2
959.378	4211.92
959.682	4211.02
959.985	4173.05
960.289	4146.84
960.592	4141.19
960.896	4125.15
961.199	4110.23
961.502	4106.84
961.805	4061.42
962.108	4060.06
962.411	4064.36
962.714	3970.8
963.017	3963.57
963.32	3983.23
963.623	3990.91
963.926	3932.83
964.228	3910.46
964.531	3919.95
964.833	3919.05
965.136	3891.71
965.438	3853.74
965.741	3831.14
966.043	3837.7
966.345	3791.14
966.648	3773.06
966.95	3735.78
967.252	3717.47
967.554	3714.99
967.856	3756.57
968.158	3675.21
968.46	3722.22
968.761	3643.12
969.063	3665.27
969.365	3669.56
969.666	3651.03
969.968	3586.4
970.269	3620.3
970.571	3627.76
970.872	3587.98
971.174	3551.83
971.475	3546.18
971.776	3556.57
972.077	3493.3
972.378	3516.8
972.679	3482
972.98	3423.7
973.281	3447.2
973.582	3431.83
973.883	3412.62
974.183	3369.46
974.484	3372.85
974.785	3359.06
975.085	3308.22
975.386	3352.96
975.686	3327.2
975.986	3295.34
976.287	3270.03
976.587	3279.07
976.887	3247.2
977.187	3215.79
977.487	3217.6
977.787	3198.16
978.087	3205.4
978.387	3227.54
978.687	3200.42
978.987	3180.76
979.286	3169.01
979.586	3143.25
979.885	3148.22
980.185	3120.2
980.484	3086.08
980.784	3053.76
981.083	3085.63
981.382	3034.1
981.682	3027.32
981.981	3015.8
982.28	2987.1
982.579	2969.47
982.878	2993.88
983.177	2989.36
983.475	2979.41
983.774	2940.77
984.073	2929.92
984.372	2875.91
984.67	2927.21
984.969	2902.81
985.267	2866.65
985.566	2830.72
985.864	2892.64
986.162	2849.25
986.461	2857.16
986.759	2828.68
987.057	2777.38
987.355	2745.52
987.653	2789.59
987.951	2765.41
988.249	2751.62
988.547	2726.76
988.844	2741.45
989.142	2734.67
989.44	2694.67
989.737	2655.13
990.035	2637.5
990.332	2677.5
990.63	2624.17
990.927	2656.03
991.224	2620.78
991.521	2616.26
991.819	2581.68
992.116	2594.34
992.413	2613.32
992.71	2530.16
993.006	2546.43
993.303	2537.39
993.6	2573.32
993.897	2502.82
994.193	2498.52
994.49	2504.85
994.787	2467.79
995.083	2467.56
995.379	2452.65
995.676	2443.38
995.972	2416.49
996.268	2403.84
996.565	2423.72
996.861	2410.16
997.157	2362.48
997.453	2354.12
997.749	2340.33
998.044	2348.47
998.34	2358.41
998.636	2315.02
998.932	2291.07
999.227	2284.52
999.523	2266.44
999.818	2256.95
1000.114	2252.2
1000.409	2250.84
1000.704	2228.02
1001	2234.12
1001.295	2218.3
1001.59	2169.94
1001.885	2196.61
1002.18	2182.82
1002.475	2154.8
1002.77	2165.65
1003.065	2125.2
1003.359	2142.15
1003.654	2122.49
1003.949	2081.13
1004.243	2107.12
1004.538	2051.3
1004.832	2061.47
1005.127	2047.69
1005.421	2062.6
1005.715	2051.53
1006.009	2021.25
1006.304	2014.92
1006.598	2002.26
1006.892	1973.34
1007.186	1971.3
1007.48	1947.35
1007.773	1966.33
1008.067	1944.86
1008.361	1908.48
1008.655	1897.86
1008.948	1899.67
1009.242	1893.79
1009.535	1887.01
1009.829	1880.91
1010.122	1887.01
1010.415	1869.84
1010.708	1822.83
1011.001	1860.8
1011.295	1795.72
1011.588	1802.95
1011.881	1772.89
1012.173	1765.21
1012.466	1808.82
1012.759	1761.82
1013.052	1770.63
1013.344	1757.52
1013.637	1742.84
1013.93	1738.32
1014.222	1725.66
1014.514	1707.58
1014.807	1706.9
1015.099	1680.46
1015.391	1671.2
1015.683	1643.4
1015.976	1655.38
1016.268	1660.13
1016.56	1648.15
1016.851	1649.05
1017.143	1623.97
1017.435	1635.04
1017.727	1615.61
1018.018	1597.53
1018.31	1587.81
1018.602	1598.66
1018.893	1565.89
1019.185	1551.2
1019.476	1534.71
1019.767	1543.97
1020.058	1552.33
1020.35	1502.84
1020.641	1504.65
1020.932	1494.93
1021.223	1481.6
1021.514	1449.28
1021.804	1427.82
1022.095	1464.88
1022.386	1420.58
1022.677	1436.4
1022.967	1424.2
1023.258	1420.81
1023.548	1408.61
1023.839	1397.76
1024.129	1351.21
1024.419	1385.33
1024.709	1364.54
1025	1341.04
1025.29	1364.77
1025.58	1359.79
1025.87	1312.56
1026.16	1317.54
1026.449	1303.07
1026.739	1325.22
1027.029	1277.99
1027.319	1307.82
1027.608	1283.86
1027.898	1265.11
1028.187	1247.03
1028.477	1267.59
1028.766	1238.44
1029.055	1218.33
1029.344	1241.83
1029.634	1224.43
1029.923	1221.72
1030.212	1161.61
1030.501	1223.75
1030.79	1227.14
1031.078	1194.6
1031.367	1171.55
1031.656	1170.65
1031.945	1161.16
1032.233	1138.78
1032.522	1148.5
1032.81	1145.34
1033.099	1115.73
1033.387	1123.64
1033.675	1113.7
1033.963	1083.87
1034.251	1110.08
1034.54	1090.65
1034.828	1085
1035.116	1087.26
1035.403	1058.56
1035.691	1075.51
1035.979	1070.54
1036.267	1054.49
1036.554	1017.88
1036.842	1033.25
1037.129	1028.96
1037.417	1022.18
1037.704	1023.31
1037.992	1011.78
1038.279	1001.84
1038.566	988.51
1038.853	988.51
1039.14	988.51
