Data from hue_80_FLMS001491_47.txt Node
Date: Mon Feb 06 15:23:03 GMT 2017
User: dcchb
Spectrometer: FLMS00149
Trigger mode: 0
Integration Time (sec): 2.000000E-2
Scans to average: 10
Electric dark correction enabled: true
Nonlinearity correction enabled: false
Boxcar width: 0
XAxis mode: Wavelengths
Number of Pixels in Spectrum: 2048
>>>>>Begin Spectral Data<<<<<
341.393	-19.91
341.776	-19.91
342.16	-19.91
342.543	-61.72
342.927	-65.11
343.31	-66.69
343.693	-47.94
344.077	-55.85
344.46	-78.67
344.843	-75.28
345.226	-46.81
345.61	-25.34
345.993	-23.53
346.376	-16.07
346.759	3.36
347.142	0.65
347.525	53.53
347.908	72.74
348.291	91.72
348.674	117.03
349.057	97.14
349.44	130.36
349.823	139.4
350.206	156.13
350.588	204.49
350.971	205.16
351.354	206.07
351.737	235.45
352.119	248.55
352.502	252.62
352.884	266.63
353.267	298.72
353.65	286.74
354.032	302.56
354.414	310.92
354.797	307.99
355.179	315.9
355.562	290.13
355.944	313.86
356.326	337.14
356.709	337.59
357.091	354.31
357.473	357.7
357.855	325.84
358.238	331.26
358.62	323.13
359.002	346.4
359.384	325.84
359.766	338.49
360.148	352.96
360.53	358.15
360.912	333.75
361.294	340.08
361.676	334.65
362.057	341.21
362.439	342.11
362.821	331.94
363.203	333.3
363.584	320.42
363.966	302.11
364.348	332.84
364.729	304.82
365.111	317.03
365.493	323.13
365.874	308.66
366.256	307.53
366.637	328.78
367.019	332.17
367.4	325.84
367.781	310.7
368.163	319.29
368.544	307.76
368.925	299.17
369.306	306.86
369.688	301.88
370.069	305.27
370.45	325.39
370.831	306.86
371.212	320.64
371.593	316.35
371.974	322.45
372.355	304.82
372.736	318.38
373.117	311.38
373.498	322.45
373.879	333.97
374.26	338.49
374.641	315.67
375.021	319.96
375.402	336.46
375.783	352.05
376.163	323.81
376.544	315.9
376.925	322.45
377.305	316.35
377.686	313.18
378.066	347.76
378.447	321.32
378.827	336.46
379.208	329.68
379.588	340.08
379.968	301.21
380.349	327.65
380.729	323.35
381.109	324.93
381.489	334.43
381.87	334.2
382.25	352.96
382.63	320.19
383.01	346.4
383.39	345.5
383.77	348.89
384.15	355.22
384.53	339.4
384.91	323.58
385.29	371.49
385.67	343.92
386.049	350.92
386.429	347.31
386.809	346.86
387.189	355.67
387.568	339.62
387.948	358.38
388.328	348.21
388.707	332.17
389.087	355.89
389.466	370.58
389.846	371.71
390.225	361.32
390.605	373.52
390.984	353.86
391.363	356.8
391.743	351.15
392.122	357.48
392.501	366.52
392.881	377.81
393.26	384.82
393.639	373.52
394.018	375.33
394.397	392.73
394.776	375.56
395.155	391.37
395.534	371.94
395.913	352.73
396.292	395.44
396.671	376.01
397.05	400.41
397.429	376.01
397.808	393.18
398.186	390.92
398.565	392.05
398.944	386.85
399.323	376.46
399.701	382.56
400.08	366.52
400.458	410.13
400.837	384.59
401.215	390.24
401.594	399.96
401.972	374.2
402.351	409
402.729	407.64
403.107	394.09
403.486	413.07
403.864	405.61
404.242	391.37
404.62	388.44
404.999	401.09
405.377	413.07
405.755	416.91
406.133	402.9
406.511	411.49
406.889	426.18
407.267	449.45
407.645	435.89
408.023	433.18
408.401	434.08
408.779	448.32
409.156	441.99
409.534	440.64
409.912	458.26
410.29	460.3
410.667	446.06
411.045	433.18
411.422	447.64
411.8	459.85
412.178	447.42
412.555	440.41
412.933	460.52
413.31	504.14
413.687	500.07
414.065	453.52
414.442	477.47
414.819	474.08
415.197	469.56
415.574	505.95
415.951	478.83
416.328	489
416.705	496
417.082	511.6
417.46	498.04
417.837	497.59
418.214	513.63
418.591	508.88
418.967	505.95
419.344	522.44
419.721	524.03
420.098	534.19
420.475	512.5
420.852	547.98
421.228	544.59
421.605	532.39
421.982	527.64
422.358	543.23
422.735	519.05
423.111	535.55
423.488	547.3
423.864	558.38
424.241	547.75
424.617	544.82
424.994	568.32
425.37	572.61
425.746	567.87
426.123	586.17
426.499	579.84
426.875	579.17
427.251	578.94
427.627	590.24
428.003	602.44
428.379	601.09
428.756	601.76
429.132	607.19
429.507	629.79
429.883	605.38
430.259	629.33
430.635	627.53
431.011	611.48
431.387	636.34
431.763	657.36
432.138	648.77
432.514	663.23
432.89	663.46
433.265	656.9
433.641	676.79
434.016	658.26
434.392	648.99
434.767	685.38
435.143	703.46
435.518	707.52
435.894	697.13
436.269	714.08
436.644	704.81
437.02	733.06
437.395	716.79
437.77	728.99
438.145	707.52
438.52	764.92
438.895	734.19
439.271	714.08
439.646	774.64
440.021	762.66
440.395	780.52
440.77	759.27
441.145	736.68
441.52	781.19
441.895	779.84
442.27	789.56
442.645	807.63
443.019	798.82
443.394	778.48
443.769	802.21
444.143	784.36
444.518	816.67
444.892	818.71
445.267	825.26
445.641	831.36
446.016	811.7
446.39	833.85
446.764	825.26
447.139	838.37
447.513	873.17
447.887	862.77
448.262	870.68
448.636	859.38
449.01	868.88
449.384	852.83
449.758	879.5
450.132	896.22
450.506	889.67
450.88	885.82
451.254	875.2
451.628	889.89
452.002	917.24
452.376	934.86
452.75	936.44
453.123	942.77
453.497	961.75
453.871	979.83
454.244	977.57
454.618	987.74
454.992	987.52
455.365	970.57
455.739	998.59
456.112	1024.35
456.486	1012.37
456.859	1034.97
457.232	1042.66
457.606	1060.73
457.979	1075.2
458.352	1091.02
458.725	1093.28
459.099	1096.67
459.472	1127.63
459.845	1112.26
460.218	1135.31
460.591	1157.68
460.964	1164.91
461.337	1182.31
461.71	1196.78
462.083	1190.22
462.456	1215.08
462.829	1241.07
463.201	1251.69
463.574	1255.98
463.947	1286.49
464.32	1312.93
464.692	1316.1
465.065	1368.98
465.438	1347.73
465.81	1350.67
466.183	1360.61
466.555	1415.75
466.928	1410.78
467.3	1433.61
467.672	1490.33
468.045	1466.83
468.417	1495.07
468.789	1541.17
469.161	1553.38
469.534	1568.07
469.906	1603.09
470.278	1631.79
470.65	1618.46
471.022	1700.49
471.394	1710.44
471.766	1766.25
472.138	1746.37
472.51	1838.57
472.882	1836.53
473.253	1892.35
473.625	1918.79
473.997	1980.94
474.369	1980.48
474.74	2052.35
475.112	2078.79
475.484	2113.81
475.855	2170.08
476.227	2228.84
476.598	2273.13
476.97	2381.83
477.341	2383.19
477.713	2460.92
478.084	2501.37
478.455	2599.68
478.827	2604.2
479.198	2725.78
479.569	2771.65
479.94	2892.33
480.311	2897.52
480.682	3036.28
481.053	3086.9
481.424	3172.09
481.795	3264.97
482.166	3363.95
482.537	3445.53
482.908	3511.74
483.279	3617.96
483.65	3702.7
484.021	3897.72
484.391	3916.03
484.762	3992.64
485.133	4087.1
485.503	4183.82
485.874	4304.04
486.244	4475.79
486.615	4615.22
486.985	4683.92
487.356	4846.4
487.726	4975.66
488.097	5088.2
488.467	5144.02
488.837	5343.11
489.207	5415.87
489.578	5596.21
489.948	5703.1
490.318	5833.26
490.688	5948.06
491.058	6074.61
491.428	6240.49
491.798	6375.17
492.168	6521.61
492.538	6678.21
492.908	6751.88
493.278	6871.88
493.648	7004.08
494.017	7152.55
494.387	7331.53
494.757	7421.7
495.126	7598.42
495.496	7714.8
495.866	7765.19
496.235	7970.38
496.605	8058.97
496.974	8235.01
497.344	8296.93
497.713	8524.04
498.082	8626.19
498.452	8769.01
498.821	8847.65
499.19	8942.79
499.559	9097.81
499.928	9164.7
500.298	9347.75
500.667	9474.98
501.036	9499.83
501.405	9684.91
501.774	9676.33
502.143	9864.12
502.512	9971.91
502.88	10055.98
503.249	10153.83
503.618	10320.83
503.987	10329.87
504.356	10484.89
504.724	10556.53
505.093	10638.79
505.462	10739.58
505.83	10818.44
506.199	10949.74
506.567	11118.32
506.936	11202.16
507.304	11385.44
507.672	11431.08
508.041	11504.75
508.409	11607.58
508.777	11673.34
509.145	11777.74
509.514	11883.28
509.882	11972.54
510.25	12071.74
510.618	12152.65
510.986	12191.06
511.354	12333.88
511.722	12410.72
512.09	12572.97
512.458	12534.33
512.826	12608
513.193	12704.27
513.561	12787.43
513.929	12889.12
514.297	12977.03
514.664	13083.24
515.032	13055.22
515.4	13180.42
515.767	13252.28
516.135	13453.63
516.502	13364.59
516.869	13479.17
517.237	13581.31
517.604	13530.24
517.972	13695.2
518.339	13777.24
518.706	13785.15
519.073	13888.42
519.44	13913.96
519.808	14090.22
520.175	14036.89
520.542	14222.42
520.909	14285.7
521.276	14242.31
521.643	14357.33
522.009	14495.64
522.376	14558.68
522.743	14563.2
523.11	14720.49
523.477	14823.76
523.843	14863.99
524.21	15017.43
524.577	15027.37
524.943	15124.32
525.31	15177.43
525.676	15280.47
526.043	15353.92
526.409	15402.05
526.776	15494.48
527.142	15459.9
527.508	15551.2
527.874	15599.79
528.241	15610.41
528.607	15755.49
528.973	15800.23
529.339	15784.42
529.705	15933.56
530.071	15913.23
530.437	16019.21
530.803	16075.03
531.169	16092.2
531.535	16076.39
531.901	16117.97
532.267	16071.64
532.632	16134.69
532.998	16157.06
533.364	16282.71
533.73	16308.02
534.095	16410.61
534.461	16340.56
534.826	16293.78
535.192	16364.74
535.557	16534
535.923	16472.53
536.288	16454.45
536.653	16544.4
537.019	16495.81
537.384	16500.55
537.749	16448.13
538.114	16530.38
538.479	16480.44
538.845	16452.19
539.21	16470.27
539.575	16511.18
539.94	16554.79
540.305	16522.93
540.67	16502.36
541.034	16561.8
541.399	16486.09
541.764	16575.36
542.129	16595.02
542.494	16640.21
542.858	16705.07
543.223	16613.32
543.587	16623.04
543.952	16565.41
544.316	16588.91
544.681	16460.78
545.045	16565.41
545.41	16590.04
545.774	16652.42
546.138	16604.28
546.503	16616.03
546.867	16552.08
547.231	16740.55
547.595	16624.85
547.959	16699.87
548.324	16631.4
548.688	16560.44
549.052	16564.06
549.416	16647.22
549.779	16602.02
550.143	16671.17
550.507	16646.99
550.871	16759.98
551.235	16604.28
551.599	16666.88
551.962	16666.88
552.326	16707.1
552.689	16716.14
553.053	16628.91
553.417	16654.45
553.78	16783.03
554.143	16695.8
554.507	16830.72
554.87	16609.48
555.234	16828
555.597	16710.49
555.96	16663.71
556.323	16766.99
556.686	16696.03
557.05	16837.04
557.413	16771.28
557.776	16822.81
558.139	16909.13
558.502	16924.72
558.865	16926.08
559.228	16973.76
559.59	16932.18
559.953	16897.83
560.316	17105.51
560.679	17165.85
561.041	17206.52
561.404	17171.95
561.767	17351.15
562.129	17271.16
562.492	17325.84
562.854	17330.82
563.217	17271.38
563.579	17258.05
563.941	17377.82
564.304	17396.8
564.666	17479.96
565.028	17442.68
565.39	17499.62
565.753	17570.58
566.115	17600.86
566.477	17664.59
566.839	17554.76
567.201	17744.82
567.563	17614.88
567.925	17771.26
568.287	17780.3
568.648	17814.87
569.01	17923.34
569.372	17987.97
569.734	17882.21
570.095	17984.36
570.457	17976
570.819	18031.81
571.18	18071.81
571.542	18084.24
571.903	18117.24
572.265	18199.72
572.626	18226.16
572.987	18324.01
573.349	18290.56
573.71	18198.82
574.071	18252.83
574.432	18353.16
574.794	18431.8
575.155	18383.22
575.516	18290.79
575.877	18444.46
576.238	18471.8
576.599	18479.94
576.96	18420.73
577.32	18481.29
577.681	18511.8
578.042	18648.75
578.403	18564
578.763	18518.13
579.124	18602.42
579.485	18641.74
579.845	18598.58
580.206	18526.26
580.566	18555.64
580.927	18625.92
581.287	18726.49
581.648	18488.98
582.008	18656.2
582.368	18641.74
582.728	18632.7
583.089	18679.25
583.449	18705.69
583.809	18629.76
584.169	18610.78
584.529	18540.95
584.889	18758.35
585.249	18632.93
585.609	18560.39
585.969	18682.87
586.329	18660.5
586.688	18628.86
587.048	18625.92
587.408	18473.38
587.768	18602.19
588.127	18515.19
588.487	18507.06
588.846	18628.18
589.206	18477
589.565	18615.08
589.925	18534.85
590.284	18532.82
590.643	18548.86
591.003	18532.59
591.362	18613.27
591.721	18565.81
592.08	18641.74
592.44	18600.61
592.799	18579.37
593.158	18546.15
593.517	18544.34
593.876	18565.59
594.235	18467.06
594.593	18560.84
594.952	18578.24
595.311	18503.67
595.67	18595.87
596.029	18540.73
596.387	18590.22
596.746	18664.34
597.104	18395.42
597.463	18499.15
597.822	18556.77
598.18	18431.58
598.538	18447.4
598.897	18565.59
599.255	18423.22
599.613	18677.9
599.972	18607.39
600.33	18595.42
600.688	18630.67
601.046	18612.36
601.404	18561.29
601.762	18539.15
602.12	18709.31
602.478	18616.88
602.836	18680.84
603.194	18524
603.552	18673.83
603.91	18592.7
604.268	18730.33
604.625	18570.78
604.983	18654.4
605.341	18556.32
605.698	18628.41
606.056	18760.38
606.413	18627.73
606.771	18691.46
607.128	18733.49
607.485	18759.48
607.843	18634.51
608.2	18747.28
608.557	18828.4
608.914	18709.31
609.272	18774.17
609.629	18918.8
609.986	18884.45
610.343	18769.87
610.7	18946.82
611.057	18924.45
611.414	18994.05
611.771	19004.9
612.127	18948.17
612.484	18969.64
612.841	19041.73
613.198	18897.78
613.554	18974.84
613.911	19098.23
614.267	19142.29
614.624	19086.93
614.98	19085.12
615.337	19180.48
615.693	19183.87
616.05	19105.01
616.406	19264.1
616.762	19156.08
617.118	19236.08
617.475	19196.53
617.831	19264.55
618.187	19167.38
618.543	19168.06
618.899	19346.81
619.255	19318.56
619.611	19272.23
619.967	19305.23
620.323	19384.55
620.678	19396.07
621.034	19412.34
621.39	19204.44
621.746	19248.96
622.101	19441.04
622.457	19370.08
622.812	19334.83
623.168	19499.57
623.523	19472.45
623.879	19518.78
624.234	19328.5
624.589	19534.37
624.945	19431.1
625.3	19474.26
625.655	19436.97
626.01	19521.49
626.365	19466.8
626.72	19323.08
627.075	19425.45
627.43	19460.25
627.785	19410.31
628.14	19467.26
628.495	19470.42
628.85	19432.46
629.205	19344.55
629.559	19507.26
629.914	19349.52
630.269	19466.58
630.623	19376.86
630.978	19368.95
631.332	19380.25
631.687	19411.66
632.041	19287.15
632.396	19367.82
632.75	19269.3
633.104	19221.16
633.459	19183.65
633.813	19202.4
634.167	19345
634.521	19093.93
634.875	19177.32
635.229	19190.43
635.583	19059.13
635.937	19107.72
636.291	19085.12
636.645	19151.78
636.999	19033.6
637.352	19164.21
637.706	19003.77
638.06	18977.33
638.413	19004.67
638.767	18967.38
639.121	19024.33
639.474	18861.17
639.828	18910.43
640.181	18949.08
640.534	18926.71
640.888	18799.7
641.241	18704.56
641.594	18761.29
641.947	18871.11
642.301	18781.4
642.654	18728.97
643.007	18788.86
643.36	18682.64
643.713	18697.11
644.066	18772.59
644.419	18695.75
644.771	18506.83
645.124	18438.13
645.477	18451.92
645.83	18284.24
646.182	18188.65
646.535	18220.96
646.888	18188.19
647.24	18045.15
647.593	18211.7
647.945	18170.79
648.298	18072.94
648.65	18122.21
649.002	17995.66
649.355	18128.08
649.707	18188.19
650.059	18120.85
650.411	18408.53
650.763	18363.56
651.115	18484.46
651.467	18500.73
651.819	18491.46
652.171	18400.17
652.523	18394.29
652.875	18442.2
653.227	18312.26
653.578	18428.87
653.93	18438.58
654.282	18383.9
654.633	18380.96
654.985	18381.86
655.337	18397.23
655.688	18459.15
656.039	18496.66
656.391	18347.29
656.742	18422.09
657.094	18377.12
657.445	18434.06
657.796	18383.9
658.147	18518.35
658.498	18460.73
658.849	18438.36
659.2	18400.62
659.551	18464.8
659.902	18445.59
660.253	18449.66
660.604	18425.02
660.955	18329.43
661.306	18507.51
661.656	18473.38
662.007	18534.63
662.358	18477.9
662.708	18437.45
663.059	18593.83
663.409	18430
663.76	18524
664.11	18496.21
664.461	18528.52
664.811	18505.7
665.161	18504.57
665.511	18366.04
665.862	18544.12
666.212	18572.82
666.562	18485.81
666.912	18452.37
667.262	18490.11
667.612	18495.98
667.962	18472.25
668.312	18487.85
668.662	18514.51
669.011	18550.67
669.361	18470.22
669.711	18485.59
670.06	18337.12
670.41	18400.84
670.76	18329.21
671.109	18487.85
671.459	18404.01
671.808	18381.64
672.157	18363.56
672.507	18340.28
672.856	18249.89
673.205	18278.81
673.554	18324.24
673.904	18392.03
674.253	18396.55
674.602	18223.9
674.951	18057.58
675.3	18012.61
675.649	18186.84
675.998	18187.29
676.346	18194.97
676.695	18250.34
677.044	18159.27
677.393	18187.29
677.741	18087.63
678.09	18177.12
678.438	18062.1
678.787	18138.7
679.135	18112.26
679.484	18010.12
679.832	18065.26
680.181	17996.11
680.529	18014.87
680.877	17874.3
681.225	17888.77
681.573	17934.87
681.922	17858.49
682.27	17742.1
682.618	17853.74
682.966	17717.02
683.314	17843.34
683.661	17688.32
684.009	17619.85
684.357	17534.43
684.705	17586.63
685.053	17604.71
685.4	17536.91
685.748	17430.93
686.095	17431.15
686.443	17400.87
686.79	17344.6
687.138	17372.85
687.485	17285.84
687.832	17253.53
688.18	17304.83
688.527	17089.24
688.874	17131.72
689.221	17107.54
689.568	17124.72
689.915	16982.12
690.262	16988.45
690.609	16952.07
690.956	16903.26
691.303	16891.05
691.65	16752.3
691.997	16771.51
692.344	16655.58
692.69	16641.79
693.037	16625.52
693.383	16496.26
693.73	16608.57
694.077	16445.87
694.423	16437.73
694.769	16318.86
695.116	16324.06
695.462	16296.94
695.808	16139.21
696.155	16185.08
696.501	16078.65
696.847	16034.8
697.193	15982.83
697.539	15954.13
697.885	15896.95
698.231	15723.63
698.577	15775.83
698.923	15756.85
699.269	15694.7
699.614	15637.98
699.96	15526.12
700.306	15588.71
700.651	15441.6
700.997	15376.74
701.342	15464.42
701.688	15265.11
702.033	15219.01
702.379	15312.34
702.724	15247.93
703.069	15244.77
703.415	15029.63
703.76	15050.42
704.105	15101.72
704.45	15018.11
704.795	14849.75
705.14	14874.61
705.485	14816.08
705.83	14792.35
706.175	14698.34
706.52	14750.54
706.865	14665.57
707.209	14664.22
707.554	14549.19
707.899	14644.56
708.243	14502.19
708.588	14483.21
708.932	14440.5
709.277	14347.17
709.621	14350.1
709.966	14309.2
710.31	14218.13
710.654	14126.38
710.998	14187.17
711.342	14182.88
711.687	14127.96
712.031	14058.81
712.375	13970.9
712.719	13967.97
713.063	13971.36
713.407	14099.26
713.75	13944.24
714.094	13902.66
714.438	13813.85
714.782	13878.02
715.125	13893.84
715.469	13833.73
715.812	13720.29
716.156	13633.74
716.499	13730.23
716.843	13668.54
717.186	13648.43
717.53	13741.98
717.873	13694.53
718.216	13581.76
718.559	13551.48
718.902	13460.63
719.246	13487.98
719.589	13502.67
719.932	13436.68
720.275	13448.43
720.617	13413.4
720.96	13380.18
721.303	13424.25
721.646	13350.81
721.989	13303.58
722.331	13330.24
722.674	13384.93
723.016	13333.18
723.359	13246.4
723.701	13252.05
724.044	13185.84
724.386	13170.25
724.729	13230.36
725.071	13157.82
725.413	13208.66
725.755	13145.84
726.097	13102
726.439	13067.65
726.782	13079.85
727.124	13116.69
727.465	13020.87
727.807	13084.37
728.149	13093.86
728.491	13029.01
728.833	13030.59
729.175	12972.74
729.516	13017.93
729.858	12977.48
730.199	13014.77
730.541	12995.34
730.882	12895.9
731.224	12930.03
731.565	12869.01
731.906	12965.05
732.248	12937.71
732.589	12883.93
732.93	12905.62
733.271	12843.7
733.612	12905.85
733.953	12875.79
734.294	12892.06
734.635	12859.75
734.976	12922.57
735.317	12875.79
735.658	12833.08
735.999	12886.64
736.339	12922.34
736.68	12866.3
737.021	12829.92
737.361	12847.09
737.702	12930.93
738.042	12879.41
738.383	12815.91
738.723	12906.3
739.063	12883.7
739.404	12899.29
739.744	12902.01
740.084	12953.53
740.424	12843.02
740.764	12970.25
741.104	12989.01
741.444	12878.96
741.784	12883.93
742.124	12919.18
742.464	13003.92
742.804	12984.26
743.143	12970.7
743.483	13001.21
743.823	12944.49
744.162	12994.88
744.502	12959.63
744.841	13018.84
745.181	13074.2
745.52	13078.95
745.86	13128.89
746.199	13184.26
746.538	13146.29
746.877	13283.24
747.216	13290.02
747.556	13292.28
747.895	13281.43
748.234	13350.81
748.573	13399.85
748.911	13465.83
749.25	13466.51
749.589	13397.13
749.928	13558.03
750.267	13601.2
750.605	13689.33
750.944	13741.76
751.283	13880.06
751.621	13885.71
751.96	13985.82
752.298	14034.4
752.636	14086.38
752.975	14170.22
753.313	14159.6
753.651	14351.23
753.989	14383.1
754.327	14457.9
754.666	14574.73
755.004	14720.26
755.342	14870.32
755.679	14878.68
756.017	14901.95
756.355	15035.28
756.693	15108.5
757.031	15290.19
757.368	15299.23
757.706	15390.53
758.044	15475.27
758.381	15686.79
758.719	15597.53
759.056	15792.55
759.394	15949.61
759.731	15954.81
760.068	16073
760.405	16073.9
760.743	16232.54
761.08	16333.33
761.417	16352.76
761.754	16506.43
762.091	16616.94
762.428	16694.9
762.765	16785.07
763.102	16862.35
763.438	16918.17
763.775	17076.36
764.112	17097.38
764.449	17229.58
764.785	17299.18
765.122	17308.22
765.458	17361.78
765.795	17493.3
766.131	17534.2
766.467	17679.28
766.804	17687.64
767.14	17665.04
767.476	17833.63
767.812	17708.66
768.148	17888.77
768.485	17924.25
768.821	17945.49
769.157	18008.76
769.492	18162.66
769.828	18147.97
770.164	18022.55
770.5	18105.03
770.836	18100.96
771.171	18107.07
771.507	18161.98
771.842	18116.78
772.178	18263.22
772.513	18166.27
772.849	18285.59
773.184	18263.45
773.519	18298.93
773.855	18178.93
774.19	18243.79
774.525	18220.51
774.86	18320.39
775.195	18292.37
775.53	18223
775.865	18196.1
776.2	18227.06
776.535	18086.28
776.87	18165.82
777.205	18123.11
777.539	18023
777.874	18224.58
778.209	17968.99
778.543	18161.53
778.878	17983
779.212	18039.05
779.547	17960.18
779.881	18019.38
780.215	17974.19
780.55	17877.47
780.884	17779.39
781.218	17817.13
781.552	17809.67
781.886	17775.78
782.22	17721.77
782.554	17691.26
782.888	17487.42
783.222	17529.23
783.556	17471.6
783.889	17483.35
784.223	17343.47
784.557	17295.11
784.89	17352.51
785.224	17307.77
785.557	17371.49
785.891	17258.28
786.224	17166.98
786.558	17212.4
786.891	17098.73
787.224	17059.41
787.557	17062.57
787.891	17013.99
788.224	16974.67
788.557	17009.24
788.89	16899.64
789.223	16919.98
789.556	16784.39
789.888	16767.67
790.221	16674.11
790.554	16540.33
790.887	16588.69
791.219	16586.43
791.552	16462.59
791.884	16430.27
792.217	16470.95
792.549	16392.54
792.882	16324.29
793.214	16139.66
793.546	16271.18
793.879	16178.76
794.211	16116.84
794.543	16141.24
794.875	16096.27
795.207	16147.34
795.539	16004.07
795.871	16030.96
796.203	15904.86
796.535	15801.36
796.867	15772.66
797.198	15713.68
797.53	15682.95
797.862	15670.75
798.193	15731.31
798.525	15517.98
798.856	15541.03
799.188	15441.37
799.519	15401.15
799.85	15329.06
800.182	15344.2
800.513	15343.98
800.844	15252
801.175	15298.33
801.506	15230.31
801.837	15212.68
802.168	15143.53
802.499	15086.13
802.83	14966.36
803.161	14947.38
803.491	14982.18
803.822	15044.55
804.153	14975.4
804.483	14772.69
804.814	14816.08
805.145	14804.55
805.475	14774.95
805.805	14660.15
806.136	14615.41
806.466	14653.6
806.796	14672.13
807.126	14597.78
807.457	14501.96
807.787	14456.54
808.117	14424
808.447	14441.63
808.777	14383.32
809.107	14357.79
809.436	14292.93
809.766	14237.11
810.096	14180.16
810.426	14214.51
810.755	14163.89
811.085	14083.9
811.414	14079.83
811.744	14012.26
812.073	13997.34
812.403	13924.8
812.732	13875.99
813.061	13863.79
813.39	13798.48
813.719	13811.59
814.049	13897.91
814.378	13801.42
814.707	13719.39
815.036	13746.28
815.365	13676
815.693	13530.46
816.022	13621.99
816.351	13490.24
816.68	13463.35
817.008	13464.02
817.337	13379.73
817.665	13412.5
817.994	13436.68
818.322	13374.76
818.651	13286.63
818.979	13239.85
819.307	13345.61
819.636	13201.21
819.964	13290.92
820.292	13269.68
820.62	13228.55
820.948	13110.14
821.276	13254.31
821.604	13174.31
821.932	13208.44
822.259	13127.76
822.587	13135.45
822.915	13196.23
823.243	13229.68
823.57	13152.85
823.898	13137.71
824.225	13115.56
824.553	13101.1
824.88	13031.04
825.207	13150.81
825.535	13107.65
825.862	13073.07
826.189	13020.19
826.516	13181.09
826.843	13179.51
827.17	13219.74
827.497	13088.67
827.824	13162.56
828.151	13090.48
828.478	13115.33
828.805	13128.89
829.131	13029.69
829.458	13013.64
829.785	13058.39
830.111	13051.15
830.438	13143.58
830.764	13154.43
831.09	13140.42
831.417	12970.93
831.743	13097.48
832.069	13166.86
832.395	13036.69
832.722	13069.46
833.048	13003.25
833.374	13067.42
833.7	12911.27
834.026	12916.24
834.351	12975
834.677	12974.09
835.003	13031.49
835.329	13019.52
835.654	13042.57
835.98	12929.35
836.306	12943.81
836.631	12859.97
836.956	12851.39
837.282	12903.14
837.607	12833.53
837.932	12801.9
838.258	12774.78
838.583	12793.53
838.908	12770.94
839.233	12743.59
839.558	12770.71
839.883	12654.33
840.208	12641.22
840.533	12679.64
840.858	12598.74
841.182	12619.3
841.507	12574.56
841.832	12530.04
842.156	12566.65
842.481	12494.56
842.805	12478.29
843.13	12386.76
843.454	12506.31
843.778	12348.8
844.103	12358.52
844.427	12311.74
844.751	12321
845.075	12304.73
845.399	12237.62
845.723	12184.51
846.047	12185.41
846.371	12058.64
846.695	12128.01
847.019	12034.23
847.343	11925.99
847.666	11881.24
847.99	11874.69
848.313	11850.51
848.637	11759.66
848.96	11733.22
849.284	11688.25
849.607	11663.17
849.931	11668.37
850.254	11516.73
850.577	11520.8
850.9	11367.36
851.223	11421.14
851.546	11358.32
851.869	11248.04
852.192	11311.54
852.515	11160.58
852.838	11178.21
853.161	11092.79
853.483	11081.94
853.806	11100.92
854.129	11073.58
854.451	10974.6
854.774	10914.26
855.096	10837.43
855.419	10834.72
855.741	10873.58
856.063	10826.13
856.385	10766.92
856.708	10768.95
857.03	10694.38
857.352	10632.01
857.674	10733.47
857.996	10568.51
858.318	10546.59
858.64	10631.56
858.961	10553.59
859.283	10451.22
859.605	10490.09
859.926	10432.24
860.248	10385.01
860.57	10394.5
860.891	10400.38
861.212	10255.07
861.534	10368.51
861.855	10281.51
862.176	10231.57
862.498	10362.64
862.819	10253.04
863.14	10193.38
863.461	10215.07
863.782	10186.82
864.103	10188.63
864.424	10188.63
864.745	10207.61
865.065	10099.14
865.386	10111.12
865.707	10108.18
866.027	9983.21
866.348	10031.57
866.668	9978.24
866.989	10024.57
867.309	9953.61
867.63	9956.32
867.95	9918.81
868.27	9836.55
868.59	9938.69
868.91	9893.72
869.23	9862.54
869.55	9837.23
869.87	9916.77
870.19	9788.19
870.51	9804.46
870.83	9795.42
871.15	9767.4
871.469	9774.63
871.789	9721.07
872.109	9721.07
872.428	9688.76
872.748	9687.63
873.067	9728.98
873.386	9655.99
873.706	9703.67
874.025	9589.78
874.344	9541.42
874.663	9499.83
874.982	9495.54
875.301	9580.96
875.62	9575.09
875.939	9519.27
876.258	9532.83
876.577	9498.93
876.896	9451.7
877.214	9439.72
877.533	9433.85
877.852	9442.44
878.17	9430.46
878.489	9360.4
878.807	9409.44
879.125	9402.66
879.444	9379.84
879.762	9349.1
880.08	9374.19
880.398	9272.95
880.716	9319.95
881.034	9273.17
881.352	9291.48
881.67	9194.08
881.988	9224.14
882.306	9216
882.624	9138.26
882.941	9126.51
883.259	9126.96
883.577	9048.32
883.894	9077.25
884.212	9042.22
884.529	9059.39
884.846	9023.46
885.164	8974.65
885.481	8981.43
885.798	9010.13
886.115	8938.04
886.432	8893.07
886.75	8928.55
887.067	8876.35
887.383	8827.31
887.7	8913.18
888.017	8865.28
888.334	8818.95
888.651	8791.15
888.967	8779.85
889.284	8702.34
889.6	8706.18
889.917	8646.3
890.233	8620.08
890.55	8652.17
890.866	8598.39
891.182	8574.21
891.498	8595
891.815	8558.62
892.131	8488.34
892.447	8441.33
892.763	8496.92
893.079	8426.19
893.395	8359.98
893.71	8382.12
894.026	8356.81
894.342	8383.93
894.657	8263.48
894.973	8270.94
895.289	8261.45
895.604	8240.89
895.92	8123.37
896.235	8133.32
896.55	8169.47
896.865	8109.14
897.181	8075.01
897.496	8067.1
897.811	8046.99
898.126	7997.95
898.441	8019.65
898.756	7964.28
899.071	7890.16
899.386	7890.16
899.7	7874.11
900.015	7819.43
900.33	7781.24
900.644	7781.69
900.959	7697.4
901.273	7742.37
901.588	7662.6
901.902	7640.67
902.216	7576.5
902.531	7569.72
902.845	7601.13
903.159	7552.77
903.473	7475.26
903.787	7448.82
904.101	7461.7
904.415	7411.3
904.729	7433.9
905.042	7353.9
905.356	7326.56
905.67	7303.51
905.984	7274.81
906.297	7310.06
906.611	7229.16
906.924	7248.14
907.237	7155.26
907.551	7182.16
907.864	7132.21
908.177	7120.01
908.491	7124.3
908.804	7077.3
909.117	7026
909.43	6956.17
909.743	6967.47
910.056	6937.19
910.368	6916.63
910.681	6864.2
910.994	6879.79
911.307	6796.18
911.619	6823.52
911.932	6854.03
912.244	6687.71
912.557	6705.33
912.869	6677.54
913.181	6649.29
913.494	6643.41
913.806	6616.52
914.118	6558.44
914.43	6521.61
914.742	6577.43
915.054	6490.87
915.366	6530.65
915.678	6466.24
915.99	6487.71
916.302	6344.44
916.613	6329.07
916.925	6316.19
917.236	6327.94
917.548	6285.46
917.859	6323.65
918.171	6250.2
918.482	6197.1
918.794	6186.7
919.105	6168.62
919.416	6143.54
919.727	6158.45
920.038	6080.94
920.349	6014.95
920.66	6070.55
920.971	6015.86
921.282	6014.73
921.593	5952.81
921.903	5930.66
922.214	5957.1
922.525	5891.12
922.835	5861.74
923.146	5814.28
923.456	5796.88
923.767	5792.36
924.077	5763.89
924.387	5759.37
924.697	5758.46
925.008	5753.72
925.318	5676.21
925.628	5635.3
925.938	5628.3
926.248	5635.08
926.558	5601.18
926.867	5548.98
927.177	5590.33
927.487	5495.42
927.796	5451.81
928.106	5469.66
928.416	5451.13
928.725	5419.94
929.034	5435.31
929.344	5425.82
929.653	5374.29
929.962	5344.69
930.271	5321.87
930.581	5298.36
930.89	5312.83
931.199	5272.83
931.508	5270.57
931.817	5207.07
932.125	5177.91
932.434	5202.55
932.743	5143.79
933.051	5079.84
933.36	5119.84
933.669	5065.15
933.977	5065.83
934.286	5070.35
934.594	5034.19
934.902	4959.16
935.21	4997.13
935.519	4931.82
935.827	4972.72
936.135	4903.12
936.443	4833.07
936.751	4851.37
937.059	4866.51
937.367	4805.04
937.674	4795.33
937.982	4816.12
938.29	4789.9
938.597	4774.31
938.905	4691.6
939.213	4691.37
939.52	4631.04
939.827	4675.33
940.135	4681.2
940.442	4663.13
940.749	4642.79
941.056	4527.76
941.363	4541.32
941.67	4522.11
941.977	4527.54
942.284	4535.9
942.591	4498.61
942.898	4442.57
943.205	4470.36
943.511	4420.19
943.818	4392.85
944.125	4405.51
944.431	4373.87
944.738	4347.43
945.044	4321.67
945.35	4346.98
945.657	4293.64
945.963	4321.44
946.269	4275.34
946.575	4281.67
946.881	4284.15
947.187	4242.8
947.493	4157.38
947.799	4218.62
948.105	4142.24
948.41	4166.87
948.716	4120.09
949.022	4114.89
949.327	4104.04
949.633	4054.78
949.938	4077.83
950.244	4060.88
950.549	4011.39
950.854	3989.92
951.16	3997.15
951.465	3977.27
951.77	3996.25
952.075	3955.12
952.38	3922.35
952.685	3948.79
952.99	3906.76
953.294	3862.92
953.599	3883.26
953.904	3842.81
954.209	3799.42
954.513	3778.63
954.818	3778.4
955.122	3763.26
955.426	3750.16
955.731	3751.74
956.035	3689.14
956.339	3723.72
956.643	3702.25
956.948	3638.29
957.252	3638.52
957.556	3647.79
957.86	3627.22
958.163	3609.82
958.467	3592.87
958.771	3600.56
959.075	3636.94
959.378	3546.77
959.682	3558.07
959.985	3562.36
960.289	3546.77
960.592	3471.52
960.896	3478.3
961.199	3459.77
961.502	3473.33
961.805	3423.38
962.108	3434.68
962.411	3424.74
962.714	3410.73
963.017	3328.25
963.32	3390.62
963.623	3338.19
963.926	3335.03
964.228	3307
964.531	3321.01
964.833	3283.95
965.136	3236.95
965.438	3285.08
965.741	3217.74
966.043	3250.28
966.345	3233.11
966.648	3248.93
966.95	3206.89
967.252	3200.79
967.554	3121.92
967.856	3162.83
968.158	3113.79
968.46	3116.73
968.761	3115.82
969.063	3076.05
969.365	3065.88
969.666	3097.74
969.968	3022.72
970.269	3030.85
970.571	3069.04
970.872	3055.48
971.174	3012.55
971.475	3022.94
971.776	2937.07
972.077	2958.99
972.378	2961.25
972.679	2916.51
972.98	2942.04
973.281	2929.39
973.582	2912.66
973.883	2937.3
974.183	2907.24
974.484	2855.94
974.785	2837.86
975.085	2858.65
975.386	2840.35
975.686	2806.23
975.986	2771.88
976.287	2788.37
976.587	2781.59
976.887	2781.37
977.187	2738.43
977.487	2782.27
977.787	2730.75
978.087	2749.96
978.387	2697.53
978.687	2698.66
978.987	2675.16
979.286	2667.02
979.586	2674.25
979.885	2667.92
980.185	2644.87
980.484	2602.84
980.784	2613.46
981.083	2608.72
981.382	2573.69
981.682	2562.62
981.981	2563.97
982.28	2533.46
982.579	2543.41
982.878	2553.35
983.177	2543.18
983.475	2511.77
983.774	2473.58
984.073	2488.49
984.372	2455.73
984.67	2488.04
984.969	2462.73
985.267	2462.51
985.566	2455.5
985.864	2390.42
986.162	2419.57
986.461	2386.58
986.759	2411.89
987.057	2369.4
987.355	2385.9
987.653	2374.82
987.951	2378.21
988.249	2375.05
988.547	2330.08
988.844	2311.1
989.142	2310.87
989.44	2297.76
989.737	2284.66
990.035	2248.73
990.332	2288.73
990.63	2258.67
990.927	2244.66
991.224	2266.8
991.521	2226.58
991.819	2244.21
992.116	2230.2
992.413	2229.74
992.71	2186.35
993.006	2221.83
993.303	2187.94
993.6	2145.23
993.897	2151.78
994.193	2157.43
994.49	2117.43
994.787	2152.01
995.083	2109.52
995.379	2065
995.676	2064.32
995.972	2091.22
996.268	2073.59
996.565	2040.6
996.861	2044.89
997.157	2023.42
997.453	2027.26
997.749	2021.16
998.044	2034.95
998.34	1996.08
998.636	2007.38
998.932	2000.6
999.227	1968.96
999.523	1958.79
999.818	1961.5
1000.114	1948.62
1000.409	1947.27
1000.704	1912.69
1001	1909.98
1001.295	1914.5
1001.59	1918.34
1001.885	1914.27
1002.18	1854.16
1002.475	1855.74
1002.77	1856.87
1003.065	1865.23
1003.359	1835.4
1003.654	1788.17
1003.949	1819.13
1004.243	1841.73
1004.538	1794.73
1004.832	1766.03
1005.127	1785.69
1005.421	1744.78
1005.715	1763.32
1006.009	1777.55
1006.304	1723.77
1006.598	1744.33
1006.892	1710.66
1007.186	1693.26
1007.48	1677.67
1007.773	1708.85
1008.067	1702.53
1008.361	1643.77
1008.655	1667.72
1008.948	1652.36
1009.242	1647.61
1009.535	1649.65
1009.829	1641.74
1010.122	1619.14
1010.415	1633.6
1010.708	1612.36
1011.001	1619.36
1011.295	1589.99
1011.588	1606.94
1011.881	1575.98
1012.173	1552.25
1012.466	1539.59
1012.759	1515.86
1013.052	1540.5
1013.344	1504.34
1013.637	1529.42
1013.93	1480.16
1014.222	1473.15
1014.514	1511.34
1014.807	1466.83
1015.099	1440.16
1015.391	1455.98
1015.683	1472.48
1015.976	1428.86
1016.268	1433.61
1016.56	1441.06
1016.851	1404.68
1017.143	1382.76
1017.435	1432.25
1017.727	1387.96
1018.018	1367.39
1018.31	1375.08
1018.602	1363.55
1018.893	1346.6
1019.185	1352.48
1019.476	1352.03
1019.767	1342.99
1020.058	1349.77
1020.35	1332.37
1020.641	1298.24
1020.932	1288.75
1021.223	1317
1021.514	1289.66
1021.804	1263.22
1022.095	1268.64
1022.386	1264.35
1022.677	1281.29
1022.967	1210.34
1023.258	1237.91
1023.548	1238.81
1023.839	1235.19
1024.129	1222.31
1024.419	1218.24
1024.709	1209.43
1025	1198.36
1025.29	1200.62
1025.58	1183.44
1025.87	1133.95
1026.16	1160.85
1026.449	1156.33
1026.739	1122.65
1027.029	1132.82
1027.319	1135.54
1027.608	1121.07
1027.898	1133.73
1028.187	1124.46
1028.477	1093.95
1028.766	1118.36
1029.055	1098.93
1029.344	1091.69
1029.634	1094.18
1029.923	1063.67
1030.212	1047.85
1030.501	1079.27
1030.79	1065.25
1031.078	1031.13
1031.367	1041.53
1031.656	1054.63
1031.945	1037.23
1032.233	1015.99
1032.522	1001.3
1032.81	1012.15
1033.099	1003.11
1033.387	995.43
1033.675	1005.82
1033.963	998.36
1034.251	986.39
1034.54	964.01
1034.828	965.6
1035.116	961.53
1035.403	961.3
1035.691	923.56
1035.979	938.25
1036.267	937.12
1036.554	966.5
1036.842	934.41
1037.129	917.91
1037.417	934.41
1037.704	910.68
1037.992	916.11
1038.279	885.82
1038.566	879.5
1038.853	879.5
1039.14	879.5
