Data from hue_260_FLMS001491_00060.txt Node
Date: Tue Feb 07 15:59:13 GMT 2017
User: dcchb
Spectrometer: FLMS00149
Trigger mode: 0
Integration Time (sec): 2.000000E-2
Scans to average: 10
Electric dark correction enabled: true
Nonlinearity correction enabled: false
Boxcar width: 0
XAxis mode: Wavelengths
Number of Pixels in Spectrum: 2048
>>>>>Begin Spectral Data<<<<<
341.393	5.72
341.776	5.72
342.16	5.72
342.543	-61.85
342.927	-78.57
343.31	-84.67
343.693	-65.01
344.077	-56.2
344.46	-54.62
344.843	-25.01
345.226	-56.2
345.61	-29.53
345.993	-15.3
346.376	-15.07
346.759	14.08
347.142	26.96
347.525	31.03
347.908	53.4
348.291	69
348.674	91.14
349.057	116
349.44	96.57
349.823	143.8
350.206	172.27
350.588	191.7
350.971	203.91
351.354	190.35
351.737	235.09
352.119	223.12
352.502	265.83
352.884	255.43
353.267	281.65
353.65	291.36
354.032	295.66
354.414	297.01
354.797	302.66
355.179	312.38
355.562	331.36
355.944	315.77
356.326	334.3
356.709	314.41
357.091	308.09
357.473	313.28
357.855	325.26
358.238	324.58
358.62	320.97
359.002	327.75
359.384	319.84
359.766	332.04
360.148	329.78
360.53	337.24
360.912	334.75
361.294	318.93
361.676	319.16
362.057	321.42
362.439	316.67
362.821	333.4
363.203	309.44
363.584	324.81
363.966	324.36
364.348	311.25
364.729	316.45
365.111	300.63
365.493	318.48
365.874	314.19
366.256	321.19
366.637	321.42
367.019	309.44
367.4	331.36
367.781	289.33
368.163	308.31
368.544	331.36
368.925	312.83
369.306	313.06
369.688	302.21
370.069	301.76
370.45	324.58
370.831	294.07
371.212	305.6
371.593	293.85
371.974	325.26
372.355	303.57
372.736	304.47
373.117	306.5
373.498	320.06
373.879	317.58
374.26	313.51
374.641	301.08
375.021	310.57
375.402	315.99
375.783	330.91
376.163	315.32
376.544	309.22
376.925	307.18
377.305	293.17
377.686	312.38
378.066	335.88
378.447	331.36
378.827	338.59
379.208	341.53
379.588	342.21
379.968	315.77
380.349	338.37
380.729	312.38
381.109	337.24
381.489	329.55
381.87	346.73
382.25	355.09
382.63	362.09
383.01	339.27
383.39	361.64
383.77	346.28
384.15	340.63
384.53	359.38
384.91	349.67
385.29	334.07
385.67	338.37
386.049	359.16
386.429	348.08
386.809	356.22
387.189	355.54
387.568	359.38
387.948	357.35
388.328	379.27
388.707	347.41
389.087	356.45
389.466	336.78
389.846	341.3
390.225	352.38
390.605	369.33
390.984	360.51
391.363	363.45
391.743	368.42
392.122	362.77
392.501	372.26
392.881	381.76
393.26	371.59
393.639	368.87
394.018	367.97
394.397	374.52
394.776	387.63
395.155	380.63
395.534	397.57
395.913	367.74
396.292	382.89
396.671	396.44
397.05	390.12
397.429	393.96
397.808	388.53
398.186	401.87
398.565	397.57
398.944	407.52
399.323	388.76
399.701	404.13
400.08	400.74
400.458	409.33
400.837	404.13
401.215	411.81
401.594	390.57
401.972	414.07
402.351	428.53
402.729	417.23
403.107	434.41
403.486	415.65
403.864	445.93
404.242	415.2
404.62	445.48
404.999	454.3
405.377	425.82
405.755	419.95
406.133	458.82
406.511	436.9
406.889	458.14
407.267	460.85
407.645	470.79
408.023	515.76
408.401	483.45
408.779	497.68
409.156	511.02
409.534	497.68
409.912	499.49
410.29	469.44
410.667	510.11
411.045	506.95
411.422	512.83
411.8	507.18
412.178	519.38
412.555	535.65
412.933	557.57
413.31	546.95
413.687	566.84
414.065	562.77
414.442	571.13
414.819	590.34
415.197	557.8
415.574	590.79
415.951	602.77
416.328	598.02
416.705	614.97
417.082	617.91
417.46	628.75
417.837	630.56
418.214	632.6
418.591	651.58
418.967	645.48
419.344	647.29
419.721	672.82
420.098	659.04
420.475	666.27
420.852	678.92
421.228	693.84
421.605	712.14
421.982	727.51
422.358	711.46
422.735	723.67
423.111	754.63
423.488	750.11
423.864	776.1
424.241	772.03
424.617	778.13
424.994	790.56
425.37	831.69
425.746	793.95
426.123	826.26
426.499	838.92
426.875	844.34
427.251	851.35
427.627	895.41
428.003	872.59
428.379	856.32
428.756	882.99
429.132	892.25
429.507	908.3
429.883	940.61
430.259	942.42
430.635	943.1
431.011	924.34
431.387	987.84
431.763	961.4
432.138	971.12
432.514	991.23
432.89	998.24
433.265	1040.72
433.641	1059.25
434.016	1061.96
434.392	1093.15
434.767	1110.32
435.143	1101.96
435.518	1142.64
435.894	1141.51
436.269	1172.92
436.644	1165.46
437.02	1180.15
437.395	1214.95
437.77	1235.97
438.145	1267.83
438.52	1256.76
438.895	1296.08
439.271	1281.17
439.646	1323.43
440.021	1334.27
440.395	1363.65
440.77	1324.33
441.145	1343.76
441.52	1389.64
441.895	1379.92
442.27	1385.57
442.645	1403.2
443.019	1405.91
443.394	1442.74
443.769	1458.56
444.143	1433.48
444.518	1475.96
444.892	1455.4
445.267	1503.76
445.641	1503.08
446.016	1515.74
446.39	1513.93
446.764	1557.54
447.139	1554.15
447.513	1575.17
447.887	1568.39
448.262	1578.33
448.636	1576.07
449.01	1606.13
449.384	1607.94
449.758	1622.17
450.132	1631.89
450.506	1670.54
450.88	1682.96
451.254	1679.57
451.628	1688.16
452.002	1726.13
452.376	1734.94
452.75	1742.4
453.123	1731.32
453.497	1778.55
453.871	1797.31
454.244	1816.52
454.618	1793.92
454.992	1843.64
455.365	1840.25
455.739	1900.13
456.112	1924.31
456.486	1881.6
456.859	1922.51
457.232	1972.9
457.606	1945.33
457.979	1971.32
458.352	2010.64
458.725	2028.04
459.099	2076.85
459.472	2133.8
459.845	2076.63
460.218	2134.25
460.591	2137.87
460.964	2153.01
461.337	2160.92
461.71	2249.05
462.083	2244.08
462.456	2256.73
462.829	2275.04
463.201	2288.37
463.574	2298.32
463.947	2325.66
464.32	2366.56
464.692	2404.98
465.065	2397.3
465.438	2451.98
465.81	2476.62
466.183	2472.55
466.555	2525.2
466.928	2551.19
467.3	2516.16
467.672	2578.08
468.045	2636.39
468.417	2653.79
468.789	2653.79
469.161	2660.57
469.534	2739.66
469.906	2788.02
470.278	2790.96
470.65	2842.71
471.022	2881.8
471.394	2905.98
471.766	2927.68
472.138	2975.59
472.51	3036.6
472.882	3053.78
473.253	3096.94
473.625	3126.09
473.997	3209.03
474.369	3202.7
474.74	3223.71
475.112	3263.49
475.484	3306.65
475.855	3360.21
476.227	3384.39
476.598	3471.62
476.97	3465.74
477.341	3562.46
477.713	3602.46
478.084	3567.21
478.455	3679.52
478.827	3709.58
479.198	3832.29
479.569	3786.19
479.94	3893.08
480.311	3958.38
480.682	4030.93
481.053	4098.27
481.424	4130.13
481.795	4180.07
482.166	4202.45
482.537	4217.59
482.908	4363.57
483.279	4376
483.65	4408.32
484.021	4482.89
484.391	4538.71
484.762	4609.44
485.133	4627.75
485.503	4648.76
485.874	4750.68
486.244	4763.79
486.615	4873.84
486.985	4901.41
487.356	5003.78
487.726	5040.62
488.097	5097.11
488.467	5133.27
488.837	5167.39
489.207	5235.87
489.578	5368.74
489.948	5356.54
490.318	5429.08
490.688	5429.53
491.058	5514.28
491.428	5544.11
491.798	5587.49
492.168	5677.44
492.538	5677.44
492.908	5736.19
493.278	5897.77
493.648	5853.02
494.017	5855.28
494.387	5898.9
494.757	5982.51
495.126	6010.76
495.496	6054.37
495.866	6026.35
496.235	6103.64
496.605	6128.27
496.974	6180.25
497.344	6207.59
497.713	6207.59
498.082	6278.78
498.452	6340.24
498.821	6355.16
499.19	6296.63
499.559	6389.06
499.928	6451.88
500.298	6483.74
500.667	6499.11
501.036	6511.31
501.405	6549.95
501.774	6606.45
502.143	6576.17
502.512	6564.87
502.88	6663.4
503.249	6629.73
503.618	6685.77
503.987	6686.67
504.356	6727.58
504.724	6785.43
505.093	6739.33
505.462	6753.57
505.83	6822.49
506.199	6828.14
506.567	6928.7
506.936	6897.52
507.304	6982.49
507.672	6975.48
508.041	7035.14
508.409	7053.67
508.777	7053.9
509.145	7045.31
509.514	7095.93
509.882	7104.97
510.25	7135.7
510.618	7133.67
510.986	7128.24
511.354	7170.5
511.722	7229.71
512.09	7251.86
512.458	7247.79
512.826	7274
513.193	7269.03
513.561	7298.41
513.929	7313.55
514.297	7404.62
514.664	7391.51
515.032	7383.15
515.4	7426.32
515.767	7406.88
516.135	7469.7
516.502	7401.01
516.869	7491.85
517.237	7434
517.604	7490.04
517.972	7561.23
518.339	7568.91
518.706	7598.06
519.073	7586.31
519.44	7596.48
519.808	7630.6
520.175	7610.72
520.542	7614.56
520.909	7680.09
521.276	7595.58
521.643	7695.01
522.009	7677.16
522.376	7815.68
522.743	7721.22
523.11	7822.01
523.477	7833.31
523.843	7828.34
524.21	7919.86
524.577	7951.27
524.943	7963.93
525.31	7902.46
525.676	8005.06
526.043	7995.79
526.409	7983.14
526.776	8048.45
527.142	8016.13
527.508	8062.01
527.874	8053.87
528.241	8139.29
528.607	8070.14
528.973	8144.94
529.339	8146.3
529.705	8154.66
530.071	8166.64
530.437	8180.42
530.803	8167.31
531.169	8211.83
531.535	8184.04
531.901	8198.95
532.267	8272.85
532.632	8201.66
532.998	8264.03
533.364	8287.31
533.73	8211.15
534.095	8281.89
534.461	8174.32
534.826	8262.23
535.192	8260.42
535.557	8297.25
535.923	8208.44
536.288	8229.91
536.653	8283.47
537.019	8166.64
537.384	8225.84
537.749	8271.72
538.114	8210.25
538.479	8247.99
538.845	8264.49
539.21	8241.44
539.575	8211.61
539.94	8248.22
540.305	8276.24
540.67	8218.39
541.034	8203.02
541.399	8162.34
541.764	8224.71
542.129	8207.31
542.494	8178.16
542.858	8256.8
543.223	8238.05
543.587	8240.08
543.952	8160.99
544.316	8200.98
544.681	8171.16
545.045	8227.65
545.41	8165.96
545.774	8175.9
546.138	8175.22
546.503	8210.25
546.867	8118.05
547.231	8176.8
547.595	8199.18
547.959	8214.77
548.324	8180.87
548.688	8202.11
549.052	8145.17
549.416	8104.04
549.779	8121.21
550.143	8143.13
550.507	8184.49
550.871	8178.16
551.235	8148.78
551.599	8135.22
551.962	8106.75
552.326	8104.49
552.689	8133.64
553.053	8125.96
553.417	8063.59
553.78	8181.55
554.143	8118.95
554.507	8139.29
554.87	8145.62
555.234	8177.03
555.597	8163.92
555.96	8160.08
556.323	8143.81
556.686	8144.04
557.05	8193.53
557.413	8212.51
557.776	8182.68
558.139	8195.11
558.502	8197.6
558.865	8198.05
559.228	8228.55
559.59	8300.64
559.953	8205.28
560.316	8319.63
560.679	8300.42
561.041	8299.51
561.404	8291.83
561.767	8349.46
562.129	8324.82
562.492	8378.61
562.854	8407.53
563.217	8332.05
563.579	8419.28
563.941	8427.19
564.304	8464.48
564.666	8461.54
565.028	8424.48
565.39	8524.37
565.753	8490.69
566.115	8498.83
566.477	8486.85
566.839	8537.02
567.201	8609.34
567.563	8677.58
567.925	8641.43
568.287	8633.52
568.648	8692.27
569.01	8680.52
569.372	8694.98
569.734	8647.98
570.095	8739.05
570.457	8785.6
570.819	8719.39
571.18	8782.89
571.542	8815.88
571.903	8844.58
572.265	8847.97
572.626	8883.9
572.987	8897.24
573.349	8916.9
573.71	8981.08
574.071	8864.47
574.432	8946.95
574.794	9127.97
575.155	9014.97
575.516	9025.6
575.877	9018.82
576.238	9079.15
576.599	9089.1
576.96	9096.33
577.32	9114.18
577.681	9205.48
578.042	9202.09
578.403	9231.92
578.763	9171.58
579.124	9248.42
579.485	9263.33
579.845	9267.4
580.206	9293.16
580.566	9295.65
580.927	9279.83
581.287	9331.35
581.648	9325.25
582.008	9356.66
582.368	9380.61
582.728	9421.07
583.089	9451.8
583.449	9424.68
583.809	9475.53
584.169	9499.26
584.529	9372.03
584.889	9565.02
585.249	9491.35
585.609	9496.32
585.969	9581.06
586.329	9512.14
586.688	9580.61
587.048	9543.32
587.408	9566.37
587.768	9528.63
588.127	9566.6
588.487	9590.33
588.846	9690.21
589.206	9610.21
589.565	9595.75
589.925	9721.62
590.284	9665.13
590.643	9661.96
591.003	9766.14
591.362	9787.38
591.721	9770.66
592.08	9857.66
592.44	9774.28
592.799	9817.89
593.158	9808.63
593.517	9815.18
593.876	9826.25
594.235	9795.75
594.593	9772.02
594.952	9872.81
595.311	9867.16
595.67	9861.28
596.029	9923.88
596.387	9926.82
596.746	9905.35
597.104	9893.14
597.463	9788.97
597.822	9856.99
598.18	9908.06
598.538	9909.41
598.897	10015.63
599.255	9831.68
599.613	10055.4
599.972	9958.68
600.33	9974.72
600.688	10006.14
601.046	10072.57
601.404	10058.11
601.762	10081.16
602.12	10099.69
602.478	10077.09
602.836	10059.24
603.194	10033.93
603.552	10053.14
603.91	9981.96
604.268	10041.61
604.625	10066.7
604.983	10047.94
605.341	10015.85
605.698	10108.51
606.056	10090.88
606.413	10054.5
606.771	10102.63
607.128	10076.87
607.485	9990.54
607.843	10074.61
608.2	10135.85
608.557	10183.98
608.914	10123.42
609.272	10196.41
609.629	10248.16
609.986	10257.65
610.343	10195.73
610.7	10227.6
611.057	10239.35
611.414	10234.6
611.771	10238.22
612.127	10306.47
612.484	10319.12
612.841	10286.13
613.198	10323.64
613.554	10279.57
613.911	10315.05
614.267	10307.6
614.624	10286.58
614.98	10349.4
615.337	10329.74
615.693	10295.17
616.05	10339.69
616.406	10423.07
616.762	10433.02
617.118	10382.4
617.475	10382.4
617.831	10369.29
618.187	10383.98
618.543	10346.47
618.899	10525.9
619.255	10490.87
619.611	10448.16
619.967	10466.24
620.323	10496.74
620.678	10496.74
621.034	10400.48
621.39	10368.16
621.746	10436.18
622.101	10504.65
622.457	10423.75
622.812	10457.87
623.168	10511.66
623.523	10506.24
623.879	10478.89
624.234	10440.93
624.589	10459.23
624.945	10457.65
625.3	10485.44
625.655	10447.48
626.01	10461.72
626.365	10463.52
626.72	10482.05
627.075	10397.54
627.43	10406.8
627.785	10393.7
628.14	10462.39
628.495	10447.25
628.85	10460.36
629.205	10461.72
629.559	10471.89
629.914	10312.12
630.269	10404.99
630.623	10377.88
630.978	10382.17
631.332	10361.38
631.687	10372.68
632.041	10350.98
632.396	10325.9
632.75	10287.94
633.104	10288.61
633.459	10295.62
633.813	10267.6
634.167	10278.22
634.521	10233.47
634.875	10322.74
635.229	10194.15
635.583	10122.74
635.937	10319.8
636.291	10236.19
636.645	10209.07
636.999	10143.53
637.352	10180.14
637.706	10114.38
638.06	10157.54
638.413	10111.67
638.767	10043.42
639.121	10046.36
639.474	10081.16
639.828	10014.5
640.181	10050.88
640.534	10078.9
640.888	10029.86
641.241	9971.11
641.594	9981.96
641.947	10021.28
642.301	9988.06
642.654	9966.59
643.007	10020.37
643.36	10013.59
643.713	9885.46
644.066	9992.8
644.419	9971.11
644.771	9824.22
645.124	9852.24
645.477	9787.84
645.83	9680.04
646.182	9708.74
646.535	9691.34
646.888	9699.02
647.24	9572.7
647.593	9675.52
647.945	9585.13
648.298	9592.81
648.65	9600.5
649.002	9572.25
649.355	9583.1
649.707	9575.19
650.059	9645.01
650.411	9810.66
650.763	9748.29
651.115	9842.52
651.467	9883.2
651.819	9825.12
652.171	9819.25
652.523	9839.81
652.875	9777.67
653.227	9795.52
653.578	9788.06
653.93	9762.07
654.282	9753.94
654.633	9754.16
654.985	9746.03
655.337	9728.4
655.688	9808.4
656.039	9800.04
656.391	9705.35
656.742	9725.92
657.094	9803.65
657.445	9765.92
657.796	9736.09
658.147	9762.53
658.498	9646.6
658.849	9823.32
659.2	9749.87
659.551	9752.81
659.902	9734.96
660.253	9768.18
660.604	9777.21
660.955	9737.67
661.306	9806.37
661.656	9744.9
662.007	9745.58
662.358	9779.47
662.708	9776.99
663.059	9819.93
663.409	9707.16
663.76	9796.42
664.11	9754.62
664.461	9800.94
664.811	9770.89
665.161	9710.32
665.511	9737.22
665.862	9824.22
666.212	9803.43
666.562	9859.47
666.912	9779.93
667.262	9727.05
667.612	9787.84
667.962	9743.54
668.312	9692.25
668.662	9878.45
669.011	9826.25
669.361	9766.14
669.711	9705.13
670.06	9719.14
670.41	9768.18
670.76	9760.72
671.109	9772.7
671.459	9777.67
671.808	9748.06
672.157	9726.37
672.507	9672.13
672.856	9642.08
673.205	9672.36
673.554	9689.99
673.904	9704
674.253	9692.02
674.602	9718.01
674.951	9540.84
675.3	9468.75
675.649	9649.08
675.998	9687.27
676.346	9613.38
676.695	9616.31
677.044	9509.43
677.393	9621.51
677.741	9680.49
678.09	9554.62
678.438	9530.89
678.787	9562.76
679.135	9608.63
679.484	9557.11
679.832	9561.4
680.181	9438.92
680.529	9483.21
680.877	9518.46
681.225	9467.39
681.573	9513.27
681.922	9419.94
682.27	9420.16
682.618	9433.27
682.966	9354.63
683.314	9353.5
683.661	9344.68
684.009	9314.4
684.357	9314.63
684.705	9258.13
685.053	9255.65
685.4	9254.29
685.748	9271.01
686.095	9232.82
686.443	9155.54
686.79	9188.08
687.138	9207.74
687.485	9083
687.832	9169.55
688.18	9061.08
688.527	9029.66
688.874	9006.16
689.221	9015.88
689.568	9010.68
689.915	9016.78
690.262	8933.4
690.609	8958.93
690.956	8894.75
691.303	8820.86
691.65	8804.58
691.997	8810.01
692.344	8840.97
692.69	8706.51
693.037	8702.21
693.383	8658.83
693.73	8707.64
694.077	8668.77
694.423	8626.74
694.769	8581.99
695.116	8514.65
695.462	8605.72
695.808	8540.41
696.155	8586.29
696.501	8449.57
696.847	8427.19
697.193	8328.21
697.539	8415.67
697.885	8351.04
698.231	8299.51
698.577	8288.44
698.923	8268.1
699.269	8232.62
699.614	8158.05
699.96	8219.06
700.306	8202.11
700.651	8112.4
700.997	8132.96
701.342	8162.57
701.688	8090.03
702.033	8063.36
702.379	7975.68
702.724	7948.11
703.069	8025.62
703.415	7890.71
703.76	7885.06
704.105	7908.11
704.45	7909.47
704.795	7801.22
705.14	7844.61
705.485	7813.2
705.83	7736.36
706.175	7752.18
706.52	7735.91
706.865	7694.56
707.209	7723.71
707.554	7668.12
707.899	7678.06
708.243	7611.4
708.588	7550.15
708.932	7570.49
709.277	7618.4
709.621	7551.74
709.966	7478.74
710.31	7522.36
710.654	7436.26
710.998	7492.53
711.342	7393.77
711.687	7444.62
712.031	7343.61
712.375	7389.25
712.719	7360.78
713.063	7372.76
713.407	7366.2
713.75	7313.78
714.094	7324.4
714.438	7277.62
714.782	7299.99
715.125	7263.83
715.469	7224.74
715.812	7223.84
716.156	7164.4
716.499	7196.04
716.843	7200.33
717.186	7149.71
717.53	7186.55
717.873	7162.82
718.216	7178.19
718.559	7142.03
718.902	7070.17
719.246	7081.01
719.589	7082.82
719.932	7093.44
720.275	7063.39
720.617	7029.04
720.96	7055.93
721.303	7093.44
721.646	7039.21
721.989	6980
722.331	7036.27
722.674	7041.02
723.016	7002.15
723.359	6976.61
723.701	6985.42
724.044	6923.28
724.386	6924.41
724.729	6959.44
725.071	6940.68
725.413	6920.34
725.755	6917.63
726.097	6868.59
726.439	6908.14
726.782	6900.91
727.124	6928.93
727.465	6838.31
727.807	6863.84
728.149	6854.81
728.491	6874.69
728.833	6831.08
729.175	6872.66
729.516	6817.74
729.858	6840.57
730.199	6802.83
730.541	6844.41
730.882	6859.78
731.224	6831.76
731.565	6783.62
731.906	6856.39
732.248	6845.54
732.589	6853.68
732.93	6806.45
733.271	6793.11
733.612	6846.44
733.953	6826.33
734.294	6759.44
734.635	6809.38
734.976	6827.01
735.317	6772.55
735.658	6808.71
735.999	6797.18
736.339	6812.55
736.68	6817.97
737.021	6783.85
737.361	6743.17
737.702	6780.01
738.042	6795.15
738.383	6797.18
738.723	6810.51
739.063	6788.14
739.404	6814.81
739.744	6827.01
740.084	6810.51
740.424	6847.8
740.764	6774.36
741.104	6842.15
741.444	6881.02
741.784	6913.79
742.124	6851.19
742.464	6830.63
742.804	6896.39
743.143	6945.88
743.483	6911.3
743.823	6918.31
744.162	6954.01
744.502	6981.58
744.841	6938.19
745.181	7008.02
745.52	7044.18
745.86	7093.22
746.199	7093.22
746.538	7079.66
746.877	7112.43
747.216	7199.43
747.556	7179.54
747.895	7278.3
748.234	7155.59
748.573	7232.65
748.911	7314.23
749.25	7319.65
749.589	7350.16
749.928	7489.59
750.267	7571.85
750.605	7567.78
750.944	7572.3
751.283	7688.46
751.621	7741.56
751.96	7761.22
752.298	7791.73
752.636	7855.68
752.975	7963.25
753.313	8049.8
753.651	8107.43
753.989	8163.92
754.327	8245.73
754.666	8284.37
755.004	8387.42
755.342	8499.06
755.679	8649.56
756.017	8630.8
756.355	8774.98
756.693	8891.81
757.031	9036.9
757.368	9025.14
757.706	9165.71
758.044	9293.39
758.381	9358.69
758.719	9541.74
759.056	9711.45
759.394	9736.09
759.731	9847.5
760.068	9954.16
760.405	10016.76
760.743	10183.53
761.08	10353.02
761.417	10506.69
761.754	10567.93
762.091	10634.37
762.428	10796.17
762.765	10890.63
763.102	11147.12
763.438	11207.91
763.775	11279.32
764.112	11370.39
764.449	11543.72
764.785	11618.75
765.122	11709.37
765.458	11764.73
765.795	11911.4
766.131	12032.97
766.467	12179.41
766.804	12119.75
767.14	12380.76
767.476	12484.49
767.812	12523.36
768.148	12676.35
768.485	12663.69
768.821	12855.55
769.157	13013.06
769.492	13017.13
769.828	13092.16
770.164	13173.74
770.5	13262.09
770.836	13316.56
771.171	13362.21
771.507	13468.42
771.842	13500.96
772.178	13655.08
772.513	13623.44
772.849	13692.59
773.184	13773.27
773.519	13761.29
773.855	13858.24
774.19	13970.55
774.525	13956.31
774.86	14034.28
775.195	14083.09
775.53	14102.98
775.865	14051.68
776.2	14000.83
776.535	14067.72
776.87	14137.33
777.205	14183.65
777.539	14065.69
777.874	14198.34
778.209	14153.37
778.543	14188.85
778.878	14106.37
779.212	14313.14
779.547	14290.54
779.881	14295.97
780.215	14313.59
780.55	14299.36
780.884	14340.26
781.218	14255.51
781.552	14367.15
781.886	14305.23
782.22	14272.24
782.554	14259.81
782.888	14179.58
783.222	14164.22
783.556	14181.17
783.889	14215.06
784.223	14209.87
784.557	14191.34
784.89	14190.43
785.224	14141.39
785.557	14122.41
785.891	14083.77
786.224	14114.05
786.558	14215.29
786.891	14018.46
787.224	14028.18
787.557	14004.9
787.891	13969.87
788.224	14028.4
788.557	14072.47
788.89	14061.4
789.223	13987.95
789.556	13865.69
789.888	13928.29
790.221	13904.56
790.554	13886.49
790.887	13878.35
791.219	13808.52
791.552	13804.68
791.884	13837.9
792.217	13807.62
792.549	13787.73
792.882	13656.21
793.214	13637.45
793.546	13757.9
793.879	13568.08
794.211	13516.55
794.543	13566.95
794.875	13594.74
795.207	13597.91
795.539	13468.19
795.871	13485.37
796.203	13368.76
796.535	13427.97
796.867	13316.33
797.198	13258.48
797.53	13333.51
797.862	13234.75
798.193	13261.64
798.525	13117.01
798.856	13268.2
799.188	13132.38
799.519	13059.84
799.85	13029.33
800.182	13001.99
800.513	13010.8
800.844	12894.42
801.175	13000.18
801.506	12977.81
801.837	12905.95
802.168	12857.36
802.499	12853.74
802.83	12815.1
803.161	12764.71
803.491	12722.22
803.822	12786.4
804.153	12756.57
804.483	12659.4
804.814	12644.94
805.145	12598.16
805.475	12634.09
805.805	12539.63
806.136	12526.07
806.466	12489.46
806.796	12484.71
807.126	12461.21
807.457	12416.47
807.787	12391.16
808.117	12293.53
808.447	12319.07
808.777	12373.76
809.107	12337.83
809.436	12271.61
809.766	12269.58
810.096	12222.8
810.426	12150.03
810.755	12162.69
811.085	12088.34
811.414	12065.06
811.744	12054.22
812.073	12041.56
812.403	12011.96
812.732	11885.63
813.061	11907.78
813.39	11823.49
813.719	11806.54
814.049	11902.58
814.378	11783.72
814.707	11818.06
815.036	11803.38
815.365	11795.69
815.693	11681.12
816.022	11682.48
816.351	11670.05
816.68	11633.89
817.008	11707.79
817.337	11527.45
817.665	11555.25
817.994	11570.84
818.322	11562.25
818.651	11529.94
818.979	11507.79
819.307	11559.99
819.636	11451.07
819.964	11347.34
820.292	11478.86
820.62	11452.65
820.948	11424.63
821.276	11484.51
821.604	11376.27
821.932	11474.57
822.259	11433.89
822.587	11393.67
822.915	11315.25
823.243	11439.32
823.57	11413.33
823.898	11404.52
824.225	11340.11
824.553	11310.96
824.88	11387.57
825.207	11452.2
825.535	11338.76
825.862	11397.51
826.189	11424.85
826.516	11495.59
826.843	11459.2
827.17	11443.61
827.497	11456.04
827.824	11443.84
828.151	11411.97
828.478	11409.49
828.805	11499.66
829.131	11388.25
829.458	11401.58
829.785	11375.59
830.111	11459.2
830.438	11468.47
830.764	11449.71
831.09	11471.86
831.417	11363.84
831.743	11461.92
832.069	11453.78
832.395	11336.95
832.722	11458.75
833.048	11409.26
833.374	11415.82
833.7	11310.73
834.026	11396.38
834.351	11364.29
834.677	11369.72
835.003	11336.5
835.329	11388.47
835.654	11345.99
835.98	11239.1
836.306	11299.21
836.631	11145.99
836.956	11226.44
837.282	11267.8
837.607	11126.33
837.932	11161.59
838.258	11166.1
838.583	11186.22
838.908	11084.75
839.233	11154.35
839.558	11072.32
839.883	11016.05
840.208	11045.66
840.533	11070.97
840.858	10964.75
841.182	10972.44
841.507	11056.28
841.832	10970.18
842.156	10884.76
842.481	10953.45
842.805	10900.57
843.13	10830.97
843.454	10891.54
843.778	10785.78
844.103	10804.53
844.427	10803.85
844.751	10780.8
845.075	10806.11
845.399	10639.56
845.723	10670.52
846.047	10644.54
846.371	10602.96
846.695	10570.41
847.019	10503.07
847.343	10472.11
847.666	10452.9
847.99	10358.22
848.313	10414.03
848.637	10235.73
848.96	10321.38
849.284	10245
849.607	10139.92
849.931	10110.31
850.254	10090.43
850.577	10029.86
850.9	9995.97
851.223	9953.71
851.546	9929.08
851.869	9816.99
852.192	9932.46
852.515	9823.09
852.838	9767.72
853.161	9807.27
853.483	9745.58
853.806	9731.79
854.129	9713.49
854.451	9625.13
854.774	9572.93
855.096	9537.45
855.419	9528.41
855.741	9530.67
856.063	9460.16
856.385	9468.52
856.708	9502.42
857.03	9402.54
857.352	9407.51
857.674	9305.14
857.996	9348.3
858.318	9283.44
858.64	9227.17
858.961	9294.06
859.283	9205.03
859.605	9151.92
859.926	9273.27
860.248	9177
860.57	9146.95
860.891	9160.06
861.212	9082.77
861.534	9065.14
861.855	9101.3
862.176	9110.79
862.498	9066.72
862.819	9001.87
863.14	8983.56
863.461	8941.3
863.782	8947.18
864.103	8919.61
864.424	8975.88
864.745	8917.8
865.065	8876.9
865.386	8817.92
865.707	8911.93
866.027	8838.93
866.348	8736.56
866.668	8817.01
866.989	8722.78
867.309	8775.66
867.63	8656.34
867.95	8718.49
868.27	8671.93
868.59	8732.72
868.91	8718.71
869.23	8706.06
869.55	8592.39
869.87	8652.72
870.19	8581.99
870.51	8687.3
870.83	8666.74
871.15	8632.61
871.469	8635.32
871.789	8556.91
872.109	8605.49
872.428	8500.64
872.748	8556
873.067	8523.01
873.386	8564.14
873.706	8516.68
874.025	8469.68
874.344	8459.96
874.663	8456.35
874.982	8454.99
875.301	8460.41
875.62	8452.5
875.939	8421.09
876.258	8418.83
876.577	8419.74
876.896	8395.56
877.214	8352.39
877.533	8356.24
877.852	8333.18
878.17	8311.49
878.489	8329.12
878.807	8287.54
879.125	8258.61
879.444	8245.05
879.762	8175
880.08	8196.47
880.398	8187.88
880.716	8209.35
881.034	8189.01
881.352	8171.61
881.67	8145.39
881.988	8096.58
882.306	8105.85
882.624	8149.91
882.941	8013.65
883.259	8073.76
883.577	8019.29
883.894	7936.59
884.212	7986.08
884.529	7940.65
884.846	7998.28
885.164	7986.75
885.481	7942.69
885.798	7954.44
886.115	7909.69
886.432	7810.26
886.75	7803.48
887.067	7852.07
887.383	7843.93
887.7	7798.96
888.017	7740.88
888.334	7740.66
888.651	7780.21
888.967	7721.45
889.284	7674.9
889.6	7615.46
889.917	7631.51
890.233	7645.75
890.55	7621.34
890.866	7640.55
891.182	7543.15
891.498	7579.76
891.815	7449.82
892.131	7518.07
892.447	7419.99
892.763	7458.63
893.079	7415.92
893.395	7446.43
893.71	7394.45
894.026	7397.39
894.342	7292.53
894.657	7242.59
894.973	7316.71
895.289	7280.78
895.604	7267.22
895.92	7187.9
896.235	7135.25
896.55	7189.49
896.865	7165.31
897.181	7116.72
897.496	7158.98
897.811	7060
898.126	7050.51
898.441	6996.27
898.756	6951.53
899.071	6902.04
899.386	6945.88
899.7	6868.59
900.015	6870.17
900.33	6828.37
900.644	6823.62
900.959	6825.88
901.273	6789.04
901.588	6766.67
901.902	6737.97
902.216	6709.27
902.531	6733
902.845	6714.7
903.159	6707.92
903.473	6657.75
903.787	6596.28
904.101	6609.39
904.415	6558.99
904.729	6532.55
905.042	6544.53
905.356	6474.7
905.67	6472.89
905.984	6465.89
906.297	6417.53
906.611	6394.03
906.924	6405.33
907.237	6327.81
907.551	6306.35
907.864	6240.58
908.177	6335.5
908.491	6264.54
908.804	6247.59
909.117	6201.04
909.43	6118.78
909.743	6154.49
910.056	6152
910.368	6141.38
910.681	6084.2
910.994	6025.9
911.307	6035.17
911.619	5985.68
911.932	5978.22
912.244	5900.48
912.557	5986.58
912.869	5910.65
913.181	5853.48
913.494	5913.59
913.806	5847.37
914.118	5821.39
914.43	5794.95
914.742	5782.52
915.054	5729.41
915.366	5728.73
915.678	5655.52
915.99	5727.38
916.302	5631.11
916.613	5634.95
916.925	5590.88
917.236	5651.67
917.548	5542.98
917.859	5573.94
918.171	5518.34
918.482	5474.05
918.794	5470.66
919.105	5460.94
919.416	5423.43
919.727	5411.91
920.038	5425.24
920.349	5383.43
920.66	5345.69
920.971	5351.57
921.282	5328.74
921.593	5269.99
921.903	5277.22
922.214	5252.36
922.525	5240.38
922.835	5181.4
923.146	5214.62
923.456	5155.64
923.767	5114.74
924.077	5161.52
924.387	5118.58
924.697	5067.06
925.008	5078.13
925.318	5029.54
925.628	5041.75
925.938	5009.43
926.248	4923.11
926.558	4964.23
926.867	4937.12
927.177	4958.58
927.487	4869.55
927.796	4868.87
928.106	4853.05
928.416	4846.5
928.725	4844.24
929.034	4831.81
929.344	4817.57
929.653	4787.97
929.962	4669.78
930.271	4707.29
930.581	4700.51
930.89	4657.58
931.199	4652.83
931.508	4681.08
931.817	4641.76
932.125	4621.64
932.434	4604.92
932.743	4570.12
933.051	4537.8
933.36	4520.63
933.669	4485.15
933.977	4472.27
934.286	4468.2
934.594	4443.57
934.902	4441.99
935.21	4404.25
935.519	4355.66
935.827	4373.51
936.135	4385.27
936.443	4310.01
936.751	4305.04
937.059	4354.53
937.367	4299.62
937.674	4285.83
937.982	4235.44
938.29	4264.14
938.597	4242.44
938.905	4236.12
939.213	4158.15
939.52	4190.24
939.827	4144.59
940.135	4100.75
940.442	4171.94
940.749	4100.08
941.056	4063.01
941.363	4053.52
941.67	4057.59
941.977	4030.25
942.284	4034.31
942.591	3993.19
942.898	3956.35
943.205	3953.64
943.511	3983.69
943.818	3946.86
944.125	3898.5
944.431	3938.95
944.738	3898.27
945.044	3872.06
945.35	3870.48
945.657	3845.39
945.963	3776.24
946.269	3791.16
946.575	3827.31
946.881	3781.89
947.187	3732.4
947.493	3725.17
947.799	3729.24
948.105	3689.69
948.41	3683.82
948.716	3739.18
949.022	3649.69
949.327	3642.01
949.633	3641.56
949.938	3676.36
950.244	3622.35
950.549	3582.58
950.854	3578.51
951.16	3571.28
951.465	3543.93
951.77	3514.1
952.075	3524.95
952.38	3518.85
952.685	3489.02
952.99	3415.12
953.294	3433.88
953.599	3451.28
953.904	3429.81
954.209	3397.72
954.513	3376.25
954.818	3391.17
955.122	3387.55
955.426	3342.58
955.731	3337.38
956.035	3350.94
956.339	3319.53
956.643	3326.31
956.948	3290.38
957.252	3269.59
957.556	3261.91
957.86	3253.09
958.163	3220.32
958.467	3224.84
958.771	3217.16
959.075	3212.64
959.378	3219.87
959.682	3194.34
959.985	3171.29
960.289	3143.49
960.592	3122.7
960.896	3093.55
961.199	3101.68
961.502	3101.46
961.805	3073.89
962.108	3062.14
962.411	3061.91
962.714	3070.95
963.017	3023.04
963.32	3046.32
963.623	3011.74
963.926	3027.34
964.228	2969.94
964.531	2938.75
964.833	2964.74
965.136	2939.43
965.438	2926.55
965.741	2947.56
966.043	2907.34
966.345	2881.8
966.648	2851.52
966.95	2878.86
967.252	2823.5
967.554	2845.87
967.856	2847
968.158	2807.45
968.46	2826.21
968.761	2798.19
969.063	2770.62
969.365	2753.44
969.666	2783.73
969.968	2728.59
970.269	2772.2
970.571	2729.49
970.872	2709.38
971.174	2708.25
971.475	2701.47
971.776	2667.12
972.077	2646.55
972.378	2685.88
972.679	2620.79
972.98	2636.16
973.281	2625.09
973.582	2565.65
973.883	2601.81
974.183	2590.28
974.484	2543.73
974.785	2559.55
975.085	2534.24
975.386	2576.5
975.686	2540.12
975.986	2479.78
976.287	2510.97
976.587	2473.9
976.887	2498.08
977.187	2466.67
977.487	2464.64
977.787	2451.98
978.087	2456.28
978.387	2438.88
978.687	2428.03
978.987	2435.71
979.286	2420.8
979.586	2385.32
979.885	2406.34
980.185	2356.84
980.484	2358.65
980.784	2343.74
981.083	2348.48
981.382	2346.68
981.682	2362.27
981.981	2336.28
982.28	2310.29
982.579	2322.72
982.878	2295.38
983.177	2269.84
983.475	2310.97
983.774	2257.41
984.073	2280.69
984.372	2243.4
984.67	2224.87
984.969	2198.66
985.267	2241.14
985.566	2202.05
985.864	2212.22
986.162	2151.43
986.461	2164.76
986.759	2130.64
987.057	2169.73
987.355	2138.77
987.653	2134.7
987.951	2151.88
988.249	2090.19
988.547	2096.96
988.844	2121.6
989.142	2090.41
989.44	2098.09
989.737	2066.46
990.035	2054.03
990.332	2023.75
990.63	2037.76
990.927	2054.71
991.224	2023.29
991.521	1990.53
991.819	1992.56
992.116	1997.76
992.413	1975.39
992.71	1983.75
993.006	2001.83
993.303	1970.19
993.6	1943.52
993.897	1976.52
994.193	1924.31
994.49	1929.51
994.787	1928.61
995.083	1891.55
995.379	1918.44
995.676	1865.78
995.972	1862.62
996.268	1883.18
996.565	1888.38
996.861	1851.32
997.157	1854.49
997.453	1821.94
997.749	1842.51
998.044	1769.52
998.34	1821.04
998.636	1791.21
998.932	1802.96
999.227	1797.54
999.523	1723.19
999.818	1734.26
1000.114	1757.09
1000.409	1758.89
1000.704	1735.62
1001	1732.23
1001.295	1717.31
1001.59	1706.24
1001.885	1675.05
1002.18	1687.94
1002.475	1666.24
1002.77	1677.99
1003.065	1683.87
1003.359	1673.02
1003.654	1660.59
1003.949	1628.28
1004.243	1637.09
1004.538	1628.73
1004.832	1621.5
1005.127	1588.28
1005.421	1588.5
1005.715	1567.26
1006.009	1564.78
1006.304	1567.26
1006.598	1560.71
1006.892	1573.59
1007.186	1533.82
1007.48	1499.47
1007.773	1512.57
1008.067	1497.21
1008.361	1526.81
1008.655	1495.85
1008.948	1492.01
1009.242	1465.79
1009.535	1466.47
1009.829	1477.77
1010.122	1473.03
1010.415	1455.17
1010.708	1439.13
1011.001	1439.58
1011.295	1447.94
1011.588	1425.34
1011.881	1414.5
1012.173	1422.63
1012.466	1430.32
1012.759	1396.87
1013.052	1407.04
1013.344	1343.76
1013.637	1390.09
1013.93	1353.26
1014.222	1353.93
1014.514	1352.58
1014.807	1343.76
1015.099	1329.98
1015.391	1341.5
1015.683	1306.02
1015.976	1298.34
1016.268	1303.99
1016.56	1292.47
1016.851	1282.52
1017.143	1287.27
1017.435	1247.27
1017.727	1249.53
1018.018	1261.05
1018.31	1247.5
1018.602	1230.55
1018.893	1205.24
1019.185	1221.06
1019.476	1203.2
1019.767	1186.93
1020.058	1177.67
1020.35	1190.32
1020.641	1194.62
1020.932	1157.33
1021.223	1178.12
1021.514	1169.53
1021.804	1154.39
1022.095	1143.54
1022.386	1149.64
1022.677	1130.21
1022.967	1111.23
1023.258	1130.21
1023.548	1136.54
1023.839	1127.95
1024.129	1106.71
1024.419	1095.86
1024.709	1064.45
1025	1077.78
1025.29	1101.96
1025.58	1054.05
1025.87	1069.87
1026.16	1050.89
1026.449	1039.37
1026.739	1062.19
1027.029	1032.59
1027.319	1040.72
1027.608	1020.83
1027.898	1006.15
1028.187	1021.06
1028.477	1023.77
1028.766	1011.34
1029.055	990.78
1029.344	1003.89
1029.634	989.65
1029.923	962.53
1030.212	969.31
1030.501	973.83
1030.79	960.72
1031.078	940.61
1031.367	940.84
1031.656	942.42
1031.945	962.98
1032.233	941.06
1032.522	915.53
1032.81	941.06
1033.099	912.36
1033.387	928.41
1033.675	902.87
1033.963	896.77
1034.251	889.09
1034.54	878.24
1034.828	889.09
1035.116	912.14
1035.403	882.53
1035.691	871.23
1035.979	860.84
1036.267	869.2
1036.554	857
1036.842	852.25
1037.129	830.11
1037.417	844.34
1037.704	838.24
1037.992	837.56
1038.279	831.69
1038.566	815.42
1038.853	815.42
1039.14	815.42
