Data from hue_38_FLMS001491_00070.txt Node
Date: Tue Feb 07 17:31:50 GMT 2017
User: dcchb
Spectrometer: FLMS00149
Trigger mode: 0
Integration Time (sec): 2.000000E-2
Scans to average: 10
Electric dark correction enabled: true
Nonlinearity correction enabled: false
Boxcar width: 0
XAxis mode: Wavelengths
Number of Pixels in Spectrum: 2048
>>>>>Begin Spectral Data<<<<<
341.393	-14.53
341.776	-14.53
342.16	-14.53
342.543	-56.79
342.927	-86.62
343.31	-78.26
343.693	-72.16
344.077	-58.15
344.46	-65.83
344.843	-61.76
345.226	-57.02
345.61	-18.15
345.993	-24.25
346.376	-10.24
346.759	8.52
347.142	31.34
347.525	43.32
347.908	66.14
348.291	94.16
348.674	91
349.057	111.34
349.44	128.97
349.823	157.89
350.206	178.23
350.588	207.83
350.971	223.2
351.354	241.5
351.737	243.09
352.119	255.52
352.502	249.64
352.884	279.24
353.267	259.58
353.65	305.91
354.032	296.87
354.414	316.08
354.797	313.14
355.179	330.99
355.562	323.76
355.944	341.16
356.326	345.68
356.709	362.18
357.091	358.79
357.473	348.62
357.855	363.08
358.238	332.8
358.62	348.62
359.002	327.15
359.384	353.82
359.766	362.63
360.148	339.58
360.53	351.11
360.912	334.61
361.294	345.01
361.676	351.33
362.057	323.08
362.439	340.03
362.821	314.72
363.203	360.82
363.584	335.29
363.966	335.97
364.348	322.86
364.729	331.22
365.111	321.5
365.493	316.53
365.874	326.7
366.256	322.86
366.637	308.62
367.019	314.72
367.4	302.75
367.781	339.36
368.163	334.61
368.544	307.27
368.925	304.78
369.306	309.75
369.688	311.11
370.069	323.08
370.45	327.6
370.831	316.98
371.212	324.21
371.593	327.15
371.974	293.71
372.355	323.31
372.736	333.71
373.117	339.58
373.498	311.56
373.879	307.04
374.26	319.69
374.641	319.69
375.021	323.08
375.402	307.72
375.783	338.45
376.163	330.09
376.544	326.93
376.925	320.15
377.305	335.74
377.686	328.28
378.066	331.67
378.447	317.66
378.827	347.94
379.208	347.72
379.588	347.94
379.968	322.86
380.349	342.97
380.729	335.51
381.109	351.56
381.489	361.5
381.87	346.81
382.25	355.4
382.63	346.36
383.01	354.04
383.39	347.94
383.77	351.56
384.15	380.94
384.53	347.04
384.91	351.56
385.29	366.02
385.67	365.12
386.049	364.89
386.429	368.73
386.809	359.02
387.189	373.7
387.568	352.91
387.948	361.73
388.328	347.04
388.707	377.32
389.087	367.38
389.466	352.01
389.846	348.17
390.225	382.07
390.605	370.09
390.984	379.13
391.363	384.33
391.743	379.13
392.122	363.76
392.501	362.86
392.881	383.87
393.26	398.79
393.639	392.01
394.018	395.17
394.397	391.33
394.776	387.49
395.155	402.18
395.534	399.47
395.913	400.6
396.292	400.14
396.671	376.19
397.05	394.72
397.429	397.66
397.808	399.24
398.186	399.92
398.565	404.89
398.944	411.9
399.323	411.67
399.701	403.76
400.08	414.16
400.458	410.54
400.837	414.83
401.215	403.53
401.594	410.77
401.972	440.14
402.351	423.2
402.729	422.97
403.107	436.3
403.486	438.79
403.864	431.78
404.242	420.03
404.62	440.6
404.999	433.82
405.377	430.43
405.755	440.6
406.133	439.47
406.511	453.25
406.889	443.53
407.267	455.74
407.645	447.6
408.023	452.35
408.401	464.32
408.779	428.39
409.156	444.66
409.534	460.93
409.912	457.77
410.29	453.02
410.667	488.96
411.045	476.53
411.422	475.85
411.8	491.67
412.178	480.37
412.555	487.37
412.933	507.26
413.31	510.2
413.687	502.29
414.065	524.89
414.442	500.71
414.819	538.67
415.197	506.58
415.574	507.71
415.951	528.73
416.328	526.02
416.705	546.58
417.082	544.1
417.46	538.9
417.837	541.84
418.214	549.75
418.591	547.26
418.967	536.64
419.344	557.2
419.721	543.19
420.098	553.36
420.475	550.42
420.852	563.53
421.228	568.5
421.605	573.7
421.982	545.23
422.358	570.99
422.735	566.02
423.111	581.61
423.488	580.71
423.864	576.19
424.241	590.87
424.617	617.54
424.994	579.12
425.37	599.91
425.746	605.11
426.123	587.03
426.499	627.71
426.875	617.77
427.251	632.68
427.627	601.95
428.003	642.4
428.379	646.01
428.756	647.82
429.132	649.18
429.507	651.66
429.883	651.66
430.259	643.08
430.635	685.11
431.011	702.06
431.387	675.17
431.763	668.39
432.138	683.75
432.514	664.77
432.89	704.09
433.265	724.88
433.641	716.07
434.016	725.33
434.392	713.13
434.767	747.03
435.143	712.9
435.518	743.19
435.894	755.39
436.269	777.76
436.644	742.51
437.02	752
437.395	792.45
437.77	789.97
438.145	768.27
438.52	787.71
438.895	774.82
439.271	797.65
439.646	828.61
440.021	817.76
440.395	808.5
440.77	790.64
441.145	829.51
441.52	822.73
441.895	844.2
442.27	830.42
442.645	844.43
443.019	861.38
443.394	840.13
443.769	833.81
444.143	872.67
444.518	851.43
444.892	853.24
445.267	870.41
445.641	879.45
446.016	876.06
446.39	871.54
446.764	894.37
447.139	889.4
447.513	882.84
447.887	891.66
448.262	926.68
448.636	898.21
449.01	941.6
449.384	916.74
449.758	944.09
450.132	943.18
450.506	948.38
450.88	986.8
451.254	973.69
451.628	959.45
452.002	974.82
452.376	969.62
452.75	988.6
453.123	1015.72
453.497	1015.72
453.871	1017.08
454.244	1045.78
454.618	1059.79
454.992	1070.86
455.365	1055.72
455.739	1066.34
456.112	1055.04
456.486	1097.75
456.859	1098.88
457.232	1104.53
457.606	1096.62
457.979	1123.52
458.352	1129.39
458.725	1153.12
459.099	1186.79
459.472	1184.98
459.845	1210.29
460.218	1233.8
460.591	1216.39
460.964	1214.81
461.337	1260.91
461.71	1292.32
462.083	1313.12
462.456	1301.59
462.829	1283.06
463.201	1334.81
463.574	1338.43
463.947	1354.92
464.32	1354.24
464.692	1382.72
465.065	1386.79
465.438	1434.92
465.81	1456.61
466.183	1455.26
466.555	1475.37
466.928	1495.71
467.3	1497.97
467.672	1523.28
468.045	1543.84
468.417	1581.13
468.789	1588.59
469.161	1579.77
469.534	1655.25
469.906	1683.73
470.278	1710.17
470.65	1738.87
471.022	1799.2
471.394	1787.23
471.766	1807.79
472.138	1826.1
472.51	1893.44
472.882	1906.09
473.253	1940.22
473.625	1960.56
473.997	2003.04
474.369	2036.49
474.74	2078.07
475.112	2127.33
475.484	2138.18
475.855	2185.41
476.227	2268.34
476.598	2280.77
476.97	2351.51
477.341	2408
477.713	2469.69
478.084	2461.79
478.455	2579.75
478.827	2597.6
479.198	2691.38
479.569	2726.64
479.94	2823.36
480.311	2842.79
480.682	2968.21
481.053	3033.97
481.424	3118.04
481.795	3126.63
482.166	3201.65
482.537	3302.67
482.908	3384.93
483.279	3440.06
483.65	3558.03
484.021	3630.57
484.391	3723.9
484.762	3793.28
485.133	3841.64
485.503	3926.83
485.874	4042.53
486.244	4084.12
486.615	4212.93
486.985	4285.69
487.356	4446.14
487.726	4486.82
488.097	4687.26
488.467	4731.78
488.837	4856.3
489.207	4978.1
489.578	5046.8
489.948	5139.23
490.318	5268.72
490.688	5289.73
491.058	5442.05
491.428	5598.43
491.798	5674.58
492.168	5812.21
492.538	5858.08
492.908	6024.63
493.278	6087.68
493.648	6190.28
494.017	6304.85
494.387	6352.76
494.757	6490.83
495.126	6575.35
495.496	6645.86
495.866	6711.84
496.235	6890.14
496.605	7006.07
496.974	7126.07
497.344	7145.05
497.713	7235.67
498.082	7323.8
498.452	7442.67
498.821	7581.2
499.19	7592.72
499.559	7700.07
499.928	7829.78
500.298	7893.73
500.667	8033.16
501.036	8063.9
501.405	8143.9
501.774	8171.24
502.143	8313.16
502.512	8368.97
502.88	8480.84
503.249	8547.05
503.618	8611.23
503.987	8696.42
504.356	8734.61
504.724	8863.65
505.093	8956.98
505.462	9038.56
505.83	9088.73
506.199	9131.89
506.567	9239.01
506.936	9304.09
507.304	9485.1
507.672	9496.63
508.041	9551.99
508.409	9587.25
508.777	9712.44
509.145	9798.32
509.514	9896.17
509.882	9836.51
510.25	9960.35
510.618	10034.24
510.986	10111.53
511.354	10213.45
511.722	10284.63
512.09	10403.5
512.458	10416.6
512.826	10559.65
513.193	10581.8
513.561	10568.69
513.929	10779.98
514.297	10859.98
514.664	10858.4
515.032	10947.89
515.4	10999.87
515.767	11157.38
516.135	11189.69
516.502	11201.22
516.869	11324.83
517.237	11344.94
517.604	11286.86
517.972	11433.75
518.339	11516.46
518.706	11547.2
519.073	11635.78
519.44	11640.53
519.808	11807.3
520.175	11833.06
520.542	11971.14
520.909	12082.32
521.276	12123.45
521.643	12127.97
522.009	12316.44
522.376	12368.87
522.743	12419.26
523.11	12461.97
523.477	12698.8
523.843	12687.51
524.21	12796.66
524.577	12969.08
524.943	12962.75
525.31	12997.1
525.676	13110.09
526.043	13196.19
526.409	13293.59
526.776	13403.19
527.142	13398.67
527.508	13469.86
527.874	13557.54
528.241	13683.19
528.607	13702.62
528.973	13835.05
529.339	13844.54
529.705	14000.69
530.071	14142.61
530.437	14194.13
530.803	14231.42
531.169	14266.9
531.535	14314.36
531.901	14332.66
532.267	14369.27
532.632	14539.89
532.998	14617.62
533.364	14764.74
533.73	14775.81
534.095	14842.03
534.461	14904.62
534.826	14945.98
535.192	15074.11
535.557	15132.86
535.923	15054
536.288	15215.35
536.653	15305.97
537.019	15265.29
537.384	15304.61
537.749	15436.81
538.114	15437.26
538.479	15411.5
538.845	15606.75
539.21	15620.08
539.575	15758.84
539.94	15727.65
540.305	15860.76
540.67	15879.96
541.034	15928.1
541.399	16049
541.764	16044.48
542.129	16071.37
542.494	16162.22
542.858	16184.81
543.223	16269.78
543.587	16432.72
543.952	16359.5
544.316	16456.45
544.681	16448.08
545.045	16591.13
545.41	16671.58
545.774	16787.28
546.138	16761.97
546.503	16875.87
546.867	16824.57
547.231	17078.8
547.595	17003.32
547.959	17076.09
548.324	17146.15
548.688	17144.56
549.052	17254.62
549.416	17319.25
549.779	17283.32
550.143	17379.59
550.507	17477.44
550.871	17524.89
551.235	17523.31
551.599	17609.86
551.962	17697.54
552.326	17775.06
552.689	17825.68
553.053	17794.72
553.417	17807.6
553.78	18099.34
554.143	18092.34
554.507	18057.99
554.87	18152.67
555.234	18281.26
555.597	18315.61
555.96	18361.48
556.323	18317.87
556.686	18444.64
557.05	18617.97
557.413	18528.48
557.776	18686.67
558.139	18718.53
558.502	18795.14
558.865	18801.69
559.228	18975.02
559.59	19049.6
559.953	19083.95
560.316	19264.28
560.679	19220.67
561.041	19347.9
561.404	19413.43
561.767	19502.69
562.129	19435.8
562.492	19624.05
562.854	19657.94
563.217	19641.22
563.579	19840.54
563.941	19930.48
564.304	20033.98
564.666	20089.34
565.028	20141.32
565.39	20108.55
565.753	20201.43
566.115	20330.69
566.477	20414.08
566.839	20452.27
567.201	20639.39
567.563	20527.53
567.925	20721.19
568.287	20758.03
568.648	20821.98
569.01	20921.64
569.372	21069.88
569.734	21067.62
570.095	21232.82
570.457	21178.36
570.819	21364.34
571.18	21338.58
571.542	21495.18
571.903	21522.75
572.265	21671.9
572.626	21725.46
572.987	21812.24
573.349	21962.97
573.71	22087.71
574.071	22082.29
574.432	22180.82
574.794	22461.03
575.155	22452.9
575.516	22377.42
575.877	22639.56
576.238	22696.28
576.599	22778.54
576.96	22997.29
577.32	22949.61
577.681	23239.09
578.042	23278.41
578.403	23370.84
578.763	23455.58
579.124	23660.55
579.485	23833.65
579.845	24105.96
580.206	23969.92
580.566	24189.58
580.927	24385.73
581.287	24589.34
581.648	24670.47
582.008	24917.69
582.368	25009.67
582.728	25232.94
583.089	25361.75
583.449	25597.22
583.809	25702.53
584.169	25813.04
584.529	25929.64
584.889	26431.78
585.249	26439.46
585.609	26493.02
585.969	26859.11
586.329	27086.9
586.688	27107.24
587.048	27435.59
587.408	27518.98
587.768	27663.16
588.127	28005.07
588.487	28090.94
588.846	28429.24
589.206	28473.76
589.565	28694.54
589.925	28982.9
590.284	29148.32
590.643	29433.28
591.003	29706.72
591.362	30002.53
591.721	30065.35
592.08	30273.48
592.44	30640.03
592.799	30757.54
593.158	30789.85
593.517	31043.63
593.876	31408.82
594.235	31449.95
594.593	31685.65
594.952	32023.95
595.311	32085.19
595.67	32371.73
596.029	32793.42
596.387	32871.83
596.746	33046.97
597.104	33141.88
597.463	33364.93
597.822	33666.16
598.18	33702.55
598.538	33912.71
598.897	34251.68
599.255	34329.65
599.613	34892.57
599.972	34705.68
600.33	35162.85
600.688	35125.79
601.046	35445.33
601.404	35679.67
601.762	35646.68
602.12	36073.11
602.478	36181.12
602.836	36291.63
603.194	36264.74
603.552	36573.66
603.91	36571.62
604.268	36958.96
604.625	36831.28
604.983	37299.51
605.341	37108.78
605.698	37344.71
606.056	37676.68
606.413	37690.46
606.771	37968.65
607.128	38026.05
607.485	38142.43
607.843	38094.75
608.2	38561.63
608.557	38604.79
608.914	38642.08
609.272	39019.92
609.629	39060.6
609.986	39360.93
610.343	39299.69
610.7	39627.59
611.057	39565.67
611.414	39792.78
611.771	39851.08
612.127	40062.83
612.484	40103.06
612.841	40477.51
613.198	40292.2
613.554	40392.31
613.911	40672.76
614.267	40704.17
614.624	40756.37
614.98	41055.35
615.337	41308
615.693	41173.76
616.05	41220.31
616.406	41596.8
616.762	41348.22
617.118	41443.59
617.475	41557.71
617.831	41682
618.187	41791.15
618.543	41800.41
618.899	42232.72
619.255	42161.76
619.611	42361.75
619.967	42297.35
620.323	42463.45
620.678	42355.2
621.034	42456.67
621.39	42446.04
621.746	42448.3
622.101	43004.9
622.457	42609.43
622.812	42855.75
623.168	42947.27
623.523	42959.7
623.879	43100.49
624.234	42915.64
624.589	43235.63
624.945	43174.16
625.3	43150.43
625.655	43265.23
626.01	43373.48
626.365	43375.74
626.72	43297.77
627.075	43294.84
627.43	43308.4
627.785	43282.63
628.14	43458.67
628.495	43408.96
628.85	43323.99
629.205	43337.09
629.559	43598.11
629.914	43466.58
630.269	43607.82
630.623	43521.95
630.978	43446.92
631.332	43527.15
631.687	43772.34
632.041	43517.66
632.396	43795.39
632.75	43542.06
633.104	43587.03
633.459	43482.63
633.813	43416.87
634.167	43536.41
634.521	43545.23
634.875	43592.68
635.229	43472.46
635.583	43345.68
635.937	43436.08
636.291	43393.59
636.645	43419.8
636.999	43374.38
637.352	43468.16
637.706	43252.13
638.06	43418.67
638.413	43307.72
638.767	43282.41
639.121	43385.91
639.474	43198.57
639.828	43180.71
640.181	43183.88
640.534	43224.56
640.888	43043.32
641.241	42921.51
641.594	43044.9
641.947	43270.43
642.301	43182.97
642.654	43037.22
643.007	43052.36
643.36	43143.2
643.713	42989.08
644.066	43208.28
644.419	42777.79
644.771	42640.16
645.124	42205.6
645.477	42172.15
645.83	42103.91
646.182	41780.75
646.535	41673.18
646.888	41813.52
647.24	41741.66
647.593	41924.02
647.945	41830.47
648.298	41730.36
648.65	41546.18
649.002	41475.9
649.355	41707.76
649.707	41714.54
650.059	41714.54
650.411	42393.16
650.763	42232.94
651.115	42720.39
651.467	42528.98
651.819	42622.31
652.171	42579.15
652.523	42342.54
652.875	42468.42
653.227	42342.09
653.578	42477.91
653.93	42476.78
654.282	42220.06
654.633	42112.27
654.985	42225.71
655.337	42260.74
655.688	42162.89
656.039	42430.23
656.391	42214.64
656.742	42243.34
657.094	42137.35
657.445	42288.99
657.796	42211.93
658.147	42083.79
658.498	42215.09
658.849	42215.32
659.2	42108.65
659.551	42063.91
659.902	42213.51
660.253	42149.33
660.604	42181.87
660.955	41828.43
661.306	42129.9
661.656	42033.63
662.007	42117.47
662.358	42028.43
662.708	42133.96
663.059	42060.07
663.409	41797.47
663.76	42106.84
664.11	42068.65
664.461	41982.33
664.811	41991.37
665.161	41994.76
665.511	41831.15
665.862	41906.62
666.212	41969.9
666.562	42024.14
666.912	41856.68
667.262	41781.88
667.612	42001.76
667.962	41963.35
668.312	41798.38
668.662	42074.98
669.011	41932.16
669.361	41924.48
669.711	41970.35
670.06	41747.98
670.41	41724.71
670.76	41724.71
671.109	41900.97
671.459	41807.42
671.808	41797.47
672.157	41825.04
672.507	41580.76
672.856	41540.98
673.205	41587.99
673.554	41701.88
673.904	41644.26
674.253	41835.89
674.602	41581.21
674.951	41137.6
675.3	40843.15
675.649	41572.4
675.998	41578.05
676.346	41499.18
676.695	41625.28
677.044	41369.01
677.393	41497.14
677.741	41456.47
678.09	41420.54
678.438	41275.68
678.787	41376.02
679.135	41442.68
679.484	41144.84
679.832	41263.25
680.181	40997.27
680.529	41109.81
680.877	40986.87
681.225	40962.24
681.573	41189.81
681.922	40950.27
682.27	40804.05
682.618	40798.63
682.966	40788.01
683.314	40729.71
683.661	40669.14
684.009	40582.82
684.357	40509.37
684.705	40381.69
685.053	40358.64
685.4	40393.9
685.748	40170.4
686.095	40215.6
686.443	40087.69
686.79	40108.03
687.138	40053.11
687.485	39972.66
687.832	39911.65
688.18	40012.89
688.527	39736.29
688.874	39819.45
689.221	39667.36
689.568	39598.66
689.915	39486.12
690.262	39418.1
690.609	39379.91
690.956	39252.68
691.303	39202.06
691.65	39042.29
691.997	39042.07
692.344	38873.71
692.69	38834.84
693.037	38836.87
693.383	38582.87
693.73	38577.9
694.077	38475.75
694.423	38346.72
694.769	38218.59
695.116	38243.9
695.462	38171.58
695.808	38026.27
696.155	38064.24
696.501	37761.87
696.847	37861.08
697.193	37553.74
697.539	37493.63
697.885	37383.81
698.231	37350.13
698.577	37381.55
698.923	37232.17
699.269	37139.52
699.614	37008.45
699.96	36867.66
700.306	36958.28
700.651	36724.16
700.997	36568.91
701.342	36674.67
701.688	36605.75
702.033	36407.56
702.379	36449.82
702.724	36288.01
703.069	36331.63
703.415	36003.5
703.76	35946.55
704.105	36029.26
704.45	35888.7
704.795	35721.93
705.14	35512.22
705.485	35519.67
705.83	35447.13
706.175	35544.53
706.52	35351.77
706.865	35234.94
707.209	35248.27
707.554	35204.43
707.899	35134.6
708.243	34905
708.588	35034.26
708.932	34781.39
709.277	34763.54
709.621	34717.89
709.966	34504.33
710.31	34623.88
710.654	34281.74
710.998	34404
711.342	34363.77
711.687	34157.45
712.031	33975.31
712.375	34004.23
712.719	34216.66
713.063	33989.54
713.407	34011.92
713.75	33991.8
714.094	33776.67
714.438	33641.08
714.782	33693.96
715.125	33690.12
715.469	33608.31
715.812	33359.96
716.156	33275.89
716.499	33336.91
716.843	33332.16
717.186	33037.48
717.53	33279.73
717.873	33204.71
718.216	33096.23
718.559	33014.43
718.902	32849.69
719.246	32900.08
719.589	32799.07
719.932	32517.04
720.275	32729.24
720.617	32576.7
720.96	32642.01
721.303	32441.11
721.646	32576.93
721.989	32351.62
722.331	32353.2
722.674	32249.93
723.016	32306.88
723.359	32352.75
723.701	32296.93
724.044	32092.19
724.386	32037.96
724.729	32102.59
725.071	31968.81
725.413	32041.8
725.755	31940.56
726.097	31842.48
726.439	31726.1
726.782	31691.07
727.124	31692.66
727.465	31579.44
727.807	31569.04
728.149	31600.23
728.491	31521.36
728.833	31473.45
729.175	31450.85
729.516	31247.47
729.858	31280.46
730.199	31184.65
730.541	31208.37
730.882	31072.78
731.224	31248.15
731.565	30944.43
731.906	31015.61
732.248	31023.52
732.589	30711.66
732.93	30893.58
733.271	30799.12
733.612	30835.28
733.953	30819.91
734.294	30693.59
734.635	30664.89
734.976	30602.97
735.317	30478.9
735.658	30471.9
735.999	30527.04
736.339	30336.31
736.68	30460.6
737.021	30343.76
737.361	30195.97
737.702	30385.35
738.042	30262.18
738.383	30315.52
738.723	30316.42
739.063	30107.84
739.404	30167.27
739.744	30088.4
740.084	29939.26
740.424	29965.92
740.764	29881.18
741.104	29931.35
741.444	29850.22
741.784	29972.02
742.124	29819.03
742.464	29764.8
742.804	29675.31
743.143	29642.31
743.483	29765.25
743.823	29433.73
744.162	29456.1
744.502	29555.31
744.841	29406.61
745.181	29502.88
745.52	29357.35
745.86	29367.29
746.199	29291.36
746.538	29235.32
746.877	29292.49
747.216	29324.36
747.556	29159.16
747.895	29289.55
748.234	29063.57
748.573	29064.48
748.911	28978.38
749.25	29027.64
749.589	28801.88
749.928	28832.39
750.267	28869.68
750.605	28756.91
750.944	28643.92
751.283	28635.11
751.621	28545.85
751.96	28569.12
752.298	28535.45
752.636	28477.37
752.975	28429.24
753.313	28279.64
753.651	28422.91
753.989	28254.33
754.327	28191.28
754.666	28121
755.004	28171.39
755.342	28113.09
755.679	28048.23
756.017	27946.31
756.355	27966.65
756.693	27918.74
757.031	27826.32
757.368	27549.26
757.706	27591.52
758.044	27533.67
758.381	27592.65
758.719	27525.76
759.056	27372.09
759.394	27241.25
759.731	27034.25
760.068	27081.7
760.405	27009.84
760.743	26971.2
761.08	26972.78
761.417	26893.01
761.754	26746.8
762.091	26765.55
762.428	26647.36
762.765	26509.74
763.102	26526.46
763.438	26398.56
763.775	26269.3
764.112	26335.96
764.449	26353.13
764.785	26124.44
765.122	25946.59
765.458	25922.86
765.795	25836.76
766.131	25879.93
766.467	25799.93
766.804	25762.87
767.14	25514.29
767.476	25490.78
767.812	25459.37
768.148	25418.47
768.485	25185.93
768.821	25077.69
769.157	25117.46
769.492	25036.11
769.828	24987.75
770.164	24834.08
770.5	24769.67
770.836	24627.53
771.171	24568.55
771.507	24551.6
771.842	24320.19
772.178	24327.88
772.513	24328.78
772.849	24188.45
773.184	24141.67
773.519	24022.8
773.855	24018.51
774.19	23809.02
774.525	23790.72
774.86	23736.93
775.195	23715.46
775.53	23657.39
775.865	23528.35
776.2	23288.81
776.535	23199.09
776.87	23188.02
777.205	23089.72
777.539	22971.75
777.874	23077.29
778.209	22814.02
778.543	22712.1
778.878	22660.12
779.212	22717.3
779.547	22558.88
779.881	22535.16
780.215	22403.41
780.55	22442.05
780.884	22348.04
781.218	22196.63
781.552	22094.94
781.886	22106.92
782.22	21972.01
782.554	21863.08
782.888	21663.77
783.222	21681.62
783.556	21509.19
783.889	21511
784.223	21431
784.557	21325.47
784.89	21375.86
785.224	21211.35
785.557	21016.1
785.891	20993.28
786.224	21019.72
786.558	20946.5
786.891	20830.79
787.224	20652.04
787.557	20647.52
787.891	20635.32
788.224	20571.82
788.557	20440.97
788.89	20451.14
789.223	20469.45
789.556	20265.39
789.888	20291.6
790.221	20176.12
790.554	19952.85
790.887	20049.8
791.219	19912.4
791.552	19886.41
791.884	19793.76
792.217	19758.28
792.549	19682.8
792.882	19438.51
793.214	19466.54
793.546	19468.57
793.879	19392.64
794.211	19181.8
794.543	19249.14
794.875	19240.1
795.207	19231.06
795.539	19054.34
795.871	19115.58
796.203	18940
796.535	18784.07
796.867	18812.09
797.198	18717.4
797.53	18704.3
797.862	18567.58
798.193	18609.84
798.525	18461.36
798.856	18526.22
799.188	18321.26
799.519	18287.13
799.85	18178.89
800.182	18183.63
800.513	18185.67
800.844	17987.48
801.175	18057.76
801.506	17999.23
801.837	17928.95
802.168	17829.07
802.499	17882.17
802.83	17770.08
803.161	17657.32
803.491	17652.57
803.822	17688.73
804.153	17585
804.483	17465.68
804.814	17312.02
805.145	17383.2
805.475	17279.25
805.805	17219.82
806.136	17236.99
806.466	17286.71
806.796	17178.69
807.126	17091.01
807.457	16959.03
807.787	16969.88
808.117	16980.27
808.447	16832.03
808.777	16918.81
809.107	16813.5
809.436	16763.56
809.766	16787.96
810.096	16644.01
810.426	16595.88
810.755	16604.01
811.085	16583.22
811.414	16546.16
811.744	16406.28
812.073	16402.66
812.403	16429.33
812.732	16292.83
813.061	16263.23
813.39	16211.03
813.719	16174.42
814.049	16240.63
814.378	16184.59
814.707	16040.41
815.036	16133.97
815.365	16010.13
815.693	15873.18
816.022	15819.4
816.351	15763.81
816.68	15705.28
817.008	15742.34
817.337	15578.95
817.665	15622.8
817.994	15752.51
818.322	15573.31
818.651	15549.13
818.979	15414.67
819.307	15472.97
819.636	15511.84
819.964	15388.23
820.292	15452.63
820.62	15455.12
820.948	15341.67
821.276	15400.88
821.604	15334.22
821.932	15355.46
822.259	15297.38
822.587	15411.28
822.915	15367.43
823.243	15253.54
823.57	15347.55
823.898	15327.89
824.225	15261
824.553	15169.47
824.88	15267.32
825.207	15275.01
825.535	15195.46
825.862	15271.62
826.189	15240.21
826.516	15254.44
826.843	15376.7
827.17	15237.49
827.497	15227.33
827.824	15305.29
828.151	15277.95
828.478	15275.01
828.805	15387.1
829.131	15215.8
829.458	15213.31
829.785	15157.5
830.111	15268.68
830.438	15291.5
830.764	15253.99
831.09	15279.53
831.417	15156.59
831.743	15241.79
832.069	15211.51
832.395	15182.58
832.722	15262.8
833.048	15130.83
833.374	15117.95
833.7	15088.8
834.026	15085.18
834.351	15153.2
834.677	15066.43
835.003	15037.95
835.329	15093.77
835.654	15146.2
835.98	14943.04
836.306	14916.6
836.631	14933.32
836.956	14881.12
837.282	14914.11
837.607	14858.07
837.932	14785.53
838.258	14799.31
838.583	14787.79
838.908	14739.65
839.233	14741.24
839.558	14747.11
839.883	14668.02
840.208	14648.58
840.533	14614.01
840.858	14528.13
841.182	14530.39
841.507	14534.01
841.832	14530.17
842.156	14512.99
842.481	14456.05
842.805	14401.36
843.13	14381.25
843.454	14287.24
843.778	14221.25
844.103	14228.93
844.427	14258.09
844.751	14244.98
845.075	14152.33
845.399	14178.31
845.723	14059.22
846.047	14143.29
846.371	13903.29
846.695	13947.36
847.019	13803.41
847.343	13815.84
847.666	13759.12
847.99	13669.17
848.313	13561.15
848.637	13565.45
848.96	13641.15
849.284	13507.37
849.607	13398.9
849.931	13320.48
850.254	13277.32
850.577	13220.82
850.9	13188.28
851.223	13171.79
851.546	13168.4
851.869	13050.89
852.192	13042.3
852.515	12932.02
852.838	12857.22
853.161	12877.56
853.483	12823.55
853.806	12810.44
854.129	12749.2
854.451	12661.29
854.774	12625.59
855.096	12624.91
855.419	12610.22
855.741	12543.78
856.063	12393.05
856.385	12445.93
856.708	12479.15
857.03	12367.06
857.352	12381.3
857.674	12313.96
857.996	12273.96
858.318	12154.19
858.64	12125.03
858.961	12122.32
859.283	12043
859.605	11953.29
859.926	12114.41
860.248	12078.26
860.57	11997.13
860.891	11953.06
861.212	11849.79
861.534	11904.48
861.855	11870.58
862.176	11868.77
862.498	11861.99
862.819	11744.93
863.14	11702.45
863.461	11698.6
863.782	11709.23
864.103	11713.07
864.424	11679.4
864.745	11672.39
865.065	11641.88
865.386	11577.93
865.707	11575.44
866.027	11578.83
866.348	11533.41
866.668	11497.71
866.989	11533.19
867.309	11418.16
867.63	11543.35
867.95	11511.72
868.27	11405.73
868.59	11428.1
868.91	11441.89
869.23	11429.46
869.55	11319.18
869.87	11338.16
870.19	11358.5
870.51	11309.91
870.83	11287.54
871.15	11183.82
871.469	11209.13
871.789	11217.26
872.109	11256.58
872.428	11079.86
872.748	11197.83
873.067	11137.72
873.386	11155.34
873.706	11162.8
874.025	11060.2
874.344	11062.46
874.663	11066.53
874.982	11010.26
875.301	11086.19
875.62	11002.35
875.939	10982.69
876.258	10974.56
876.577	10883.03
876.896	10908.57
877.214	10866.76
877.533	10911.73
877.852	10913.77
878.17	10839.87
878.489	10770.49
878.807	10825.86
879.125	10794.45
879.444	10752.87
879.762	10820.66
880.08	10745.18
880.398	10676.03
880.716	10712.42
881.034	10666.77
881.352	10677.61
881.67	10615.47
881.988	10679.42
882.306	10596.26
882.624	10506.55
882.941	10542.25
883.259	10461.8
883.577	10464.51
883.894	10422.48
884.212	10403.27
884.529	10426.32
884.846	10313.78
885.164	10421.35
885.481	10337.28
885.798	10330.96
886.115	10259.55
886.432	10256.61
886.75	10219.77
887.067	10251.64
887.383	10201.02
887.7	10228.81
888.017	10077.86
888.334	10142.49
888.651	10080.57
888.967	10076.73
889.284	10045.09
889.6	9999.89
889.917	9884.87
890.233	9940.46
890.55	9906.79
890.866	9862.04
891.182	9906.56
891.498	9808.49
891.815	9758.32
892.131	9751.31
892.447	9784.76
892.763	9662.73
893.079	9683.97
893.395	9666.12
893.71	9690.3
894.026	9591.99
894.342	9596.74
894.657	9520.81
894.973	9563.97
895.289	9502.05
895.604	9489.17
895.92	9489.85
896.235	9404.88
896.55	9433.81
896.865	9327.59
897.181	9333.92
897.496	9274.49
897.811	9309.52
898.126	9234.26
898.441	9253.47
898.756	9232.23
899.071	9080.37
899.386	9154.49
899.7	9047.38
900.015	9025
900.33	8974.16
900.644	8949.52
900.959	8988.17
901.273	8947.94
901.588	8907.49
901.902	8774.16
902.216	8830.88
902.531	8773.71
902.845	8788.62
903.159	8747.5
903.473	8662.3
903.787	8568.07
904.101	8516.09
904.415	8569.65
904.729	8535.07
905.042	8478.35
905.356	8472.02
905.67	8495.75
905.984	8443.1
906.297	8405.36
906.611	8314.51
906.924	8345.92
907.237	8306.38
907.551	8287.17
907.864	8257.79
908.177	8234.97
908.491	8143.22
908.804	8180.51
909.117	8051.47
909.43	8036.55
909.743	8039.27
910.056	7969.89
910.368	7978.48
910.681	7957.91
910.994	7947.07
911.307	7882.43
911.619	7867.07
911.932	7817.12
912.244	7830.46
912.557	7767.63
912.869	7763.12
913.181	7682.44
913.494	7695.77
913.806	7613.51
914.118	7597.24
914.43	7509.79
914.742	7482.44
915.054	7518.6
915.366	7500.75
915.678	7456.68
915.99	7390.24
916.302	7371.71
916.613	7347.98
916.925	7271.6
917.236	7338.49
917.548	7319.28
917.859	7226.86
918.171	7165.39
918.482	7175.11
918.794	7186.18
919.105	7088.33
919.416	7075.68
919.727	7073.64
920.038	7037.94
920.349	6983.93
920.66	7022.8
920.971	6939.41
921.282	6882.46
921.593	6888.11
921.903	6835.23
922.214	6790.49
922.525	6735.35
922.835	6738.51
923.146	6693.99
923.456	6721.11
923.767	6686.31
924.077	6658.74
924.387	6617.61
924.697	6575.35
925.008	6573.99
925.318	6481.79
925.628	6483.15
925.938	6443.6
926.248	6371.51
926.558	6433.88
926.867	6391.17
927.177	6350.27
927.487	6363.6
927.796	6317.73
928.106	6263.72
928.416	6219.65
928.725	6227.11
929.034	6211.74
929.344	6193.44
929.653	6159.99
929.962	6107.34
930.271	6137.62
930.581	6031.86
930.89	6024.86
931.199	5976.5
931.508	6005.2
931.817	5978.98
932.125	5936.5
932.434	5893.33
932.743	5844.75
933.051	5836.39
933.36	5795.71
933.669	5718.88
933.977	5786.67
934.286	5757.52
934.594	5743.06
934.902	5690.63
935.21	5699.21
935.519	5661.7
935.827	5618.54
936.135	5614.47
936.443	5588.93
936.751	5555.72
937.059	5622.83
937.367	5546.9
937.674	5485.43
937.982	5516.17
938.29	5437.75
938.597	5423.06
938.905	5363.86
939.213	5366.12
939.52	5321.6
939.827	5361.6
940.135	5341.94
940.442	5284.76
940.749	5250.64
941.056	5288.83
941.363	5205.67
941.67	5203.86
941.977	5165.22
942.284	5129.96
942.591	5103.52
942.898	5112.56
943.205	5095.16
943.511	5025.56
943.818	5098.55
944.125	5049.51
944.431	5009.97
944.738	4972.23
945.044	4950.76
945.35	4899.01
945.657	4911.21
945.963	4907.82
946.269	4865.34
946.575	4874.6
946.881	4835.06
947.187	4792.12
947.493	4783.08
947.799	4782.18
948.105	4743.53
948.41	4713.48
948.716	4746.47
949.022	4696.76
949.327	4687.04
949.633	4614.05
949.938	4622.41
950.244	4576.53
950.549	4576.76
950.854	4560.94
951.16	4516.42
951.465	4517.78
951.77	4465.8
952.075	4491.56
952.38	4446.14
952.685	4473.71
952.99	4402.07
953.294	4413.15
953.599	4374.73
953.904	4366.14
954.209	4300.83
954.513	4358.46
954.818	4313.04
955.122	4273.94
955.426	4287.05
955.731	4284.56
956.035	4185.58
956.339	4214.73
956.643	4188.75
956.948	4172.93
957.252	4154.4
957.556	4175.86
957.86	4127.5
958.163	4092.48
958.467	4059.48
958.771	4084.12
959.075	4000.73
959.378	4026.49
959.682	4009.54
959.985	3996.89
960.289	3974.74
960.592	3969.54
960.896	3962.76
961.199	3949.43
961.502	3933.39
961.805	3909.43
962.108	3847.29
962.411	3874.86
962.714	3860.62
963.017	3826.5
963.32	3854.52
963.623	3768.64
963.926	3810.45
964.228	3717.35
964.531	3715.99
964.833	3745.59
965.136	3686.16
965.438	3681.41
965.741	3667.4
966.043	3660.17
966.345	3680.06
966.648	3618.82
966.95	3606.61
967.252	3586.28
967.554	3593.96
967.856	3564.36
968.158	3554.41
968.46	3559.38
968.761	3559.84
969.063	3514.41
969.365	3511.93
969.666	3514.19
969.968	3460.86
970.269	3460.63
970.571	3444.36
970.872	3436.22
971.174	3381.99
971.475	3402.33
971.776	3379.95
972.077	3393.29
972.378	3373.63
972.679	3364.81
972.98	3311.71
973.281	3314.64
973.582	3331.82
973.883	3290.69
974.183	3268.32
974.484	3236
974.785	3226.51
975.085	3238.26
975.386	3242.56
975.686	3197.59
975.986	3177.47
976.287	3201.88
976.587	3137.02
976.887	3170.47
977.187	3121.2
977.487	3166.4
977.787	3110.13
978.087	3061.32
978.387	3025.39
978.687	3110.58
978.987	3050.24
979.286	3040.75
979.586	3012.28
979.885	2979.74
980.185	2982.22
980.484	2978.38
980.784	2937.25
981.083	2956.46
981.382	2956.46
981.682	2934.09
981.981	2902
982.28	2899.51
982.579	2866.75
982.878	2869.23
983.177	2841.21
983.475	2864.03
983.774	2839.63
984.073	2818.61
984.372	2789.01
984.67	2778.61
984.969	2776.58
985.267	2761.66
985.566	2755.11
985.864	2723.7
986.162	2724.83
986.461	2735
986.759	2698.16
987.057	2659.52
987.355	2687.99
987.653	2665.85
987.951	2633.98
988.249	2643.7
988.547	2652.97
988.844	2633.76
989.142	2571.84
989.44	2626.3
989.737	2564.61
990.035	2552.86
990.332	2581.56
990.63	2561.9
990.927	2537.94
991.224	2521.22
991.521	2514.44
991.819	2503.82
992.116	2495.46
992.413	2490.03
992.71	2466.31
993.006	2474.89
993.303	2452.29
993.6	2441.45
993.897	2434.89
994.193	2429.7
994.49	2412.97
994.787	2375.23
995.083	2373.2
995.379	2357.83
995.676	2356.25
995.972	2337.27
996.268	2307.89
996.565	2322.35
996.861	2333.65
997.157	2314.67
997.453	2276.71
997.749	2295.01
998.044	2267.67
998.34	2241.68
998.636	2260.43
998.932	2216.59
999.227	2206.65
999.523	2202.81
999.818	2170.27
1000.114	2188.57
1000.409	2203.26
1000.704	2155.13
1001	2212.98
1001.295	2162.81
1001.59	2123.94
1001.885	2098.18
1002.18	2117.16
1002.475	2066.32
1002.77	2088.91
1003.065	2061.57
1003.359	2067.9
1003.654	2031.29
1003.949	2049.37
1004.243	2029.71
1004.538	2014.11
1004.832	2001.23
1005.127	1990.84
1005.421	1976.6
1005.715	1991.29
1006.009	1970.5
1006.304	1944.29
1006.598	1963.95
1006.892	1892.99
1007.186	1944.29
1007.48	1928.69
1007.773	1909.94
1008.067	1926.88
1008.361	1876.26
1008.655	1858.64
1008.948	1823.61
1009.242	1833.55
1009.535	1791.29
1009.829	1803.27
1010.122	1788.36
1010.415	1812.99
1010.708	1791.97
1011.001	1777.28
1011.295	1759.88
1011.588	1748.81
1011.881	1751.52
1012.173	1731.18
1012.466	1725.76
1012.759	1721.47
1013.052	1720.11
1013.344	1677.63
1013.637	1696.38
1013.93	1677.85
1014.222	1669.94
1014.514	1705.2
1014.807	1639.43
1015.099	1648.25
1015.391	1637.4
1015.683	1625.65
1015.976	1624.07
1016.268	1583.84
1016.56	1596.95
1016.851	1572.09
1017.143	1604.18
1017.435	1564.18
1017.727	1568.25
1018.018	1524.86
1018.31	1540.91
1018.602	1539.32
1018.893	1508.36
1019.185	1512.21
1019.476	1485.99
1019.767	1486.44
1020.058	1489.16
1020.35	1459.78
1020.641	1464.07
1020.932	1459.33
1021.223	1412.55
1021.514	1432.89
1021.804	1419.78
1022.095	1414.58
1022.386	1405.54
1022.677	1401.47
1022.967	1387.46
1023.258	1350.63
1023.548	1369.61
1023.839	1354.02
1024.129	1365.32
1024.419	1340.91
1024.709	1326
1025	1349.27
1025.29	1331.87
1025.58	1300.23
1025.87	1292.32
1026.16	1272.66
1026.449	1314.92
1026.739	1262.04
1027.029	1273.12
1027.319	1243.06
1027.608	1250.07
1027.898	1261.14
1028.187	1237.86
1028.477	1225.66
1028.766	1200.35
1029.055	1212.1
1029.344	1216.39
1029.634	1166.45
1029.923	1203.97
1030.212	1185.21
1030.501	1161.93
1030.79	1164.64
1031.078	1159.45
1031.367	1145.66
1031.656	1148.6
1031.945	1125.1
1032.233	1131.88
1032.522	1150.41
1032.81	1092.78
1033.099	1107.02
1033.387	1064.53
1033.675	1079.9
1033.963	1086.45
1034.251	1101.37
1034.54	1075.61
1034.828	1078.55
1035.116	1053.46
1035.403	1064.53
1035.691	1072.44
1035.979	1063.18
1036.267	1032.44
1036.554	1057.3
1036.842	1012.56
1037.129	1021.6
1037.417	1009.85
1037.704	1004.42
1037.992	999.23
1038.279	968.72
1038.566	960.36
1038.853	960.36
1039.14	960.36
