Data from hue_38_FLMS001491_00061.txt Node
Date: Tue Feb 07 17:31:48 GMT 2017
User: dcchb
Spectrometer: FLMS00149
Trigger mode: 0
Integration Time (sec): 2.000000E-2
Scans to average: 10
Electric dark correction enabled: true
Nonlinearity correction enabled: false
Boxcar width: 0
XAxis mode: Wavelengths
Number of Pixels in Spectrum: 2048
>>>>>Begin Spectral Data<<<<<
341.393	-12.6
341.776	-12.6
342.16	-12.6
342.543	-77.23
342.927	-65.93
343.31	-82.43
343.693	-63.44
344.077	-65.48
344.46	-60.96
344.843	-50.11
345.226	-47.17
345.61	-26.38
345.993	-35.42
346.376	-6.72
346.759	18.36
347.142	19.49
347.525	50.68
347.908	64.91
348.291	78.25
348.674	80.51
349.057	125.93
349.44	129.32
349.823	134.29
350.206	165.02
350.588	198.02
350.971	214.51
351.354	240.05
351.737	248.19
352.119	254.51
352.502	268.3
352.884	281.63
353.267	288.41
353.65	296.09
354.032	337.67
354.414	301.52
354.797	324.12
355.179	344.23
355.562	329.54
355.944	322.99
356.326	344.23
356.709	319.37
357.091	329.31
357.473	346.49
357.855	365.02
358.238	364.11
358.62	337.67
359.002	339.26
359.384	351.23
359.766	341.06
360.148	326.15
360.53	323.21
360.912	330.44
361.294	337.9
361.676	313.49
362.057	338.13
362.439	321.63
362.821	346.49
363.203	322.53
363.584	306.04
363.966	332.93
364.348	342.19
364.729	328.41
365.111	325.02
365.493	307.62
365.874	320.73
366.256	318.47
366.637	316.66
367.019	315.08
367.4	330.22
367.781	310.1
368.163	331.35
368.544	333.83
368.925	308.52
369.306	338.58
369.688	320.27
370.069	316.88
370.45	297.68
370.831	320.73
371.212	296.32
371.593	307.39
371.974	328.18
372.355	302.65
372.736	323.21
373.117	318.69
373.498	312.82
373.879	306.49
374.26	331.12
374.641	306.49
375.021	310.33
375.402	320.5
375.783	305.36
376.163	325.02
376.544	305.81
376.925	337.45
377.305	317.34
377.686	346.94
378.066	327.96
378.447	321.86
378.827	336.32
379.208	346.94
379.588	343.55
379.968	333.16
380.349	337.22
380.729	326.15
381.109	335.64
381.489	334.74
381.87	329.09
382.25	336.54
382.63	326.83
383.01	342.42
383.39	365.7
383.77	346.26
384.15	368.41
384.53	365.24
384.91	363.44
385.29	329.77
385.67	348.3
386.049	374.96
386.429	354.62
386.809	345.58
387.189	372.48
387.568	372.25
387.948	363.66
388.328	367.73
388.707	354.85
389.087	362.98
389.466	360.72
389.846	362.98
390.225	380.16
390.605	363.66
390.984	371.12
391.363	387.84
391.743	377
392.122	396.2
392.501	364.79
392.881	393.04
393.26	379.03
393.639	380.16
394.018	380.61
394.397	386.04
394.776	382.19
395.155	385.36
395.534	390.55
395.913	401.63
396.292	377.22
396.671	364.79
397.05	419.03
397.429	388.75
397.808	398.24
398.186	395.3
398.565	416.99
398.944	398.69
399.323	401.63
399.701	410.67
400.08	400.95
400.458	422.64
400.837	418.35
401.215	415.86
401.594	416.54
401.972	421.51
402.351	414.06
402.729	422.19
403.107	414.51
403.486	408.63
403.864	439.14
404.242	441.4
404.62	427.84
404.999	426.03
405.377	409.54
405.755	431.23
406.133	433.72
406.511	433.94
406.889	452.47
407.267	443.21
407.645	470.78
408.023	449.99
408.401	432.81
408.779	449.76
409.156	441.4
409.534	463.55
409.912	448.41
410.29	450.89
410.667	448.63
411.045	466.48
411.422	454.28
411.8	497.44
412.178	481.85
412.555	482.76
412.933	488.18
413.31	501.06
413.687	466.03
414.065	497.67
414.442	498.8
414.819	484.34
415.197	488.86
415.574	517.78
415.951	518.46
416.328	498.57
416.705	517.78
417.082	526.6
417.46	539.48
417.837	530.44
418.214	510.55
418.591	525.92
418.967	549.87
419.344	516.43
419.721	524.79
420.098	528.18
420.475	545.8
420.852	538.12
421.228	552.36
421.605	570.89
421.982	556.65
422.358	574.28
422.735	556.2
423.111	570.44
423.488	581.74
423.864	567.95
424.241	595.75
424.617	574.96
424.994	594.62
425.37	600.04
425.746	585.35
426.123	590.1
426.499	606.14
426.875	607.27
427.251	628.51
427.627	608.18
428.003	631
428.379	625.8
428.756	625.35
429.132	636.42
429.507	642.75
429.883	631
430.259	637.55
430.635	645.01
431.011	663.54
431.387	676.65
431.763	677.1
432.138	669.19
432.514	701.28
432.89	705.8
433.265	717.55
433.641	694.73
434.016	710.32
434.392	717.55
434.767	702.41
435.143	723.65
435.518	732.92
435.894	738.12
436.269	760.26
436.644	755.52
437.02	772.69
437.395	766.36
437.77	768.85
438.145	784.22
438.52	768.4
438.895	799.36
439.271	793.03
439.646	804.56
440.021	798.45
440.395	793.26
440.77	800.04
441.145	800.49
441.52	833.25
441.895	824.44
442.27	821.96
442.645	840.03
443.019	846.36
443.394	823.09
443.769	863.08
444.143	832.35
444.518	853.14
444.892	854.95
445.267	875.51
445.641	880.03
446.016	870.09
446.39	878.23
446.764	874.16
447.139	881.84
447.513	897.21
447.887	889.75
448.262	914.16
448.636	906.7
449.01	924.1
449.384	919.35
449.758	912.57
450.132	943.08
450.506	941.05
450.88	940.37
451.254	943.31
451.628	952.35
452.002	979.69
452.376	963.42
452.75	1013.36
453.123	971.56
453.497	972.69
453.871	983.99
454.244	1037.77
454.618	1014.49
454.992	1010.88
455.365	1018.56
455.739	1047.03
456.112	1056.3
456.486	1075.28
456.859	1104.89
457.232	1108.05
457.606	1103.3
457.979	1099.01
458.352	1155.96
458.725	1174.49
459.099	1155.28
459.472	1169.29
459.845	1196.64
460.218	1196.18
460.591	1205.9
460.964	1215.62
461.337	1245.9
461.71	1253.81
462.083	1276.18
462.456	1284.99
462.829	1285.9
463.201	1332
463.574	1314.37
463.947	1339
464.32	1358.66
464.692	1372.68
465.065	1394.14
465.438	1396.18
465.81	1402.28
466.183	1430.3
466.555	1479.57
466.928	1468.04
467.3	1474.37
467.672	1522.73
468.045	1533.8
468.417	1546.68
468.789	1567.25
469.161	1605.66
469.534	1640.01
469.906	1663.97
470.278	1679.79
470.65	1692.67
471.022	1711.42
471.394	1764.53
471.766	1797.75
472.138	1816.96
472.51	1811.76
472.882	1901.7
473.253	1919.33
473.625	1962.26
473.997	2002.26
474.369	2005.2
474.74	2042.94
475.112	2103.96
475.484	2140.11
475.855	2189.38
476.227	2204.29
476.598	2284.52
476.97	2300.11
477.341	2386.66
477.713	2441.12
478.084	2459.43
478.455	2553.89
478.827	2564.96
479.198	2675.47
479.569	2702.36
479.94	2784.62
480.311	2845.63
480.682	2940.54
481.053	3009.47
481.424	3087.43
481.795	3143.7
482.166	3207.2
482.537	3287.43
482.908	3411.94
483.279	3409.01
483.65	3524.48
484.021	3613.29
484.391	3713.18
484.762	3769
485.133	3807.19
485.503	3919.05
485.874	4032.49
486.244	4129.67
486.615	4261.41
486.985	4260.06
487.356	4437.23
487.726	4515.19
488.097	4669.09
488.467	4684.23
488.837	4844.45
489.207	4923.77
489.578	5094.39
489.948	5115.85
490.318	5224.78
490.688	5293.48
491.058	5429.97
491.428	5497.77
491.798	5651.43
492.168	5745.44
492.538	5882.61
492.908	5969.39
493.278	6126.22
493.648	6119.22
494.017	6223.4
494.387	6341.58
494.757	6418.87
495.126	6590.17
495.496	6630.39
495.866	6743.83
496.235	6890.04
496.605	7033.54
496.974	7081.9
497.344	7146.08
497.713	7184.05
498.082	7330.03
498.452	7433.31
498.821	7504.49
499.19	7523.25
499.559	7639.4
499.928	7767.76
500.298	7853.18
500.667	7950.58
501.036	7951.03
501.405	8110.13
501.774	8185.15
502.143	8274.42
502.512	8287.3
502.88	8435.77
503.249	8434.64
503.618	8605.25
503.987	8641.86
504.356	8740.17
504.724	8829.43
505.093	8868.3
505.462	8953.49
505.83	8993.94
506.199	9125.47
506.567	9273.03
506.936	9250.21
507.304	9319.13
507.672	9432.35
508.041	9499.47
508.409	9619.01
508.777	9627.37
509.145	9746.24
509.514	9791.44
509.882	9942.62
510.25	9910.76
510.618	9962.96
510.986	10072.56
511.354	10149.39
511.722	10280.46
512.09	10320.92
512.458	10338.99
512.826	10401.36
513.193	10514.81
513.561	10547.8
513.929	10649.49
514.297	10787.34
514.664	10780.11
515.032	10892.2
515.4	11021.24
515.767	10990.5
516.135	11079.99
516.502	11084.96
516.869	11219.65
517.237	11310.27
517.604	11292.87
517.972	11281.12
518.339	11462.13
518.706	11518.4
519.073	11592.07
519.44	11609.47
519.808	11759.3
520.175	11766.98
520.542	11935.56
520.909	11952.28
521.276	12009.01
521.643	12088.55
522.009	12153.64
522.376	12232.28
522.743	12327.19
523.11	12421.2
523.477	12534.87
523.843	12594.08
524.21	12751.81
524.577	12813.5
524.943	12797.69
525.31	12929.89
525.676	13018.25
526.043	13106.38
526.409	13206.26
526.776	13312.93
527.142	13366.26
527.508	13426.82
527.874	13478.35
528.241	13565.12
528.607	13661.62
528.973	13665.91
529.339	13791.78
529.705	13908.39
530.071	14022.29
530.437	14063.64
530.803	14149.51
531.169	14244.43
531.535	14213.92
531.901	14225.67
532.267	14280.81
532.632	14420.02
532.998	14484.2
533.364	14521.93
533.73	14556.28
534.095	14803.51
534.461	14827.69
534.826	14972.54
535.192	14871.76
535.557	15080.56
535.923	15010.96
536.288	15118.53
536.653	15122.37
537.019	15059.32
537.384	15292.76
537.749	15292.99
538.114	15368.69
538.479	15389.03
538.845	15483.04
539.21	15513.77
539.575	15497.5
539.94	15645.29
540.305	15711.28
540.67	15698.85
541.034	15796.03
541.399	15855.01
541.764	15940.88
542.129	15971.16
542.494	15950.37
542.858	16177.94
543.223	16133.19
543.587	16251.83
543.952	16253.41
544.316	16367.76
544.681	16309.23
545.045	16495.67
545.41	16542.45
545.774	16648.21
546.138	16604.82
546.503	16677.81
546.867	16685.72
547.231	16855.43
547.595	16854.08
547.959	16989.67
548.324	17019.04
548.688	16973.62
549.052	17071.25
549.416	17038.03
549.779	17121.87
550.143	17187.85
550.507	17327.74
550.871	17357.34
551.235	17390.33
551.599	17504.45
551.962	17579.03
552.326	17559.59
552.689	17659.48
553.053	17676.65
553.417	17777.67
553.78	17988.96
554.143	17879.81
554.507	18009.98
554.87	18110.09
555.234	18166.36
555.597	18135.4
555.96	18207.94
556.323	18314.83
556.686	18337.65
557.05	18476.41
557.413	18466.69
557.776	18552.11
558.139	18702.62
558.502	18700.36
558.865	18621.26
559.228	18889.73
559.59	18862.16
559.953	18791.43
560.316	19091.98
560.679	19116.16
561.041	19193.45
561.404	19362.26
561.767	19386.44
562.129	19270.06
562.492	19520.22
562.854	19616.04
563.217	19516.15
563.579	19605.42
563.941	19806.99
564.304	19841.79
564.666	19905.52
565.028	20001.56
565.39	20100.54
565.753	20167.66
566.115	20140.54
566.477	20254.67
566.839	20328.34
567.201	20404.27
567.563	20440.87
567.925	20570.82
568.287	20563.58
568.648	20672.28
569.01	20808.1
569.372	20872.5
569.734	20888.32
570.095	21003.35
570.457	21147.98
570.819	21145.49
571.18	21159.27
571.542	21342.32
571.903	21396.1
572.265	21463.9
572.626	21526.5
572.987	21665.48
573.349	21703.89
573.71	21851.01
574.071	21957.45
574.432	21968.97
574.794	22221.85
575.155	22277.89
575.516	22298
575.877	22493.48
576.238	22527.37
576.599	22688.5
576.96	22688.5
577.32	22789.51
577.681	22967.36
578.042	23207.81
578.403	23184.98
578.763	23404.41
579.124	23525.54
579.485	23645.31
579.845	23777.51
580.206	23921.46
580.566	24006.66
580.927	24236.03
581.287	24572.29
581.648	24530.26
582.008	24788.78
582.368	24871.27
582.728	25119.4
583.089	25135.89
583.449	25201.88
583.809	25527.75
584.169	25726.61
584.529	25798.93
584.889	26129.54
585.249	26258.12
585.609	26390.1
585.969	26735.4
586.329	26741.27
586.688	27083.41
587.048	27184.2
587.408	27346.68
587.768	27589.84
588.127	27816.5
588.487	27898.53
588.846	28431.4
589.206	28174.46
589.565	28532.64
589.925	28892.18
590.284	29027.99
590.643	29192.51
591.003	29440.41
591.362	29823
591.721	29886.28
592.08	30076.33
592.44	30379.6
592.799	30563.32
593.158	30655.75
593.517	30944.55
593.876	31140.48
594.235	31321.04
594.593	31573.24
594.952	31793.8
595.311	31910.18
595.67	32116.73
596.029	32551.29
596.387	32698.63
596.746	32902.02
597.104	32972.07
597.463	33193.08
597.822	33521.43
598.18	33469.01
598.538	33731.82
598.897	34097.92
599.255	34035.09
599.613	34620.39
599.972	34539.49
600.33	34882.3
600.688	34853.6
601.046	35189.87
601.404	35398.67
601.762	35443.42
602.12	35710.98
602.478	35853.8
602.836	36174.47
603.194	36084.53
603.552	36327.24
603.91	36330.63
604.268	36618.75
604.625	36668.47
604.983	36942.14
605.341	36926.77
605.698	37114.11
606.056	37399.75
606.413	37637.71
606.771	37642
607.128	37939.4
607.485	37925.61
607.843	37961.77
608.2	38328.54
608.557	38444.47
608.914	38524.47
609.272	38806.72
609.629	38887.4
609.986	39116.54
610.343	38981.4
610.7	39246.93
611.057	39343.2
611.414	39602.18
611.771	39639.69
612.127	39995.62
612.484	39943.64
612.841	40164.2
613.198	40056.86
613.554	40254.59
613.911	40484.87
614.267	40591.76
614.624	40652.77
614.98	40790.62
615.337	41008.92
615.693	40824.75
616.05	40990.84
616.406	41347.44
616.762	41210.5
617.118	41361
617.475	41313.09
617.831	41539.53
618.187	41529.36
618.543	41785.17
618.899	42012.51
619.255	42007.99
619.611	41947.65
619.967	42118.72
620.323	42278.27
620.678	42147.65
621.034	42146.74
621.39	42310.13
621.746	42294.99
622.101	42778.59
622.457	42564.59
622.812	42588.77
623.168	42669.89
623.523	42628.99
623.879	42807.74
624.234	42728.2
624.589	42785.82
624.945	42950.11
625.3	43054.52
625.655	43035.99
626.01	43135.65
626.365	43110.79
626.72	43033.5
627.075	43038.7
627.43	43316.43
627.785	43195.98
628.14	43139.04
628.495	43326.83
628.85	43301.74
629.205	43138.81
629.559	43607.27
629.914	43290.44
630.269	43304.45
630.623	43202.31
630.978	43198.02
631.332	43444.34
631.687	43469.2
632.041	43278.69
632.396	43479.37
632.75	43286.38
633.104	43344.68
633.459	43186.27
633.813	43200.28
634.167	43281.18
634.521	43257.22
634.875	43362.53
635.229	43336.09
635.583	43135.19
635.937	43195.98
636.291	43178.81
636.645	43225.36
636.999	43168.19
637.352	43231.01
637.706	43067.17
638.06	43353.49
638.413	43058.59
638.767	43007.29
639.121	43202.54
639.474	42910.11
639.828	42790.8
640.181	42998.25
640.534	43040.28
640.888	42937.46
641.241	42722.1
641.594	42789.89
641.947	42953.5
642.301	42922.09
642.654	42934.75
643.007	42914.18
643.36	42857.01
643.713	42808.42
644.066	42905.82
644.419	42503.35
644.771	42305.38
645.124	41917.15
645.477	42086.86
645.83	41685.97
646.182	41747.66
646.535	41582.24
646.888	41699.53
647.24	41462.92
647.593	41640.32
647.945	41573.88
648.298	41444.16
648.65	41223.38
649.002	41349.7
649.355	41489.36
649.707	41413.66
650.059	41714.21
650.411	42202.79
650.763	42160.53
651.115	42530.24
651.467	42275.1
651.819	42374.99
652.171	42302.22
652.523	42282.11
652.875	42144.94
653.227	42013.87
653.578	42463.57
653.93	42172.28
654.282	41924.38
654.633	41892.51
654.985	42013.19
655.337	42109.68
655.688	42059.29
656.039	42153.07
656.391	41978.61
656.742	42017.26
657.094	41920.54
657.445	42149.68
657.796	41962.34
658.147	41937.94
658.498	42021.1
658.849	42067.65
659.2	42057.48
659.551	41788.79
659.902	42014.32
660.253	41875.57
660.604	41940.42
660.955	41780.43
661.306	41854.32
661.656	41743.59
662.007	41783.14
662.358	41720.09
662.708	41770.03
663.059	41896.58
663.409	41512.86
663.76	41971.83
664.11	41861.78
664.461	41781.78
664.811	41866.53
665.161	41744.95
665.511	41647.32
665.862	41681.22
666.212	41741.78
666.562	41899.75
666.912	41757.6
667.262	41691.39
667.612	41650.26
667.962	41715.12
668.312	41613.88
668.662	41779.3
669.011	41718.51
669.361	41698.85
669.711	41750.15
670.06	41628.57
670.41	41498.17
670.76	41461.34
671.109	41575.91
671.459	41604.39
671.808	41425.63
672.157	41582.47
672.507	41279.65
672.856	41377.5
673.205	41371.17
673.554	41525.07
673.904	41415.24
674.253	41562.35
674.602	41433.32
674.951	40917.4
675.3	40652.32
675.649	41302.25
675.998	41257.73
676.346	41420.44
676.695	41469.25
677.044	41132.76
677.393	41235.58
677.741	41314.9
678.09	41075.36
678.438	40986.32
678.787	41157.84
679.135	41186.54
679.484	40891.86
679.832	41063.38
680.181	40717.18
680.529	40900.22
680.877	40734.8
681.225	40793.33
681.573	40979.77
681.922	40681.7
682.27	40710.62
682.618	40645.77
682.966	40580.23
683.314	40571.87
683.661	40483.74
684.009	40376.4
684.357	40256.17
684.705	40112
685.053	40324.65
685.4	40257.53
685.748	40067.48
686.095	40046.01
686.443	39875.17
686.79	39855.96
687.138	39861.83
687.485	39906.58
687.832	39758.11
688.18	39681.72
688.527	39427.95
688.874	39653.7
689.221	39508.85
689.568	39354.95
689.915	39357.44
690.262	39224.11
690.609	39160.61
690.956	39032.93
691.303	39013.72
691.65	38904.57
691.997	38938.69
692.344	38717.23
692.69	38719.94
693.037	38587.74
693.383	38413.96
693.73	38546.84
694.077	38263.68
694.423	38261.42
694.769	38197.92
695.116	37998.15
695.462	38011.71
695.808	37900.08
696.155	37839.74
696.501	37656.24
696.847	37614.89
697.193	37429.13
697.539	37518.17
697.885	37325.4
698.231	37186.2
698.577	37175.8
698.923	37105.52
699.269	36925.19
699.614	36789.6
699.96	36638.87
700.306	36764.74
700.651	36508.02
700.997	36369.04
701.342	36469.38
701.688	36241.59
702.033	36306.9
702.379	36201.36
702.724	36217.41
703.069	36235.04
703.415	35769.29
703.76	35848.15
704.105	35684.09
704.45	35741.26
704.795	35637.09
705.14	35399.35
705.485	35474.83
705.83	35390.31
706.175	35299.92
706.52	35081.62
706.865	35148.96
707.209	35051.34
707.554	34955.07
707.899	35041.62
708.243	34740.61
708.588	34905.58
708.932	34462.88
709.277	34601.18
709.621	34612.48
709.966	34349.66
710.31	34466.95
710.654	34159.84
710.998	34148.09
711.342	34248.87
711.687	34066.28
712.031	33900.41
712.375	33838.94
712.719	33930.24
713.063	33794.87
713.407	33917.13
713.75	33635.56
714.094	33567.76
714.438	33555.11
714.782	33666.74
715.125	33433.53
715.469	33524.6
715.812	33285.51
716.156	33208.22
716.499	33285.51
716.843	33255.23
717.186	32931.62
717.53	33163.03
717.873	33048
718.216	32961.45
718.559	32818.85
718.902	32627.9
719.246	32629.93
719.589	32559.43
719.932	32522.37
720.275	32515.13
720.617	32556.04
720.96	32370.05
721.303	32388.58
721.646	32365.31
721.989	32220
722.331	32324.4
722.674	32131.42
723.016	32163.73
723.359	32105.43
723.701	32302.03
724.044	32110.17
724.386	31772.1
724.729	32011.19
725.071	31760.8
725.413	31857.75
725.755	31774.81
726.097	31662.05
726.439	31419.34
726.782	31461.38
727.124	31618.89
727.465	31430.19
727.807	31428.61
728.149	31354.71
728.491	31251.44
728.833	31275.84
729.175	31222.06
729.516	31206.69
729.858	31126.24
730.199	31096.19
730.541	30970.99
730.882	30900.03
731.224	31092.57
731.565	30834.05
731.906	30777.55
732.248	30852.13
732.589	30713.6
732.93	30563.32
733.271	30653.04
733.612	30607.16
733.953	30752.47
734.294	30435.87
734.635	30422.31
734.976	30549.08
735.317	30431.8
735.658	30352.25
735.999	30376.21
736.339	30306.83
736.68	30482.42
737.021	30226.83
737.361	30093.5
737.702	30307.96
738.042	30182.31
738.383	30039.04
738.723	30128.76
739.063	30060.06
739.404	30014.41
739.744	30026.16
740.084	29898.48
740.424	29881.08
740.764	29797.69
741.104	29875.88
741.444	29710.01
741.784	29621.88
742.124	29611.26
742.464	29572.39
742.804	29559.73
743.143	29526.74
743.483	29547.75
743.823	29334.88
744.162	29345.95
744.502	29428.44
744.841	29226.63
745.181	29439.96
745.52	29192.06
745.86	29303.69
746.199	29069.57
746.538	29105.73
746.877	29118.39
747.216	29183.24
747.556	29101.66
747.895	29029.12
748.234	28836.36
748.573	28822.12
748.911	28811.95
749.25	28785.06
749.589	28771.28
749.928	28646.99
750.267	28713.88
750.605	28626.87
750.944	28469.36
751.283	28574.67
751.621	28541
751.96	28342.14
752.298	28339.65
752.636	28358.86
752.975	28295.13
753.313	28076.15
753.651	28205.42
753.989	28066.89
754.327	28035.25
754.666	27837.97
755.004	27868.02
755.342	28089.71
755.679	27950.96
756.017	27794.58
756.355	27772.89
756.693	27677.07
757.031	27713.23
757.368	27480.69
757.706	27462.39
758.044	27332.22
758.381	27412.44
758.719	27252
759.056	27350.52
759.394	27204.76
759.731	27067.14
760.068	27002.51
760.405	26981.72
760.743	26836.19
761.08	26797.54
761.417	26698.79
761.754	26667.38
762.091	26595.74
762.428	26457.89
762.765	26382.64
763.102	26466.48
763.438	26274.62
763.775	26162.76
764.112	26188.07
764.449	26173.61
764.785	26114.17
765.122	25908.3
765.458	25939.94
765.795	25778.14
766.131	25713.28
766.467	25537.46
766.804	25477.35
767.14	25470.8
767.476	25374.53
767.812	25243.69
768.148	25224.93
768.485	25067.42
768.821	24960.08
769.157	24991.04
769.492	24921.44
769.828	24820.42
770.164	24706.98
770.5	24648.22
770.836	24533.65
771.171	24436.48
771.507	24397.38
771.842	24303.6
772.178	24205.52
772.513	24188.57
772.849	24076.03
773.184	23985.87
773.519	23999.43
773.855	23894.12
774.19	23672.65
774.525	23707.46
774.86	23675.82
775.195	23606.44
775.53	23543.62
775.865	23396.5
776.2	23204.42
776.535	23063.86
776.87	23071.77
777.205	22954.26
777.539	22857.76
777.874	22894.82
778.209	22681.49
778.543	22686.01
778.878	22543.87
779.212	22582.74
779.547	22419.13
779.881	22336.42
780.215	22368.28
780.55	22295.74
780.884	22135.07
781.218	22049.19
781.552	22088.29
781.886	22002.42
782.22	21819.82
782.554	21795.19
782.888	21638.81
783.222	21532.37
783.556	21380.74
783.889	21333.73
784.223	21242.44
784.557	21228.88
784.89	21213.28
785.224	21089.67
785.557	20934.2
785.891	20865.72
786.224	20852.39
786.558	20811.71
786.891	20642.68
787.224	20628.89
787.557	20534.66
787.891	20458.95
788.224	20476.81
788.557	20440.42
788.89	20334.66
789.223	20296.02
789.556	20139.64
789.888	20065.52
790.221	20097.61
790.554	19906.65
790.887	19912.53
791.219	19816.26
791.552	19804.28
791.884	19727.67
792.217	19664.17
792.549	19582.14
792.882	19353.9
793.214	19377.85
793.546	19358.42
793.879	19235.48
794.211	19155.26
794.543	19235.71
794.875	19088.14
795.207	19151.64
795.539	18993.91
795.871	18921.14
796.203	18774.03
796.535	18651.09
796.867	18585.78
797.198	18619.23
797.53	18597.76
797.862	18442.51
798.193	18480.02
798.525	18301.95
798.856	18447.93
799.188	18231.67
799.519	18188.5
799.85	18094.5
800.182	18133.59
800.513	18061.95
800.844	17969.08
801.175	17962.75
801.506	17976.08
801.837	17882.07
802.168	17752.58
802.499	17766.59
802.83	17659.93
803.161	17609.54
803.491	17706.71
803.822	17593.27
804.153	17422.2
804.483	17354.63
804.814	17347.62
805.145	17272.14
805.475	17242.31
805.805	17204.12
806.136	17218.36
806.466	17169.32
806.796	17070.12
807.126	17046.16
807.457	16988.31
807.787	16920.52
808.117	16782.89
808.447	16742.44
808.777	16826.05
809.107	16774.3
809.436	16599.62
809.766	16700.18
810.096	16520.3
810.426	16535.67
810.755	16527.98
811.085	16482.79
811.414	16422.68
811.744	16380.42
812.073	16311.04
812.403	16279.63
812.732	16165.06
813.061	16160.54
813.39	16132.74
813.719	16025.85
814.049	16011.84
814.378	16031.05
814.707	15948.56
815.036	15996.7
815.365	15786.76
815.693	15739.08
816.022	15806.42
816.351	15737.27
816.68	15690.27
817.008	15681.45
817.337	15562.36
817.665	15478.52
817.994	15521.68
818.322	15544.73
818.651	15424.06
818.979	15417.96
819.307	15327.79
819.636	15313.55
819.964	15284.17
820.292	15309.26
820.62	15302.93
820.948	15267.68
821.276	15271.75
821.604	15281.24
821.932	15201.69
822.259	15231.29
822.587	15172.99
822.915	15201.46
823.243	15245.08
823.57	15196.04
823.898	15239.2
824.225	15171.18
824.553	15196.27
824.88	15202.82
825.207	15273.78
825.535	15208.92
825.862	15225.42
826.189	15105.65
826.516	15263.16
826.843	15254.8
827.17	15313.78
827.497	15175.02
827.824	15196.95
828.151	15108.81
828.478	15190.39
828.805	15252.31
829.131	15202.14
829.458	15170.73
829.785	15082.15
830.111	15056.84
830.438	15212.76
830.764	15170.05
831.09	15183.84
831.417	15032.88
831.743	15197.4
832.069	15124.63
832.395	15031.75
832.722	15096.83
833.048	15047.57
833.374	15132.09
833.7	14992.43
834.026	15101.35
834.351	15032.88
834.677	14938.19
835.003	15023.62
835.329	14952.88
835.654	15009.61
835.98	14819.55
836.306	14847.12
836.631	14751.31
836.956	14853.9
837.282	14890.51
837.607	14838.31
837.932	14772.55
838.258	14679.67
838.583	14646.68
838.908	14592.22
839.233	14655.72
839.558	14666.34
839.883	14627.47
840.208	14575.94
840.533	14523.29
840.858	14575.27
841.182	14494.82
841.507	14491.88
841.832	14403.07
842.156	14384.99
842.481	14356.06
842.805	14385.44
843.13	14319.68
843.454	14383.63
843.778	14217.99
844.103	14239.91
844.427	14096.18
844.751	14174.6
845.075	14166.24
845.399	14180.93
845.723	13970.08
846.047	13987.71
846.371	13913.14
846.695	13887.15
847.019	13900.48
847.343	13705.01
847.666	13696.42
847.99	13655.74
848.313	13507.95
848.637	13519.7
848.96	13493.71
849.284	13417.78
849.607	13357.45
849.931	13341.4
850.254	13244
850.577	13166.04
850.9	13055.98
851.223	13119.71
851.546	13042.65
851.869	12950
852.192	13000.17
852.515	12820.06
852.838	12848.98
853.161	12829.78
853.483	12776.22
853.806	12661.87
854.129	12705.94
854.451	12642.89
854.774	12644.92
855.096	12558.82
855.419	12520.18
855.741	12400.41
856.063	12413.29
856.385	12352.73
856.708	12451.93
857.03	12311.37
857.352	12300.3
857.674	12328.77
857.996	12166.52
858.318	12132.39
858.64	12134.2
858.961	12039.06
859.283	12021.44
859.605	12073.41
859.926	12003.36
860.248	11944.38
860.57	11966.52
860.891	11894.21
861.212	11860.76
861.534	11830.93
861.855	11756.58
862.176	11754.78
862.498	11797.26
862.819	11730.6
863.14	11755.45
863.461	11658.51
863.782	11612.18
864.103	11590.26
864.424	11595.46
864.745	11562.24
865.065	11558.62
865.386	11478.17
865.707	11487.66
866.027	11505.52
866.348	11518.4
866.668	11471.85
866.989	11442.69
867.309	11464.61
867.63	11385.52
867.95	11388.68
868.27	11343.26
868.59	11379.42
868.91	11300.1
869.23	11394.56
869.55	11263.49
869.87	11274.79
870.19	11219.65
870.51	11315.24
870.83	11249.25
871.15	11235.47
871.469	11215.13
871.789	11158.18
872.109	11130.84
872.428	11108.01
872.748	11029.15
873.067	11063.27
873.386	11196.37
873.706	11061.23
874.025	10991.63
874.344	10958.19
874.663	10937.85
874.982	10987.34
875.301	10973.33
875.62	10923.61
875.939	10932.42
876.258	10943.5
876.577	10910.05
876.896	10844.29
877.214	10767.46
877.533	10887.91
877.852	10835.03
878.17	10795.93
878.489	10838.64
878.807	10761.81
879.125	10707.57
879.444	10734.46
879.762	10676.84
880.08	10707.12
880.398	10647.91
880.716	10656.73
881.034	10575.6
881.352	10587.57
881.67	10601.59
881.988	10610.4
882.306	10552.55
882.624	10507.8
882.941	10470.74
883.259	10427.13
883.577	10406.34
883.894	10420.35
884.212	10417.86
884.529	10363.85
884.846	10360.01
885.164	10298.77
885.481	10266.23
885.798	10315.94
886.115	10209.05
886.432	10214.03
886.75	10173.12
887.067	10188.94
887.383	10135.38
887.7	10184.2
888.017	10100.36
888.334	10037.76
888.651	10082.73
888.967	10051.09
889.284	9976.74
889.6	9973.13
889.917	9892
890.233	9894.49
890.55	9866.01
890.866	9898.1
891.182	9809.06
891.498	9744.21
891.815	9775.62
892.131	9746.69
892.447	9781.72
892.763	9757.09
893.079	9609.75
893.395	9741.72
893.71	9593.7
894.026	9587.15
894.342	9579.69
894.657	9507.15
894.973	9462.63
895.289	9481.16
895.604	9450.2
895.92	9412.46
896.235	9392.13
896.55	9324.11
896.865	9392.13
897.181	9230.32
897.496	9252.47
897.811	9239.14
898.126	9105.58
898.441	9106.71
898.756	9076.2
899.071	9100.61
899.386	9099.7
899.7	8998.92
900.015	8951.91
900.33	8912.36
900.644	8922.76
900.959	8904.91
901.273	8847.73
901.588	8832.37
901.902	8729.77
902.216	8767.51
902.531	8781.52
902.845	8697.45
903.159	8669.43
903.473	8654.07
903.787	8620.17
904.101	8569.1
904.415	8527.29
904.729	8527.29
905.042	8465.14
905.356	8417.01
905.67	8426.5
905.984	8399.61
906.297	8335.66
906.611	8297.47
906.924	8324.13
907.237	8208.65
907.551	8282.32
907.864	8168.66
908.177	8143.35
908.491	8129.33
908.804	8086.17
909.117	8016.57
909.43	8098.37
909.743	8013.41
910.056	7981.09
910.368	7944.48
910.681	7891.6
910.994	7869
911.307	7876.91
911.619	7761.21
911.932	7801.21
912.244	7685.5
912.557	7672.85
912.869	7664.71
913.181	7660.19
913.494	7647.31
913.806	7572.06
914.118	7521.89
914.43	7497.71
914.742	7503.81
915.054	7411.39
915.366	7480.09
915.678	7414.1
915.99	7385.17
916.302	7302.01
916.613	7280.54
916.925	7255.91
917.236	7250.94
917.548	7222.01
917.859	7164.84
918.171	7225.18
918.482	7130.26
918.794	7069.93
919.105	7082.36
919.416	7058.4
919.727	7018.85
920.038	6973.66
920.349	6921
920.66	6924.39
920.971	6908.58
921.282	6889.59
921.593	6844.85
921.903	6801.23
922.214	6716.94
922.525	6691.41
922.835	6739.09
923.146	6693.44
923.456	6626.32
923.767	6615.7
924.077	6621.58
924.387	6565.76
924.697	6542.26
925.008	6455.71
925.318	6515.82
925.628	6494.57
925.938	6462.49
926.248	6418.64
926.558	6371.64
926.867	6318.99
927.177	6320.12
927.487	6342.71
927.796	6228.82
928.106	6239.89
928.416	6236.05
928.725	6182.94
929.034	6156.05
929.344	6171.65
929.653	6094.81
929.962	6055.26
930.271	6072.44
930.581	6033.57
930.89	5997.86
931.199	5976.62
931.508	5931.2
931.817	5949.05
932.125	5919.9
932.434	5936.62
932.743	5857.76
933.051	5775.05
933.36	5803.97
933.669	5744.09
933.977	5727.59
934.286	5700.92
934.594	5685.33
934.902	5627.03
935.21	5624.54
935.519	5608.5
935.827	5639.23
936.135	5584.09
936.443	5527.37
936.751	5563.98
937.059	5516.3
937.367	5518.56
937.674	5471.33
937.982	5479.01
938.29	5456.64
938.597	5433.81
938.905	5325.11
939.213	5319.92
939.52	5327.6
939.827	5378.9
940.135	5300.71
940.442	5198.56
940.749	5229.98
941.056	5301.84
941.363	5224.1
941.67	5151.56
941.977	5155.4
942.284	5105.23
942.591	5131.45
942.898	5060.26
943.205	5086.02
943.511	5042.64
943.818	4994.05
944.125	5004.67
944.431	4981.39
944.738	4978.46
945.044	4926.25
945.35	4893.26
945.657	4858.23
945.963	4858.23
946.269	4810.55
946.575	4822.75
946.881	4813.49
947.187	4794.51
947.493	4766.94
947.799	4726.26
948.105	4723.55
948.41	4779.59
948.716	4741.4
949.022	4677.67
949.327	4638.13
949.633	4620.95
949.938	4623.21
950.244	4590.22
950.549	4535.53
950.854	4536.21
951.16	4531.01
951.465	4531.91
951.77	4457.34
952.075	4456.21
952.38	4497.34
952.685	4449.21
952.99	4392.03
953.294	4389.09
953.599	4401.52
953.904	4358.81
954.209	4319.49
954.513	4243.79
954.818	4295.31
955.122	4270.9
955.426	4248.98
955.731	4271.13
956.035	4270.9
956.339	4186.61
956.643	4169.89
956.948	4112.72
957.252	4210.34
957.556	4126.05
957.86	4091.93
958.163	4096.45
958.467	4108.88
958.771	4084.02
959.075	4046.5
959.378	4019.16
959.682	4033.62
959.985	3994.53
960.289	3975.55
960.592	3909.56
960.896	3895.32
961.199	3905.26
961.502	3935.32
961.805	3880.18
962.108	3847.64
962.411	3822.78
962.714	3865.04
963.017	3811.26
963.32	3822.55
963.623	3825.27
963.926	3784.36
964.228	3720.86
964.531	3776.91
964.833	3796.79
965.136	3690.13
965.438	3720.64
965.741	3654.65
966.043	3649.23
966.345	3607.19
966.648	3594.76
966.95	3560.64
967.252	3626.63
967.554	3580.98
967.856	3521.32
968.158	3513.41
968.46	3568.78
968.761	3520.42
969.063	3452.85
969.365	3496.46
969.666	3477.48
969.968	3457.14
970.269	3411.27
970.571	3426.41
970.872	3365.17
971.174	3385.5
971.475	3355
971.776	3390.48
972.077	3351.38
972.378	3370.82
972.679	3321.55
972.98	3325.39
973.281	3312.06
973.582	3311.38
973.883	3250.37
974.183	3256.92
974.484	3249.01
974.785	3203.59
975.085	3242.68
975.386	3202.91
975.686	3178.5
975.986	3166.3
976.287	3130.14
976.587	3140.31
976.887	3137.15
977.187	3137.38
977.487	3087.43
977.787	3075.46
978.087	3030.26
978.387	3057.38
978.687	3065.29
978.987	3041.11
979.286	3022.35
979.586	3006.08
979.885	2973.76
980.185	2928.34
980.484	2959.75
980.784	2962.01
981.083	2933.09
981.382	2917.04
981.682	2905.29
981.981	2913.2
982.28	2870.04
982.579	2849.93
982.878	2823.71
983.177	2841.11
983.475	2842.02
983.774	2760.89
984.073	2792.98
984.372	2762.92
984.67	2784.84
984.969	2733.09
985.267	2773.77
985.566	2758.18
985.864	2709.14
986.162	2700.78
986.461	2696.26
986.759	2727.89
987.057	2666.65
987.355	2646.99
987.653	2631.4
987.951	2593.89
988.249	2634.56
988.547	2597.28
988.844	2610.38
989.142	2596.15
989.44	2572.42
989.737	2602.7
990.035	2566.77
990.332	2592.3
990.63	2518.41
990.927	2546.66
991.224	2532.65
991.521	2494.91
991.819	2494.68
992.116	2450.39
992.413	2485.64
992.71	2462.36
993.006	2445.42
993.303	2443.83
993.6	2431.63
993.897	2416.49
994.193	2423.5
994.49	2397.06
994.787	2410.39
995.083	2353.89
995.379	2361.12
995.676	2352.31
995.972	2329.26
996.268	2329.71
996.565	2336.49
996.861	2319.32
997.157	2287
997.453	2264.86
997.749	2264.18
998.044	2268.25
998.34	2251.52
998.636	2232.99
998.932	2206.55
999.227	2166.78
999.523	2200.9
999.818	2189.83
1000.114	2169.26
1000.409	2153.9
1000.704	2146.67
1001	2152.77
1001.295	2134.69
1001.59	2119.1
1001.885	2128.81
1002.18	2110.28
1002.475	2092.66
1002.77	2052.43
1003.065	2043.17
1003.359	2049.95
1003.654	2085.88
1003.949	2022.6
1004.243	2023.28
1004.538	2005.88
1004.832	1973.79
1005.127	1988.93
1005.421	1963.39
1005.715	1953.9
1006.009	1973.11
1006.304	1949.61
1006.598	1929.5
1006.892	1924.3
1007.186	1925.43
1007.48	1910.06
1007.773	1892.89
1008.067	1899.44
1008.361	1844.75
1008.655	1867.8
1008.948	1828.26
1009.242	1842.95
1009.535	1817.86
1009.829	1792.1
1010.122	1781.03
1010.415	1774.47
1010.708	1759.33
1011.001	1771.54
1011.295	1777.86
1011.588	1738.99
1011.881	1733.12
1012.173	1738.54
1012.466	1726.34
1012.759	1735.15
1013.052	1694.25
1013.344	1729.5
1013.637	1697.64
1013.93	1668.49
1014.222	1674.14
1014.514	1658.77
1014.807	1632.1
1015.099	1646.11
1015.391	1624.87
1015.683	1624.19
1015.976	1597.75
1016.268	1576.29
1016.56	1594.82
1016.851	1570.86
1017.143	1557.53
1017.435	1553.24
1017.727	1540.35
1018.018	1540.13
1018.31	1549.17
1018.602	1526.12
1018.893	1523.41
1019.185	1498.77
1019.476	1457.42
1019.767	1492.67
1020.058	1477.31
1020.35	1464.65
1020.641	1434.6
1020.932	1426.23
1021.223	1434.6
1021.514	1436.18
1021.804	1411.32
1022.095	1379.91
1022.386	1392.34
1022.677	1402.05
1022.967	1387.82
1023.258	1362.73
1023.548	1357.31
1023.839	1335.84
1024.129	1347.37
1024.419	1337.42
1024.709	1320.93
1025	1319.8
1025.29	1298.78
1025.58	1301.27
1025.87	1280.7
1026.16	1295.62
1026.449	1292.23
1026.739	1296.97
1027.029	1276.86
1027.319	1269.85
1027.608	1231.66
1027.898	1256.07
1028.187	1239.57
1028.477	1210.65
1028.766	1230.53
1029.055	1191.44
1029.344	1209.52
1029.634	1199.12
1029.923	1194.83
1030.212	1152.79
1030.501	1163.64
1030.79	1176.75
1031.078	1163.19
1031.367	1125.22
1031.656	1118.67
1031.945	1130.42
1032.233	1136.75
1032.522	1113.02
1032.81	1104.43
1033.099	1071.44
1033.387	1103.76
1033.675	1069.41
1033.963	1085.68
1034.251	1065.11
1034.54	1037.54
1034.828	1053.14
1035.116	1048.62
1035.403	1032.35
1035.691	1034.15
1035.979	1042.74
1036.267	1049.07
1036.554	1038.67
1036.842	1026.02
1037.129	994.61
1037.417	999.58
1037.704	963.42
1037.992	960.03
1038.279	986.25
1038.566	977.66
1038.853	977.66
1039.14	977.66
