Data from hue_300_FLMS001491_00026.txt Node
Date: Tue Feb 07 15:50:31 GMT 2017
User: dcchb
Spectrometer: FLMS00149
Trigger mode: 0
Integration Time (sec): 2.000000E-2
Scans to average: 10
Electric dark correction enabled: true
Nonlinearity correction enabled: false
Boxcar width: 0
XAxis mode: Wavelengths
Number of Pixels in Spectrum: 2048
>>>>>Begin Spectral Data<<<<<
341.393	-7.88
341.776	-7.88
342.16	-7.88
342.543	-59.86
342.927	-79.07
343.31	-74.09
343.693	-82.23
344.077	-44.72
344.46	-66.18
344.843	-60.31
345.226	-48.78
345.61	-36.13
345.993	-18.95
346.376	-0.88
346.759	6.36
347.142	35.73
347.525	54.49
347.908	62.85
348.291	83.42
348.674	80.03
349.057	109.4
349.44	118.67
349.823	123.64
350.206	166.13
350.588	186.01
350.971	221.04
351.354	219.23
351.737	229.17
352.119	239.8
352.502	245.9
352.884	276.86
353.267	283.18
353.65	305.56
354.032	314.37
354.414	294.94
354.797	294.71
355.179	303.75
355.562	311.88
355.944	338.78
356.326	340.81
356.709	320.25
357.091	318.89
357.473	344.43
357.855	320.92
358.238	324.31
358.62	347.82
359.002	335.84
359.384	347.36
359.766	327.03
360.148	329.29
360.53	358.21
360.912	339
361.294	328.83
361.676	335.84
362.057	341.71
362.439	323.18
362.821	310.08
363.203	320.47
363.584	312.56
363.966	318.89
364.348	316.18
364.729	317.76
365.111	326.57
365.493	317.76
365.874	312.79
366.256	325.67
366.637	320.02
367.019	339.68
367.4	315.05
367.781	310.08
368.163	325.44
368.544	320.7
368.925	313.69
369.306	312.11
369.688	316.4
370.069	313.01
370.45	296.97
370.831	290.42
371.212	300.13
371.593	327.7
371.974	327.48
372.355	301.26
372.736	305.33
373.117	328.38
373.498	316.4
373.879	313.92
374.26	321.38
374.641	320.92
375.021	293.81
375.402	311.66
375.783	319.34
376.163	333.13
376.544	331.09
376.925	312.11
377.305	330.42
377.686	341.94
378.066	324.77
378.447	313.47
378.827	341.49
379.208	326.57
379.588	344.2
379.968	343.97
380.349	343.97
380.729	326.57
381.109	330.19
381.489	346.23
381.87	334.26
382.25	328.61
382.63	349.17
383.01	354.82
383.39	336.06
383.77	352.34
384.15	344.2
384.53	339.45
384.91	345.33
385.29	372.9
385.67	332.67
386.049	341.26
386.429	376.06
386.809	360.47
387.189	339
387.568	355.73
387.948	347.59
388.328	342.39
388.707	363.63
389.087	378.32
389.466	357.76
389.846	380.58
390.225	372
390.605	369.51
390.984	374.03
391.363	377.19
391.743	359.11
392.122	376.97
392.501	382.62
392.881	365.89
393.26	365.44
393.639	371.77
394.018	358.44
394.397	396.85
394.776	394.59
395.155	386.68
395.534	375.16
395.913	376.97
396.292	400.24
396.671	382.17
397.05	392.11
397.429	398.21
397.808	399.11
398.186	390.3
398.565	390.98
398.944	392.79
399.323	421.03
399.701	419.23
400.08	411.77
400.458	393.46
400.837	413.58
401.215	399.57
401.594	410.64
401.972	422.62
402.351	419.23
402.729	435.05
403.107	406.12
403.486	421.94
403.864	429.4
404.242	420.36
404.62	430.75
404.999	430.53
405.377	459.45
405.755	444.08
406.133	440.02
406.511	443.41
406.889	482.73
407.267	493.12
407.645	486.8
408.023	491.99
408.401	480.92
408.779	490.41
409.156	504.2
409.534	502.61
409.912	503.52
410.29	532.9
410.667	520.01
411.045	532.9
411.422	541.71
411.8	548.26
412.178	542.61
412.555	568.83
412.933	555.27
413.31	565.66
413.687	573.8
414.065	587.36
414.442	582.16
414.819	605.89
415.197	625.77
415.574	636.17
415.951	627.81
416.328	672.33
416.705	659.45
417.082	660.35
417.46	670.75
417.837	661.25
418.214	669.84
418.591	673.23
418.967	658.77
419.344	700.57
419.721	722.04
420.098	710.29
420.475	738.77
420.852	727.69
421.228	738.31
421.605	746.68
421.982	734.92
422.358	777.86
422.735	783.51
423.111	774.25
423.488	790.06
423.864	806.11
424.241	807.46
424.617	794.13
424.994	826.45
425.37	864.64
425.746	845.43
426.123	854.24
426.499	849.72
426.875	875.71
427.251	885.65
427.627	882.26
428.003	914.35
428.379	909.83
428.756	920.91
429.132	930.4
429.507	934.24
429.883	948.93
430.259	974.47
430.635	963.39
431.011	956.61
431.387	994.8
431.763	1020.11
432.138	990.74
432.514	1029.83
432.89	1056.27
433.265	1066.21
433.641	1077.74
434.016	1063.73
434.392	1069.6
434.767	1136.27
435.143	1111.86
435.518	1129.72
435.894	1143.05
436.269	1183.05
436.644	1186.66
437.02	1182.14
437.395	1165.87
437.77	1198.19
438.145	1228.02
438.52	1187.57
438.895	1253.1
439.271	1228.02
439.646	1275.93
440.021	1269.37
440.395	1276.6
440.77	1248.13
441.145	1268.24
441.52	1303.04
441.895	1298.98
442.27	1308.24
442.645	1307.79
443.019	1296.04
443.394	1292.42
443.769	1344.63
444.143	1335.13
444.518	1339.43
444.892	1348.24
445.267	1334.91
445.641	1382.59
446.016	1350.73
446.39	1347.11
446.764	1374
447.139	1363.83
447.513	1383.95
447.887	1367.45
448.262	1378.52
448.636	1403.16
449.01	1406.32
449.384	1406.77
449.758	1410.39
450.132	1427.56
450.506	1432.98
450.88	1447.9
451.254	1445.19
451.628	1447.22
452.002	1429.37
452.376	1448.35
452.75	1473.44
453.123	1481.12
453.497	1470.5
453.871	1495.36
454.244	1537.39
454.618	1547.11
454.992	1536.71
455.365	1533.55
455.739	1566.31
456.112	1550.5
456.486	1583.49
456.859	1576.26
457.232	1570.61
457.606	1592.08
457.979	1619.42
458.352	1628.01
458.725	1627.1
459.099	1655.13
459.472	1677.27
459.845	1684.73
460.218	1688.12
460.591	1687.67
460.964	1704.84
461.337	1714.56
461.71	1739.19
462.083	1734.9
462.456	1733.54
462.829	1753.88
463.201	1798.17
463.574	1744.84
463.947	1799.08
464.32	1846.53
464.692	1841.56
465.065	1835.46
465.438	1849.7
465.81	1871.62
466.183	1879.07
466.555	1882.01
466.928	1911.16
467.3	1913.2
467.672	1908.68
468.045	1968.56
468.417	1980.54
468.789	1972.41
469.161	2000.2
469.534	1990.71
469.906	2046.53
470.278	2072.06
470.65	2068.22
471.022	2099.63
471.394	2115.68
471.766	2121.1
472.138	2149.58
472.51	2160.88
472.882	2197.48
473.253	2225.73
473.625	2207.88
473.997	2261.44
474.369	2284.94
474.74	2266.86
475.112	2306.63
475.484	2339.18
475.855	2377.37
476.227	2407.2
476.598	2453.3
476.97	2422.56
477.341	2466.86
477.713	2503.24
478.084	2510.24
478.455	2548.21
478.827	2560.64
479.198	2590.47
479.569	2614.42
479.94	2638.6
480.311	2666.4
480.682	2740.3
481.053	2739.84
481.424	2809.67
481.795	2792.27
482.166	2833.63
482.537	2834.3
482.908	2901.42
483.279	2923.34
483.65	2934.19
484.021	2971.02
484.391	2987.29
484.762	3000.4
485.133	3023.68
485.503	3058.93
485.874	3084.47
486.244	3116.78
486.615	3152.49
486.985	3151.13
487.356	3225.48
487.726	3214.18
488.097	3288.3
488.467	3256.44
488.837	3346.61
489.207	3341.41
489.578	3413.72
489.948	3403.33
490.318	3431.12
490.688	3433.84
491.058	3483.55
491.428	3502.99
491.798	3516.77
492.168	3595.41
492.538	3580.27
492.908	3643.55
493.278	3679.25
493.648	3667.05
494.017	3725.13
494.387	3732.36
494.757	3714.73
495.126	3706.82
495.496	3753.38
495.866	3789.53
496.235	3758.8
496.605	3825.24
496.974	3847.61
497.344	3843.77
497.713	3883.32
498.082	3892.58
498.452	3925.12
498.821	3968.96
499.19	3896.2
499.559	3957.89
499.928	3982.52
500.298	3945.91
500.667	4037.89
501.036	3992.01
501.405	4042.63
501.774	4012.13
502.143	4056.19
502.512	4042.18
502.88	4073.37
503.249	4120.37
503.618	4119.47
503.987	4140.71
504.356	4160.82
504.724	4186.13
505.093	4205.79
505.462	4209.18
505.83	4170.99
506.199	4243.76
506.567	4233.14
506.936	4263.19
507.304	4272.91
507.672	4296.19
508.041	4278.33
508.409	4346.13
508.777	4333.47
509.145	4366.92
509.514	4361.04
509.882	4338.45
510.25	4336.64
510.618	4406.24
510.986	4413.25
511.354	4398.1
511.722	4447.82
512.09	4508.84
512.458	4450.76
512.826	4528.5
513.193	4510.19
513.561	4490.31
513.929	4517.65
514.297	4551.77
514.664	4557.65
515.032	4569.4
515.4	4584.99
515.767	4566.01
516.135	4570.53
516.502	4589.29
516.869	4630.64
517.237	4623.18
517.604	4629.06
517.972	4640.81
518.339	4650.75
518.706	4668.83
519.073	4706.12
519.44	4719
519.808	4733.92
520.175	4755.38
520.542	4763.52
520.909	4777.98
521.276	4755.16
521.643	4778.89
522.009	4820.24
522.376	4834.25
522.743	4864.08
523.11	4930.29
523.477	4927.58
523.843	4934.81
524.21	5011.65
524.577	4954.7
524.943	4970.75
525.31	5031.99
525.676	5086.9
526.043	5093.91
526.409	5073.79
526.776	5109.05
527.142	5167.12
527.508	5198.99
527.874	5189.04
528.241	5241.92
528.607	5249.38
528.973	5233.11
529.339	5281.92
529.705	5280.34
530.071	5361.47
530.437	5363.96
530.803	5338.42
531.169	5403.95
531.535	5405.31
531.901	5443.27
532.267	5413.22
532.632	5468.36
532.998	5460
533.364	5549.26
533.73	5557.62
534.095	5559.43
534.461	5585.64
534.826	5640.56
535.192	5660.44
535.557	5626.55
535.923	5627
536.288	5690.95
536.653	5748.35
537.019	5696.38
537.384	5690.95
537.749	5751.52
538.114	5775.24
538.479	5793.55
538.845	5798.97
539.21	5878.74
539.575	5918.29
539.94	5884.62
540.305	5875.35
540.67	5920.1
541.034	5936.14
541.399	5979.53
541.764	5982.47
542.129	5972.75
542.494	6055.24
542.858	6050.72
543.223	6097.27
543.587	6132.52
543.952	6125.97
544.316	6197.15
544.681	6156.02
545.045	6192.63
545.41	6239.86
545.774	6284.61
546.138	6217.04
546.503	6297.72
546.867	6344.27
547.231	6368.67
547.595	6345.17
547.959	6450.71
548.324	6418.16
548.688	6386.3
549.052	6441.44
549.416	6467.43
549.779	6462.68
550.143	6492.96
550.507	6542.91
550.871	6595.56
551.235	6546.97
551.599	6631.27
551.962	6563.7
552.326	6655.67
552.689	6637.14
553.053	6650.47
553.417	6663.58
553.78	6767.08
554.143	6755.56
554.507	6721.66
554.87	6710.36
555.234	6856.57
555.597	6751.04
555.96	6791.49
556.323	6815.89
556.686	6854.09
557.05	6918.49
557.413	6854.99
557.776	6958.04
558.139	6996.45
558.502	6929.56
558.865	6955.78
559.228	7000.75
559.59	7027.41
559.953	7072.16
560.316	7124.13
560.679	7099.05
561.041	7100.86
561.404	7153.06
561.767	7197.35
562.129	7183.34
562.492	7268.31
562.854	7243.45
563.217	7324.36
563.579	7287.07
563.941	7342.89
564.304	7307.41
564.666	7385.14
565.028	7357.57
565.39	7418.82
565.753	7419.49
566.115	7437.8
566.477	7497.23
566.839	7511.24
567.201	7591.02
567.563	7564.35
567.925	7611.35
568.287	7584.01
568.648	7649.77
569.01	7647.06
569.372	7764.34
569.734	7711.24
570.095	7776.77
570.457	7850.67
570.819	7902.65
571.18	7847.51
571.542	7923.66
571.903	7900.39
572.265	8002.3
572.626	8013.83
572.987	8027.61
573.349	8119.81
573.71	8155.29
574.071	8249.98
574.432	8227.83
574.794	8300.37
575.155	8424.21
575.516	8385.57
575.877	8484.55
576.238	8507.6
576.599	8652.46
576.96	8661.95
577.32	8705.34
577.681	8815.16
578.042	8922.28
578.403	8987.36
578.763	9028.27
579.124	9167.02
579.485	9269.16
579.845	9464.64
580.206	9556.16
580.566	9654.24
580.927	9748.7
581.287	9874.12
581.648	10030.05
582.008	10229.82
582.368	10344.62
582.728	10539.86
583.089	10659.41
583.449	10785.73
583.809	10950.47
584.169	11225.27
584.529	11319.28
584.889	11629.33
585.249	11761.75
585.609	11931.92
585.969	12187.73
586.329	12356.77
586.688	12596.08
587.048	12804.89
587.408	13037.65
587.768	13207.59
588.127	13486.23
588.487	13645.77
588.846	14065.87
589.206	14276.04
589.565	14563.04
589.925	14850.94
590.284	15057.71
590.643	15371.83
591.003	15668.54
591.362	16088.19
591.721	16216.33
592.08	16515.3
592.44	16807.95
592.799	17075.74
593.158	17368.61
593.517	17767.92
593.876	18072.55
594.235	18273.22
594.593	18676.83
594.952	18962.47
595.311	19212.86
595.67	19549.34
596.029	19920.63
596.387	20155.2
596.746	20570.79
597.104	20711.57
597.463	21158.57
597.822	21448.96
598.18	21681.94
598.538	22000.58
598.897	22375.03
599.255	22461.36
599.613	23130.04
599.972	23186.09
600.33	23581.56
600.688	23751.04
601.046	24221.31
601.404	24514.64
601.762	24713.73
602.12	25073.04
602.478	25292.02
602.836	25531.11
603.194	25679.81
603.552	25915.05
603.91	26169.74
604.268	26524.98
604.625	26686.33
604.983	27093.55
605.341	27206.09
605.698	27762.46
606.056	27890.82
606.413	28069.35
606.771	28428.21
607.128	28617.35
607.485	28622.1
607.843	29035.42
608.2	29264.12
608.557	29538.69
608.914	29752.24
609.272	30159.46
609.629	30212.57
609.986	30533.69
610.343	30660.47
610.7	31109.94
611.057	31187.23
611.414	31333.22
611.771	31504.28
612.127	31897.04
612.484	31909.92
612.841	32185.4
613.198	32227.88
613.554	32410.02
613.911	32759.39
614.267	32857.92
614.624	33137.69
614.98	33194.41
615.337	33511.46
615.693	33597.56
616.05	33762.76
616.406	34091.34
616.762	34015.86
617.118	34258.11
617.475	34251.33
617.831	34583.07
618.187	34575.16
618.543	34842.73
618.899	35036.4
619.255	35065.55
619.611	35212.89
619.967	35451.53
620.323	35474.35
620.678	35512.77
621.034	35705.76
621.39	35701.01
621.746	35699.88
622.101	36241.34
622.457	36017.16
622.812	36291.73
623.168	36419.86
623.523	36465.28
623.879	36560.65
624.234	36529.24
624.589	36605.85
624.945	36790.02
625.3	36785.5
625.655	36977.14
626.01	36947.98
626.365	37128.77
626.72	37333.74
627.075	37154.76
627.43	37286.73
627.785	37261.65
628.14	37355.66
628.495	37569.89
628.85	37432.94
629.205	37330.8
629.559	37715.19
629.914	37557.01
630.269	37581.64
630.623	37576.22
630.978	37573.28
631.332	37705.03
631.687	37838.13
632.041	37790.67
632.396	37809.66
632.75	37714.06
633.104	37935.3
633.459	37661.18
633.813	37760.62
634.167	37822.54
634.521	37783.44
634.875	37959.48
635.229	37920.61
635.583	37708.64
635.937	37844.23
636.291	37738.47
636.645	37854.85
636.999	37832.71
637.352	38012.36
637.706	37886.26
638.06	37927.17
638.413	37811.24
638.767	37806.04
639.121	37928.07
639.474	37675.2
639.828	37753.61
640.181	37838.36
640.534	37728.53
640.888	37728.75
641.241	37633.16
641.594	37815.08
641.947	37799.49
642.301	37723.56
642.654	37731.01
643.007	37814.18
643.36	37761.97
643.713	37595.88
644.066	37891.91
644.419	37645.37
644.771	37488.99
645.124	37117.24
645.477	37051.03
645.83	36907.53
646.182	36836.57
646.535	36640.19
646.888	36818.5
647.24	36500.31
647.593	36945.5
647.945	36666.41
648.298	36566.3
648.65	36503.93
649.002	36457.37
649.355	36707.54
649.707	36582.34
650.059	36762.45
650.411	37204.02
650.763	37270.23
651.115	37561.53
651.467	37537.12
651.819	37438.14
652.171	37520.4
652.523	37294.19
652.875	37386.16
653.227	37215.32
653.578	37494.86
653.93	37355.88
654.282	37294.87
654.633	37190.01
654.985	37255.55
655.337	37296.45
655.688	37267.52
656.039	37500.96
656.391	37181.88
656.742	37251.7
657.094	37286.96
657.445	37280.18
657.796	37223.91
658.147	37163.12
658.498	37139.84
658.849	37265.49
659.2	37169.67
659.551	37156.79
659.902	37237.47
660.253	37188.43
660.604	37308.88
660.955	37073.86
661.306	37081.99
661.656	37255.09
662.007	37110.46
662.358	37185.72
662.708	37187.75
663.059	37103.46
663.409	36992.73
663.76	37229.78
664.11	37054.2
664.461	37108.66
664.811	37211.93
665.161	37117.92
665.511	36977.36
665.862	37123.57
666.212	37291.03
666.562	37273.17
666.912	37062.33
667.262	37057.36
667.612	37122.67
667.962	37225.94
668.312	37081.77
668.662	37203.12
669.011	37077.25
669.361	36999.73
669.711	37229.78
670.06	37054.2
670.41	37012.84
670.76	36915.89
671.109	37111.82
671.459	37087.87
671.808	36886.29
672.157	36985.04
672.507	36749.12
672.856	36879.96
673.205	36871.6
673.554	37017.59
673.904	36838.38
674.253	37001.77
674.602	36916.8
674.951	36338.96
675.3	36229.58
675.649	36850.58
675.998	36847.42
676.346	36767.88
676.695	36932.84
677.044	36555.68
677.393	36702.79
677.741	36742.11
678.09	36630.03
678.438	36631.16
678.787	36679.06
679.135	36541.89
679.484	36274.55
679.832	36548.45
680.181	36248.79
680.529	36351.16
680.877	36306.42
681.225	36251.73
681.573	36614.66
681.922	36254.89
682.27	36175.35
682.618	36228.68
682.966	36056.71
683.314	36058.06
683.661	35925.41
684.009	35861.23
684.357	35759.54
684.705	35870.5
685.053	35769.03
685.4	35803.38
685.748	35532.88
686.095	35625.98
686.443	35415.82
686.79	35251.08
687.138	35449.94
687.485	35444.52
687.832	35263.96
688.18	35416.72
688.527	35071.87
688.874	34947.58
689.221	35038.2
689.568	34967.7
689.915	34877.3
690.262	34858.77
690.609	34656.52
690.956	34646.57
691.303	34537.43
691.65	34423.76
691.997	34557.54
692.344	34149.86
692.69	34250.43
693.037	34246.36
693.383	33995.97
693.73	34271.44
694.077	33963.2
694.423	33897.22
694.769	33829.42
695.116	33844.34
695.462	33695.19
695.808	33558.24
696.155	33758.46
696.501	33406.61
696.847	33386.95
697.193	33219.72
697.539	33330.45
697.885	32994.41
698.231	32971.14
698.577	32919.16
698.923	32990.35
699.269	32737.25
699.614	32697.02
699.96	32636.68
700.306	32646.63
700.651	32490.25
700.997	32512.39
701.342	32293.64
701.688	32382.23
702.033	32140.43
702.379	32231.5
702.724	32101.33
703.069	32127.09
703.415	31732.98
703.76	31793.54
704.105	31730.95
704.45	31615.92
704.795	31483.04
705.14	31344.51
705.485	31403.72
705.83	31234.01
706.175	31300.45
706.52	31253.9
706.865	31161.02
707.209	30966.67
707.554	30945.88
707.899	31032.21
708.243	30843.29
708.588	30728.26
708.932	30624.76
709.277	30544.76
709.621	30603.52
709.966	30447.82
710.31	30426.57
710.654	30210.08
710.998	30236.07
711.342	30376.63
711.687	30113.36
712.031	29967.15
712.375	29970.31
712.719	30008.28
713.063	29897.32
713.407	29940.48
713.75	29849.41
714.094	29853.93
714.438	29731.9
714.782	29744.56
715.125	29485.58
715.469	29607.39
715.812	29465.02
716.156	29305.7
716.499	29408.75
716.843	29321.97
717.186	29178.47
717.53	29274.96
717.873	29311.12
718.216	29200.84
718.559	29084.69
718.902	28893.05
719.246	28907.74
719.589	28950.68
719.932	28726.5
720.275	28773.73
720.617	28842.43
720.96	28632.04
721.303	28640.41
721.646	28688.99
721.989	28389.56
722.331	28491.03
722.674	28524.02
723.016	28498.49
723.359	28414.42
723.701	28367.19
724.044	28221.43
724.386	28129.23
724.729	28213.3
725.071	28165.16
725.413	28239.29
725.755	28060.08
726.097	28021.89
726.439	27953.64
726.782	27863.93
727.124	28051.04
727.465	27872.52
727.807	27814.21
728.149	27724.27
728.491	27666.19
728.833	27874.55
729.175	27675.46
729.516	27535.35
729.858	27548
730.199	27662.58
730.541	27591.62
730.882	27530.83
731.224	27621.9
731.565	27318.18
731.906	27393.21
732.248	27471.17
732.589	27158.41
732.93	27207.22
733.271	27217.39
733.612	27249.03
733.953	27158.64
734.294	27107.11
734.635	27041.8
734.976	27152.99
735.317	26937.17
735.658	27042.48
735.999	26841.58
736.339	26884.97
736.68	26977.4
737.021	26877.74
737.361	26764.3
737.702	26887.68
738.042	26719.55
738.383	26729.72
738.723	26801.13
739.063	26633
739.404	26576.28
739.744	26513.46
740.084	26408.6
740.424	26476.39
740.764	26464.64
741.104	26551.87
741.444	26410.86
741.784	26335.16
742.124	26453.34
742.464	26349.39
742.804	26318.88
743.143	26271.65
743.483	26168.38
743.823	26073.69
744.162	26201.83
744.502	26042.28
744.841	25973.58
745.181	26177.19
745.52	26029.63
745.86	25938.56
746.199	25879.8
746.538	26001.38
746.877	26023.98
747.216	25911.89
747.556	25873.92
747.895	25889.97
748.234	25821.72
748.573	25739.01
748.911	25643.65
749.25	25819.69
749.589	25728.62
749.928	25657.66
750.267	25775.62
750.605	25584.44
750.944	25523.2
751.283	25527.27
751.621	25510.09
751.96	25394.16
752.298	25381.28
752.636	25382.64
752.975	25323.66
753.313	25264.22
753.651	25333.6
753.989	25265.58
754.327	25259.93
754.666	25016.32
755.004	25196.2
755.342	25129.09
755.679	25056.32
756.017	24985.36
756.355	25021.74
756.693	24842.99
757.031	25013.16
757.368	24746.04
757.706	24798.7
758.044	24660.17
758.381	24827.62
758.719	24592.15
759.056	24713.73
759.394	24623.34
759.731	24441.42
760.068	24565.26
760.405	24366.85
760.743	24374.53
761.08	24367.52
761.417	24301.54
761.754	24242.78
762.091	24362.33
762.428	24153.74
762.765	23946.29
763.102	24028.55
763.438	23972.05
763.775	23844.15
764.112	23801.44
764.449	23816.58
764.785	23795.11
765.122	23575
765.458	23438.96
765.795	23494.33
766.131	23384.27
766.467	23418.85
766.804	23286.2
767.14	23110.61
767.476	23228.12
767.812	23139.98
768.148	23038.07
768.485	22876.04
768.821	22801.46
769.157	22857.51
769.492	22725.98
769.828	22610.51
770.164	22552.2
770.5	22478.76
770.836	22521.02
771.171	22366.45
771.507	22321.02
771.842	22090.29
772.178	22179.11
772.513	22017.08
772.849	22028.15
773.184	21976.63
773.519	21881.49
773.855	21822.96
774.19	21725.33
774.525	21575.73
774.86	21614.83
775.195	21568.5
775.53	21447.83
775.865	21448.5
776.2	21286.25
776.535	21186.59
776.87	21263.2
777.205	21109.76
777.539	20987.72
777.874	20974.84
778.209	20778.69
778.543	20681.07
778.878	20564.46
779.212	20670.22
779.547	20441.3
779.881	20580.5
780.215	20486.95
780.55	20410.79
780.884	20376.44
781.218	20229.1
781.552	20172.61
781.886	20050.35
782.22	20030.46
782.554	19935.32
782.888	19816.91
783.222	19777.14
783.556	19758.83
783.889	19584.6
784.223	19472.96
784.557	19451.49
784.89	19462.12
785.224	19305.74
785.557	19231.39
785.891	19198.39
786.224	19185.06
786.558	19044.95
786.891	18958.4
787.224	18933.99
787.557	18763.6
787.891	18814.67
788.224	18756.37
788.557	18699.42
788.89	18729.03
789.223	18568.35
789.556	18449.49
789.888	18449.26
790.221	18406.1
790.554	18179.21
790.887	18203.62
791.219	18131.98
791.552	18097.63
791.884	18099.44
792.217	17978.76
792.549	17884.76
792.882	17792.55
793.214	17716.4
793.546	17831.42
793.879	17675.72
794.211	17497.87
794.543	17645.44
794.875	17418.55
795.207	17489.74
795.539	17407.48
795.871	17404.32
796.203	17289.29
796.535	17192.34
796.867	17162.97
797.198	17131.33
797.53	17178.33
797.862	16957.32
798.193	16927.27
798.525	16964.33
798.856	16937.21
799.188	16728.4
799.519	16725.01
799.85	16649.99
800.182	16547.39
800.513	16614.96
800.844	16456.09
801.175	16491.12
801.506	16454.51
801.837	16323.89
802.168	16363.44
802.499	16344.46
802.83	16106.05
803.161	16156.21
803.491	16172.94
803.822	16097.68
804.153	16033.5
804.483	15929.78
804.814	15928.2
805.145	15819.73
805.475	15900.85
805.805	15849.33
806.136	15790.57
806.466	15708.54
806.796	15746.73
807.126	15593.06
807.457	15505.38
807.787	15595.78
808.117	15444.59
808.447	15419.06
808.777	15482.11
809.107	15382.45
809.436	15339.06
809.766	15303.35
810.096	15296.8
810.426	15159.63
810.755	15220.64
811.085	15127.54
811.414	15166.41
811.744	14993.08
812.073	14996.7
812.403	14979.52
812.732	14874.21
813.061	14816.59
813.39	14828.79
813.719	14705.4
814.049	14884.16
814.378	14757.61
814.707	14723.03
815.036	14678.96
815.365	14607.78
815.693	14452.98
816.022	14538.18
816.351	14366.43
816.68	14361.68
817.008	14503.38
817.337	14276.49
817.665	14239.65
817.994	14307.45
818.322	14258.41
818.651	14159.66
818.979	14126.44
819.307	14248.02
819.636	14174.8
819.964	14079.66
820.292	14158.07
820.62	14119.21
820.948	13999.43
821.276	14060.9
821.604	13907.69
821.932	14001.02
822.259	13997.4
822.587	13964.18
822.915	13976.84
823.243	13970.51
823.57	14004.18
823.898	13926.89
824.225	13842.83
824.553	13911.53
824.88	13951.75
825.207	13955.14
825.535	13922.83
825.862	14000.56
826.189	13980.45
826.516	13945.42
826.843	14072.2
827.17	13945.65
827.497	14024.52
827.824	14044.4
828.151	13915.82
828.478	13940
828.805	14001.92
829.131	13822.26
829.458	13866.56
829.785	13848.25
830.111	13853.9
830.438	13947.91
830.764	13884.63
831.09	13895.48
831.417	13801.47
831.743	13893
832.069	13920.57
832.395	13761.7
832.722	13829.27
833.048	13838.31
833.374	13809.83
833.7	13724.87
834.026	13753.11
834.351	13770.51
834.677	13716.28
835.003	13730.97
835.329	13742.04
835.654	13757.41
835.98	13642.61
836.306	13602.83
836.631	13688.03
836.956	13659.33
837.282	13662.95
837.607	13564.87
837.932	13572.33
838.258	13582.04
838.583	13486.23
838.908	13523.97
839.233	13461.14
839.558	13486.23
839.883	13408.94
840.208	13307.25
840.533	13377.08
840.858	13390.41
841.182	13335.95
841.507	13336.63
841.832	13274.26
842.156	13339.79
842.481	13239.45
842.805	13189.74
843.13	13194.03
843.454	13135.05
843.778	13013.7
844.103	12991.33
844.427	13013.02
844.751	13031.32
845.075	12890.76
845.399	12873.81
845.723	12850.31
846.047	12826.81
846.371	12867.26
846.695	12768.05
847.019	12657.1
847.343	12621.39
847.666	12521.05
847.99	12452.58
848.313	12516.08
848.637	12380.49
848.96	12361.29
849.284	12344.34
849.607	12175.98
849.931	12178.24
850.254	12159.48
850.577	12126.26
850.9	12041.52
851.223	11963.78
851.546	11971.24
851.869	11891.69
852.192	11995.42
852.515	11884.46
852.838	11771.7
853.161	11729.66
853.483	11731.02
853.806	11676.11
854.129	11633.85
854.451	11523.79
854.774	11546.62
855.096	11551.14
855.419	11452.83
855.741	11531.93
856.063	11418.94
856.385	11339.84
856.708	11344.14
857.03	11281.99
857.352	11329.45
857.674	11284.25
857.996	11215.78
858.318	11190.69
858.64	11198.83
858.961	11084.71
859.283	11045.16
859.605	11074.54
859.926	11121.32
860.248	10938.95
860.57	10960.42
860.891	11019.17
861.212	10909.12
861.534	10811.72
861.855	10839.74
862.176	10855.34
862.498	10792.96
862.819	10753.87
863.14	10823.02
863.461	10776.69
863.782	10705.06
864.103	10740.08
864.424	10700.31
864.745	10684.72
865.065	10620.99
865.386	10600.43
865.707	10591.84
866.027	10569.69
866.348	10542.12
866.668	10590.48
866.989	10554.33
867.309	10447.21
867.63	10535.57
867.95	10509.13
868.27	10392.07
868.59	10421.45
868.91	10467.55
869.23	10438.62
869.55	10336.25
869.87	10439.98
870.19	10359.76
870.51	10392.52
870.83	10363.15
871.15	10244.96
871.469	10222.58
871.789	10222.13
872.109	10267.1
872.428	10264.17
872.748	10223.26
873.067	10229.59
873.386	10182.81
873.706	10173.77
874.025	10172.87
874.344	10046.32
874.663	10094
874.982	10160.67
875.301	10138.52
875.62	10074.57
875.939	10048.58
876.258	10046.32
876.577	9997.28
876.896	9972.2
877.214	9952.99
877.533	10046.09
877.852	9984.85
878.17	9932.87
878.489	9969.48
878.807	9929.26
879.125	9846.1
879.444	9870.96
879.762	9869.37
880.08	9808.58
880.398	9771.97
880.716	9780.34
881.034	9782.14
881.352	9709.15
881.67	9744.63
881.988	9702.82
882.306	9661.24
882.624	9616.05
882.941	9593.45
883.259	9676.16
883.577	9534.69
883.894	9555.03
884.212	9552.09
884.529	9541.02
884.846	9486.78
885.164	9427.8
885.481	9461.25
885.798	9423.51
886.115	9398.2
886.432	9383.74
886.75	9319.33
887.067	9352.55
887.383	9338.09
887.7	9360.23
888.017	9326.56
888.334	9328.14
888.651	9264.42
888.967	9234.81
889.284	9137.42
889.6	9146.68
889.917	9141.48
890.233	9110.3
890.55	9061.48
890.866	9105.33
891.182	9003.41
891.498	9012.67
891.815	8997.76
892.131	8955.72
892.447	8947.36
892.763	8918.66
893.079	8840.25
893.395	8827.59
893.71	8842.06
894.026	8806.58
894.342	8769.52
894.657	8696.52
894.973	8740.36
895.289	8682.29
895.604	8695.39
895.92	8593.25
896.235	8614.04
896.55	8550.09
896.865	8553.25
897.181	8525.91
897.496	8493.59
897.811	8498.79
898.126	8438
898.441	8401.62
898.756	8384.89
899.071	8353.03
899.386	8301.05
899.7	8259.7
900.015	8287.95
900.33	8188.74
900.644	8178.57
900.959	8212.02
901.273	8123.88
901.588	8075.75
901.902	8100.83
902.216	8028.74
902.531	7974.28
902.845	7981.06
903.159	7916.66
903.473	7920.05
903.787	7898.8
904.101	7849.77
904.415	7857.45
904.729	7826.49
905.042	7795.3
905.356	7757.79
905.67	7691.13
905.984	7747.17
906.297	7714.85
906.611	7609.77
906.924	7672.59
907.237	7625.82
907.551	7532.26
907.864	7527.06
908.177	7518.7
908.491	7510.11
908.804	7483.67
909.117	7413.84
909.43	7337.01
909.743	7318.25
910.056	7351.25
910.368	7277.13
910.681	7302.44
910.994	7245.04
911.307	7228.99
911.619	7160.52
911.932	7200.52
912.244	7121.42
912.557	7123.23
912.869	7036.91
913.181	6982.9
913.494	6991.93
913.806	6945.83
914.118	6921.88
914.43	6906.74
914.742	6888.89
915.054	6834.2
915.366	6831.94
915.678	6777.7
915.99	6822.9
916.302	6714.88
916.613	6694.99
916.925	6717.37
917.236	6684.82
917.548	6662
917.859	6620.87
918.171	6621.1
918.482	6512.4
918.794	6517.15
919.105	6513.76
919.416	6497.26
919.727	6420.65
920.038	6427.2
920.349	6378.39
920.66	6373.87
920.971	6382.69
921.282	6318.73
921.593	6295.91
921.903	6277.38
922.214	6227.89
922.525	6192.86
922.835	6163.03
923.146	6125.06
923.456	6143.6
923.767	6130.71
924.077	6100.88
924.387	6013.43
924.697	5944.05
925.008	5988.12
925.318	5921.23
925.628	5938.63
925.938	5947.22
926.248	5889.36
926.558	5853.66
926.867	5836.94
927.177	5848.91
927.487	5783.6
927.796	5708.13
928.106	5725.98
928.416	5703.61
928.725	5675.81
929.034	5632.87
929.344	5638.75
929.653	5642.37
929.962	5620.45
930.271	5579.99
930.581	5547.68
930.89	5532.31
931.199	5463.39
931.508	5529.37
931.817	5490.73
932.125	5434.46
932.434	5436.27
932.743	5394.91
933.051	5327.12
933.36	5306.56
933.669	5290.74
933.977	5293.67
934.286	5294.8
934.594	5212.09
934.902	5190.85
935.21	5214.81
935.519	5202.83
935.827	5176.39
936.135	5133.23
936.443	5065.21
936.751	5098.88
937.059	5076.05
937.367	5080.8
937.674	5052.55
937.982	5029.05
938.29	4989.5
938.597	4984.3
938.905	4911.54
939.213	4901.14
939.52	4931.88
939.827	4924.42
940.135	4849.17
940.442	4853.01
940.749	4822.95
941.056	4825.66
941.363	4780.02
941.67	4763.97
941.977	4669.28
942.284	4679.91
942.591	4668.83
942.898	4664.54
943.205	4658.21
943.511	4616.18
943.818	4622.51
944.125	4589.51
944.431	4599.91
944.738	4588.38
945.044	4557.65
945.35	4496.18
945.657	4456.41
945.963	4442.17
946.269	4431.55
946.575	4410.53
946.881	4408.95
947.187	4405.56
947.493	4330.08
947.799	4325.79
948.105	4334.6
948.41	4276.3
948.716	4314.49
949.022	4265.9
949.327	4287.6
949.633	4266.36
949.938	4203.31
950.244	4257.77
950.549	4211.89
950.854	4132.35
951.16	4143.65
951.465	4075.63
951.77	4070.66
952.075	4081.5
952.38	4071.33
952.685	4056.19
952.99	4019.81
953.294	3996.99
953.599	4036.76
953.904	4000.6
954.209	3960.15
954.513	3923.99
954.818	3926.7
955.122	3951.56
955.426	3880.6
955.731	3933.03
956.035	3854.39
956.339	3853.71
956.643	3852.36
956.948	3839.93
957.252	3807.61
957.556	3815.97
957.86	3786.82
958.163	3778.69
958.467	3763.32
958.771	3747.5
959.075	3706.37
959.378	3685.36
959.682	3711.34
959.985	3714.51
960.289	3633.83
960.592	3600.16
960.896	3627.28
961.199	3612.36
961.502	3574.4
961.805	3593.61
962.108	3589.09
962.411	3556.09
962.714	3505.02
963.017	3518.35
963.32	3555.41
963.623	3500.95
963.926	3477.9
964.228	3447.85
964.531	3441.52
964.833	3444.46
965.136	3416.66
965.438	3418.7
965.741	3377.11
966.043	3340.28
966.345	3332.37
966.648	3318.36
966.95	3294.86
967.252	3317
967.554	3312.94
967.856	3275.2
968.158	3250.56
968.46	3235.42
968.761	3213.28
969.063	3220.06
969.365	3211.7
969.666	3196.1
969.968	3178.02
970.269	3154.75
970.571	3152.71
970.872	3125.82
971.174	3125.14
971.475	3091.92
971.776	3113.17
972.077	3078.59
972.378	3072.04
972.679	3084.24
972.98	3063.45
973.281	3014.19
973.582	3006.28
973.883	3011.47
974.183	2981.19
974.484	2983.23
974.785	2996.56
975.085	2974.64
975.386	2921.53
975.686	2910.46
975.986	2893.74
976.287	2888.09
976.587	2892.16
976.887	2895.32
977.187	2874.53
977.487	2886.51
977.787	2834.98
978.087	2786.17
978.387	2798.6
978.687	2784.59
978.987	2779.62
979.286	2743.91
979.586	2742.33
979.885	2745.72
980.185	2720.63
980.484	2721.31
980.784	2668.88
981.083	2695.55
981.382	2671.14
981.682	2670.47
981.981	2635.67
982.28	2640.18
982.579	2647.19
982.878	2622.33
983.177	2584.59
983.475	2579.62
983.774	2595.21
984.073	2560.19
984.372	2547.53
984.67	2556.57
984.969	2562.45
985.267	2519.96
985.566	2513.63
985.864	2493.52
986.162	2497.36
986.461	2456.46
986.759	2460.75
987.057	2456.23
987.355	2415.78
987.653	2438.16
987.951	2418.95
988.249	2389.8
988.547	2416.46
988.844	2383.47
989.142	2342.79
989.44	2356.35
989.737	2353.86
990.035	2352.73
990.332	2352.96
990.63	2335.79
990.927	2323.13
991.224	2324.71
991.521	2278.84
991.819	2304.15
992.116	2275.67
992.413	2266.86
992.71	2291.95
993.006	2240.65
993.303	2250.14
993.6	2240.87
993.897	2229.12
994.193	2215.56
994.49	2214.43
994.787	2195
995.083	2165.4
995.379	2163.36
995.676	2111.61
995.972	2136.02
996.268	2156.13
996.565	2119.29
996.861	2120.88
997.157	2082.23
997.453	2085.62
997.749	2084.72
998.044	2054.66
998.34	2046.53
998.636	2041.33
998.932	2061.22
999.227	2023.93
999.523	2022.35
999.818	2025.29
1000.114	1995.91
1000.409	1983.03
1000.704	1942.35
1001	1964.5
1001.295	1965.4
1001.59	1949.36
1001.885	1889.24
1002.18	1920.2
1002.475	1908.23
1002.77	1915.91
1003.065	1851.73
1003.359	1886.76
1003.654	1900.77
1003.949	1874.56
1004.243	1837.27
1004.538	1803.37
1004.832	1817.16
1005.127	1806.53
1005.421	1820.77
1005.715	1809.7
1006.009	1771.73
1006.304	1806.31
1006.598	1789.81
1006.892	1768.57
1007.186	1790.49
1007.48	1734.45
1007.773	1740.1
1008.067	1736.25
1008.361	1695.12
1008.655	1703.94
1008.948	1694
1009.242	1712.53
1009.535	1691.51
1009.829	1691.06
1010.122	1633.21
1010.415	1616.48
1010.708	1654.45
1011.001	1602.92
1011.295	1604.51
1011.588	1603.15
1011.881	1579.87
1012.173	1596.6
1012.466	1605.86
1012.759	1576.03
1013.052	1552.98
1013.344	1578.74
1013.637	1557.05
1013.93	1564.96
1014.222	1542.59
1014.514	1523.6
1014.807	1543.94
1015.099	1504.17
1015.391	1488.58
1015.683	1466.43
1015.976	1513.43
1016.268	1456.94
1016.56	1452.87
1016.851	1446.77
1017.143	1451.29
1017.435	1425.08
1017.727	1406.77
1018.018	1414.91
1018.31	1416.04
1018.602	1375.59
1018.893	1392.08
1019.185	1358.41
1019.476	1344.85
1019.767	1344.63
1020.058	1354.57
1020.35	1352.08
1020.641	1345.98
1020.932	1339.65
1021.223	1324.06
1021.514	1333.78
1021.804	1309.15
1022.095	1278.86
1022.386	1272.54
1022.677	1296.27
1022.967	1273.67
1023.258	1256.72
1023.548	1268.47
1023.839	1233.67
1024.129	1235.93
1024.419	1251.75
1024.709	1214.46
1025	1227.57
1025.29	1219.21
1025.58	1188.02
1025.87	1183.27
1026.16	1185.99
1026.449	1181.69
1026.739	1167.91
1027.029	1176.49
1027.319	1150.28
1027.608	1157.51
1027.898	1154.8
1028.187	1117.51
1028.477	1110.96
1028.766	1147.79
1029.055	1114.35
1029.344	1111.64
1029.634	1119.09
1029.923	1070.96
1030.212	1088.59
1030.501	1088.36
1030.79	1050.85
1031.078	1061.92
1031.367	1023.96
1031.656	1032.32
1031.945	1043.39
1032.233	1036.39
1032.522	1014.92
1032.81	1032.32
1033.099	1021.47
1033.387	1016.95
1033.675	989.61
1033.963	975.37
1034.251	1006.1
1034.54	976.5
1034.828	987.57
1035.116	985.09
1035.403	949.16
1035.691	942.15
1035.979	956.16
1036.267	949.16
1036.554	944.18
1036.842	945.99
1037.129	907.35
1037.417	932.89
1037.704	907.8
1037.992	891.76
1038.279	908.48
1038.566	901.47
1038.853	901.47
1039.14	901.47
