Data from hue_32_FLMS001491_00046.txt Node
Date: Tue Feb 07 17:23:26 GMT 2017
User: dcchb
Spectrometer: FLMS00149
Trigger mode: 0
Integration Time (sec): 2.000000E-2
Scans to average: 10
Electric dark correction enabled: true
Nonlinearity correction enabled: false
Boxcar width: 0
XAxis mode: Wavelengths
Number of Pixels in Spectrum: 2048
>>>>>Begin Spectral Data<<<<<
341.393	-8.6
341.776	-8.6
342.16	-8.6
342.543	-53.12
342.927	-48.83
343.31	-73.01
343.693	-73.46
344.077	-64.87
344.46	-51.31
344.843	-37.3
345.226	-40.47
345.61	-35.72
345.993	-25.1
346.376	-0.92
346.759	-1.14
347.142	30.04
347.525	39.08
347.908	67.1
348.291	89.48
348.674	71.85
349.057	105.75
349.44	140.1
349.823	138.74
350.206	148.91
350.588	202.69
350.971	222.8
351.354	255.12
351.737	239.53
352.119	249.24
352.502	261.22
352.884	297.15
353.267	287.66
353.65	303.03
354.032	311.84
354.414	314.78
354.797	324.05
355.179	351.62
355.562	328.79
355.944	333.54
356.326	341.9
356.709	351.16
357.091	350.71
357.473	351.16
357.855	370.37
358.238	351.39
358.62	348
359.002	363.37
359.384	344.16
359.766	361.33
360.148	328.11
360.53	354.78
360.912	338.51
361.294	348
361.676	320.66
362.057	313.65
362.439	326.76
362.821	355.91
363.203	333.08
363.584	322.46
363.966	324.72
364.348	322.01
364.729	334.89
365.111	338.51
365.493	312.52
365.874	311.84
366.256	337.6
366.637	317.27
367.019	312.07
367.4	333.08
367.781	314.33
368.163	323.14
368.544	322.46
368.925	339.86
369.306	347.55
369.688	324.27
370.069	313.65
370.45	330.6
370.831	304.38
371.212	310.71
371.593	314.78
371.974	338.96
372.355	325.18
372.736	350.26
373.117	321.33
373.498	338.06
373.879	331.05
374.26	345.97
374.641	319.3
375.021	350.71
375.402	313.2
375.783	352.74
376.163	347.55
376.544	330.37
376.925	336.25
377.305	345.74
377.686	343.71
378.066	329.69
378.447	326.08
378.827	339.41
379.208	349.58
379.588	342.58
379.968	340.09
380.349	338.51
380.729	328.79
381.109	339.41
381.489	348.68
381.87	356.59
382.25	370.6
382.63	324.95
383.01	349.81
383.39	366.08
383.77	352.97
384.15	336.02
384.53	349.13
384.91	350.94
385.29	348.45
385.67	377.6
386.049	356.13
386.429	356.59
386.809	365.17
387.189	354.78
387.568	377.15
387.948	372.41
388.328	354.78
388.707	371.5
389.087	372.41
389.466	380.99
389.846	380.99
390.225	377.83
390.605	379.41
390.984	378.73
391.363	359.07
391.743	377.15
392.122	381.22
392.501	382.8
392.881	389.58
393.26	389.13
393.639	378.73
394.018	385.74
394.397	381.44
394.776	376.7
395.155	386.87
395.534	384.83
395.913	396.81
396.292	402.91
396.671	386.19
397.05	391.39
397.429	404.27
397.808	433.65
398.186	388
398.565	402.01
398.944	402.24
399.323	407.88
399.701	419.86
400.08	418.73
400.458	418.51
400.837	415.79
401.215	412.18
401.594	416.7
401.972	416.47
402.351	405.4
402.729	420.09
403.107	442.46
403.486	422.57
403.864	427.55
404.242	405.4
404.62	440.65
404.999	411.95
405.377	436.81
405.755	428.22
406.133	432.29
406.511	441.1
406.889	420.99
407.267	451.95
407.645	440.43
408.023	451.05
408.401	463.25
408.779	454.66
409.156	466.64
409.534	470.93
409.912	463.48
410.29	475
410.667	465.74
411.045	485.85
411.422	483.14
411.8	463.48
412.178	485.85
412.555	474.32
412.933	499.18
413.31	475
413.687	489.46
414.065	505.28
414.442	490.59
414.819	519.29
415.197	508.22
415.574	504.83
415.951	495.34
416.328	522.91
416.705	515.45
417.082	518.84
417.46	512.51
417.837	528.11
418.214	547.77
418.591	524.27
418.967	520.65
419.344	542.34
419.721	559.75
420.098	545.28
420.475	514.1
420.852	542.8
421.228	553.42
421.605	556.58
421.982	548.22
422.358	564.49
422.735	573.53
423.111	572.4
423.488	569.46
423.864	583.93
424.241	583.7
424.617	585.73
424.994	569.46
425.37	590.03
425.746	587.77
426.123	573.3
426.499	580.08
426.875	592.29
427.251	619.18
427.627	622.12
428.003	631.38
428.379	606.52
428.756	634.09
429.132	636.81
429.507	650.59
429.883	649.69
430.259	665.05
430.635	632.74
431.011	642.23
431.387	683.36
431.763	684.94
432.138	649.23
432.514	661.89
432.89	685.39
433.265	714.77
433.641	699.4
434.016	711.83
434.392	686.52
434.767	715.67
435.143	714.32
435.518	715.9
435.894	718.84
436.269	747.99
436.644	743.7
437.02	767.88
437.395	762.68
437.77	763.81
438.145	768.33
438.52	767.42
438.895	774.2
439.271	782.34
439.646	782.34
440.021	786.41
440.395	788.21
440.77	780.53
441.145	782.56
441.52	804.26
441.895	793.41
442.27	803.13
442.645	821.21
443.019	825.05
443.394	836.12
443.769	813.75
444.143	822.34
444.518	807.2
444.892	864.6
445.267	843.81
445.641	856.01
446.016	839.74
446.39	853.07
446.764	881.32
447.139	869.34
447.513	872.05
447.887	895.1
448.262	896.01
448.636	880.19
449.01	882
449.384	905.72
449.758	905.27
450.132	914.31
450.506	944.59
450.88	889
451.254	920.41
451.628	935.78
452.002	925.16
452.376	952.5
452.75	941.2
453.123	961.77
453.497	965.38
453.871	977.81
454.244	999.51
454.618	986.17
454.992	1009.9
455.365	1011.48
455.739	1023.46
456.112	1017.36
456.486	1061.43
456.859	1047.42
457.232	1061.43
457.606	1063.91
457.979	1081.99
458.352	1097.36
458.725	1094.87
459.099	1132.84
459.472	1109.56
459.845	1150.69
460.218	1172.61
460.591	1168.54
460.964	1154.98
461.337	1199.28
461.71	1218.48
462.083	1206.06
462.456	1234.3
462.829	1196.11
463.201	1248.54
463.574	1260.07
463.947	1277.24
464.32	1313.85
464.692	1325.6
465.065	1327.18
465.438	1319.27
465.81	1345.04
466.183	1358.14
466.555	1396.56
466.928	1410.12
467.3	1396.56
467.672	1444.24
468.045	1492.83
468.417	1493.96
468.789	1499.16
469.161	1499.61
469.534	1538.7
469.906	1557.46
470.278	1601.98
470.65	1586.84
471.022	1631.58
471.394	1653.05
471.766	1679.26
472.138	1725.14
472.51	1736.89
472.882	1786.38
473.253	1806.49
473.625	1858.24
473.997	1874.51
474.369	1911.8
474.74	1928.75
475.112	1967.62
475.484	2000.16
475.855	2081.74
476.227	2086.48
476.598	2145.01
476.97	2152.7
477.341	2229.76
477.713	2261.85
478.084	2300.72
478.455	2376.87
478.827	2430.66
479.198	2451.67
479.569	2500.49
479.94	2568.05
480.311	2639.24
480.682	2709.97
481.053	2802.4
481.424	2865.67
481.795	2874.94
482.166	2965.11
482.537	3017.53
482.908	3130.07
483.279	3187.92
483.65	3251.43
484.021	3343.17
484.391	3422.04
484.762	3480.12
485.133	3530.97
485.503	3597.86
485.874	3704.75
486.244	3747.68
486.615	3831.3
486.985	3925.76
487.356	4043.95
487.726	4085.3
488.097	4197.16
488.467	4277.16
488.837	4401.68
489.207	4462.24
489.578	4598.06
489.948	4620.2
490.318	4808.22
490.688	4717.83
491.058	4919.18
491.428	5017.93
491.798	5099.96
492.168	5208.44
492.538	5254.31
492.908	5340.64
493.278	5457.47
493.648	5496.56
494.017	5625.37
494.387	5700.63
494.757	5742.21
495.126	5860.85
495.496	5907.18
495.866	5976.55
496.235	6119.15
496.605	6147.85
496.974	6245.92
497.344	6313.04
497.713	6358.91
498.082	6488.4
498.452	6586.03
498.821	6580.38
499.19	6649.3
499.559	6729.98
499.928	6809.3
500.298	6879.58
500.667	7005.68
501.036	7005.45
501.405	7100.59
501.774	7176.97
502.143	7237.54
502.512	7299.91
502.88	7396.4
503.249	7420.13
503.618	7419.68
503.987	7568.6
504.356	7614.25
504.724	7685.21
505.093	7734.25
505.462	7757.3
505.83	7809.72
506.199	7956.84
506.567	8044.29
506.936	8027.12
507.304	8109.38
507.672	8160.68
508.041	8298.98
508.409	8302.59
508.777	8348.47
509.145	8435.7
509.514	8410.39
509.882	8582.59
510.25	8555.69
510.618	8675.24
510.986	8624.84
511.354	8665.75
511.722	8860.09
512.09	8907.1
512.458	8862.13
512.826	9046.98
513.193	9026.64
513.561	9062.35
513.929	9107.09
514.297	9193.87
514.664	9285.39
515.032	9271.83
515.4	9328.55
515.767	9459.62
516.135	9460.98
516.502	9448.33
516.869	9580.3
517.237	9590.24
517.604	9498.04
517.972	9689
518.339	9793.17
518.706	9801.99
519.073	9820.74
519.44	9907.52
519.808	10003.56
520.175	10011.93
520.542	10031.81
520.909	10130.34
521.276	10090.12
521.643	10184.35
522.009	10266.61
522.376	10348.87
522.743	10412.82
523.11	10448.52
523.477	10562.65
523.843	10567.39
524.21	10674.51
524.577	10709.53
524.943	10786.82
525.31	10802.19
525.676	10971.67
526.043	11007.15
526.409	11060.26
526.776	11188.84
527.142	11141.39
527.508	11263.64
527.874	11342.29
528.241	11370.31
528.607	11429.52
528.973	11525.56
529.339	11520.36
529.705	11632.22
530.071	11708.6
530.437	11775.04
530.803	11832.44
531.169	11883.97
531.535	11890.52
531.901	11909.96
532.267	12004.87
532.632	12138.65
532.998	12224.3
533.364	12232.88
533.73	12273.79
534.095	12337.74
534.461	12342.94
534.826	12434.01
535.192	12523.72
535.557	12605.08
535.923	12554.68
536.288	12603.04
536.653	12733.44
537.019	12659.54
537.384	12783.6
537.749	12809.14
538.114	12855.02
538.479	12886.88
538.845	12995.12
539.21	12951.74
539.575	13065.41
539.94	13084.39
540.305	13132.75
540.67	13168.68
541.034	13272.86
541.399	13247.55
541.764	13342.23
542.129	13429.01
542.494	13404.38
542.858	13455.9
543.223	13538.61
543.587	13622.45
543.952	13600.31
544.316	13641.66
544.681	13650.47
545.045	13731.38
545.41	13846.4
545.774	13910.13
546.138	13977.92
546.503	13975.66
546.867	13972.95
547.231	14080.29
547.595	14078.03
547.959	14216.11
548.324	14293.4
548.688	14308.76
549.052	14336.11
549.416	14392.15
549.779	14469.89
550.143	14386.95
550.507	14599.15
550.871	14545.59
551.235	14533.39
551.599	14779.71
551.962	14721.41
552.326	14765.47
552.689	14840.5
553.053	14715.31
553.417	14834.62
553.78	15058.12
554.143	15016.54
554.507	15058.8
554.87	15076.88
555.234	15195.52
555.597	15219.47
555.96	15223.31
556.323	15305.35
556.686	15291.79
557.05	15426.47
557.413	15491.1
557.776	15537.66
558.139	15530.42
558.502	15549.18
558.865	15607.71
559.228	15806.35
559.59	15814.71
559.953	15824.43
560.316	15901.49
560.679	16022.62
561.041	16027.59
561.404	16222.61
561.767	16192.55
562.129	16159.56
562.492	16348.26
562.854	16341.25
563.217	16303.51
563.579	16351.65
563.941	16495.15
564.304	16564.75
564.666	16484.3
565.028	16704.63
565.39	16718.42
565.753	16815.14
566.115	16874.8
566.477	16858.75
566.839	16921.8
567.201	17037.28
567.563	17053.1
567.925	17143.49
568.287	17191.4
568.648	17244.5
569.01	17312.53
569.372	17555.23
569.734	17385.52
570.095	17675.68
570.457	17652.18
570.819	17734.89
571.18	17787.99
571.542	17935.33
571.903	17946.18
572.265	18026.86
572.626	18055.1
572.987	18128.77
573.349	18250.58
573.71	18311.59
574.071	18375.55
574.432	18452.83
574.794	18639.27
575.155	18627.29
575.516	18667.29
575.877	18796.33
576.238	18947.06
576.599	19062.99
576.96	19167.62
577.32	19245.81
577.681	19459.59
578.042	19421.4
578.403	19623.42
578.763	19779.13
579.124	19820.03
579.485	20041.04
579.845	20140.47
580.206	20313.58
580.566	20450.3
580.927	20667.24
581.287	20892.32
581.648	21027.23
582.008	21235.81
582.368	21381.57
582.728	21662.47
583.089	21802.58
583.449	21949.69
583.809	22183.36
584.169	22412.5
584.529	22520.98
584.889	22848.65
585.249	22960.06
585.609	23107.17
585.969	23433.49
586.329	23663.54
586.688	23886.14
587.048	24081.84
587.408	24306.47
587.768	24493.35
588.127	24818.09
588.487	24996.39
588.846	25375.59
589.206	25398.19
589.565	25682.47
589.925	26108
590.284	26279.07
590.643	26556.58
591.003	26917.47
591.362	27219.38
591.721	27263.45
592.08	27590.67
592.44	27919.03
592.799	28154.05
593.158	28341.84
593.517	28621.83
593.876	28908.38
594.235	29099.79
594.593	29465.43
594.952	29690.96
595.311	29910.61
595.67	30204.39
596.029	30602.35
596.387	30849.34
596.746	31190.8
597.104	31310.8
597.463	31495.88
597.822	32044.79
598.18	32134.51
598.538	32230.78
598.897	32697.66
599.255	32732.68
599.613	33447.92
599.972	33469.39
600.33	33631.42
600.688	33761.36
601.046	33996.15
601.404	34393.43
601.762	34491.06
602.12	34919.97
602.478	35074.32
602.836	35329.68
603.194	35337.59
603.552	35556.34
603.91	35684.47
604.268	36104.57
604.625	36167.17
604.983	36476.77
605.341	36498.01
605.698	36789.98
606.056	37075.17
606.413	37210.53
606.771	37377.99
607.128	37691.2
607.485	37591.09
607.843	37746.34
608.2	38210.51
608.557	38328.92
608.914	38498.86
609.272	38796.93
609.629	38891.17
609.986	39183.36
610.343	39051.61
610.7	39462.9
611.057	39610.92
611.414	39663.12
611.771	39770.01
612.127	40105.82
612.484	40134.07
612.841	40620.61
613.198	40418.36
613.554	40550.11
613.911	40851.12
614.267	41007.72
614.624	40934.73
614.98	41186.93
615.337	41469.86
615.693	41444.55
616.05	41426.02
616.406	41821.71
616.762	41859.45
617.118	41998.43
617.475	41857.19
617.831	42116.39
618.187	42374.46
618.543	42447.01
618.899	42633.22
619.255	42727.22
619.611	42676.38
619.967	42953.21
620.323	43087.44
620.678	42986.65
621.034	42929.48
621.39	43143.26
621.746	43203.6
622.101	43538.5
622.457	43377.15
622.812	43632.96
623.168	43626.41
623.523	43638.84
623.879	43855.78
624.234	43630.93
624.589	43944.82
624.945	43908.44
625.3	44018.72
625.655	44004.25
626.01	44195.21
626.365	44135.55
626.72	44111.82
627.075	44196.34
627.43	44226.17
627.785	44143.68
628.14	44225.94
628.495	44335.54
628.85	44271.36
629.205	44143.91
629.559	44503
629.914	44309.78
630.269	44371.25
630.623	44392.26
630.978	44217.58
631.332	44523.33
631.687	44733.5
632.041	44462.77
632.396	44600.62
632.75	44491.02
633.104	44526.05
633.459	44295.77
633.813	44439.95
634.167	44356.79
634.521	44403.11
634.875	44573.28
635.229	44500.96
635.583	44263.23
635.937	44241.99
636.291	44357.01
636.645	44319.72
636.999	44204.02
637.352	44369.89
637.706	44126.06
638.06	44452.38
638.413	44288.76
638.767	44218.71
639.121	44384.36
639.474	44046.96
639.828	44138.03
640.181	44208.31
640.534	44124.48
640.888	44219.16
641.241	44006.06
641.594	44059.62
641.947	44178.71
642.301	43913.41
642.654	44028.88
643.007	44061.88
643.36	44129
643.713	44056.91
644.066	44264.13
644.419	43898.27
644.771	43599.07
645.124	43362.01
645.477	43272.07
645.83	43031.62
646.182	42864.4
646.535	42800.44
646.888	42812.42
647.24	42682.93
647.593	42806.09
647.945	42835.92
648.298	42575.59
648.65	42562.93
649.002	42351.41
649.355	42575.14
649.707	42594.57
650.059	42791.86
650.411	43197.27
650.763	43194.33
651.115	43780.3
651.467	43489.69
651.819	43506.64
652.171	43440.2
652.523	43369.02
652.875	43290.82
653.227	43119.3
653.578	43569.91
653.93	43240.2
654.282	43272.52
654.633	43327.43
654.985	43386.87
655.337	43359.75
655.688	43270.03
656.039	43440.65
656.391	43099.19
656.742	43235.23
657.094	43198.62
657.445	43350.94
657.796	43188
658.147	43120.66
658.498	43212.63
658.849	43123.15
659.2	43025.97
659.551	43087.89
659.902	43141
660.253	42933.77
660.604	43112.52
660.955	42858.75
661.306	43026.65
661.656	42937.84
662.007	42899.87
662.358	42898.74
662.708	43004.96
663.059	42992.53
663.409	42715.47
663.76	43123.6
664.11	42914.11
664.461	43093.77
664.811	42972.42
665.161	42970.83
665.511	42797.96
665.862	43018.97
666.212	42923.38
666.562	43041.11
666.912	42805.64
667.262	42979.42
667.612	42929.03
667.962	42966.31
668.312	42863.04
668.662	42895.58
669.011	42761.35
669.361	42817.84
669.711	42783.72
670.06	42695.59
670.41	42644.74
670.76	42602.48
671.109	42902.36
671.459	42711.63
671.808	42732.42
672.157	42672.54
672.507	42374.01
672.856	42517.29
673.205	42544.86
673.554	42764.29
673.904	42525.65
674.253	42700.56
674.602	42691.07
674.951	42035.72
675.3	41962.05
675.649	42471.64
675.998	42356.39
676.346	42512.99
676.695	42543.95
677.044	42305.99
677.393	42378.98
677.741	42409.27
678.09	42393.67
678.438	42255.37
678.787	42262.83
679.135	42365.2
679.484	41990.29
679.832	42122.72
680.181	42117.52
680.529	42007.69
680.877	42121.36
681.225	41878.21
681.573	42035.04
681.922	41814.03
682.27	41690.87
682.618	41767.25
682.966	41641.6
683.314	41735.39
683.661	41580.36
684.009	41365.45
684.357	41395.28
684.705	41490.42
685.053	41398.67
685.4	41241.61
685.748	41144.89
686.095	41264.44
686.443	41048.17
686.79	40828.52
687.138	40934.05
687.485	41027.38
687.832	40843.43
688.18	40794.85
688.527	40706.03
688.874	40672.81
689.221	40509.2
689.568	40447.51
689.915	40296.78
690.262	40332.94
690.609	40171.58
690.956	40192.83
691.303	40123.68
691.65	39914.64
691.997	39865.15
692.344	39796.23
692.69	39665.38
693.037	39690.92
693.383	39314.66
693.73	39501.55
694.077	39262.91
694.423	39152.63
694.769	39168
695.116	39029.69
695.462	39078.96
695.808	39046.42
696.155	39023.37
696.501	38651.17
696.847	38562.36
697.193	38380.22
697.539	38487.34
697.885	38315.14
698.231	38200.56
698.577	38172.32
698.923	38048.48
699.269	38057.29
699.614	37732.55
699.96	37758.99
700.306	37890.97
700.651	37544.76
700.997	37551.54
701.342	37481.94
701.688	37490.75
702.033	37194.49
702.379	37154.04
702.724	37160.82
703.069	37306.8
703.415	36793.82
703.76	36908.62
704.105	36819.81
704.45	36712.01
704.795	36491.46
705.14	36482.64
705.485	36482.87
705.83	36434.28
706.175	36353.61
706.52	36123.1
706.865	36161.07
707.209	35963.56
707.554	35895.99
707.899	35890.79
708.243	35684.92
708.588	35736.67
708.932	35507.98
709.277	35581.88
709.621	35455.1
709.966	35322.45
710.31	35319.06
710.654	34975.34
710.998	35177.59
711.342	35107.09
711.687	35014.21
712.031	34827.77
712.375	34667.77
712.719	34861.22
713.063	34790.71
713.407	34828.9
713.75	34591.62
714.094	34484.28
714.438	34526.54
714.782	34526.31
715.125	34336.26
715.469	34421
715.812	34208.8
716.156	34049.71
716.499	34135.36
716.843	34087.9
717.186	33918.42
717.53	34081.8
717.873	34035.7
718.216	33855.82
718.559	33692.21
718.902	33606.56
719.246	33556.39
719.589	33470.07
719.932	33494.47
720.275	33347.81
720.617	33307.81
720.96	33355.94
721.303	33242.05
721.646	33225.55
721.989	33005.45
722.331	33209.96
722.674	33006.12
723.016	33031.43
723.359	32938.33
723.701	33060.13
724.044	32792.12
724.386	32718.67
724.729	32825.79
725.071	32711.89
725.413	32646.81
725.755	32542.41
726.097	32442.75
726.439	32407.27
726.782	32286.14
727.124	32543.76
727.465	32394.84
727.807	32170.89
728.149	32249.31
728.491	32158.69
728.833	32213.15
729.175	32045.02
729.516	31995.98
729.858	31892.25
730.199	31924.57
730.541	31820.17
730.882	31811.35
731.224	31906.49
731.565	31675.54
731.906	31665.37
732.248	31750.56
732.589	31419.72
732.93	31464.24
733.271	31480.51
733.612	31621.3
733.953	31519.84
734.294	31394.19
734.635	31456.79
734.976	31303.12
735.317	31188.09
735.658	31134.99
735.999	31246.62
736.339	31128.66
736.68	31305.15
737.021	31033.52
737.361	30869
737.702	31040.07
738.042	30888.44
738.383	30875.33
738.723	31015.44
739.063	30802.11
739.404	30878.04
739.744	30738.84
740.084	30808.89
740.424	30665.62
740.764	30567.32
741.104	30797.14
741.444	30358.28
741.784	30440.09
742.124	30503.36
742.464	30423.59
742.804	30410.71
743.143	30212.75
743.483	30328
743.823	30208.91
744.162	30163.71
744.502	30175.92
744.841	29959.42
745.181	30161.45
745.52	30030.16
745.86	29987.22
746.199	29974.79
746.538	29917.62
746.877	29981.8
747.216	30035.58
747.556	29901.8
747.895	29871.97
748.234	29733.44
748.573	29547.01
748.911	29676.72
749.25	29756.04
749.589	29494.13
749.928	29417.52
750.267	29389.27
750.605	29427.69
750.944	29478.98
751.283	29243.96
751.621	29344.75
751.96	29064.08
752.298	29133.46
752.636	29126.23
752.975	29099.33
753.313	28961.48
753.651	29018.21
753.989	28983.4
754.327	28800.81
754.666	28624.77
755.004	28884.88
755.342	28745.67
755.679	28749.96
756.017	28541.83
756.355	28635.39
756.693	28408.5
757.031	28559.91
757.368	28350.88
757.706	28386.13
758.044	28235.4
758.381	28202.41
758.719	28084.22
759.056	28124.9
759.394	27972.81
759.731	27862.3
760.068	27871.34
760.405	27650.56
760.743	27668.86
761.08	27721.97
761.417	27544.12
761.754	27437
762.091	27552.26
762.428	27313.39
762.765	27128.99
763.102	27276.78
763.438	27128.09
763.775	27000.18
764.112	27103.91
764.449	26974.42
764.785	26856.23
765.122	26748.66
765.458	26545.95
765.795	26618.04
766.131	26583.47
766.467	26383.47
766.804	26217.38
767.14	26213.31
767.476	26157.26
767.812	26150.94
768.148	26169.02
768.485	25947.78
768.821	25830.27
769.157	25724.28
769.492	25597.96
769.828	25601.12
770.164	25473.21
770.5	25455.14
770.836	25435.02
771.171	25296.72
771.507	25238.19
771.842	24990.29
772.178	25044.3
772.513	24972.21
772.849	24891.31
773.184	24872.78
773.519	24721.6
773.855	24602.73
774.19	24507.36
774.525	24519.34
774.86	24420.13
775.195	24385.11
775.53	24268.5
775.865	23952.35
776.2	23954.61
776.535	23869.87
776.87	23905.57
777.205	23628.07
777.539	23635.07
777.874	23717.55
778.209	23405.02
778.543	23525.69
778.878	23316.21
779.212	23230.34
779.547	23120.73
779.881	23042.09
780.215	23012.49
780.55	23022.21
780.884	22897.46
781.218	22714.42
781.552	22855.43
781.886	22569.79
782.22	22545.16
782.554	22466.74
782.888	22193.07
783.222	22302.45
783.556	22181.55
783.889	22104.49
784.223	22009.8
784.557	21903.59
784.89	21851.61
785.224	21821.56
785.557	21752.63
785.891	21658.85
786.224	21610.49
786.558	21509.48
786.891	21276.49
787.224	21273.1
787.557	21196.04
787.891	21216.83
788.224	21151.29
788.557	21141.58
788.89	21037.85
789.223	21064.97
789.556	20845.99
789.888	20814.58
790.221	20756.5
790.554	20484.64
790.887	20570.52
791.219	20465.66
791.552	20393.12
791.884	20257.76
792.217	20299.57
792.549	20212.79
792.882	20041.72
793.214	19990.87
793.546	20019.57
793.879	19832.01
794.211	19667.94
794.543	19760.82
794.875	19665.46
795.207	19750.2
795.539	19583.65
795.871	19551.11
796.203	19405.8
796.535	19252.59
796.867	19280.16
797.198	19209.65
797.53	19222.98
797.862	19086.49
798.193	19156.32
798.525	18909.77
798.856	19015.53
799.188	18881.07
799.519	18768.76
799.85	18648.31
800.182	18672.72
800.513	18685.82
800.844	18611.02
801.175	18596.33
801.506	18603.34
801.837	18449.22
802.168	18380.97
802.499	18370.35
802.83	18218.04
803.161	18223.91
803.491	18126.29
803.822	18197.02
804.153	18162.22
804.483	17963.13
804.814	17942.56
805.145	17911.38
805.475	17852.85
805.805	17712.74
806.136	17773.76
806.466	17792.29
806.796	17741.21
807.126	17519.07
807.457	17468.68
807.787	17511.39
808.117	17508.68
808.447	17368.34
808.777	17373.99
809.107	17375.12
809.436	17293.54
809.766	17191.4
810.096	17188.69
810.426	17109.14
810.755	17121.12
811.085	16999.76
811.414	16975.36
811.744	16824.63
812.073	16918.19
812.403	16846.77
812.732	16703.05
813.061	16741.69
813.39	16619.66
813.719	16620.79
814.049	16800.67
814.378	16612.88
814.707	16513.22
815.036	16508.48
815.365	16341.93
815.693	16243.85
816.022	16345.09
816.351	16232.33
816.68	16167.7
817.008	16202.72
817.337	16050.64
817.665	16085.21
817.994	16137.87
818.322	16093.8
818.651	16035.5
818.979	15968.61
819.307	16003.63
819.636	15958.44
819.964	15839.34
820.292	15865.33
820.62	15850.87
820.948	15771.55
821.276	15766.35
821.604	15789.18
821.932	15780.14
822.259	15838.21
822.587	15769.06
822.915	15715.96
823.243	15739.69
823.57	15786.24
823.898	15774.49
824.225	15629.63
824.553	15587.15
824.88	15709.4
825.207	15728.84
825.535	15632.57
825.862	15739.01
826.189	15621.72
826.516	15675.96
826.843	15661.49
827.17	15723.64
827.497	15760.25
827.824	15697.88
828.151	15756.63
828.478	15650.42
828.805	15744.66
829.131	15570.42
829.458	15581.27
829.785	15662.4
830.111	15565.45
830.438	15683.42
830.764	15635.05
831.09	15697.65
831.417	15542.18
831.743	15670.08
832.069	15582.18
832.395	15539.92
832.722	15647.94
833.048	15470.31
833.374	15499.92
833.7	15402.29
834.026	15473.48
834.351	15598.67
834.677	15439.13
835.003	15443.65
835.329	15528.84
835.654	15434.38
835.98	15368.17
836.306	15405.91
836.631	15301.05
836.956	15362.52
837.282	15317.78
837.607	15296.98
837.932	15188.74
838.258	15182.41
838.583	15220.38
838.908	15143.09
839.233	15135.41
839.558	15160.04
839.883	15117.1
840.208	14991.68
840.533	15061.28
840.858	14964.56
841.182	14962.53
841.507	14913.49
841.832	14857
842.156	14868.07
842.481	14844.79
842.805	14857.45
843.13	14741.52
843.454	14774.06
843.778	14739.71
844.103	14741.75
844.427	14614.97
844.751	14725.25
845.075	14606.16
845.399	14576.33
845.723	14443.45
846.047	14523.67
846.371	14308.08
846.695	14320.06
847.019	14305.6
847.343	14202.78
847.666	14089.56
847.99	14165.94
848.313	14106.73
848.637	13937.47
848.96	14027.41
849.284	13844.82
849.607	13808.66
849.931	13749
850.254	13651.83
850.577	13573.41
850.9	13531.38
851.223	13522.34
851.546	13472.4
851.869	13357.15
852.192	13362.57
852.515	13342.91
852.838	13238.06
853.161	13242.12
853.483	13104.27
853.806	13145.63
854.129	13090.72
854.451	13008.68
854.774	13066.53
855.096	12988.8
855.419	12923.49
855.741	12924.39
856.063	12723.27
856.385	12834.45
856.708	12807.11
857.03	12688.24
857.352	12708.58
857.674	12605.3
857.996	12650.95
858.318	12511.3
858.64	12598.52
858.961	12539.77
859.283	12455.25
859.605	12370.73
859.926	12464.29
860.248	12421.35
860.57	12349.27
860.891	12312.43
861.212	12282.83
861.534	12193.56
861.855	12267.46
862.176	12157.41
862.498	12208.48
862.819	12203.51
863.14	12053.91
863.461	12097.97
863.782	11988.82
864.103	12051.19
864.424	11919.22
864.745	12016.85
865.065	11961.25
865.386	11908.37
865.707	11868.37
866.027	11830.41
866.348	11842.61
866.668	11838.09
866.989	11846.68
867.309	11694.37
867.63	11758.77
867.95	11736.4
868.27	11733.01
868.59	11764.65
868.91	11741.6
869.23	11648.95
869.55	11602.17
869.87	11668.38
870.19	11667.7
870.51	11686.91
870.83	11727.36
871.15	11575.5
871.469	11559
871.789	11580.02
872.109	11492.34
872.428	11513.13
872.748	11430.19
873.067	11485.79
873.386	11447.37
873.706	11371.21
874.025	11364.43
874.344	11328.28
874.663	11427.48
874.982	11336.41
875.301	11312.23
875.62	11294.83
875.939	11271.1
876.258	11269.97
876.577	11279.69
876.896	11239.69
877.214	11179.8
877.533	11150.43
877.852	11104.78
878.17	11144.78
878.489	11162.4
878.807	11139.81
879.125	11112.24
879.444	11139.13
879.762	11030.2
880.08	11047.38
880.398	10965.57
880.716	10985.46
881.034	10933.94
881.352	10979.13
881.67	10896.42
881.988	10896.2
882.306	10886.93
882.624	10876.54
882.941	10825.01
883.259	10819.59
883.577	10791.57
883.894	10782.53
884.212	10713.38
884.529	10667.95
884.846	10679.03
885.164	10635.64
885.481	10641.51
885.798	10614.4
886.115	10519.26
886.432	10531.69
886.75	10538.01
887.067	10517.68
887.383	10437.45
887.7	10444.23
888.017	10422.99
888.334	10493.95
888.651	10466.38
888.967	10348.64
889.284	10304.57
889.6	10307.29
889.917	10232.94
890.233	10212.37
890.55	10200.62
890.866	10147.29
891.182	10197.91
891.498	10157.01
891.815	10074.98
892.131	10099.83
892.447	10050.8
892.763	10027.97
893.079	10010.57
893.395	9928.99
893.71	9830.01
894.026	9829.33
894.342	9887.64
894.657	9766.51
894.973	9777.36
895.289	9761.76
895.604	9810.58
895.92	9736.23
896.235	9664.14
896.55	9626.17
896.865	9607.64
897.181	9543.01
897.496	9561.09
897.811	9465.05
898.126	9460.75
898.441	9463.24
898.756	9443.58
899.071	9355.9
899.386	9372.17
899.7	9271.38
900.015	9250.36
900.33	9202
900.644	9187.77
900.959	9174.21
901.273	9129.24
901.588	9082.68
901.902	9072.52
902.216	9022.57
902.531	8959.75
902.845	8961.78
903.159	8887.21
903.473	8922.01
903.787	8825.06
904.101	8820.32
904.415	8852.41
904.729	8826.87
905.042	8710.04
905.356	8719.76
905.67	8665.52
905.984	8606.99
906.297	8637.95
906.611	8551.4
906.924	8583.71
907.237	8519.99
907.551	8535.13
907.864	8518.18
908.177	8442.48
908.491	8403.83
908.804	8333.1
909.117	8336.26
909.43	8314.57
909.743	8273.89
910.056	8272.31
910.368	8188.25
910.681	8110.96
910.994	8137.4
911.307	8127.91
911.619	8042.49
911.932	8061.02
912.244	8001.58
912.557	7966.1
912.869	7884.3
913.181	7885.65
913.494	7835.71
913.806	7812.66
914.118	7735.6
914.43	7762.72
914.742	7771.76
915.054	7706
915.366	7647.69
915.678	7652.67
915.99	7578.32
916.302	7502.16
916.613	7486.57
916.925	7454.71
917.236	7499
917.548	7443.41
917.859	7400.02
918.171	7359.34
918.482	7406.8
918.794	7342.39
919.105	7301.94
919.416	7256.52
919.727	7266.46
920.038	7177.65
920.349	7181.27
920.66	7116.63
920.971	7132.23
921.282	7075.05
921.593	7009.07
921.903	7023.98
922.214	6944.44
922.525	6928.17
922.835	6958
923.146	6870.09
923.456	6897.88
923.767	6878.45
924.077	6818.56
924.387	6787.15
924.697	6740.37
925.008	6711.45
925.318	6694.73
925.628	6673.71
925.938	6611.11
926.248	6628.06
926.558	6566.82
926.867	6597.1
927.177	6537.22
927.487	6487.05
927.796	6469.42
928.106	6419.48
928.416	6364.79
928.725	6368.18
929.034	6386.03
929.344	6329.54
929.653	6257.67
929.962	6263.78
930.271	6278.01
930.581	6212.93
930.89	6163.67
931.199	6165.93
931.508	6167.06
931.817	6073.72
932.125	6098.36
932.434	6093.84
932.743	5971.58
933.051	6006.61
933.36	5983.11
933.669	6010.9
933.977	5928.19
934.286	5870.57
934.594	5941.07
934.902	5863.79
935.21	5800.96
935.519	5775.43
935.827	5842.32
936.135	5774.07
936.443	5732.72
936.751	5647.3
937.059	5692.27
937.367	5647.97
937.674	5654.98
937.982	5666.05
938.29	5569.56
938.597	5617.24
938.905	5545.6
939.213	5543.12
939.52	5503.34
939.827	5460.41
940.135	5410.24
940.442	5467.19
940.749	5382.44
941.056	5412.05
941.363	5361.65
941.67	5310.13
941.977	5313.07
942.284	5238.72
942.591	5277.14
942.898	5224.26
943.205	5222.45
943.511	5142.45
943.818	5194.2
944.125	5132.05
944.431	5156.23
944.738	5120.53
945.044	5144.26
945.35	5058.84
945.657	5020.42
945.963	5035.79
946.269	4919.86
946.575	4985.62
946.881	4901.33
947.187	4952.85
947.493	4915.56
947.799	4883.25
948.105	4859.52
948.41	4823.14
948.716	4834.44
949.022	4815.45
949.327	4795.57
949.633	4719.86
949.938	4728.22
950.244	4725.51
950.549	4660.65
950.854	4683.48
951.16	4662.46
951.465	4599.41
951.77	4634.67
952.075	4576.14
952.38	4586.08
952.685	4562.35
952.99	4515.12
953.294	4535.23
953.599	4448.23
953.904	4443.48
954.209	4439.87
954.513	4462.02
954.818	4413.43
955.122	4417.95
955.426	4380.66
955.731	4332.08
956.035	4325.97
956.339	4312.64
956.643	4314.67
956.948	4308.8
957.252	4245.52
957.556	4220.21
957.86	4233.55
958.163	4222.7
958.467	4192.64
958.771	4184.51
959.075	4210.04
959.378	4148.35
959.682	4143.38
959.985	4124.17
960.289	4067.22
960.592	4109.71
960.896	4058.86
961.199	4050.05
961.502	4027.45
961.805	3972.76
962.108	3968.47
962.411	3951.29
962.714	3920.33
963.017	3977.28
963.32	3985.42
963.623	3906.55
963.926	3913.56
964.228	3912.88
964.531	3853.44
964.833	3880.56
965.136	3828.81
965.438	3818.19
965.741	3790.85
966.043	3738.87
966.345	3728.93
966.648	3736.61
966.95	3746.33
967.252	3707.91
967.554	3661.81
967.856	3651.64
968.158	3632.66
968.46	3634.24
968.761	3636.05
969.063	3592.66
969.365	3564.86
969.666	3557.41
969.968	3570.51
970.269	3542.94
970.571	3478.54
970.872	3535.71
971.174	3474.7
971.475	3515.15
971.776	3496.17
972.077	3435.15
972.378	3469.27
972.679	3402.16
972.98	3406
973.281	3419.78
973.582	3430.86
973.883	3387.47
974.183	3358.54
974.484	3350.41
974.785	3342.27
975.085	3298.66
975.386	3302.95
975.686	3283.52
975.986	3244.65
976.287	3241.26
976.587	3228.15
976.887	3206.68
977.187	3239.67
977.487	3196.06
977.787	3177.08
978.087	3159.45
978.387	3156.97
978.687	3103.63
978.987	3128.49
979.286	3102.05
979.586	3102.28
979.885	3045.33
980.185	3062.05
980.484	3074.03
980.784	3024.09
981.083	3027.48
981.382	3006.23
981.682	2965.78
981.981	2984.99
982.28	2956.52
982.579	2921.49
982.878	2947.7
983.177	2938.21
983.475	2896.86
983.774	2893.47
984.073	2888.27
984.372	2841.95
984.67	2855.5
984.969	2861.83
985.267	2883.98
985.566	2834.26
985.864	2774.6
986.162	2783.42
986.461	2754.04
986.759	2782.29
987.057	2769.18
987.355	2782.96
987.653	2730.76
987.951	2697.54
988.249	2724.66
988.547	2677.2
988.844	2653.7
989.142	2683.98
989.44	2633.59
989.737	2663.42
990.035	2652.12
990.332	2642.85
990.63	2596.08
990.927	2610.54
991.224	2608.05
991.521	2534.61
991.819	2563.76
992.116	2528.51
992.413	2544.33
992.71	2531.9
993.006	2526.93
993.303	2521.28
993.6	2485.8
993.897	2463.42
994.193	2451.22
994.49	2460.94
994.787	2454.38
995.083	2423.88
995.379	2403.76
995.676	2382.07
995.972	2398.11
996.268	2373.71
996.565	2392.69
996.861	2377.32
997.157	2371.67
997.453	2339.59
997.749	2322.41
998.044	2320.15
998.34	2286.93
998.636	2287.16
998.932	2264.33
999.227	2281.96
999.523	2277.89
999.818	2248.29
1000.114	2219.36
1000.409	2238.57
1000.704	2212.58
1001	2213.49
1001.295	2204.9
1001.59	2201.96
1001.885	2185.24
1002.18	2154.73
1002.475	2155.18
1002.77	2121.96
1003.065	2116.99
1003.359	2128.52
1003.654	2124.68
1003.949	2078.12
1004.243	2069.54
1004.538	2043.1
1004.832	2052.36
1005.127	2035.41
1005.421	2045.58
1005.715	2050.33
1006.009	2012.14
1006.304	1998.58
1006.598	1993.15
1006.892	1942.76
1007.186	1969.88
1007.48	1988.86
1007.773	1936.66
1008.067	1942.53
1008.361	1899.14
1008.655	1910.22
1008.948	1900.5
1009.242	1861.41
1009.535	1865.7
1009.829	1855.53
1010.122	1860.5
1010.415	1873.16
1010.708	1846.27
1011.001	1844.01
1011.295	1826.6
1011.588	1795.64
1011.881	1777.11
1012.173	1784.8
1012.466	1754.06
1012.759	1766.04
1013.052	1735.53
1013.344	1734.63
1013.637	1736.44
1013.93	1729.66
1014.222	1703.44
1014.514	1684.46
1014.807	1692.6
1015.099	1700.73
1015.391	1710.9
1015.683	1674.97
1015.976	1634.75
1016.268	1651.47
1016.56	1616.44
1016.851	1610.79
1017.143	1619.38
1017.435	1605.37
1017.727	1605.14
1018.018	1576.67
1018.31	1550
1018.602	1570.57
1018.893	1553.17
1019.185	1560.62
1019.476	1548.19
1019.767	1531.02
1020.058	1510.45
1020.35	1494.41
1020.641	1497.57
1020.932	1466.84
1021.223	1445.6
1021.514	1484.01
1021.804	1435.43
1022.095	1476.78
1022.386	1429.33
1022.677	1407.41
1022.967	1411.93
1023.258	1386.84
1023.548	1410.34
1023.839	1380.74
1024.129	1384.81
1024.419	1353.62
1024.709	1363.11
1025	1335.54
1025.29	1344.81
1025.58	1336.9
1025.87	1323.79
1026.16	1309.1
1026.449	1298.26
1026.739	1303.68
1027.029	1310.91
1027.319	1298.48
1027.608	1311.82
1027.898	1276.56
1028.187	1280.86
1028.477	1231.37
1028.766	1239.95
1029.055	1202.44
1029.344	1232.04
1029.634	1234.53
1029.923	1213.97
1030.212	1226.85
1030.501	1168.77
1030.79	1188.66
1031.078	1170.8
1031.367	1176.68
1031.656	1144.36
1031.945	1148.2
1032.233	1178.03
1032.522	1144.59
1032.81	1126.28
1033.099	1116.79
1033.387	1131.48
1033.675	1102.78
1033.963	1088.09
1034.251	1105.72
1034.54	1099.84
1034.828	1060.52
1035.116	1061.88
1035.403	1050.35
1035.691	1064.36
1035.979	1059.62
1036.267	1042.22
1036.554	1040.86
1036.842	1041.77
1037.129	1033.86
1037.417	1035.66
1037.704	990.69
1037.992	996.34
1038.279	1024.82
1038.566	994.54
1038.853	994.54
1039.14	994.54
